!@!!GADDS PLOTSO FILE: Chi integration type
!@!!Title/SampleName: map-e5
!@!!Comment: ?
!@!!User: Bruker Instrument Administrator
!@!!Site: University of Illinois Chicago
!@!!Frame: map-e5_01_000.gfrm
!@!!Wavelengths    1.54184   1.54056   1.54439
!@!!Frame angles: 2Theta: 63.000 Omega: 50.000 Phi: 0.000 Chi: 90.000
!@!!Integration range: 2Theta: 53.000 to 73.000  Gamma: -105.000 to -75.000
!@!!Integration method: bin normalized
!@!N
!@!SS
!@!M
!@!L 0.0 0.0 0.0 0.0
!@!XDegrees
!@!YCounts
53.000 8.042195
53.005 8.418048
53.010 8.416321
53.015 8.253089
53.020 8.25673
53.025 7.973676
53.030 8.092118
53.035 7.699265
53.040 7.464285
53.045 7.44312
53.050 7.512645
53.055 8.186866
53.060 8.356894
53.065 8.458565
53.070 8.617182
53.075 8.54766
53.080 8.31685
53.085 7.408168
53.090 7.066669
53.095 6.99422
53.100 7.281084
53.105 7.131792
53.110 6.968524
53.115 7.115077
53.120 7.472511
53.125 7.067007
53.130 7.014816
53.135 7.261868
53.140 7.673637
53.145 8.165848
53.150 8.505066
53.155 8.711914
53.160 8.898787
53.165 8.791468
53.170 8.604843
53.175 8.692629
53.180 8.868587
53.185 8.885953
53.190 8.556462
53.195 8.461095
53.200 8.627087
53.205 8.50456
53.210 8.235119
53.215 8.080027
53.220 8.153825
53.225 8.292834
53.230 7.993971
53.235 7.753905
53.240 7.602741
53.245 7.512745
53.250 7.688403
53.255 7.246982
53.260 7.631226
53.265 7.971415
53.270 7.912824
53.275 8.009516
53.280 7.724364
53.285 7.582241
53.290 7.537588
53.295 7.185848
53.300 7.031935
53.305 7.070511
53.310 6.616418
53.315 6.673878
53.320 6.948739
53.325 7.116796
53.330 7.153788
53.335 7.227303
53.340 7.586738
53.345 7.909214
53.350 7.768558
53.355 7.939542
53.360 8.155982
53.365 8.302872
53.370 8.14407
53.375 7.948766
53.380 8.186185
53.385 8.220828
53.390 8.114854
53.395 7.807805
53.400 8.097088
53.405 8.480463
53.410 8.327868
53.415 7.722312
53.420 7.471693
53.425 7.500015
53.430 7.638628
53.435 7.621193
53.440 7.473551
53.445 7.630893
53.450 7.832139
53.455 8.103313
53.460 8.274928
53.465 7.867173
53.470 7.468133
53.475 7.254586
53.480 7.127367
53.485 7.370387
53.490 6.781197
53.495 6.689461
53.500 6.87306
53.505 7.08242
53.510 7.097257
53.515 6.833389
53.520 6.476061
53.525 6.625211
53.530 6.93384
53.535 6.996076
53.540 7.06343
53.545 7.651146
53.550 7.964385
53.555 8.363489
53.560 8.446816
53.565 8.649466
53.570 8.649078
53.575 8.198584
53.580 8.088037
53.585 8.133349
53.590 8.281514
53.595 8.041405
53.600 7.852859
53.605 7.892531
53.610 8.229735
53.615 8.026652
53.620 7.860533
53.625 7.78379
53.630 8.056323
53.635 8.073657
53.640 8.225277
53.645 8.206037
53.650 8.171466
53.655 8.120533
53.660 7.987072
53.665 7.779427
53.670 7.755928
53.675 8.015044
53.680 7.973394
53.685 8.248286
53.690 8.262382
53.695 8.739705
53.700 9.004201
53.705 9.085556
53.710 9.045612
53.715 9.121728
53.720 9.196957
53.725 9.213997
53.730 9.073485
53.735 9.636046
53.740 10.019668
53.745 10.191775
53.750 9.8571
53.755 9.914654
53.760 9.869017
53.765 9.485255
53.770 8.940285
53.775 8.715096
53.780 8.44264
53.785 8.672829
53.790 8.125078
53.795 8.287041
53.800 8.24733
53.805 8.060443
53.810 8.495088
53.815 8.630657
53.820 8.65699
53.825 9.095641
53.830 8.662583
53.835 8.465746
53.840 8.041075
53.845 7.636172
53.850 7.811576
53.855 8.406912
53.860 8.790235
53.865 9.185974
53.870 9.65051
53.875 9.911222
53.880 10.114948
53.885 9.947637
53.890 9.44325
53.895 9.033542
53.900 8.920075
53.905 8.909924
53.910 9.222847
53.915 9.106295
53.920 9.082154
53.925 9.270563
53.930 9.648311
53.935 9.839773
53.940 9.696405
53.945 9.442895
53.950 9.997953
53.955 10.271461
53.960 9.691495
53.965 9.301787
53.970 9.22381
53.975 9.452763
53.980 9.458363
53.985 9.117073
53.990 9.063942
53.995 9.060129
54.000 9.057962
54.005 8.90046
54.010 8.356542
54.015 8.25297
54.020 8.205445
54.025 8.429338
54.030 8.664634
54.035 8.358788
54.040 8.671222
54.045 8.974785
54.050 8.961139
54.055 8.642587
54.060 8.440588
54.065 8.374122
54.070 8.673101
54.075 8.859938
54.080 8.947222
54.085 8.896404
54.090 9.330474
54.095 9.35681
54.100 9.544398
54.105 9.563272
54.110 9.486748
54.115 9.800775
54.120 9.653672
54.125 9.319902
54.130 9.217124
54.135 9.303829
54.140 9.512958
54.145 9.416806
54.150 9.291607
54.155 9.513765
54.160 9.973788
54.165 9.923567
54.170 9.223859
54.175 8.85685
54.180 8.790208
54.185 8.758608
54.190 8.561711
54.195 8.140599
54.200 8.432583
54.205 9.094334
54.210 9.068655
54.215 8.655462
54.220 8.573562
54.225 8.94588
54.230 9.14887
54.235 9.218205
54.240 9.422932
54.245 9.673037
54.250 10.350064
54.255 10.424673
54.260 10.159688
54.265 10.163361
54.270 10.002323
54.275 9.477045
54.280 9.264787
54.285 8.876831
54.290 9.157747
54.295 9.460385
54.300 9.59736
54.305 9.425714
54.310 9.446868
54.315 9.881788
54.320 9.887237
54.325 9.864144
54.330 9.93405
54.335 10.25377
54.340 10.457964
54.345 10.556828
54.350 9.871984
54.355 9.984278
54.360 9.947192
54.365 9.680153
54.370 9.660825
54.375 10.024634
54.380 10.353355
54.385 10.426058
54.390 9.84191
54.395 10.177623
54.400 10.161732
54.405 9.52041
54.410 8.835816
54.415 9.049691
54.420 9.785208
54.425 10.053544
54.430 9.755548
54.435 9.828905
54.440 10.539849
54.445 10.143237
54.450 10.058459
54.455 10.002674
54.460 9.720353
54.465 10.144911
54.470 10.141245
54.475 10.076903
54.480 10.521274
54.485 10.155828
54.490 9.87245
54.495 9.746987
54.500 8.843453
54.505 8.345724
54.510 8.325639
54.515 8.274964
54.520 8.819212
54.525 8.926288
54.530 8.72755
54.535 9.112063
54.540 9.501551
54.545 9.74494
54.550 9.656818
54.555 9.656707
54.560 9.970377
54.565 10.24151
54.570 10.38803
54.575 10.053514
54.580 9.74766
54.585 9.328662
54.590 8.845798
54.595 8.676154
54.600 8.679641
54.605 8.550546
54.610 8.904963
54.615 8.92567
54.620 9.276025
54.625 9.538026
54.630 9.59377
54.635 9.432184
54.640 9.215187
54.645 9.467308
54.650 9.872726
54.655 9.815009
54.660 9.876313
54.665 9.934042
54.670 10.236391
54.675 10.74493
54.680 10.503726
54.685 9.857091
54.690 9.336039
54.695 8.991029
54.700 8.979281
54.705 9.185515
54.710 8.561099
54.715 8.562915
54.720 8.591805
54.725 8.953218
54.730 9.250146
54.735 9.099411
54.740 8.763112
54.745 8.95472
54.750 8.854621
54.755 9.090073
54.760 9.050204
54.765 8.959879
54.770 9.487814
54.775 9.591516
54.780 9.819364
54.785 10.273228
54.790 10.567251
54.795 10.706202
54.800 10.931046
54.805 10.75974
54.810 10.917859
54.815 10.771775
54.820 10.528522
54.825 10.43532
54.830 10.082026
54.835 9.850781
54.840 9.636039
54.845 10.036323
54.850 10.103177
54.855 9.918647
54.860 10.281106
54.865 10.866087
54.870 11.259173
54.875 11.504176
54.880 11.409747
54.885 11.534244
54.890 11.587931
54.895 11.559946
54.900 11.060739
54.905 10.43188
54.910 9.961128
54.915 9.632035
54.920 9.576542
54.925 9.331906
54.930 9.244345
54.935 9.319
54.940 9.573644
54.945 9.84555
54.950 9.969938
54.955 10.062381
54.960 10.720542
54.965 10.625316
54.970 10.803155
54.975 10.720888
54.980 10.137204
54.985 9.795359
54.990 9.818398
54.995 9.535642
55.000 9.49313
55.005 9.566483
55.010 9.727383
55.015 10.51396
55.020 10.860142
55.025 10.716461
55.030 11.002963
55.035 10.874365
55.040 10.750782
55.045 10.520092
55.050 10.710464
55.055 10.636702
55.060 10.849516
55.065 10.484364
55.070 10.797973
55.075 10.995831
55.080 11.135636
55.085 10.979789
55.090 11.304954
55.095 11.146387
55.100 10.96323
55.105 10.800892
55.110 10.776981
55.115 10.655146
55.120 10.426978
55.125 9.787497
55.130 9.854862
55.135 9.848503
55.140 9.785091
55.145 10.101784
55.150 9.93537
55.155 9.498733
55.160 9.58167
55.165 9.638445
55.170 10.144017
55.175 10.184366
55.180 9.929968
55.185 9.890051
55.190 10.189158
55.195 10.759117
55.200 10.934796
55.205 10.639821
55.210 10.694068
55.215 11.282573
55.220 12.019035
55.225 11.93483
55.230 11.130466
55.235 11.162405
55.240 11.413973
55.245 11.188711
55.250 10.708286
55.255 10.411295
55.260 10.776882
55.265 11.223882
55.270 11.054604
55.275 11.783954
55.280 11.605017
55.285 11.254567
55.290 10.780031
55.295 10.527608
55.300 10.278104
55.305 10.120111
55.310 9.616462
55.315 10.24357
55.320 10.477235
55.325 10.74349
55.330 10.898465
55.335 11.09191
55.340 10.705132
55.345 10.361182
55.350 10.266011
55.355 10.557903
55.360 10.941186
55.365 11.0614
55.370 10.773557
55.375 11.053553
55.380 11.265401
55.385 11.330691
55.390 10.9613
55.395 10.624109
55.400 10.815709
55.405 10.902652
55.410 10.521205
55.415 10.299943
55.420 10.5379
55.425 10.975635
55.430 11.340203
55.435 11.291405
55.440 11.538263
55.445 11.893877
55.450 11.64337
55.455 10.953278
55.460 10.383041
55.465 9.826545
55.470 9.695882
55.475 9.412691
55.480 9.461609
55.485 9.578159
55.490 9.865245
55.495 9.943149
55.500 10.022526
55.505 9.94549
55.510 10.046196
55.515 9.887451
55.520 10.022234
55.525 9.972987
55.530 9.926719
55.535 10.377405
55.540 10.266905
55.545 10.999124
55.550 11.276848
55.555 11.029183
55.560 10.872033
55.565 11.172805
55.570 10.683263
55.575 11.217052
55.580 10.820401
55.585 11.429923
55.590 12.247141
55.595 12.479308
55.600 12.753123
55.605 12.765597
55.610 12.522032
55.615 11.978862
55.620 11.543469
55.625 11.182499
55.630 11.211535
55.635 10.792682
55.640 10.745747
55.645 10.805592
55.650 11.245885
55.655 11.05168
55.660 10.473417
55.665 10.783145
55.670 10.922501
55.675 10.944634
55.680 10.266066
55.685 9.727367
55.690 9.87748
55.695 10.335521
55.700 10.109835
55.705 10.141044
55.710 10.236612
55.715 10.693174
55.720 10.888251
55.725 11.165764
55.730 10.823871
55.735 10.816495
55.740 10.652995
55.745 10.633977
55.750 10.221233
55.755 10.260681
55.760 10.179087
55.765 10.331148
55.770 10.709776
55.775 11.106736
55.780 11.415374
55.785 11.938866
55.790 11.565852
55.795 11.78307
55.800 11.784545
55.805 11.205154
55.810 10.990874
55.815 10.754208
55.820 10.877395
55.825 11.320203
55.830 11.349017
55.835 11.876307
55.840 12.573187
55.845 12.862536
55.850 12.615043
55.855 11.94616
55.860 11.500603
55.865 11.280467
55.870 11.047464
55.875 10.520513
55.880 10.747146
55.885 10.838139
55.890 10.925805
55.895 10.95962
55.900 10.958481
55.905 11.206396
55.910 11.779367
55.915 11.779337
55.920 12.156765
55.925 12.208431
55.930 12.382566
55.935 12.273531
55.940 11.413592
55.945 11.106046
55.950 11.078294
55.955 11.050929
55.960 11.460351
55.965 11.243692
55.970 11.046932
55.975 11.570645
55.980 11.305243
55.985 11.575082
55.990 11.400916
55.995 11.334074
56.000 11.816343
56.005 12.253799
56.010 12.230613
56.015 12.473819
56.020 12.412176
56.025 12.494397
56.030 12.456358
56.035 12.01668
56.040 11.607886
56.045 11.67314
56.050 11.552378
56.055 11.384213
56.060 11.064052
56.065 11.112307
56.070 11.436185
56.075 11.818764
56.080 11.433279
56.085 11.483819
56.090 11.472057
56.095 11.781059
56.100 11.950506
56.105 11.726914
56.110 11.457422
56.115 11.560254
56.120 11.651999
56.125 11.875024
56.130 11.995004
56.135 11.784344
56.140 11.731102
56.145 11.996302
56.150 11.982556
56.155 11.770888
56.160 11.740676
56.165 11.221009
56.170 11.174418
56.175 11.325407
56.180 11.49245
56.185 11.379986
56.190 10.885275
56.195 10.407495
56.200 10.612898
56.205 10.725904
56.210 10.397691
56.215 9.653107
56.220 9.433964
56.225 10.294155
56.230 11.318102
56.235 11.872552
56.240 11.778361
56.245 11.942473
56.250 12.556907
56.255 12.718364
56.260 12.051606
56.265 11.045827
56.270 10.677843
56.275 10.456898
56.280 10.539661
56.285 10.426344
56.290 10.432326
56.295 11.200079
56.300 11.621675
56.305 11.379982
56.310 11.661786
56.315 11.563056
56.320 11.378195
56.325 11.447107
56.330 11.371776
56.335 11.412375
56.340 11.655837
56.345 12.015176
56.350 12.703412
56.355 12.802807
56.360 12.901017
56.365 12.583302
56.370 12.693443
56.375 12.864506
56.380 12.740561
56.385 12.355871
56.390 11.939911
56.395 11.689459
56.400 12.001491
56.405 11.874669
56.410 11.459788
56.415 11.26007
56.420 11.067566
56.425 11.40441
56.430 11.39608
56.435 11.413337
56.440 11.98511
56.445 12.191219
56.450 12.041561
56.455 12.189812
56.460 12.348859
56.465 12.490871
56.470 12.280856
56.475 11.96876
56.480 11.61622
56.485 11.700629
56.490 12.434756
56.495 12.576915
56.500 12.889843
56.505 13.04615
56.510 13.345155
56.515 13.755116
56.520 13.329088
56.525 12.817724
56.530 12.561416
56.535 12.231874
56.540 11.750489
56.545 11.620587
56.550 11.911617
56.555 12.473892
56.560 12.729835
56.565 12.663495
56.570 12.978291
56.575 12.779875
56.580 12.659385
56.585 12.058433
56.590 11.655444
56.595 11.686309
56.600 12.10806
56.605 11.817758
56.610 11.974298
56.615 12.205533
56.620 11.99653
56.625 11.531494
56.630 11.02882
56.635 10.421201
56.640 10.476499
56.645 10.585271
56.650 10.261035
56.655 10.635227
56.660 10.831264
56.665 10.960386
56.670 11.056231
56.675 11.419975
56.680 11.243431
56.685 11.349374
56.690 11.57116
56.695 12.475311
56.700 12.851483
56.705 13.100694
56.710 12.596532
56.715 12.543571
56.720 12.597979
56.725 12.736207
56.730 12.273127
56.735 11.668245
56.740 11.711928
56.745 11.937282
56.750 11.845072
56.755 11.584618
56.760 11.38295
56.765 11.091859
56.770 11.423537
56.775 12.164027
56.780 12.686625
56.785 13.044826
56.790 13.310265
56.795 13.160237
56.800 13.130193
56.805 12.668503
56.810 11.578812
56.815 11.364604
56.820 11.207427
56.825 11.259891
56.830 11.313351
56.835 11.927822
56.840 12.399202
56.845 12.350526
56.850 12.205222
56.855 12.057427
56.860 12.085031
56.865 12.530005
56.870 12.861723
56.875 12.862555
56.880 13.142502
56.885 12.815286
56.890 12.785952
56.895 13.192406
56.900 13.180497
56.905 12.486671
56.910 12.160274
56.915 12.388167
56.920 12.720446
56.925 12.886773
56.930 12.444059
56.935 12.210648
56.940 12.17622
56.945 12.260022
56.950 11.977728
56.955 11.865159
56.960 11.707255
56.965 11.619237
56.970 11.25635
56.975 11.375766
56.980 11.65871
56.985 11.847023
56.990 12.124977
56.995 12.248776
57.000 12.287102
57.005 12.654991
57.010 12.748517
57.015 12.6991
57.020 12.339543
57.025 12.761044
57.030 12.647799
57.035 12.598469
57.040 12.700697
57.045 12.876075
57.050 13.429048
57.055 14.204586
57.060 14.149262
57.065 14.411977
57.070 13.974854
57.075 13.937062
57.080 13.368044
57.085 12.865265
57.090 12.773499
57.095 12.61415
57.100 12.177666
57.105 12.430084
57.110 12.884585
57.115 13.237868
57.120 13.721982
57.125 13.606109
57.130 13.975516
57.135 14.623009
57.140 15.255599
57.145 15.414043
57.150 15.301769
57.155 14.202996
57.160 13.840932
57.165 13.889077
57.170 13.648754
57.175 13.247479
57.180 12.922083
57.185 12.678171
57.190 12.96778
57.195 13.335076
57.200 12.905348
57.205 12.876169
57.210 12.895769
57.215 12.893078
57.220 12.852036
57.225 12.812572
57.230 12.451048
57.235 12.339999
57.240 12.229353
57.245 11.911624
57.250 12.07503
57.255 12.553353
57.260 13.016562
57.265 13.735115
57.270 13.792135
57.275 13.484811
57.280 13.651514
57.285 13.881781
57.290 13.331626
57.295 12.949821
57.300 13.079795
57.305 13.364689
57.310 13.252965
57.315 12.967742
57.320 13.172101
57.325 13.488104
57.330 13.113183
57.335 12.749053
57.340 12.942909
57.345 13.835349
57.350 13.993173
57.355 13.832101
57.360 13.650563
57.365 13.918543
57.370 14.324845
57.375 14.740575
57.380 14.50263
57.385 14.544051
57.390 14.841343
57.395 14.7661
57.400 15.269381
57.405 15.204036
57.410 14.694384
57.415 14.784172
57.420 15.157555
57.425 15.102463
57.430 15.32772
57.435 14.472578
57.440 13.661159
57.445 13.969942
57.450 14.339465
57.455 14.508382
57.460 14.807188
57.465 14.994885
57.470 15.332481
57.475 16.196432
57.480 15.826915
57.485 15.392223
57.490 14.612707
57.495 14.005195
57.500 14.251907
57.505 14.106344
57.510 13.848355
57.515 14.186831
57.520 13.98849
57.525 14.171646
57.530 14.556094
57.535 14.298935
57.540 13.709177
57.545 13.398577
57.550 13.359083
57.555 13.930915
57.560 14.355259
57.565 14.358345
57.570 14.716748
57.575 15.172359
57.580 15.437888
57.585 15.458508
57.590 14.934111
57.595 14.642366
57.600 14.636841
57.605 14.452918
57.610 14.223366
57.615 13.522891
57.620 13.152365
57.625 13.322034
57.630 13.329542
57.635 13.512523
57.640 13.262273
57.645 13.680375
57.650 13.789118
57.655 14.011394
57.660 14.188836
57.665 13.861025
57.670 13.465333
57.675 13.688519
57.680 13.776507
57.685 13.967799
57.690 13.850483
57.695 13.986506
57.700 13.937084
57.705 14.00674
57.710 14.126858
57.715 14.136194
57.720 14.073438
57.725 13.587579
57.730 13.711092
57.735 13.750757
57.740 13.3067
57.745 13.125008
57.750 13.450316
57.755 14.065168
57.760 14.109713
57.765 13.478105
57.770 12.657241
57.775 12.647715
57.780 12.576741
57.785 12.069692
57.790 12.34364
57.795 12.707108
57.800 12.687905
57.805 12.864695
57.810 12.357357
57.815 12.243536
57.820 12.381699
57.825 12.035459
57.830 11.947188
57.835 12.227244
57.840 12.481978
57.845 12.815152
57.850 12.67127
57.855 12.5896
57.860 12.543484
57.865 12.838094
57.870 13.40924
57.875 13.74648
57.880 13.895368
57.885 14.470744
57.890 14.530099
57.895 14.709717
57.900 14.937004
57.905 15.005819
57.910 15.089075
57.915 15.080427
57.920 14.680295
57.925 15.140926
57.930 15.597379
57.935 15.920256
57.940 16.207615
57.945 16.504004
57.950 16.593981
57.955 16.296932
57.960 15.449556
57.965 14.619295
57.970 13.734041
57.975 12.974244
57.980 12.639444
57.985 13.056942
57.990 13.609202
57.995 13.911126
58.000 14.502186
58.005 14.961804
58.010 15.441092
58.015 15.21876
58.020 14.825698
58.025 15.061335
58.030 15.169999
58.035 15.153565
58.040 15.316528
58.045 16.191193
58.050 17.011395
58.055 17.077852
58.060 16.726511
58.065 16.559031
58.070 17.026247
58.075 17.068663
58.080 16.66774
58.085 16.492762
58.090 16.857803
58.095 16.954655
58.100 16.883669
58.105 16.676098
58.110 16.596233
58.115 16.059402
58.120 15.951774
58.125 15.645562
58.130 15.765376
58.135 16.093071
58.140 15.835876
58.145 16.106955
58.150 16.665314
58.155 17.098822
58.160 17.50617
58.165 17.184853
58.170 16.974258
58.175 17.397018
58.180 17.709995
58.185 17.308985
58.190 17.753328
58.195 17.448647
58.200 17.716484
58.205 18.304176
58.210 18.097868
58.215 18.320484
58.220 18.610897
58.225 18.516901
58.230 18.83073
58.235 18.752796
58.240 18.675753
58.245 18.304405
58.250 18.018696
58.255 19.010345
58.260 19.344122
58.265 19.589258
58.270 19.709671
58.275 19.473467
58.280 20.314323
58.285 21.281609
58.290 20.559879
58.295 20.293407
58.300 20.507223
58.305 20.613987
58.310 21.019608
58.315 21.003803
58.320 20.40896
58.325 20.127293
58.330 20.574717
58.335 21.133028
58.340 21.743635
58.345 22.058105
58.350 22.122812
58.355 22.784756
58.360 22.975063
58.365 23.043005
58.370 22.743542
58.375 22.131542
58.380 22.022913
58.385 21.524487
58.390 21.401943
58.395 22.230553
58.400 22.15605
58.405 22.147572
58.410 22.735447
58.415 23.206371
58.420 24.106525
58.425 23.740763
58.430 23.455673
58.435 23.880821
58.440 24.164383
58.445 23.7878
58.450 23.648247
58.455 23.254677
58.460 23.724344
58.465 23.720781
58.470 23.506968
58.475 23.6485
58.480 23.839441
58.485 23.4023
58.490 23.528385
58.495 23.006245
58.500 23.297705
58.505 23.149677
58.510 24.074615
58.515 24.267504
58.520 24.379219
58.525 24.963272
58.530 25.518337
58.535 25.101238
58.540 24.635696
58.545 23.995701
58.550 24.139032
58.555 24.250776
58.560 23.875696
58.565 23.351059
58.570 23.795523
58.575 24.57774
58.580 24.587111
58.585 24.470205
58.590 24.870544
58.595 25.979008
58.600 26.927084
58.605 26.965391
58.610 26.367477
58.615 25.928047
58.620 25.680481
58.625 25.441019
58.630 24.8515
58.635 24.156487
58.640 23.665335
58.645 23.359947
58.650 23.577606
58.655 24.530979
58.660 24.714661
58.665 24.892385
58.670 25.042274
58.675 25.162359
58.680 26.221544
58.685 25.750408
58.690 25.577072
58.695 26.05493
58.700 26.085192
58.705 26.160265
58.710 26.01857
58.715 25.904533
58.720 25.942474
58.725 24.862984
58.730 23.699968
58.735 22.680834
58.740 22.211128
58.745 21.76132
58.750 21.937746
58.755 22.573721
58.760 23.070705
58.765 22.456158
58.770 22.255896
58.775 22.030642
58.780 21.591732
58.785 20.250961
58.790 19.810734
58.795 20.111433
58.800 20.415901
58.805 20.938786
58.810 20.985254
58.815 20.295965
58.820 20.083481
58.825 19.614519
58.830 19.157978
58.835 19.38718
58.840 19.289722
58.845 19.789946
58.850 20.388054
58.855 19.927216
58.860 20.119112
58.865 20.164412
58.870 19.397707
58.875 19.104393
58.880 18.977394
58.885 19.671169
58.890 20.427597
58.895 19.924988
58.900 19.469231
58.905 19.926245
58.910 19.487265
58.915 19.114351
58.920 18.703707
58.925 18.329563
58.930 18.680849
58.935 18.653656
58.940 18.416052
58.945 17.986872
58.950 17.172323
58.955 16.569313
58.960 16.137848
58.965 15.502078
58.970 14.760921
58.975 14.990558
58.980 16.015396
58.985 16.836212
58.990 17.558578
58.995 17.981848
59.000 18.472694
59.005 19.297939
59.010 19.678257
59.015 18.866636
59.020 18.288368
59.025 17.877287
59.030 18.025835
59.035 17.910332
59.040 17.72888
59.045 17.766825
59.050 17.842249
59.055 18.027187
59.060 18.180059
59.065 17.667374
59.070 17.108942
59.075 16.501633
59.080 16.122768
59.085 16.425022
59.090 16.485552
59.095 16.70734
59.100 16.97998
59.105 17.072104
59.110 17.282139
59.115 17.542255
59.120 17.409779
59.125 17.484489
59.130 17.352985
59.135 17.220217
59.140 17.718981
59.145 18.129713
59.150 17.740616
59.155 17.382751
59.160 17.224192
59.165 16.945251
59.170 17.037209
59.175 16.712751
59.180 15.844604
59.185 15.764129
59.190 15.456598
59.195 15.599826
59.200 15.752034
59.205 15.750789
59.210 16.216022
59.215 16.662979
59.220 16.539579
59.225 16.642197
59.230 16.25321
59.235 16.359156
59.240 15.897522
59.245 15.214013
59.250 14.413217
59.255 14.586162
59.260 14.827682
59.265 14.830571
59.270 15.113048
59.275 15.216434
59.280 15.788403
59.285 16.493446
59.290 15.935103
59.295 15.789573
59.300 15.490609
59.305 15.026557
59.310 15.048298
59.315 14.380905
59.320 14.704711
59.325 15.211319
59.330 15.614026
59.335 15.986195
59.340 15.921654
59.345 16.097036
59.350 16.072329
59.355 15.516805
59.360 14.943017
59.365 14.0901
59.370 14.116548
59.375 14.006169
59.380 13.909975
59.385 14.245667
59.390 14.499136
59.395 15.063408
59.400 15.092296
59.405 14.907718
59.410 15.195911
59.415 15.42219
59.420 15.094643
59.425 14.616869
59.430 14.694089
59.435 15.01817
59.440 14.977151
59.445 14.990459
59.450 15.011073
59.455 15.714261
59.460 16.328897
59.465 16.218763
59.470 15.729095
59.475 15.641211
59.480 15.305978
59.485 14.69931
59.490 14.281898
59.495 14.519358
59.500 14.692306
59.505 14.856756
59.510 14.667777
59.515 14.833538
59.520 15.098698
59.525 14.977232
59.530 14.826996
59.535 14.879177
59.540 14.620814
59.545 14.992488
59.550 15.143929
59.555 15.223681
59.560 15.244739
59.565 14.955614
59.570 14.941281
59.575 15.348113
59.580 15.312375
59.585 15.151814
59.590 15.377119
59.595 15.160369
59.600 14.942459
59.605 15.059237
59.610 14.632983
59.615 14.397189
59.620 14.173103
59.625 13.55912
59.630 13.654843
59.635 13.727198
59.640 13.234211
59.645 13.452885
59.650 13.494194
59.655 13.936962
59.660 14.253911
59.665 14.630072
59.670 14.554758
59.675 15.096992
59.680 14.959883
59.685 15.024139
59.690 14.823905
59.695 14.441081
59.700 14.304377
59.705 14.286893
59.710 14.612611
59.715 14.677213
59.720 14.412446
59.725 14.263605
59.730 14.929379
59.735 15.269249
59.740 15.497071
59.745 15.328533
59.750 15.62472
59.755 16.030598
59.760 16.52667
59.765 16.058081
59.770 15.719776
59.775 15.649692
59.780 15.755385
59.785 15.38475
59.790 15.336866
59.795 14.906656
59.800 15.179251
59.805 14.685563
59.810 14.45061
59.815 14.293191
59.820 14.319156
59.825 13.909245
59.830 13.889391
59.835 13.667984
59.840 14.719463
59.845 15.202719
59.850 15.269872
59.855 15.465279
59.860 15.602397
59.865 15.722097
59.870 16.121237
59.875 15.718685
59.880 15.322666
59.885 15.27151
59.890 15.095141
59.895 14.812025
59.900 14.531054
59.905 14.286187
59.910 13.658466
59.915 13.285802
59.920 13.199436
59.925 12.960444
59.930 13.140347
59.935 13.50529
59.940 13.153275
59.945 13.846256
59.950 14.10589
59.955 13.590787
59.960 13.575758
59.965 13.631278
59.970 13.558491
59.975 13.506909
59.980 12.995383
59.985 13.669936
59.990 14.174796
59.995 13.95521
60.000 13.325083
60.005 13.443491
60.010 14.235453
60.015 14.301382
60.020 13.587156
60.025 13.632707
60.030 14.303542
60.035 14.685971
60.040 14.275899
60.045 13.854015
60.050 13.747567
60.055 13.998521
60.060 13.871402
60.065 13.434625
60.070 13.545307
60.075 13.911243
60.080 14.162039
60.085 14.29947
60.090 14.592612
60.095 14.899744
60.100 15.540661
60.105 15.526774
60.110 15.313683
60.115 15.097633
60.120 15.242563
60.125 15.332891
60.130 15.157184
60.135 14.910643
60.140 15.23306
60.145 15.308978
60.150 15.935916
60.155 16.802977
60.160 16.394083
60.165 16.37919
60.170 16.768867
60.175 16.485182
60.180 16.335592
60.185 15.815413
60.190 15.142638
60.195 15.206515
60.200 15.355475
60.205 14.926069
60.210 15.177647
60.215 15.663457
60.220 15.135584
60.225 15.521549
60.230 15.865857
60.235 16.188601
60.240 16.135519
60.245 15.571264
60.250 15.225801
60.255 15.51139
60.260 14.361578
60.265 13.717636
60.270 13.144285
60.275 13.360045
60.280 13.74814
60.285 14.005117
60.290 13.809356
60.295 14.354828
60.300 14.602876
60.305 14.019176
60.310 13.991548
60.315 14.107033
60.320 14.287969
60.325 14.604188
60.330 14.491557
60.335 14.828261
60.340 15.726885
60.345 15.613299
60.350 15.465524
60.355 15.21076
60.360 14.970269
60.365 15.221416
60.370 15.123613
60.375 15.218295
60.380 15.616869
60.385 15.353051
60.390 15.18872
60.395 15.796687
60.400 15.763117
60.405 15.597192
60.410 15.520282
60.415 15.656288
60.420 15.873225
60.425 15.805788
60.430 15.159122
60.435 15.145846
60.440 15.227547
60.445 14.974901
60.450 14.817039
60.455 15.054175
60.460 15.279361
60.465 16.004665
60.470 15.641108
60.475 15.907203
60.480 16.411509
60.485 16.1285
60.490 16.333445
60.495 16.303139
60.500 15.584294
60.505 16.113533
60.510 15.120639
60.515 14.718135
60.520 14.819331
60.525 14.537552
60.530 14.712192
60.535 15.09196
60.540 14.943124
60.545 15.583821
60.550 15.542251
60.555 15.753149
60.560 15.345065
60.565 14.95022
60.570 14.786256
60.575 15.042469
60.580 15.222645
60.585 15.230412
60.590 15.386135
60.595 15.337764
60.600 15.322567
60.605 15.286621
60.610 15.500129
60.615 15.849636
60.620 15.800578
60.625 15.473247
60.630 15.788949
60.635 15.865245
60.640 15.794805
60.645 15.140985
60.650 14.342832
60.655 14.492515
60.660 14.629663
60.665 14.356073
60.670 14.386315
60.675 14.431386
60.680 14.774564
60.685 14.906537
60.690 14.722506
60.695 14.411953
60.700 14.503771
60.705 14.846883
60.710 15.275459
60.715 15.145664
60.720 15.622259
60.725 15.474151
60.730 15.640571
60.735 15.740728
60.740 15.37644
60.745 14.681053
60.750 14.544485
60.755 14.255732
60.760 14.188744
60.765 14.530025
60.770 14.712151
60.775 14.70508
60.780 15.11662
60.785 15.688565
60.790 15.914059
60.795 16.547188
60.800 16.390551
60.805 16.82259
60.810 17.452944
60.815 17.50812
60.820 16.776695
60.825 16.424093
60.830 16.280952
60.835 16.104597
60.840 15.784135
60.845 15.098077
60.850 14.891299
60.855 15.11852
60.860 15.028621
60.865 14.830536
60.870 14.671303
60.875 14.828563
60.880 15.165614
60.885 15.092204
60.890 14.753174
60.895 14.760044
60.900 14.841273
60.905 14.932348
60.910 14.17073
60.915 13.41137
60.920 13.400898
60.925 13.650507
60.930 14.03489
60.935 14.109528
60.940 14.257118
60.945 14.584841
60.950 14.627278
60.955 14.709563
60.960 14.783418
60.965 14.415889
60.970 14.301484
60.975 14.538021
60.980 14.584949
60.985 14.859216
60.990 15.074318
60.995 15.139505
61.000 15.037772
61.005 14.462983
61.010 13.951571
61.015 14.391141
61.020 14.764588
61.025 14.634067
61.030 14.36006
61.035 14.281859
61.040 14.975602
61.045 14.84857
61.050 14.677699
61.055 14.768627
61.060 15.153399
61.065 15.542689
61.070 15.834252
61.075 15.5388
61.080 15.924481
61.085 15.957304
61.090 15.892251
61.095 15.804564
61.100 15.790559
61.105 15.730163
61.110 15.612057
61.115 15.897638
61.120 15.883052
61.125 15.261792
61.130 14.874539
61.135 15.268818
61.140 15.281595
61.145 15.480529
61.150 15.327745
61.155 15.276801
61.160 15.632927
61.165 15.23149
61.170 14.619535
61.175 15.017956
61.180 14.920955
61.185 14.726377
61.190 14.894952
61.195 15.345924
61.200 15.953141
61.205 16.129183
61.210 15.741501
61.215 15.951955
61.220 15.729836
61.225 15.567912
61.230 15.157416
61.235 14.839067
61.240 14.463671
61.245 14.514928
61.250 14.453955
61.255 14.478659
61.260 14.250497
61.265 14.527225
61.270 15.040026
61.275 15.258801
61.280 15.535819
61.285 15.599068
61.290 16.135822
61.295 16.10008
61.300 16.274914
61.305 15.797147
61.310 15.65587
61.315 15.28706
61.320 15.610309
61.325 15.281806
61.330 15.293763
61.335 15.049708
61.340 15.007957
61.345 15.445788
61.350 15.395167
61.355 15.000875
61.360 15.503294
61.365 15.2943
61.370 14.696268
61.375 14.600848
61.380 14.653664
61.385 14.861898
61.390 14.950682
61.395 14.602651
61.400 15.041754
61.405 15.405289
61.410 16.161013
61.415 16.136168
61.420 16.333708
61.425 16.436995
61.430 16.206556
61.435 16.339258
61.440 16.691797
61.445 16.266102
61.450 15.706026
61.455 15.400056
61.460 15.229618
61.465 15.848171
61.470 15.862786
61.475 15.526333
61.480 15.152498
61.485 15.243042
61.490 15.371555
61.495 15.43502
61.500 14.86
61.505 14.685157
61.510 14.712982
61.515 15.566595
61.520 15.78652
61.525 15.609075
61.530 15.569612
61.535 16.115822
61.540 15.94015
61.545 16.041136
61.550 15.343968
61.555 15.484045
61.560 15.133013
61.565 15.130555
61.570 14.917585
61.575 15.231977
61.580 15.432796
61.585 15.892446
61.590 15.606892
61.595 15.21067
61.600 15.244225
61.605 15.175427
61.610 15.03522
61.615 14.873358
61.620 14.683235
61.625 14.854864
61.630 15.469902
61.635 15.287507
61.640 15.1917
61.645 15.378113
61.650 15.226931
61.655 15.398349
61.660 15.719345
61.665 16.092239
61.670 16.283535
61.675 16.112717
61.680 15.723199
61.685 15.691966
61.690 15.334053
61.695 14.974229
61.700 14.952923
61.705 14.654777
61.710 14.994146
61.715 15.107604
61.720 14.859397
61.725 14.779632
61.730 14.508166
61.735 14.073651
61.740 14.096965
61.745 13.918262
61.750 14.121883
61.755 14.454474
61.760 15.266545
61.765 16.156855
61.770 16.568953
61.775 16.622517
61.780 16.71081
61.785 17.185953
61.790 17.419964
61.795 17.396667
61.800 17.111818
61.805 16.985613
61.810 17.650688
61.815 17.650148
61.820 17.533016
61.825 17.322882
61.830 17.219625
61.835 16.737741
61.840 16.24826
61.845 15.655036
61.850 15.551544
61.855 15.291783
61.860 15.402311
61.865 15.739716
61.870 15.893413
61.875 16.282093
61.880 16.689178
61.885 16.790771
61.890 16.466993
61.895 16.480076
61.900 15.606581
61.905 16.041458
61.910 16.183807
61.915 15.954351
61.920 16.435108
61.925 16.414991
61.930 16.162899
61.935 16.40992
61.940 15.86737
61.945 15.59497
61.950 15.619242
61.955 15.159552
61.960 15.336159
61.965 15.177453
61.970 15.142376
61.975 15.518371
61.980 15.195384
61.985 14.906446
61.990 15.241119
61.995 15.410563
62.000 15.651776
62.005 15.657718
62.010 15.967539
62.015 16.302361
62.020 16.301538
62.025 16.449158
62.030 16.021561
62.035 15.673908
62.040 15.586228
62.045 15.259466
62.050 15.608444
62.055 15.637665
62.060 15.282908
62.065 15.281005
62.070 15.364943
62.075 15.401055
62.080 15.581264
62.085 15.670586
62.090 15.834082
62.095 15.682302
62.100 15.652866
62.105 15.807259
62.110 15.95077
62.115 15.703189
62.120 15.226248
62.125 15.390281
62.130 16.077353
62.135 16.791597
62.140 17.015823
62.145 16.840517
62.150 16.944614
62.155 17.242746
62.160 16.846546
62.165 16.375883
62.170 15.939621
62.175 16.165997
62.180 16.234514
62.185 16.54427
62.190 16.284622
62.195 16.332077
62.200 16.770212
62.205 17.475967
62.210 17.331095
62.215 17.232729
62.220 17.191784
62.225 17.433535
62.230 17.12018
62.235 16.835062
62.240 16.61606
62.245 16.304443
62.250 16.296114
62.255 16.037291
62.260 16.140888
62.265 16.528635
62.270 16.447453
62.275 16.475035
62.280 16.067188
62.285 15.562632
62.290 15.406476
62.295 15.79747
62.300 15.76878
62.305 15.47437
62.310 15.116669
62.315 15.503743
62.320 15.965463
62.325 15.977497
62.330 15.236042
62.335 14.981363
62.340 15.449615
62.345 15.43595
62.350 15.44082
62.355 15.786908
62.360 16.072073
62.365 16.370886
62.370 16.502512
62.375 16.24025
62.380 16.286648
62.385 16.191624
62.390 15.718815
62.395 15.613849
62.400 15.585591
62.405 15.5227
62.410 15.451609
62.415 15.311567
62.420 15.098706
62.425 14.775602
62.430 14.211935
62.435 14.276803
62.440 14.623887
62.445 15.356133
62.450 15.761405
62.455 15.972794
62.460 16.352558
62.465 16.789698
62.470 16.785755
62.475 16.326376
62.480 15.789443
62.485 16.082947
62.490 16.60231
62.495 16.555954
62.500 16.196398
62.505 15.82599
62.510 15.902878
62.515 15.354977
62.520 15.109922
62.525 15.039955
62.530 15.158752
62.535 15.807596
62.540 16.097002
62.545 16.085896
62.550 16.262102
62.555 16.325531
62.560 15.750083
62.565 15.470959
62.570 15.05635
62.575 14.541817
62.580 14.82749
62.585 15.422976
62.590 15.648293
62.595 15.939053
62.600 16.203362
62.605 16.162445
62.610 16.685686
62.615 16.729309
62.620 16.389729
62.625 15.945215
62.630 16.081936
62.635 16.350916
62.640 16.821976
62.645 16.710516
62.650 16.263851
62.655 15.67964
62.660 16.064062
62.665 16.07288
62.670 16.090158
62.675 16.064255
62.680 16.081079
62.685 16.122925
62.690 16.616329
62.695 16.557453
62.700 16.38344
62.705 16.005091
62.710 15.608607
62.715 15.644492
62.720 15.947205
62.725 15.643037
62.730 15.939193
62.735 16.255827
62.740 16.761345
62.745 17.281168
62.750 17.463301
62.755 17.501711
62.760 17.578472
62.765 17.249128
62.770 17.21876
62.775 16.998617
62.780 17.286545
62.785 17.424007
62.790 17.608507
62.795 17.927912
62.800 17.789839
62.805 17.72558
62.810 17.491953
62.815 16.983671
62.820 16.715944
62.825 16.225843
62.830 15.991535
62.835 15.800976
62.840 15.611842
62.845 15.426516
62.850 15.489716
62.855 15.254741
62.860 15.214356
62.865 14.896667
62.870 15.203432
62.875 15.533187
62.880 16.373661
62.885 15.944222
62.890 16.169153
62.895 17.392017
62.900 18.560392
62.905 18.746777
62.910 18.441454
62.915 18.084705
62.920 18.384773
62.925 18.211643
62.930 17.325209
62.935 17.231855
62.940 17.315083
62.945 17.018282
62.950 16.991549
62.955 17.0488
62.960 17.356634
62.965 17.250254
62.970 17.293934
62.975 17.311831
62.980 17.547646
62.985 17.556747
62.990 17.809429
62.995 17.609247
63.000 17.647808
63.005 16.653532
63.010 16.792301
63.015 16.730253
63.020 16.608915
63.025 16.293339
63.030 16.141636
63.035 15.76997
63.040 16.283789
63.045 16.141617
63.050 16.202793
63.055 16.040983
63.060 16.296932
63.065 16.531775
63.070 16.919542
63.075 16.399687
63.080 16.594116
63.085 16.539875
63.090 16.60079
63.095 16.406954
63.100 16.257692
63.105 16.452536
63.110 16.446405
63.115 16.295872
63.120 16.542109
63.125 17.041504
63.130 17.153683
63.135 16.986324
63.140 16.895826
63.145 17.274044
63.150 17.366381
63.155 17.367424
63.160 17.237127
63.165 17.587393
63.170 17.769951
63.175 17.571482
63.180 17.339455
63.185 17.282724
63.190 17.015409
63.195 16.578928
63.200 16.180439
63.205 15.809882
63.210 15.56094
63.215 15.231473
63.220 14.705285
63.225 15.053932
63.230 15.287577
63.235 14.877227
63.240 15.062604
63.245 15.307569
63.250 15.654042
63.255 16.157146
63.260 15.881375
63.265 16.061872
63.270 16.381165
63.275 16.594599
63.280 16.467628
63.285 16.478727
63.290 16.069113
63.295 16.166115
63.300 16.178019
63.305 16.647415
63.310 16.811548
63.315 17.372427
63.320 17.83383
63.325 17.896393
63.330 18.0107
63.335 17.620899
63.340 17.004896
63.345 17.049141
63.350 16.616795
63.355 16.599716
63.360 16.61075
63.365 16.441669
63.370 16.938454
63.375 17.214022
63.380 17.608595
63.385 17.793001
63.390 17.771086
63.395 17.84189
63.400 17.61447
63.405 17.288193
63.410 17.142836
63.415 16.57445
63.420 15.860983
63.425 15.877975
63.430 16.302015
63.435 17.366417
63.440 17.697708
63.445 17.994448
63.450 18.732634
63.455 19.231974
63.460 19.122965
63.465 19.371576
63.470 18.93672
63.475 18.840649
63.480 18.513308
63.485 17.924501
63.490 18.394625
63.495 18.591423
63.500 18.07753
63.505 18.25205
63.510 18.612316
63.515 18.848616
63.520 18.952171
63.525 18.958521
63.530 19.03512
63.535 19.068844
63.540 18.69166
63.545 18.44039
63.550 18.607838
63.555 18.460901
63.560 17.779827
63.565 17.737047
63.570 17.932203
63.575 17.956955
63.580 18.252254
63.585 18.142254
63.590 18.613615
63.595 18.740881
63.600 18.613274
63.605 18.589975
63.610 18.48901
63.615 17.612574
63.620 17.571014
63.625 18.051605
63.630 18.81184
63.635 18.744415
63.640 18.611113
63.645 19.294008
63.650 20.145338
63.655 20.014854
63.660 19.758326
63.665 20.168133
63.670 20.586895
63.675 20.211672
63.680 20.341423
63.685 20.598888
63.690 20.768551
63.695 20.812578
63.700 20.654421
63.705 20.726782
63.710 21.283224
63.715 20.744528
63.720 21.190781
63.725 21.525478
63.730 21.326881
63.735 21.095572
63.740 20.931816
63.745 20.801872
63.750 20.856697
63.755 20.465597
63.760 20.664024
63.765 20.87332
63.770 21.189154
63.775 21.366486
63.780 21.798336
63.785 21.825146
63.790 22.342239
63.795 22.853828
63.800 22.809875
63.805 23.43047
63.810 24.162579
63.815 24.611996
63.820 24.821379
63.825 24.579494
63.830 24.455282
63.835 24.962622
63.840 25.256428
63.845 25.373615
63.850 25.84716
63.855 25.954935
63.860 26.030218
63.865 25.542994
63.870 25.017288
63.875 24.869926
63.880 24.129316
63.885 23.848421
63.890 24.436586
63.895 24.492218
63.900 24.763336
63.905 24.802792
63.910 24.876963
63.915 25.586592
63.920 25.795225
63.925 25.389433
63.930 24.73575
63.935 25.142786
63.940 25.436394
63.945 25.608547
63.950 26.225384
63.955 26.132441
63.960 26.64378
63.965 27.287481
63.970 27.257593
63.975 27.502649
63.980 27.38394
63.985 27.31568
63.990 27.748102
63.995 27.382126
64.000 27.763153
64.005 28.140022
64.010 28.44183
64.015 29.373457
64.020 29.870457
64.025 30.774572
64.030 31.078693
64.035 31.617355
64.040 32.279488
64.045 32.298512
64.050 32.016281
64.055 30.927935
64.060 30.621416
64.065 31.934309
64.070 32.336456
64.075 32.22567
64.080 31.830814
64.085 31.867001
64.090 32.748791
64.095 32.144249
64.100 30.931145
64.105 29.568155
64.110 29.429657
64.115 28.86467
64.120 28.296003
64.125 28.054913
64.130 28.550936
64.135 28.441469
64.140 28.670248
64.145 28.483696
64.150 28.010592
64.155 27.551027
64.160 27.447882
64.165 27.655615
64.170 28.354692
64.175 28.616547
64.180 28.916294
64.185 29.600239
64.190 29.375294
64.195 29.297602
64.200 28.484333
64.205 27.725073
64.210 27.526646
64.215 27.081465
64.220 27.556723
64.225 28.38793
64.230 28.477591
64.235 28.377302
64.240 28.642836
64.245 28.826513
64.250 29.350645
64.255 29.308004
64.260 28.39913
64.265 27.968012
64.270 27.435165
64.275 26.805672
64.280 26.61278
64.285 26.14393
64.290 25.911983
64.295 26.55024
64.300 26.903877
64.305 27.553898
64.310 27.696474
64.315 27.330853
64.320 27.235422
64.325 27.418608
64.330 27.151344
64.335 26.488722
64.340 26.203566
64.345 26.048302
64.350 26.403986
64.355 27.058573
64.360 26.454899
64.365 25.937132
64.370 25.357485
64.375 25.276808
64.380 25.895649
64.385 25.806721
64.390 25.319605
64.395 25.631386
64.400 25.657393
64.405 26.031538
64.410 26.50423
64.415 26.100729
64.420 25.175413
64.425 24.791393
64.430 24.802155
64.435 25.006437
64.440 24.939547
64.445 25.454601
64.450 25.329725
64.455 25.342806
64.460 25.775902
64.465 24.653284
64.470 24.230671
64.475 24.212477
64.480 23.254648
64.485 23.509932
64.490 23.73736
64.495 23.808825
64.500 24.758175
64.505 24.992485
64.510 25.048975
64.515 24.883938
64.520 25.103483
64.525 24.871273
64.530 24.084934
64.535 23.769886
64.540 23.978806
64.545 23.372648
64.550 23.141367
64.555 22.652151
64.560 22.80208
64.565 23.06558
64.570 22.991451
64.575 23.063883
64.580 23.733492
64.585 24.208185
64.590 24.001417
64.595 23.813116
64.600 23.334944
64.605 22.862392
64.610 22.305782
64.615 21.726757
64.620 20.951847
64.625 20.339449
64.630 20.604502
64.635 21.142597
64.640 21.219381
64.645 21.001017
64.650 21.250315
64.655 21.319078
64.660 21.552729
64.665 21.569204
64.670 21.259888
64.675 21.401667
64.680 21.442383
64.685 21.367062
64.690 21.148327
64.695 21.178749
64.700 20.527754
64.705 20.11701
64.710 19.932589
64.715 19.284187
64.720 18.399996
64.725 18.278414
64.730 18.124672
64.735 18.287743
64.740 18.602543
64.745 18.702963
64.750 19.128799
64.755 19.710075
64.760 19.906803
64.765 19.607498
64.770 20.148848
64.775 19.893673
64.780 19.706491
64.785 19.281355
64.790 19.256708
64.795 19.157761
64.800 19.543234
64.805 19.114731
64.810 19.097799
64.815 19.906675
64.820 20.280539
64.825 20.262539
64.830 21.024761
64.835 21.050028
64.840 21.361988
64.845 21.156187
64.850 20.588203
64.855 21.107258
64.860 21.610113
64.865 21.340071
64.870 20.838003
64.875 21.026775
64.880 21.272316
64.885 21.116188
64.890 20.801912
64.895 20.683304
64.900 20.093521
64.905 19.643211
64.910 19.548918
64.915 19.810759
64.920 20.504858
64.925 20.722521
64.930 20.465656
64.935 21.105066
64.940 21.227058
64.945 20.957438
64.950 20.445557
64.955 19.840872
64.960 19.7519
64.965 19.518227
64.970 19.771715
64.975 19.990955
64.980 20.191204
64.985 20.492094
64.990 21.253111
64.995 21.792561
65.000 22.492018
65.005 22.781145
65.010 22.790834
65.015 22.823183
65.020 23.252787
65.025 22.856873
65.030 22.255602
65.035 21.718496
65.040 21.734707
65.045 22.020304
65.050 22.266281
65.055 21.706676
65.060 21.202604
65.065 21.803658
65.070 22.274038
65.075 22.930756
65.080 23.344582
65.085 22.992085
65.090 22.945372
65.095 22.943127
65.100 22.420765
65.105 22.142775
65.110 21.450161
65.115 21.00256
65.120 21.324808
65.125 22.163944
65.130 22.790951
65.135 22.747227
65.140 22.516516
65.145 22.661692
65.150 23.072477
65.155 22.932085
65.160 22.421379
65.165 21.773993
65.170 21.580181
65.175 22.072275
65.180 21.756695
65.185 21.143017
65.190 20.933752
65.195 20.031633
65.200 20.006987
65.205 20.407715
65.210 19.835436
65.215 19.782854
65.220 20.015623
65.225 19.745895
65.230 20.143799
65.235 20.31444
65.240 19.643698
65.245 19.65012
65.250 19.635914
65.255 19.48554
65.260 20.196989
65.265 20.456886
65.270 21.157736
65.275 22.176235
65.280 22.445852
65.285 22.214773
65.290 22.212214
65.295 22.15605
65.300 21.10174
65.305 19.860924
65.310 19.453424
65.315 19.708065
65.320 20.055792
65.325 19.744961
65.330 19.351221
65.335 20.748011
65.340 21.124472
65.345 20.719168
65.350 19.929701
65.355 20.080156
65.360 20.303282
65.365 19.775993
65.370 18.885077
65.375 19.131159
65.380 19.040205
65.385 19.700357
65.390 19.60638
65.395 19.746582
65.400 19.98621
65.405 20.761629
65.410 20.25975
65.415 20.884737
65.420 21.397047
65.425 21.291792
65.430 21.431568
65.435 21.41477
65.440 21.26886
65.445 21.366373
65.450 20.858526
65.455 19.991671
65.460 19.908348
65.465 19.904074
65.470 19.91893
65.475 19.832077
65.480 20.272215
65.485 19.919874
65.490 19.737083
65.495 19.672619
65.500 19.498672
65.505 19.330912
65.510 19.653248
65.515 19.789566
65.520 20.03923
65.525 20.198967
65.530 20.011448
65.535 20.563637
65.540 20.85804
65.545 20.767511
65.550 20.65505
65.555 21.273773
65.560 21.477457
65.565 21.810015
65.570 21.31793
65.575 21.217213
65.580 21.163595
65.585 20.563673
65.590 20.830093
65.595 20.893671
65.600 21.015676
65.605 21.77125
65.610 21.883291
65.615 21.852688
65.620 22.085249
65.625 21.911497
65.630 22.262651
65.635 21.921213
65.640 21.833426
65.645 21.956356
65.650 22.230055
65.655 22.193537
65.660 21.906176
65.665 22.123205
65.670 22.521843
65.675 22.61084
65.680 22.362963
65.685 22.447292
65.690 23.294458
65.695 23.516682
65.700 22.976086
65.705 22.483427
65.710 23.029942
65.715 23.607891
65.720 23.160166
65.725 22.687504
65.730 22.375158
65.735 22.644369
65.740 23.141245
65.745 22.961658
65.750 22.160652
65.755 21.902678
65.760 21.26491
65.765 21.609243
65.770 21.682737
65.775 21.59923
65.780 21.741476
65.785 22.518707
65.790 22.892647
65.795 23.550007
65.800 23.742514
65.805 23.543913
65.810 22.993341
65.815 23.133894
65.820 23.518637
65.825 23.784626
65.830 23.663719
65.835 23.167988
65.840 23.665623
65.845 24.1912
65.850 23.669434
65.855 24.370377
65.860 25.172457
65.865 25.96945
65.870 26.734648
65.875 26.307343
65.880 26.310549
65.885 26.74239
65.890 25.468214
65.895 24.705862
65.900 24.798117
65.905 25.143324
65.910 26.184998
65.915 26.490906
65.920 27.124107
65.925 28.181875
65.930 28.768248
65.935 29.472538
65.940 29.292753
65.945 28.909517
65.950 29.104252
65.955 29.146427
65.960 29.760321
65.965 29.473404
65.970 28.683981
65.975 28.606258
65.980 29.02532
65.985 28.839947
65.990 29.401381
65.995 29.776018
66.000 30.746847
66.005 32.050571
66.010 32.508286
66.015 32.466969
66.020 32.403633
66.025 31.524757
66.030 31.093628
66.035 30.912947
66.040 30.977526
66.045 31.251959
66.050 32.055286
66.055 32.064102
66.060 32.97765
66.065 34.239834
66.070 34.736454
66.075 34.600601
66.080 34.925594
66.085 35.342293
66.090 36.720127
66.095 37.421906
66.100 38.74926
66.105 38.947529
66.110 39.281067
66.115 39.499847
66.120 39.930065
66.125 39.791409
66.130 39.803329
66.135 39.315964
66.140 40.248039
66.145 41.67952
66.150 42.669483
66.155 43.21582
66.160 43.13409
66.165 42.929249
66.170 43.70446
66.175 44.777901
66.180 44.401173
66.185 43.645329
66.190 43.188095
66.195 43.155197
66.200 43.105679
66.205 42.507652
66.210 42.001797
66.215 41.521782
66.220 41.488602
66.225 41.621544
66.230 42.335907
66.235 43.268681
66.240 42.941479
66.245 41.927505
66.250 42.680225
66.255 43.640938
66.260 43.736679
66.265 43.317486
66.270 42.456226
66.275 42.424175
66.280 43.249821
66.285 42.332172
66.290 41.580105
66.295 41.649185
66.300 41.650303
66.305 42.138855
66.310 41.797394
66.315 41.327488
66.320 41.295128
66.325 40.632221
66.330 40.02203
66.335 39.891644
66.340 39.654377
66.345 39.548977
66.350 39.054646
66.355 38.799694
66.360 39.149483
66.365 39.439495
66.370 39.292374
66.375 38.712841
66.380 38.425556
66.385 39.044029
66.390 38.901054
66.395 38.290543
66.400 37.876534
66.405 37.162186
66.410 35.78384
66.415 35.067005
66.420 33.769642
66.425 33.593094
66.430 33.125092
66.435 32.900593
66.440 33.233345
66.445 33.754078
66.450 34.073063
66.455 33.768196
66.460 32.692329
66.465 32.211613
66.470 31.957857
66.475 31.04998
66.480 30.715946
66.485 29.836687
66.490 30.192276
66.495 29.98164
66.500 29.556908
66.505 29.403564
66.510 29.417166
66.515 29.077866
66.520 28.910442
66.525 28.510292
66.530 28.085253
66.535 27.961111
66.540 27.394133
66.545 26.575867
66.550 26.348375
66.555 25.816372
66.560 25.025595
66.565 25.457806
66.570 25.666878
66.575 25.326138
66.580 24.809645
66.585 24.252737
66.590 23.722065
66.595 23.913488
66.600 23.667488
66.605 23.139006
66.610 23.649445
66.615 23.765789
66.620 23.718475
66.625 23.425592
66.630 22.277235
66.635 21.572519
66.640 21.718523
66.645 21.446672
66.650 21.38332
66.655 21.39703
66.660 20.807718
66.665 21.297771
66.670 20.862797
66.675 20.241262
66.680 20.253496
66.685 19.830107
66.690 20.130085
66.695 20.912466
66.700 20.898966
66.705 21.092634
66.710 20.936268
66.715 20.594744
66.720 20.601492
66.725 19.376074
66.730 18.976839
66.735 18.838041
66.740 19.652424
66.745 20.371052
66.750 20.561993
66.755 19.817554
66.760 20.700102
66.765 20.88393
66.770 20.784245
66.775 20.529819
66.780 20.60125
66.785 20.709124
66.790 20.755022
66.795 20.037756
66.800 20.199192
66.805 20.085075
66.810 19.749763
66.815 19.476545
66.820 19.291775
66.825 19.701324
66.830 19.681543
66.835 19.623783
66.840 19.94458
66.845 19.300362
66.850 18.872513
66.855 19.320206
66.860 19.526037
66.865 19.992537
66.870 19.829485
66.875 19.958475
66.880 20.040285
66.885 19.692894
66.890 19.304461
66.895 19.228279
66.900 18.944647
66.905 18.869184
66.910 18.710089
66.915 19.043625
66.920 19.471048
66.925 19.482334
66.930 19.317741
66.935 19.321922
66.940 19.442001
66.945 19.480263
66.950 19.347794
66.955 19.404196
66.960 19.224194
66.965 18.794411
66.970 19.196798
66.975 19.295311
66.980 19.045868
66.985 19.012892
66.990 18.905842
66.995 18.873884
67.000 19.015144
67.005 17.995016
67.010 17.460299
67.015 17.568581
67.020 17.201283
67.025 16.905725
67.030 16.834867
67.035 16.610991
67.040 17.076403
67.045 17.245356
67.050 17.125349
67.055 17.651033
67.060 18.032146
67.065 18.220293
67.070 18.359936
67.075 18.243778
67.080 18.128635
67.085 18.168026
67.090 17.849718
67.095 17.43594
67.100 17.403318
67.105 16.766254
67.110 16.592098
67.115 16.494577
67.120 16.599915
67.125 17.030624
67.130 17.271162
67.135 17.420238
67.140 18.198879
67.145 18.851477
67.150 19.16608
67.155 19.151571
67.160 18.682291
67.165 18.334761
67.170 18.218079
67.175 17.692684
67.180 17.16979
67.185 16.964542
67.190 16.993767
67.195 17.354244
67.200 17.701057
67.205 18.004677
67.210 18.776337
67.215 18.761793
67.220 19.164877
67.225 19.131348
67.230 18.909674
67.235 19.240208
67.240 19.504324
67.245 19.204054
67.250 19.015862
67.255 18.729807
67.260 18.981874
67.265 18.909483
67.270 18.697378
67.275 18.056526
67.280 17.970987
67.285 18.415001
67.290 18.208544
67.295 18.281004
67.300 18.288282
67.305 17.463123
67.310 17.089981
67.315 17.465271
67.320 17.064081
67.325 16.717386
67.330 16.715265
67.335 17.782017
67.340 18.513187
67.345 19.001741
67.350 18.639997
67.355 18.620386
67.360 18.992849
67.365 18.919275
67.370 18.458712
67.375 17.954191
67.380 18.165915
67.385 18.64913
67.390 18.897781
67.395 18.944807
67.400 18.703957
67.405 18.675293
67.410 18.674021
67.415 18.098352
67.420 17.405592
67.425 17.008984
67.430 16.842436
67.435 16.261438
67.440 15.97417
67.445 16.602028
67.450 17.373753
67.455 18.346436
67.460 18.827684
67.465 18.78698
67.470 19.123289
67.475 19.295996
67.480 19.075867
67.485 18.397301
67.490 17.96312
67.495 17.804464
67.500 17.95076
67.505 18.312756
67.510 17.975742
67.515 17.571857
67.520 17.508402
67.525 16.981531
67.530 17.172091
67.535 17.513639
67.540 17.659098
67.545 18.109884
67.550 18.328072
67.555 18.420074
67.560 18.640566
67.565 18.821264
67.570 19.124201
67.575 18.621948
67.580 18.19397
67.585 18.329956
67.590 19.038588
67.595 19.935303
67.600 19.411001
67.605 19.064629
67.610 18.824545
67.615 19.052223
67.620 19.712366
67.625 19.612099
67.630 18.608681
67.635 18.853336
67.640 18.849424
67.645 19.268183
67.650 19.405424
67.655 18.780315
67.660 18.177565
67.665 18.202856
67.670 17.775978
67.675 17.770098
67.680 17.752573
67.685 17.91847
67.690 17.985289
67.695 18.339079
67.700 18.091209
67.705 17.882509
67.710 17.925016
67.715 17.802273
67.720 18.029894
67.725 17.664358
67.730 17.996315
67.735 18.718513
67.740 19.027388
67.745 19.068472
67.750 18.929991
67.755 18.463015
67.760 18.564678
67.765 18.369635
67.770 17.918335
67.775 18.407431
67.780 18.239838
67.785 17.873053
67.790 17.405506
67.795 16.552013
67.800 16.123262
67.805 16.037277
67.810 15.913303
67.815 16.671167
67.820 17.134089
67.825 17.72547
67.830 18.361147
67.835 18.935194
67.840 19.366287
67.845 19.103746
67.850 18.592443
67.855 18.367979
67.860 18.145157
67.865 18.002535
67.870 17.459547
67.875 17.098543
67.880 16.766697
67.885 16.899094
67.890 17.340103
67.895 17.637495
67.900 17.850866
67.905 17.723431
67.910 17.614563
67.915 18.213945
67.920 18.455194
67.925 18.094179
67.930 18.359737
67.935 18.29915
67.940 18.751583
67.945 19.493305
67.950 19.549681
67.955 19.701475
67.960 19.568563
67.965 19.53533
67.970 19.32884
67.975 19.236584
67.980 18.801399
67.985 18.398891
67.990 18.243404
67.995 18.391005
68.000 18.355518
68.005 18.350422
68.010 18.254633
68.015 17.543013
68.020 17.756109
68.025 17.68211
68.030 17.279139
68.035 17.479021
68.040 17.798328
68.045 18.0445
68.050 18.615042
68.055 18.362856
68.060 18.246351
68.065 18.269928
68.070 18.723217
68.075 18.598009
68.080 18.284155
68.085 18.032066
68.090 18.222683
68.095 18.623909
68.100 18.642536
68.105 18.190836
68.110 18.131205
68.115 17.967777
68.120 17.647331
68.125 17.26857
68.130 17.651375
68.135 17.790611
68.140 17.593153
68.145 17.906963
68.150 18.563696
68.155 18.80545
68.160 18.832932
68.165 19.154398
68.170 18.928314
68.175 18.852577
68.180 18.481628
68.185 17.715378
68.190 17.228666
68.195 16.987785
68.200 16.421005
68.205 16.352551
68.210 16.246037
68.215 15.921353
68.220 16.237638
68.225 17.07336
68.230 17.145031
68.235 17.404484
68.240 17.562078
68.245 18.169367
68.250 18.701696
68.255 19.059059
68.260 19.348331
68.265 19.203127
68.270 18.959906
68.275 18.789661
68.280 18.813189
68.285 18.781319
68.290 18.760698
68.295 18.322109
68.300 18.88468
68.305 19.563873
68.310 19.457226
68.315 19.28508
68.320 19.20808
68.325 18.550047
68.330 19.162769
68.335 18.9939
68.340 18.599751
68.345 18.778286
68.350 18.155792
68.355 18.312963
68.360 18.636581
68.365 17.821976
68.370 17.703939
68.375 17.536335
68.380 17.850683
68.385 18.640461
68.390 18.541742
68.395 18.459383
68.400 18.564926
68.405 18.780222
68.410 18.943707
68.415 18.484182
68.420 18.593222
68.425 18.763378
68.430 18.950523
68.435 18.759024
68.440 18.497223
68.445 18.273888
68.450 18.013369
68.455 17.369226
68.460 17.329752
68.465 17.137356
68.470 17.65988
68.475 18.04306
68.480 18.293533
68.485 19.514078
68.490 20.166864
68.495 20.660717
68.500 20.928539
68.505 20.663851
68.510 20.566952
68.515 20.421534
68.520 20.288832
68.525 20.060221
68.530 19.550306
68.535 19.242178
68.540 19.198027
68.545 18.88382
68.550 18.588295
68.555 17.358618
68.560 16.957788
68.565 16.939373
68.570 16.739693
68.575 16.956816
68.580 16.860714
68.585 17.360392
68.590 17.937042
68.595 17.979158
68.600 18.13797
68.605 18.573452
68.610 18.345097
68.615 18.452971
68.620 18.059704
68.625 18.429594
68.630 18.794872
68.635 18.935349
68.640 19.10363
68.645 18.767014
68.650 19.481346
68.655 19.808451
68.660 19.428137
68.665 19.266897
68.670 18.87174
68.675 18.39253
68.680 18.731466
68.685 18.263433
68.690 17.991117
68.695 18.533508
68.700 18.540373
68.705 18.603603
68.710 18.359207
68.715 18.08777
68.720 18.427513
68.725 18.529694
68.730 18.315853
68.735 18.809034
68.740 18.804644
68.745 19.311569
68.750 19.99827
68.755 20.047956
68.760 19.807844
68.765 20.051323
68.770 19.837578
68.775 20.230206
68.780 20.118807
68.785 19.405077
68.790 19.177799
68.795 19.969553
68.800 19.523224
68.805 19.566139
68.810 19.549988
68.815 19.752962
68.820 20.028631
68.825 20.439735
68.830 19.958483
68.835 20.656364
68.840 20.806105
68.845 20.984785
68.850 21.23592
68.855 21.605265
68.860 21.266146
68.865 20.703892
68.870 19.524992
68.875 18.836006
68.880 18.51968
68.885 18.001734
68.890 17.714813
68.895 17.884928
68.900 18.840118
68.905 19.796783
68.910 21.184654
68.915 21.359394
68.920 21.697529
68.925 22.172131
68.930 22.429632
68.935 22.742216
68.940 22.601866
68.945 22.08427
68.950 22.295984
68.955 22.047695
68.960 21.978016
68.965 22.707287
68.970 23.440191
68.975 24.141687
68.980 24.620401
68.985 25.169436
68.990 25.429649
68.995 25.075798
69.000 24.776634
69.005 24.957834
69.010 24.938465
69.015 24.394161
69.020 24.553606
69.025 25.466101
69.030 25.433414
69.035 24.817579
69.040 23.997892
69.045 23.797592
69.050 24.019415
69.055 24.09029
69.060 24.138695
69.065 24.694414
69.070 25.19375
69.075 25.133905
69.080 25.272087
69.085 25.564592
69.090 25.408348
69.095 24.892012
69.100 24.881895
69.105 25.353439
69.110 25.745022
69.115 26.331484
69.120 26.243299
69.125 26.702915
69.130 27.370901
69.135 27.493956
69.140 28.001688
69.145 27.73517
69.150 27.722471
69.155 28.086235
69.160 28.275564
69.165 28.264956
69.170 28.320143
69.175 28.828028
69.180 29.553043
69.185 30.084326
69.190 30.250093
69.195 30.335485
69.200 30.07725
69.205 30.502766
69.210 31.289776
69.215 31.855446
69.220 31.84705
69.225 31.436377
69.230 31.611164
69.235 32.630474
69.240 32.641689
69.245 32.551674
69.250 31.880695
69.255 31.718321
69.260 32.160156
69.265 32.64439
69.270 33.022808
69.275 33.654163
69.280 33.861717
69.285 34.532009
69.290 35.528069
69.295 34.933434
69.300 34.686543
69.305 34.949501
69.310 34.31514
69.315 34.388729
69.320 34.361423
69.325 34.188972
69.330 35.138069
69.335 34.608467
69.340 34.129219
69.345 34.359974
69.350 34.41531
69.355 35.422478
69.360 36.077061
69.365 36.879856
69.370 37.496159
69.375 38.424061
69.380 38.409878
69.385 38.065479
69.390 38.079781
69.395 37.690331
69.400 37.039417
69.405 36.15749
69.410 35.554718
69.415 36.235851
69.420 36.186398
69.425 34.931049
69.430 34.605122
69.435 35.326965
69.440 35.838413
69.445 36.150387
69.450 37.054096
69.455 37.313686
69.460 37.410664
69.465 37.468967
69.470 37.346077
69.475 36.668854
69.480 36.666241
69.485 35.682873
69.490 35.832634
69.495 36.224857
69.500 35.901024
69.505 35.483345
69.510 34.345467
69.515 34.180099
69.520 34.40469
69.525 34.505638
69.530 34.579468
69.535 34.384262
69.540 34.878529
69.545 35.426395
69.550 34.059982
69.555 34.429592
69.560 34.019672
69.565 33.81218
69.570 33.878239
69.575 34.698284
69.580 34.821129
69.585 35.028164
69.590 33.874023
69.595 33.768654
69.600 33.424713
69.605 32.806053
69.610 31.826696
69.615 31.271898
69.620 30.889706
69.625 30.440475
69.630 29.9177
69.635 29.70517
69.640 29.13575
69.645 29.053694
69.650 28.57464
69.655 28.907803
69.660 28.85437
69.665 28.496515
69.670 28.255596
69.675 28.538517
69.680 28.602535
69.685 28.473246
69.690 27.788017
69.695 28.112585
69.700 28.078222
69.705 28.447475
69.710 27.710838
69.715 27.763485
69.720 27.73056
69.725 27.694513
69.730 27.45558
69.735 27.053288
69.740 26.602222
69.745 26.889315
69.750 27.154085
69.755 26.968342
69.760 26.67437
69.765 26.663467
69.770 26.895655
69.775 26.697319
69.780 26.675505
69.785 25.982319
69.790 25.073511
69.795 24.574892
69.800 24.215025
69.805 23.765638
69.810 23.960001
69.815 24.004183
69.820 24.204626
69.825 24.604525
69.830 24.4788
69.835 24.226841
69.840 23.989012
69.845 23.53813
69.850 22.99922
69.855 22.506884
69.860 22.800234
69.865 22.573242
69.870 22.492998
69.875 22.428015
69.880 22.184179
69.885 22.665508
69.890 23.284155
69.895 22.955627
69.900 22.577879
69.905 22.738401
69.910 22.819315
69.915 22.918751
69.920 22.789558
69.925 21.892982
69.930 21.635284
69.935 21.727617
69.940 20.625601
69.945 20.100887
69.950 19.872719
69.955 19.570963
69.960 19.733141
69.965 20.374552
69.970 21.023159
69.975 21.12067
69.980 21.006241
69.985 20.742739
69.990 20.541447
69.995 20.111162
70.000 19.188416
70.005 18.922852
70.010 19.376024
70.015 19.759233
70.020 19.835222
70.025 20.215229
70.030 20.698692
70.035 20.729555
70.040 20.944159
70.045 21.074778
70.050 21.274145
70.055 21.112036
70.060 20.702286
70.065 20.528877
70.070 20.472775
70.075 19.587276
70.080 19.377655
70.085 19.329153
70.090 19.729305
70.095 19.949886
70.100 20.491125
70.105 21.078243
70.110 21.497217
70.115 21.420992
70.120 21.181561
70.125 20.536682
70.130 20.12314
70.135 19.259869
70.140 19.089012
70.145 18.615433
70.150 18.018013
70.155 18.262131
70.160 18.710163
70.165 18.843126
70.170 18.37377
70.175 17.739889
70.180 17.454149
70.185 17.805988
70.190 17.71526
70.195 17.620625
70.200 17.41708
70.205 17.433659
70.210 17.561077
70.215 17.840649
70.220 17.306145
70.225 16.612797
70.230 16.259832
70.235 16.562235
70.240 16.843513
70.245 16.952906
70.250 17.123411
70.255 18.040092
70.260 18.262728
70.265 18.378349
70.270 18.173214
70.275 18.60067
70.280 19.330118
70.285 18.798267
70.290 18.267675
70.295 18.185146
70.300 17.867371
70.305 17.872982
70.310 16.871563
70.315 16.230886
70.320 16.330317
70.325 16.562458
70.330 17.021816
70.335 16.642807
70.340 16.373814
70.345 16.326355
70.350 16.358799
70.355 16.75062
70.360 16.609091
70.365 16.523533
70.370 17.241705
70.375 18.532604
70.380 19.135509
70.385 19.447729
70.390 19.153576
70.395 19.427614
70.400 19.593439
70.405 19.260597
70.410 18.735712
70.415 18.273199
70.420 18.025486
70.425 17.851032
70.430 17.845886
70.435 17.631897
70.440 17.814423
70.445 17.771362
70.450 17.631514
70.455 17.267179
70.460 16.626871
70.465 16.249804
70.470 16.185329
70.475 15.999693
70.480 16.368181
70.485 16.949768
70.490 17.854206
70.495 18.320869
70.500 18.558588
70.505 18.551014
70.510 18.48303
70.515 18.204908
70.520 17.940359
70.525 17.765228
70.530 18.260019
70.535 18.341297
70.540 18.265755
70.545 17.956909
70.550 18.44219
70.555 18.878067
70.560 19.044888
70.565 19.079338
70.570 19.278143
70.575 19.214516
70.580 18.93259
70.585 18.461475
70.590 17.956524
70.595 17.575165
70.600 17.559795
70.605 17.282236
70.610 17.24851
70.615 17.900196
70.620 18.44216
70.625 18.477737
70.630 18.426632
70.635 18.094206
70.640 18.608923
70.645 19.01368
70.650 18.409018
70.655 18.409838
70.660 18.248255
70.665 18.674648
70.670 18.75176
70.675 18.647509
70.680 18.555077
70.685 18.724028
70.690 18.527267
70.695 19.169403
70.700 19.30225
70.705 19.858027
70.710 19.464111
70.715 19.168633
70.720 19.229382
70.725 19.192389
70.730 18.832689
70.735 18.404373
70.740 17.993647
70.745 18.004681
70.750 17.961655
70.755 17.55974
70.760 17.937338
70.765 18.021612
70.770 18.320471
70.775 18.856537
70.780 19.189217
70.785 19.212955
70.790 19.269947
70.795 18.439959
70.800 17.7616
70.805 17.351418
70.810 17.11203
70.815 17.267586
70.820 17.936161
70.825 17.663055
70.830 17.792711
70.835 17.678658
70.840 17.532904
70.845 17.712158
70.850 17.246649
70.855 16.605577
70.860 16.72677
70.865 16.804277
70.870 17.082897
70.875 17.500147
70.880 17.289143
70.885 17.567739
70.890 18.077522
70.895 17.704
70.900 17.895586
70.905 17.220957
70.910 16.45657
70.915 16.758986
70.920 16.719152
70.925 16.737585
70.930 17.107546
70.935 17.038719
70.940 17.596766
70.945 18.039724
70.950 17.627161
70.955 17.197342
70.960 17.489033
70.965 17.172026
70.970 17.03779
70.975 16.766405
70.980 16.205482
70.985 16.247341
70.990 16.680151
70.995 17.213438
71.000 17.511093
71.005 17.875008
71.010 18.785753
71.015 19.556519
71.020 19.405041
71.025 18.591589
71.030 18.563807
71.035 18.449471
71.040 18.091331
71.045 17.267382
71.050 17.087555
71.055 17.1511
71.060 17.809387
71.065 17.270485
71.070 17.637196
71.075 18.124178
71.080 18.21126
71.085 18.299006
71.090 18.260618
71.095 17.425179
71.100 17.249043
71.105 16.728739
71.110 16.24481
71.115 16.304285
71.120 16.233387
71.125 16.658667
71.130 17.748198
71.135 17.995363
71.140 18.111027
71.145 17.588243
71.150 17.069057
71.155 17.441364
71.160 16.928013
71.165 16.327301
71.170 16.458401
71.175 17.228891
71.180 17.436529
71.185 17.373133
71.190 17.446779
71.195 17.72016
71.200 17.956566
71.205 17.921659
71.210 17.361662
71.215 17.610973
71.220 17.889837
71.225 17.799902
71.230 17.80958
71.235 17.08683
71.240 17.227688
71.245 17.578039
71.250 17.925625
71.255 18.330381
71.260 18.239868
71.265 18.346519
71.270 18.507332
71.275 18.263426
71.280 18.198772
71.285 18.480167
71.290 17.793226
71.295 17.976824
71.300 17.702307
71.305 17.615292
71.310 17.781889
71.315 17.312485
71.320 17.088518
71.325 17.221174
71.330 16.886271
71.335 16.887865
71.340 17.018036
71.345 16.709726
71.350 17.047171
71.355 17.204308
71.360 17.161825
71.365 17.162563
71.370 17.487919
71.375 17.770702
71.380 17.948713
71.385 17.382992
71.390 16.769239
71.395 16.470541
71.400 17.185469
71.405 17.50948
71.410 17.469481
71.415 17.68539
71.420 17.45076
71.425 17.454712
71.430 17.208048
71.435 16.806999
71.440 16.241398
71.445 15.540874
71.450 15.523806
71.455 16.016792
71.460 16.886568
71.465 17.272501
71.470 17.156372
71.475 17.856419
71.480 18.370794
71.485 18.363935
71.490 18.478901
71.495 17.889156
71.500 18.015469
71.505 18.432905
71.510 17.657692
71.515 17.637625
71.520 17.886759
71.525 18.165741
71.530 18.58058
71.535 17.890509
71.540 18.2104
71.545 18.613779
71.550 18.417656
71.555 17.949995
71.560 17.400448
71.565 17.274734
71.570 17.356718
71.575 16.473295
71.580 17.013535
71.585 17.393803
71.590 17.704075
71.595 17.973276
71.600 17.71982
71.605 17.619692
71.610 17.501303
71.615 17.078304
71.620 16.425411
71.625 16.44665
71.630 17.115477
71.635 17.836584
71.640 18.507221
71.645 18.67111
71.650 19.308167
71.655 19.712534
71.660 19.576538
71.665 18.990126
71.670 18.800068
71.675 18.888035
71.680 18.714794
71.685 18.628084
71.690 18.643839
71.695 18.076687
71.700 18.280687
71.705 18.475443
71.710 18.741766
71.715 19.068743
71.720 19.246107
71.725 19.093973
71.730 19.254967
71.735 18.807318
71.740 19.22131
71.745 19.223505
71.750 18.561102
71.755 18.415163
71.760 18.758871
71.765 19.044781
71.770 18.763407
71.775 17.710302
71.780 17.425707
71.785 17.489511
71.790 17.381388
71.795 17.101379
71.800 17.045227
71.805 17.351217
71.810 17.643864
71.815 18.161671
71.820 18.213253
71.825 18.082369
71.830 18.284796
71.835 18.448755
71.840 18.20229
71.845 18.001364
71.850 17.440155
71.855 17.189379
71.860 17.159468
71.865 16.421095
71.870 16.060188
71.875 16.286354
71.880 16.312641
71.885 16.632364
71.890 16.443392
71.895 16.532906
71.900 16.753859
71.905 16.898392
71.910 16.778992
71.915 16.686459
71.920 16.797995
71.925 17.009476
71.930 17.101929
71.935 17.112766
71.940 16.885281
71.945 17.323048
71.950 17.511724
71.955 17.123957
71.960 16.898468
71.965 17.322813
71.970 17.338442
71.975 17.162909
71.980 16.999884
71.985 16.977505
71.990 17.090647
71.995 17.128246
72.000 16.87121
72.005 17.162506
72.010 17.299566
72.015 17.407545
72.020 17.308701
72.025 17.73027
72.030 17.72505
72.035 17.74295
72.040 17.824791
72.045 18.171976
72.050 18.188005
72.055 18.468374
72.060 18.302238
72.065 18.414972
72.070 18.367542
72.075 18.02212
72.080 17.169018
72.085 16.559513
72.090 16.361116
72.095 16.491341
72.100 16.740038
72.105 16.724243
72.110 16.688929
72.115 17.012459
72.120 17.113562
72.125 16.783484
72.130 16.351198
72.135 15.832979
72.140 15.82093
72.145 16.225187
72.150 16.58482
72.155 16.544479
72.160 16.469547
72.165 16.82538
72.170 17.061563
72.175 17.060522
72.180 17.348555
72.185 17.038773
72.190 17.92606
72.195 18.625032
72.200 19.485746
72.205 19.670635
72.210 19.166582
72.215 18.622257
72.220 18.653461
72.225 18.310089
72.230 18.577061
72.235 17.632093
72.240 17.874928
72.245 18.203074
72.250 18.107012
72.255 17.865459
72.260 17.276636
72.265 17.333401
72.270 17.428654
72.275 18.03883
72.280 17.751766
72.285 16.956873
72.290 17.192589
72.295 17.076469
72.300 16.679522
72.305 16.424911
72.310 16.138239
72.315 16.747759
72.320 17.279964
72.325 16.757666
72.330 16.98144
72.335 16.899212
72.340 16.732103
72.345 16.666504
72.350 17.069073
72.355 17.682156
72.360 18.062737
72.365 18.310608
72.370 18.26626
72.375 18.361359
72.380 18.80644
72.385 18.843447
72.390 18.422813
72.395 18.293829
72.400 18.434645
72.405 18.285528
72.410 18.137518
72.415 18.077038
72.420 18.195936
72.425 18.424433
72.430 18.443104
72.435 18.212515
72.440 18.252394
72.445 18.645069
72.450 18.384563
72.455 18.10392
72.460 17.972919
72.465 17.919621
72.470 18.211649
72.475 18.469187
72.480 17.664539
72.485 18.181646
72.490 18.434765
72.495 18.59473
72.500 18.574005
72.505 18.417925
72.510 18.303089
72.515 18.362062
72.520 17.825073
72.525 17.400116
72.530 16.937811
72.535 16.507166
72.540 16.466095
72.545 16.662182
72.550 16.800556
72.555 16.863047
72.560 16.92959
72.565 17.088243
72.570 16.770632
72.575 17.004267
72.580 17.165056
72.585 17.054146
72.590 17.236771
72.595 17.03524
72.600 17.407375
72.605 18.027859
72.610 17.700836
72.615 17.378662
72.620 17.509329
72.625 17.280056
72.630 17.379883
72.635 17.517641
72.640 17.214981
72.645 17.267265
72.650 17.018425
72.655 16.906742
72.660 16.809824
72.665 16.932764
72.670 16.570269
72.675 16.683691
72.680 16.576899
72.685 16.355181
72.690 16.679596
72.695 16.634411
72.700 15.877509
72.705 15.636621
72.710 15.745605
72.715 16.085012
72.720 15.841331
72.725 15.739402
72.730 16.783472
72.735 17.29089
72.740 17.33259
72.745 17.16507
72.750 17.096663
72.755 17.311569
72.760 16.700989
72.765 15.722769
72.770 15.539819
72.775 15.575202
72.780 15.592113
72.785 16.050133
72.790 16.83147
72.795 16.863354
72.800 17.321579
72.805 17.382544
72.810 17.223318
72.815 16.760509
72.820 16.209211
72.825 15.961264
72.830 16.276247
72.835 16.432739
72.840 16.275766
72.845 16.559935
72.850 17.12355
72.855 17.235451
72.860 16.857227
72.865 16.290031
72.870 16.151728
72.875 16.054533
72.880 16.173054
72.885 15.794157
72.890 15.661443
72.895 15.354774
72.900 14.976417
72.905 15.270967
72.910 14.868433
72.915 14.386545
72.920 14.972665
72.925 14.673755
72.930 15.508646
72.935 15.755116
72.940 15.83112
72.945 16.305202
72.950 16.198181
72.955 16.449034
72.960 16.39185
72.965 16.111744
72.970 15.865007
72.975 15.329182
72.980 15.13367
72.985 15.025333
72.990 14.702186
72.995 14.969695
73.000 15.773502
