!@!!GADDS PLOTSO FILE: Chi integration type
!@!!Title/SampleName: map-22
!@!!Comment: ?
!@!!User: Bruker Instrument Administrator
!@!!Site: University of Illinois Chicago
!@!!Frame: map-22_01_000.gfrm
!@!!Wavelengths    1.54184   1.54056   1.54439
!@!!Frame angles: 2Theta: 63.000 Omega: 50.000 Phi: 0.000 Chi: 90.000
!@!!Integration range: 2Theta: 53.000 to 73.000  Gamma: -105.000 to -75.000
!@!!Integration method: bin normalized
!@!N
!@!SS
!@!M
!@!L 0.0 0.0 0.0 0.0
!@!XDegrees
!@!YCounts
53.000 9.876804
53.005 10.094286
53.010 10.068937
53.015 10.218619
53.020 10.182563
53.025 10.275805
53.030 10.2041
53.035 9.667509
53.040 9.498672
53.045 9.828008
53.050 9.801991
53.055 9.56252
53.060 9.181129
53.065 9.200271
53.070 9.459902
53.075 9.090081
53.080 8.415768
53.085 8.770052
53.090 9.161185
53.095 9.661046
53.100 9.746211
53.105 9.665237
53.110 9.681389
53.115 10.301427
53.120 10.296129
53.125 10.092078
53.130 9.984719
53.135 10.056742
53.140 9.928348
53.145 10.026624
53.150 10.150855
53.155 10.49403
53.160 10.535882
53.165 10.299211
53.170 10.400391
53.175 10.568256
53.180 10.638746
53.185 10.067745
53.190 10.311619
53.195 10.001825
53.200 9.828969
53.205 9.628647
53.210 9.654126
53.215 9.227179
53.220 9.310463
53.225 9.265337
53.230 9.589647
53.235 9.63084
53.240 9.747272
53.245 9.974411
53.250 10.464311
53.255 10.646596
53.260 10.42052
53.265 10.188375
53.270 10.263301
53.275 10.120697
53.280 9.731373
53.285 9.96917
53.290 10.092786
53.295 10.715489
53.300 11.229433
53.305 11.446938
53.310 11.769021
53.315 11.381863
53.320 10.997906
53.325 10.51903
53.330 10.249857
53.335 9.829306
53.340 9.344903
53.345 9.397531
53.350 9.790572
53.355 9.780968
53.360 9.48753
53.365 9.282768
53.370 9.783483
53.375 10.012345
53.380 9.580976
53.385 9.437944
53.390 9.445459
53.395 9.699232
53.400 10.017125
53.405 9.946513
53.410 10.379702
53.415 10.715932
53.420 10.550571
53.425 10.657077
53.430 10.306503
53.435 10.075758
53.440 10.091223
53.445 9.738782
53.450 10.344174
53.455 11.148556
53.460 11.017529
53.465 11.140839
53.470 11.008738
53.475 11.316313
53.480 11.226984
53.485 10.599608
53.490 10.198633
53.495 10.385799
53.500 10.701733
53.505 10.946353
53.510 10.350656
53.515 9.852033
53.520 9.476002
53.525 9.064363
53.530 8.727755
53.535 8.201523
53.540 8.211752
53.545 8.742061
53.550 9.077909
53.555 9.852663
53.560 10.532268
53.565 10.651781
53.570 10.537533
53.575 10.80536
53.580 10.897809
53.585 10.844288
53.590 10.178763
53.595 9.997903
53.600 10.237758
53.605 10.670048
53.610 10.575352
53.615 10.291196
53.620 10.825952
53.625 11.386909
53.630 11.652305
53.635 11.719698
53.640 11.154945
53.645 10.93693
53.650 11.469379
53.655 11.250572
53.660 10.726071
53.665 10.719189
53.670 10.819839
53.675 11.17806
53.680 10.944451
53.685 10.729365
53.690 10.571065
53.695 10.456734
53.700 10.485081
53.705 10.557532
53.710 10.676349
53.715 11.075297
53.720 11.092212
53.725 11.050211
53.730 11.117486
53.735 11.138399
53.740 11.203414
53.745 11.338495
53.750 10.937006
53.755 10.668194
53.760 10.950417
53.765 11.144661
53.770 10.739866
53.775 10.602359
53.780 10.729784
53.785 10.766738
53.790 10.75472
53.795 10.784696
53.800 10.354599
53.805 10.363113
53.810 9.981183
53.815 9.813011
53.820 10.258582
53.825 10.274457
53.830 10.192645
53.835 10.400717
53.840 10.401052
53.845 10.594015
53.850 10.823442
53.855 10.710397
53.860 10.582661
53.865 10.166296
53.870 9.752797
53.875 10.199707
53.880 10.335285
53.885 10.172626
53.890 10.232447
53.895 10.408195
53.900 10.710296
53.905 10.933619
53.910 10.817186
53.915 10.68925
53.920 10.788797
53.925 11.226444
53.930 11.448754
53.935 11.415424
53.940 11.29846
53.945 11.507895
53.950 11.414651
53.955 11.497381
53.960 11.251322
53.965 11.551133
53.970 12.226978
53.975 12.330101
53.980 12.277294
53.985 12.391578
53.990 12.509284
53.995 12.448274
54.000 12.162788
54.005 11.71397
54.010 11.44532
54.015 11.331868
54.020 10.917374
54.025 10.575267
54.030 10.601835
54.035 10.606715
54.040 10.699596
54.045 10.419925
54.050 10.381471
54.055 10.49719
54.060 10.028335
54.065 9.541073
54.070 9.867484
54.075 10.208329
54.080 10.767394
54.085 11.13077
54.090 11.729031
54.095 12.564494
54.100 13.181432
54.105 13.372975
54.110 13.701033
54.115 13.813742
54.120 13.284662
54.125 12.940311
54.130 12.923036
54.135 12.829602
54.140 12.472991
54.145 12.393076
54.150 12.554182
54.155 12.671363
54.160 12.806618
54.165 12.334537
54.170 11.845345
54.175 11.744221
54.180 11.146373
54.185 10.773304
54.190 10.774517
54.195 10.662924
54.200 11.230536
54.205 11.691917
54.210 11.976671
54.215 12.088908
54.220 12.004134
54.225 12.014125
54.230 12.285466
54.235 12.251729
54.240 11.940354
54.245 11.533091
54.250 11.459106
54.255 11.558469
54.260 11.880702
54.265 11.600476
54.270 11.741224
54.275 11.883197
54.280 12.202739
54.285 12.21937
54.290 12.009128
54.295 11.814997
54.300 11.888325
54.305 11.858264
54.310 11.746697
54.315 12.039412
54.320 12.465823
54.325 12.643396
54.330 12.413793
54.335 12.949652
54.340 12.790912
54.345 12.636202
54.350 13.001438
54.355 13.135154
54.360 13.240722
54.365 12.970551
54.370 12.68115
54.375 13.278803
54.380 13.807763
54.385 13.37558
54.390 13.458385
54.395 14.128031
54.400 14.492834
54.405 14.658775
54.410 14.121129
54.415 13.072166
54.420 12.903579
54.425 12.344948
54.430 11.363728
54.435 10.968009
54.440 10.794145
54.445 11.212751
54.450 11.387197
54.455 11.250889
54.460 11.398531
54.465 11.553154
54.470 11.289313
54.475 10.965794
54.480 10.775249
54.485 10.62856
54.490 10.416678
54.495 10.660439
54.500 11.017845
54.505 11.67348
54.510 11.802361
54.515 11.988944
54.520 12.045717
54.525 11.929139
54.530 11.705976
54.535 11.708295
54.540 11.118105
54.545 10.63113
54.550 10.99691
54.555 11.193295
54.560 11.189762
54.565 11.048708
54.570 11.242376
54.575 12.293514
54.580 12.752339
54.585 13.135004
54.590 13.208962
54.595 13.267304
54.600 12.920057
54.605 12.222336
54.610 11.879177
54.615 11.98561
54.620 11.1434
54.625 11.191049
54.630 11.476982
54.635 11.894793
54.640 12.245355
54.645 11.73656
54.650 11.413264
54.655 11.62119
54.660 11.931228
54.665 12.164442
54.670 11.814139
54.675 11.452084
54.680 11.641722
54.685 11.38793
54.690 11.33767
54.695 10.989674
54.700 10.861101
54.705 11.182148
54.710 11.515352
54.715 11.936769
54.720 12.187398
54.725 12.650586
54.730 12.789778
54.735 12.591651
54.740 12.713838
54.745 12.697721
54.750 12.160594
54.755 11.686068
54.760 11.062931
54.765 11.298408
54.770 11.523536
54.775 11.035945
54.780 10.459643
54.785 10.559736
54.790 11.055937
54.795 11.210394
54.800 11.269303
54.805 11.149312
54.810 11.727865
54.815 12.068429
54.820 12.368469
54.825 12.935981
54.830 12.469997
54.835 12.151284
54.840 12.244739
54.845 12.328494
54.850 12.157434
54.855 11.690014
54.860 10.874268
54.865 11.18064
54.870 11.2273
54.875 11.207603
54.880 10.925619
54.885 11.461522
54.890 11.891014
54.895 12.463494
54.900 12.167219
54.905 11.962074
54.910 12.007175
54.915 12.337862
54.920 12.579042
54.925 12.398723
54.930 12.467365
54.935 12.818542
54.940 13.020442
54.945 13.431194
54.950 13.655056
54.955 13.170257
54.960 12.710274
54.965 12.372035
54.970 12.546044
54.975 12.61996
54.980 12.162488
54.985 12.044779
54.990 12.307043
54.995 12.716781
55.000 12.941339
55.005 12.263954
55.010 11.984233
55.015 11.927326
55.020 11.775816
55.025 11.607254
55.030 11.664028
55.035 11.922942
55.040 12.336198
55.045 12.749011
55.050 12.784287
55.055 12.910306
55.060 12.886443
55.065 12.301624
55.070 12.074636
55.075 12.258869
55.080 12.901758
55.085 12.783574
55.090 13.190087
55.095 13.788703
55.100 14.209926
55.105 14.344382
55.110 14.125453
55.115 13.307314
55.120 13.116237
55.125 12.535899
55.130 11.801894
55.135 11.848822
55.140 11.530364
55.145 11.65387
55.150 12.09768
55.155 12.513438
55.160 12.936666
55.165 13.125373
55.170 13.075283
55.175 13.55444
55.180 13.524902
55.185 13.211488
55.190 12.9199
55.195 12.789048
55.200 12.768007
55.205 13.150954
55.210 13.347423
55.215 13.885754
55.220 13.922067
55.225 14.147572
55.230 13.869379
55.235 14.081171
55.240 13.78089
55.245 13.012688
55.250 12.616271
55.255 11.966254
55.260 11.760481
55.265 12.027538
55.270 11.698664
55.275 11.63024
55.280 11.685132
55.285 11.89131
55.290 12.140686
55.295 11.743283
55.300 11.603641
55.305 11.520721
55.310 11.525176
55.315 11.100842
55.320 10.971376
55.325 11.47733
55.330 11.62567
55.335 11.447089
55.340 11.05092
55.345 10.822411
55.350 10.602161
55.355 10.537769
55.360 10.285733
55.365 10.366449
55.370 10.652217
55.375 10.842377
55.380 11.194852
55.385 11.815932
55.390 11.671315
55.395 12.010853
55.400 12.061495
55.405 11.725502
55.410 11.942139
55.415 11.977595
55.420 11.638298
55.425 11.849984
55.430 12.011166
55.435 12.212195
55.440 12.769107
55.445 12.689312
55.450 12.383834
55.455 12.229641
55.460 11.314322
55.465 11.228271
55.470 11.534676
55.475 11.605742
55.480 11.971296
55.485 12.398265
55.490 13.273143
55.495 13.633428
55.500 13.133588
55.505 12.437519
55.510 12.270601
55.515 12.23152
55.520 12.168839
55.525 11.747174
55.530 12.118968
55.535 12.790411
55.540 13.152562
55.545 13.060917
55.550 12.91378
55.555 12.676909
55.560 12.508356
55.565 12.671729
55.570 12.509539
55.575 12.508868
55.580 12.543917
55.585 12.668817
55.590 12.781391
55.595 13.214832
55.600 12.987761
55.605 12.720114
55.610 12.739675
55.615 12.759788
55.620 13.022309
55.625 13.203007
55.630 12.530281
55.635 12.395061
55.640 12.717661
55.645 13.100423
55.650 13.22653
55.655 13.296598
55.660 13.741027
55.665 14.519622
55.670 14.502233
55.675 14.751338
55.680 14.411508
55.685 14.043075
55.690 13.878955
55.695 13.155055
55.700 13.184798
55.705 13.464927
55.710 13.066357
55.715 12.37247
55.720 12.229652
55.725 12.324928
55.730 12.373298
55.735 11.982325
55.740 11.457733
55.745 11.772912
55.750 12.493737
55.755 12.856114
55.760 13.048356
55.765 13.125682
55.770 13.1104
55.775 12.844117
55.780 12.930026
55.785 12.422392
55.790 11.989264
55.795 11.661677
55.800 11.332444
55.805 11.536685
55.810 11.864933
55.815 12.0737
55.820 12.320837
55.825 12.587886
55.830 12.706793
55.835 13.329374
55.840 13.613086
55.845 13.30789
55.850 13.339643
55.855 13.165031
55.860 12.687321
55.865 12.429229
55.870 11.960715
55.875 11.973305
55.880 12.228996
55.885 12.020247
55.890 12.03285
55.895 12.390738
55.900 12.757445
55.905 12.973227
55.910 13.130589
55.915 13.353956
55.920 13.673881
55.925 14.166889
55.930 14.19443
55.935 14.485459
55.940 14.827656
55.945 14.897684
55.950 15.118112
55.955 15.055442
55.960 15.021168
55.965 15.062262
55.970 14.684889
55.975 14.316632
55.980 13.42198
55.985 13.084302
55.990 12.839527
55.995 12.337805
56.000 11.892577
56.005 11.779261
56.010 11.350656
56.015 11.449955
56.020 10.694921
56.025 10.602903
56.030 10.667193
56.035 10.948643
56.040 11.174833
56.045 11.815477
56.050 12.420008
56.055 12.877971
56.060 13.277326
56.065 13.545946
56.070 13.443437
56.075 13.366896
56.080 12.817018
56.085 12.715105
56.090 12.844584
56.095 12.705012
56.100 12.635381
56.105 12.485284
56.110 12.676692
56.115 12.757795
56.120 12.783478
56.125 12.875079
56.130 13.268381
56.135 13.616024
56.140 13.869338
56.145 14.226147
56.150 14.154775
56.155 14.125913
56.160 14.067653
56.165 13.912857
56.170 14.423215
56.175 14.308321
56.180 14.049291
56.185 14.277199
56.190 14.351296
56.195 14.423831
56.200 13.810945
56.205 12.698109
56.210 12.21184
56.215 11.909956
56.220 11.640368
56.225 11.642505
56.230 11.881683
56.235 12.293793
56.240 13.365364
56.245 14.684145
56.250 15.621543
56.255 15.696394
56.260 15.732402
56.265 16.238792
56.270 15.805909
56.275 15.054063
56.280 13.887794
56.285 13.133745
56.290 13.234049
56.295 13.301805
56.300 13.139741
56.305 13.741777
56.310 14.133853
56.315 14.692121
56.320 15.162509
56.325 14.765599
56.330 14.488812
56.335 14.171859
56.340 14.440115
56.345 14.662867
56.350 14.326344
56.355 14.289778
56.360 13.707941
56.365 13.84362
56.370 13.444721
56.375 12.218735
56.380 12.183466
56.385 12.036191
56.390 11.594797
56.395 11.70444
56.400 11.535058
56.405 11.892742
56.410 12.566474
56.415 11.808187
56.420 12.015701
56.425 12.512568
56.430 13.170627
56.435 13.230573
56.440 13.074306
56.445 13.249858
56.450 13.539406
56.455 14.261308
56.460 14.880817
56.465 14.807716
56.470 14.789526
56.475 14.955319
56.480 14.509418
56.485 14.336561
56.490 14.312426
56.495 13.857535
56.500 13.606451
56.505 13.644539
56.510 13.528578
56.515 13.562806
56.520 13.634599
56.525 13.240839
56.530 13.228742
56.535 13.109756
56.540 13.175281
56.545 13.33064
56.550 13.491279
56.555 13.640359
56.560 13.156673
56.565 12.937434
56.570 13.453778
56.575 13.383418
56.580 13.551149
56.585 13.663383
56.590 13.373871
56.595 13.740772
56.600 13.860434
56.605 13.99751
56.610 13.905228
56.615 14.115887
56.620 14.076721
56.625 14.498205
56.630 14.534629
56.635 14.546845
56.640 14.314545
56.645 14.83442
56.650 14.446292
56.655 14.222493
56.660 14.230308
56.665 14.280869
56.670 13.614281
56.675 13.727634
56.680 13.52428
56.685 13.651321
56.690 14.125316
56.695 14.163192
56.700 13.812599
56.705 14.310917
56.710 13.681052
56.715 13.888502
56.720 14.328096
56.725 13.760025
56.730 14.228458
56.735 14.321885
56.740 14.453796
56.745 14.840596
56.750 15.290253
56.755 15.020025
56.760 15.600453
56.765 15.559576
56.770 15.764424
56.775 15.923098
56.780 16.144962
56.785 15.690653
56.790 15.873212
56.795 15.648144
56.800 15.704197
56.805 15.763735
56.810 15.691385
56.815 15.065852
56.820 15.228772
56.825 15.445277
56.830 15.208825
56.835 15.372623
56.840 15.891635
56.845 16.395918
56.850 16.123472
56.855 16.011492
56.860 15.88961
56.865 16.01276
56.870 15.554174
56.875 15.033719
56.880 14.65511
56.885 14.983777
56.890 14.538262
56.895 14.202941
56.900 14.032619
56.905 14.229425
56.910 13.990063
56.915 13.954926
56.920 13.964797
56.925 14.229426
56.930 14.544028
56.935 14.8021
56.940 15.194828
56.945 15.340211
56.950 15.111965
56.955 15.042602
56.960 14.989759
56.965 14.926819
56.970 14.35632
56.975 14.159239
56.980 14.47631
56.985 14.222139
56.990 14.011087
56.995 13.579
57.000 13.880783
57.005 14.185826
57.010 13.810185
57.015 13.768878
57.020 14.602208
57.025 14.808308
57.030 15.43121
57.035 14.982051
57.040 15.069606
57.045 15.046686
57.050 14.994628
57.055 14.677423
57.060 14.530458
57.065 14.035726
57.070 14.429348
57.075 14.236504
57.080 14.113642
57.085 13.852052
57.090 14.339773
57.095 14.553303
57.100 14.990891
57.105 14.625377
57.110 14.723126
57.115 14.716966
57.120 14.3692
57.125 13.82585
57.130 13.374874
57.135 13.119368
57.140 12.885642
57.145 12.99448
57.150 14.037617
57.155 14.527449
57.160 14.875918
57.165 15.403287
57.170 15.777577
57.175 15.809121
57.180 15.607603
57.185 15.047658
57.190 15.219041
57.195 15.177046
57.200 14.941992
57.205 15.093747
57.210 15.557063
57.215 15.725507
57.220 15.217237
57.225 14.935068
57.230 14.884397
57.235 14.777967
57.240 14.91243
57.245 14.780676
57.250 15.117743
57.255 15.254895
57.260 15.493295
57.265 15.765805
57.270 15.521111
57.275 14.633919
57.280 14.384779
57.285 13.981207
57.290 13.930778
57.295 13.552382
57.300 13.440204
57.305 13.507217
57.310 13.670427
57.315 13.451679
57.320 13.736451
57.325 14.168386
57.330 14.090452
57.335 13.433331
57.340 13.280594
57.345 13.513021
57.350 13.929543
57.355 13.851022
57.360 14.057133
57.365 14.126038
57.370 14.54114
57.375 15.317698
57.380 15.625219
57.385 15.149829
57.390 14.982406
57.395 14.838351
57.400 15.368607
57.405 15.51009
57.410 15.063006
57.415 14.83837
57.420 14.717697
57.425 14.447607
57.430 13.951937
57.435 13.528708
57.440 13.57433
57.445 13.259056
57.450 13.204367
57.455 13.129025
57.460 13.3363
57.465 13.822791
57.470 14.200127
57.475 14.790606
57.480 15.15125
57.485 15.591661
57.490 16.285654
57.495 16.605406
57.500 16.668465
57.505 16.75185
57.510 16.221008
57.515 16.398592
57.520 16.369013
57.525 15.839265
57.530 15.505019
57.535 14.994116
57.540 14.724386
57.545 14.951486
57.550 14.435695
57.555 14.355015
57.560 14.816465
57.565 14.973934
57.570 15.139304
57.575 15.341253
57.580 15.231909
57.585 15.428028
57.590 15.986397
57.595 15.85098
57.600 15.925658
57.605 15.746857
57.610 15.493672
57.615 15.532161
57.620 15.705056
57.625 15.248507
57.630 15.171721
57.635 15.000557
57.640 15.14388
57.645 15.260573
57.650 15.038937
57.655 14.796247
57.660 14.56931
57.665 14.78489
57.670 14.996075
57.675 14.336163
57.680 13.852625
57.685 14.344689
57.690 14.876804
57.695 15.179042
57.700 15.133312
57.705 14.749719
57.710 15.370252
57.715 16.129738
57.720 15.854676
57.725 15.638463
57.730 15.271573
57.735 15.516582
57.740 16.229166
57.745 15.911415
57.750 15.914333
57.755 15.994079
57.760 15.843822
57.765 15.842527
57.770 15.838407
57.775 15.825873
57.780 16.238651
57.785 15.75002
57.790 15.568141
57.795 15.564886
57.800 15.483087
57.805 15.242687
57.810 15.474513
57.815 15.697524
57.820 15.860611
57.825 16.243801
57.830 16.923325
57.835 17.104143
57.840 17.331619
57.845 16.83427
57.850 16.945236
57.855 17.075981
57.860 16.864466
57.865 16.217808
57.870 16.120558
57.875 16.057791
57.880 15.441452
57.885 15.014953
57.890 15.176648
57.895 15.304123
57.900 15.286442
57.905 15.376006
57.910 15.531581
57.915 16.517729
57.920 16.772715
57.925 16.429962
57.930 16.292543
57.935 16.299408
57.940 16.16424
57.945 15.869883
57.950 15.017003
57.955 14.495989
57.960 14.373935
57.965 14.088355
57.970 14.502079
57.975 14.568666
57.980 15.095055
57.985 15.551911
57.990 15.435155
57.995 15.389006
58.000 15.522393
58.005 15.196779
58.010 15.539134
58.015 15.622149
58.020 15.637452
58.025 16.516199
58.030 16.888233
58.035 16.820459
58.040 16.500849
58.045 15.833028
58.050 15.244281
58.055 14.878436
58.060 14.433808
58.065 14.261616
58.070 14.029867
58.075 13.669494
58.080 14.263126
58.085 14.323507
58.090 14.029493
58.095 14.323619
58.100 14.476234
58.105 14.274866
58.110 14.85112
58.115 14.390924
58.120 15.316477
58.125 15.950144
58.130 15.467267
58.135 15.577879
58.140 15.984983
58.145 16.002502
58.150 15.713621
58.155 14.902833
58.160 14.383651
58.165 14.335779
58.170 14.533834
58.175 14.935354
58.180 14.33544
58.185 14.165033
58.190 14.361036
58.195 14.984804
58.200 15.297326
58.205 15.158167
58.210 14.764771
58.215 15.200151
58.220 15.510564
58.225 15.160246
58.230 14.632753
58.235 14.867141
58.240 15.128846
58.245 15.171505
58.250 15.61718
58.255 15.992348
58.260 16.435795
58.265 16.644741
58.270 16.633121
58.275 16.935986
58.280 16.760309
58.285 16.327423
58.290 16.334402
58.295 16.414972
58.300 16.341614
58.305 16.30448
58.310 16.684118
58.315 17.141199
58.320 17.428926
58.325 17.095762
58.330 16.845762
58.335 16.521183
58.340 15.733393
58.345 15.402046
58.350 15.050843
58.355 15.169191
58.360 15.407619
58.365 16.027666
58.370 16.417524
58.375 16.66337
58.380 16.815266
58.385 16.975691
58.390 16.675571
58.395 16.635136
58.400 16.206556
58.405 16.392059
58.410 16.654457
58.415 16.50251
58.420 16.316059
58.425 16.364323
58.430 16.416531
58.435 16.069876
58.440 16.283144
58.445 16.168343
58.450 15.974165
58.455 15.7957
58.460 15.482421
58.465 15.248919
58.470 15.688271
58.475 15.230553
58.480 14.776686
58.485 14.860692
58.490 14.813788
58.495 14.932822
58.500 14.568286
58.505 14.200521
58.510 14.441669
58.515 14.656387
58.520 14.588485
58.525 15.057394
58.530 15.272817
58.535 15.88998
58.540 15.791951
58.545 15.803513
58.550 15.689029
58.555 15.802673
58.560 15.84074
58.565 15.997948
58.570 15.807685
58.575 16.233301
58.580 16.381735
58.585 16.415735
58.590 16.473606
58.595 16.488445
58.600 16.744129
58.605 16.624306
58.610 15.976342
58.615 16.009855
58.620 15.954597
58.625 16.353117
58.630 16.275135
58.635 16.247194
58.640 16.459455
58.645 16.484961
58.650 16.264874
58.655 16.784685
58.660 16.808973
58.665 17.204496
58.670 17.399342
58.675 17.844172
58.680 18.289034
58.685 18.468689
58.690 18.321703
58.695 18.060867
58.700 17.501348
58.705 16.986399
58.710 16.227249
58.715 15.983104
58.720 16.044226
58.725 15.850937
58.730 15.1417
58.735 14.754596
58.740 14.518809
58.745 14.493839
58.750 14.803445
58.755 14.601402
58.760 14.488637
58.765 14.917888
58.770 15.551938
58.775 15.904416
58.780 16.81855
58.785 16.81139
58.790 16.604279
58.795 16.809143
58.800 16.852095
58.805 16.506945
58.810 16.726244
58.815 16.42663
58.820 16.919458
58.825 17.805727
58.830 17.800863
58.835 17.812544
58.840 17.924395
58.845 18.034883
58.850 17.801758
58.855 17.059429
58.860 16.78348
58.865 17.087259
58.870 17.149311
58.875 17.451324
58.880 16.934649
58.885 16.931238
58.890 17.018547
58.895 16.777302
58.900 16.233223
58.905 16.015453
58.910 16.116713
58.915 16.694345
58.920 16.787476
58.925 17.322876
58.930 17.732471
58.935 17.787775
58.940 17.629147
58.945 17.697912
58.950 17.236219
58.955 17.208569
58.960 16.824234
58.965 16.730293
58.970 16.995455
58.975 16.662569
58.980 16.800367
58.985 17.362875
58.990 17.469305
58.995 17.368078
59.000 17.079594
59.005 17.821667
59.010 18.643187
59.015 18.581816
59.020 18.208853
59.025 18.142275
59.030 18.891191
59.035 19.327507
59.040 18.990959
59.045 18.551989
59.050 17.65621
59.055 17.241743
59.060 16.947273
59.065 16.944714
59.070 16.758141
59.075 16.467243
59.080 17.221052
59.085 17.8515
59.090 18.057074
59.095 18.392279
59.100 17.789968
59.105 17.768915
59.110 17.811239
59.115 17.174757
59.120 16.79936
59.125 16.407431
59.130 15.931171
59.135 16.06016
59.140 16.022406
59.145 15.957589
59.150 16.019583
59.155 16.45645
59.160 16.698954
59.165 17.095228
59.170 17.310431
59.175 17.613165
59.180 17.225077
59.185 16.839911
59.190 16.369184
59.195 16.35009
59.200 15.897791
59.205 15.325894
59.210 15.038861
59.215 16.057716
59.220 16.601738
59.225 16.855492
59.230 17.127619
59.235 17.415762
59.240 17.303965
59.245 17.766432
59.250 17.051397
59.255 16.97073
59.260 16.915726
59.265 16.390535
59.270 15.852684
59.275 15.552334
59.280 14.61948
59.285 14.598809
59.290 14.644402
59.295 15.277874
59.300 15.889527
59.305 16.307795
59.310 16.809973
59.315 16.868328
59.320 16.703049
59.325 17.141035
59.330 17.282715
59.335 17.139759
59.340 17.127781
59.345 17.097832
59.350 17.44919
59.355 17.640991
59.360 17.033092
59.365 16.112797
59.370 15.758146
59.375 16.013765
59.380 15.994319
59.385 15.70557
59.390 16.417196
59.395 16.855396
59.400 17.590145
59.405 17.777399
59.410 17.500422
59.415 17.798729
59.420 18.204319
59.425 17.421154
59.430 16.94668
59.435 16.865595
59.440 16.995306
59.445 17.378292
59.450 17.231092
59.455 17.123577
59.460 17.497437
59.465 17.822649
59.470 17.747253
59.475 18.122353
59.480 18.400848
59.485 18.313778
59.490 17.906012
59.495 17.870205
59.500 17.728186
59.505 17.821907
59.510 17.640944
59.515 17.351477
59.520 17.980215
59.525 18.575672
59.530 18.230989
59.535 18.387049
59.540 17.981457
59.545 17.737591
59.550 17.715595
59.555 17.672476
59.560 17.569857
59.565 18.599928
59.570 18.270693
59.575 18.169102
59.580 17.968433
59.585 17.9011
59.590 17.688128
59.595 17.988274
59.600 17.056198
59.605 17.581177
59.610 17.859301
59.615 18.13039
59.620 17.85428
59.625 17.306959
59.630 16.918554
59.635 17.428162
59.640 17.582443
59.645 17.892185
59.650 17.903292
59.655 18.238813
59.660 18.69339
59.665 18.965637
59.670 18.276299
59.675 17.810596
59.680 17.497749
59.685 17.581573
59.690 17.714552
59.695 17.989016
59.700 18.137959
59.705 18.176203
59.710 18.865576
59.715 19.014709
59.720 18.730165
59.725 18.585432
59.730 19.225193
59.735 19.250685
59.740 19.582626
59.745 19.355516
59.750 19.527027
59.755 19.84795
59.760 20.087532
59.765 19.434137
59.770 19.444006
59.775 20.134462
59.780 20.122467
59.785 20.041286
59.790 19.692442
59.795 19.646215
59.800 20.123205
59.805 20.170868
59.810 19.595652
59.815 19.668062
59.820 19.752882
59.825 19.79307
59.830 19.099695
59.835 18.745077
59.840 18.549507
59.845 18.253725
59.850 18.336411
59.855 18.857792
59.860 19.030659
59.865 19.456194
59.870 19.637621
59.875 20.604155
59.880 20.854883
59.885 20.543102
59.890 19.991312
59.895 20.150045
59.900 20.207651
59.905 19.624315
59.910 18.864321
59.915 18.92609
59.920 19.803844
59.925 20.213388
59.930 20.267607
59.935 20.10078
59.940 20.732752
59.945 21.638212
59.950 21.790461
59.955 21.517056
59.960 21.21505
59.965 21.354738
59.970 21.353788
59.975 20.767406
59.980 19.709284
59.985 19.423203
59.990 20.08672
59.995 20.504725
60.000 20.896717
60.005 21.036762
60.010 21.679991
60.015 21.875988
60.020 21.693167
60.025 21.684496
60.030 21.339394
60.035 21.321299
60.040 21.637091
60.045 21.81988
60.050 22.295059
60.055 23.178225
60.060 23.462622
60.065 23.702818
60.070 23.961771
60.075 24.472435
60.080 24.996685
60.085 25.621666
60.090 24.89604
60.095 24.742382
60.100 24.775711
60.105 24.301882
60.110 23.57893
60.115 22.638634
60.120 22.737026
60.125 23.086441
60.130 22.839436
60.135 22.763435
60.140 22.887293
60.145 22.90027
60.150 23.271107
60.155 22.763166
60.160 22.606138
60.165 22.980007
60.170 22.738876
60.175 22.21966
60.180 22.408012
60.185 22.589258
60.190 22.411594
60.195 21.98774
60.200 21.909702
60.205 22.377962
60.210 22.570992
60.215 22.401363
60.220 22.071472
60.225 22.179577
60.230 23.011427
60.235 23.39123
60.240 23.158691
60.245 23.121189
60.250 23.353348
60.255 23.896816
60.260 24.062737
60.265 23.421547
60.270 23.039499
60.275 22.97411
60.280 23.186838
60.285 23.406696
60.290 23.308533
60.295 23.32806
60.300 22.936733
60.305 22.809549
60.310 23.239637
60.315 23.20591
60.320 22.90555
60.325 21.633236
60.330 20.787926
60.335 20.543144
60.340 19.963324
60.345 19.729059
60.350 19.452356
60.355 19.44446
60.360 20.522421
60.365 20.843588
60.370 21.118711
60.375 21.590151
60.380 21.36339
60.385 21.354052
60.390 21.420111
60.395 21.083506
60.400 21.206593
60.405 21.204569
60.410 21.025881
60.415 20.724541
60.420 21.024729
60.425 21.302341
60.430 21.566755
60.435 21.921194
60.440 22.233513
60.445 22.745071
60.450 22.893595
60.455 23.019039
60.460 22.960583
60.465 23.347471
60.470 23.29665
60.475 23.248774
60.480 23.389221
60.485 22.824362
60.490 21.923271
60.495 22.233471
60.500 21.294638
60.505 20.670679
60.510 20.863548
60.515 20.912903
60.520 21.007566
60.525 21.174839
60.530 20.689642
60.535 20.876301
60.540 21.155272
60.545 21.131794
60.550 21.867464
60.555 22.725574
60.560 22.795113
60.565 22.201681
60.570 21.874802
60.575 21.698298
60.580 21.356567
60.585 20.518423
60.590 20.439402
60.595 20.24585
60.600 20.725019
60.605 21.796522
60.610 21.562305
60.615 21.355639
60.620 21.732584
60.625 21.800545
60.630 21.868174
60.635 21.4478
60.640 20.909647
60.645 21.772953
60.650 21.494337
60.655 20.657383
60.660 20.782494
60.665 21.416864
60.670 21.484453
60.675 20.916962
60.680 21.080153
60.685 21.315125
60.690 21.264187
60.695 20.689499
60.700 19.866512
60.705 20.300598
60.710 20.457663
60.715 19.554541
60.720 19.469957
60.725 19.725601
60.730 19.775848
60.735 20.006588
60.740 19.90201
60.745 19.980444
60.750 19.796926
60.755 19.997633
60.760 20.424168
60.765 20.512791
60.770 20.944284
60.775 20.973822
60.780 20.938887
60.785 21.186102
60.790 20.82662
60.795 20.555939
60.800 20.589611
60.805 20.64801
60.810 20.488279
60.815 19.818027
60.820 19.472015
60.825 19.362892
60.830 19.485876
60.835 19.00642
60.840 18.127289
60.845 18.281324
60.850 19.239311
60.855 19.851183
60.860 19.648958
60.865 19.057453
60.870 19.004826
60.875 19.513041
60.880 19.401472
60.885 19.140066
60.890 19.414444
60.895 19.560478
60.900 19.567501
60.905 19.431417
60.910 19.133455
60.915 19.252459
60.920 19.060354
60.925 18.470455
60.930 18.685644
60.935 18.802866
60.940 19.042244
60.945 18.59269
60.950 17.811541
60.955 17.268841
60.960 17.0109
60.965 16.51166
60.970 16.632881
60.975 16.801218
60.980 17.4167
60.985 18.669199
60.990 18.953318
60.995 19.125574
61.000 19.125782
61.005 19.408751
61.010 19.188253
61.015 18.892376
61.020 18.255236
61.025 18.69347
61.030 19.066368
61.035 19.434736
61.040 19.378103
61.045 19.094305
61.050 19.273926
61.055 19.71172
61.060 19.332634
61.065 19.095594
61.070 18.5534
61.075 18.294378
61.080 18.683424
61.085 18.711958
61.090 18.463493
61.095 19.069216
61.100 18.983829
61.105 19.897221
61.110 20.354259
61.115 20.172533
61.120 19.727537
61.125 19.601393
61.130 18.956282
61.135 18.494263
61.140 17.913319
61.145 17.371605
61.150 17.375378
61.155 17.53784
61.160 17.709576
61.165 17.694378
61.170 17.961874
61.175 17.737995
61.180 17.703131
61.185 17.283421
61.190 16.893902
61.195 16.535797
61.200 17.084709
61.205 17.769623
61.210 17.536526
61.215 17.69949
61.220 18.183212
61.225 18.338867
61.230 18.501509
61.235 17.728878
61.240 16.850864
61.245 17.405817
61.250 17.368015
61.255 17.473089
61.260 17.682322
61.265 17.709803
61.270 17.794371
61.275 17.951187
61.280 18.074261
61.285 18.522402
61.290 18.656584
61.295 18.11993
61.300 17.306509
61.305 17.013098
61.310 17.008961
61.315 16.650492
61.320 16.806328
61.325 16.689432
61.330 17.144999
61.335 18.281616
61.340 18.588032
61.345 18.711411
61.350 18.710194
61.355 18.237843
61.360 18.49791
61.365 18.474503
61.370 17.913887
61.375 17.450104
61.380 17.028706
61.385 16.587784
61.390 16.467224
61.395 16.284399
61.400 15.842323
61.405 16.315105
61.410 16.875311
61.415 16.591528
61.420 16.828501
61.425 16.464746
61.430 16.364872
61.435 16.215277
61.440 15.79482
61.445 15.315054
61.450 15.667861
61.455 16.550327
61.460 16.905605
61.465 16.924957
61.470 17.550627
61.475 18.145077
61.480 18.589485
61.485 18.48247
61.490 17.498381
61.495 17.459221
61.500 18.037817
61.505 18.19252
61.510 17.247858
61.515 17.486431
61.520 17.821609
61.525 17.904161
61.530 17.441107
61.535 16.899517
61.540 16.334772
61.545 16.976011
61.550 17.915812
61.555 18.168463
61.560 17.911341
61.565 18.431044
61.570 18.37858
61.575 18.693075
61.580 18.874092
61.585 17.627396
61.590 17.383144
61.595 17.555105
61.600 17.277155
61.605 17.451387
61.610 17.725611
61.615 17.517918
61.620 17.293043
61.625 17.016663
61.630 16.849665
61.635 16.657574
61.640 16.359415
61.645 15.458477
61.650 15.140513
61.655 15.292036
61.660 15.6068
61.665 15.977006
61.670 15.70913
61.675 16.130472
61.680 16.883718
61.685 17.118303
61.690 17.083315
61.695 16.864037
61.700 16.930534
61.705 17.51096
61.710 17.565294
61.715 17.615639
61.720 17.387388
61.725 17.45714
61.730 17.381742
61.735 17.423944
61.740 17.100508
61.745 16.675625
61.750 16.530046
61.755 16.544083
61.760 16.559057
61.765 16.890116
61.770 17.011419
61.775 17.3559
61.780 17.291395
61.785 17.853483
61.790 18.089937
61.795 17.89299
61.800 17.226192
61.805 16.535568
61.810 16.161638
61.815 16.300922
61.820 16.30829
61.825 16.603712
61.830 17.118362
61.835 17.399233
61.840 17.763563
61.845 17.994081
61.850 17.760218
61.855 17.190815
61.860 17.118135
61.865 17.241314
61.870 17.368731
61.875 17.492224
61.880 17.627918
61.885 17.989899
61.890 18.35165
61.895 18.476517
61.900 18.384035
61.905 18.456961
61.910 18.485012
61.915 18.06395
61.920 17.870031
61.925 17.761904
61.930 17.511223
61.935 17.624655
61.940 17.534967
61.945 17.394135
61.950 17.30484
61.955 17.70789
61.960 17.545572
61.965 17.230087
61.970 17.174183
61.975 17.26116
61.980 17.425797
61.985 17.475637
61.990 16.7925
61.995 16.827646
62.000 17.09889
62.005 17.209332
62.010 17.342541
62.015 17.309488
62.020 17.139648
62.025 17.111715
62.030 16.592815
62.035 16.368696
62.040 16.597351
62.045 16.745811
62.050 17.022341
62.055 17.378082
62.060 17.78743
62.065 18.74505
62.070 19.021931
62.075 18.562834
62.080 18.164288
62.085 18.251135
62.090 18.471794
62.095 18.166101
62.100 17.925764
62.105 17.988152
62.110 18.906746
62.115 19.216003
62.120 19.296921
62.125 19.461077
62.130 19.626043
62.135 19.642389
62.140 19.104752
62.145 18.046246
62.150 17.740572
62.155 17.474325
62.160 17.36096
62.165 17.419035
62.170 18.175978
62.175 18.615488
62.180 19.240265
62.185 19.775703
62.190 19.752886
62.195 19.565556
62.200 19.058523
62.205 18.262419
62.210 18.091122
62.215 17.763489
62.220 17.481672
62.225 17.424601
62.230 17.888681
62.235 18.14546
62.240 18.074875
62.245 17.988056
62.250 18.471815
62.255 18.480711
62.260 18.315332
62.265 17.812748
62.270 17.51903
62.275 17.47187
62.280 17.552567
62.285 16.955999
62.290 16.778395
62.295 16.833586
62.300 17.275469
62.305 17.335636
62.310 16.909222
62.315 16.413519
62.320 16.361605
62.325 16.491711
62.330 16.471304
62.335 16.250069
62.340 16.678457
62.345 17.205986
62.350 17.491888
62.355 17.376785
62.360 17.428738
62.365 17.502661
62.370 17.657648
62.375 17.185734
62.380 17.164122
62.385 17.959261
62.390 18.780369
62.395 18.952618
62.400 18.967058
62.405 18.868532
62.410 19.030088
62.415 18.605812
62.420 17.502291
62.425 16.776127
62.430 16.771547
62.435 16.89967
62.440 16.788517
62.445 16.714443
62.450 17.31815
62.455 18.012606
62.460 17.887701
62.465 17.723234
62.470 17.846439
62.475 17.798128
62.480 17.662806
62.485 17.821733
62.490 17.090504
62.495 17.506327
62.500 18.028044
62.505 18.010525
62.510 17.459211
62.515 17.769053
62.520 17.856884
62.525 18.041643
62.530 17.588558
62.535 16.902315
62.540 16.698532
62.545 17.676676
62.550 17.739735
62.555 17.802849
62.560 18.147314
62.565 18.493626
62.570 18.908295
62.575 19.138691
62.580 18.916553
62.585 18.653078
62.590 18.432238
62.595 18.144629
62.600 17.984228
62.605 18.080528
62.610 18.090811
62.615 17.566126
62.620 17.494715
62.625 17.326271
62.630 17.483294
62.635 17.66398
62.640 17.268579
62.645 17.010004
62.650 17.455763
62.655 17.541212
62.660 18.006483
62.665 18.194101
62.670 18.134478
62.675 18.674242
62.680 19.106457
62.685 19.247673
62.690 19.013849
62.695 18.232533
62.700 17.513741
62.705 17.431656
62.710 17.24365
62.715 17.702402
62.720 17.626339
62.725 17.852108
62.730 17.920666
62.735 18.358171
62.740 18.356745
62.745 17.954372
62.750 17.034681
62.755 17.045771
62.760 17.042376
62.765 17.409466
62.770 17.591879
62.775 17.483282
62.780 17.930466
62.785 18.40049
62.790 17.921124
62.795 18.016176
62.800 17.285627
62.805 17.043728
62.810 16.730154
62.815 16.152296
62.820 15.6535
62.825 16.124189
62.830 16.136524
62.835 16.350191
62.840 16.21077
62.845 16.484518
62.850 17.024136
62.855 17.233637
62.860 16.7208
62.865 16.684649
62.870 16.354149
62.875 16.102444
62.880 15.81393
62.885 15.352246
62.890 15.641577
62.895 16.435972
62.900 16.529991
62.905 16.579121
62.910 16.910473
62.915 17.541466
62.920 17.570204
62.925 17.059496
62.930 16.440208
62.935 16.610479
62.940 17.562222
62.945 17.483925
62.950 17.321905
62.955 17.875246
62.960 17.752132
62.965 17.570118
62.970 17.174749
62.975 17.082687
62.980 17.17782
62.985 17.10449
62.990 17.370802
62.995 17.236385
63.000 17.230129
63.005 17.314619
63.010 16.864323
63.015 16.765263
63.020 16.655136
63.025 16.669638
63.030 17.321541
63.035 17.422205
63.040 17.603451
63.045 17.73674
63.050 17.993994
63.055 18.187304
63.060 18.20981
63.065 18.631519
63.070 19.003765
63.075 18.582121
63.080 18.522051
63.085 19.158442
63.090 19.264093
63.095 19.165413
63.100 18.897156
63.105 19.207146
63.110 20.21851
63.115 20.903076
63.120 20.312164
63.125 20.148005
63.130 19.626579
63.135 18.907785
63.140 18.405331
63.145 17.238409
63.150 16.681292
63.155 16.805048
63.160 16.458025
63.165 17.426384
63.170 18.307554
63.175 18.247993
63.180 18.492382
63.185 18.44611
63.190 18.392643
63.195 18.709343
63.200 18.170527
63.205 17.516481
63.210 17.54281
63.215 17.464903
63.220 17.303221
63.225 17.372829
63.230 17.572845
63.235 17.923298
63.240 18.487978
63.245 18.152145
63.250 18.529341
63.255 18.720406
63.260 18.414377
63.265 17.994921
63.270 17.828045
63.275 17.921741
63.280 18.629553
63.285 18.332243
63.290 18.132786
63.295 17.865398
63.300 18.206213
63.305 18.184359
63.310 18.056501
63.315 17.947828
63.320 17.778391
63.325 17.764315
63.330 18.300669
63.335 18.231243
63.340 18.838209
63.345 18.697325
63.350 19.138102
63.355 19.477255
63.360 20.062229
63.365 20.586166
63.370 20.49452
63.375 20.425484
63.380 20.703688
63.385 20.297895
63.390 20.390648
63.395 20.144955
63.400 19.723745
63.405 19.733467
63.410 19.494762
63.415 18.986433
63.420 19.346773
63.425 19.742064
63.430 19.994196
63.435 19.773148
63.440 19.04137
63.445 18.48077
63.450 18.694338
63.455 18.392616
63.460 17.799614
63.465 17.396988
63.470 17.198565
63.475 17.905396
63.480 18.963486
63.485 19.443878
63.490 19.736723
63.495 20.387318
63.500 20.453087
63.505 20.603529
63.510 19.806978
63.515 18.70084
63.520 18.230932
63.525 17.598452
63.530 16.952984
63.535 17.247047
63.540 17.317486
63.545 17.718466
63.550 17.958067
63.555 18.523735
63.560 18.856842
63.565 18.985048
63.570 18.381567
63.575 18.885021
63.580 18.689548
63.585 18.788916
63.590 18.231979
63.595 17.791382
63.600 17.526222
63.605 17.603115
63.610 16.887049
63.615 16.743124
63.620 16.353931
63.625 16.91367
63.630 17.665613
63.635 18.068977
63.640 18.203484
63.645 18.86167
63.650 19.376451
63.655 19.532534
63.660 19.032667
63.665 19.321814
63.670 18.689486
63.675 18.857153
63.680 18.619394
63.685 18.475723
63.690 18.414686
63.695 18.018709
63.700 17.302814
63.705 17.692936
63.710 17.218639
63.715 17.460983
63.720 17.897308
63.725 17.949739
63.730 18.12138
63.735 18.398024
63.740 18.397848
63.745 18.721292
63.750 18.063204
63.755 17.508221
63.760 17.568222
63.765 18.059834
63.770 18.888227
63.775 18.977757
63.780 19.017767
63.785 19.457787
63.790 20.031891
63.795 20.452536
63.800 20.091024
63.805 19.510311
63.810 19.960945
63.815 19.873798
63.820 19.859667
63.825 19.281668
63.830 19.423532
63.835 19.927979
63.840 19.763237
63.845 18.88665
63.850 18.969275
63.855 18.770887
63.860 18.853558
63.865 17.944906
63.870 16.945469
63.875 17.211439
63.880 17.070183
63.885 16.869331
63.890 16.879322
63.895 16.533451
63.900 17.258978
63.905 17.509773
63.910 17.61408
63.915 17.22006
63.920 17.033899
63.925 17.055395
63.930 16.677774
63.935 16.681868
63.940 16.596205
63.945 17.129009
63.950 18.007833
63.955 18.541903
63.960 18.889776
63.965 19.653738
63.970 19.474924
63.975 19.447886
63.980 18.977453
63.985 18.751167
63.990 18.585804
63.995 18.852339
64.000 18.920565
64.005 18.806271
64.010 19.675825
64.015 20.129829
64.020 20.656721
64.025 21.369764
64.030 21.514191
64.035 21.399115
64.040 21.865009
64.045 21.508291
64.050 21.620399
64.055 21.415644
64.060 20.673717
64.065 20.422134
64.070 20.31959
64.075 20.366619
64.080 20.550459
64.085 20.302742
64.090 19.889681
64.095 19.627354
64.100 19.344185
64.105 18.588884
64.110 18.31986
64.115 17.707119
64.120 17.395098
64.125 17.939556
64.130 17.828226
64.135 18.53171
64.140 19.557058
64.145 19.408484
64.150 19.324205
64.155 19.11573
64.160 18.798494
64.165 18.792704
64.170 18.477833
64.175 17.97929
64.180 18.30974
64.185 17.924862
64.190 17.827766
64.195 17.367155
64.200 17.442343
64.205 17.076355
64.210 16.932283
64.215 16.372122
64.220 16.176111
64.225 16.333918
64.230 16.27688
64.235 16.1408
64.240 16.717712
64.245 17.072063
64.250 17.256559
64.255 17.763376
64.260 18.119078
64.265 18.880686
64.270 19.284986
64.275 19.33753
64.280 19.302471
64.285 19.462082
64.290 19.27199
64.295 19.493719
64.300 19.32881
64.305 19.058647
64.310 18.636852
64.315 18.683067
64.320 18.760038
64.325 18.865383
64.330 18.39044
64.335 18.237301
64.340 18.345089
64.345 18.485415
64.350 18.824852
64.355 18.340649
64.360 18.842733
64.365 19.543692
64.370 19.846895
64.375 19.784822
64.380 20.270777
64.385 20.414436
64.390 20.560772
64.395 20.491903
64.400 20.060379
64.405 20.044716
64.410 19.951515
64.415 19.546988
64.420 19.330872
64.425 19.807695
64.430 19.790403
64.435 20.359924
64.440 20.009665
64.445 20.069374
64.450 19.838585
64.455 20.021366
64.460 19.372074
64.465 18.947653
64.470 18.47089
64.475 18.452913
64.480 18.448778
64.485 18.683863
64.490 18.714529
64.495 19.438566
64.500 19.033527
64.505 19.380999
64.510 19.480547
64.515 19.791491
64.520 19.579809
64.525 19.420237
64.530 18.648355
64.535 18.768545
64.540 18.688957
64.545 19.085224
64.550 19.492004
64.555 19.643518
64.560 19.614986
64.565 19.983765
64.570 20.191387
64.575 20.035517
64.580 19.480427
64.585 18.545322
64.590 18.484621
64.595 18.262363
64.600 18.365974
64.605 18.74617
64.610 19.090967
64.615 19.205099
64.620 19.640095
64.625 20.374023
64.630 20.263365
64.635 20.313206
64.640 19.466881
64.645 19.584414
64.650 19.906979
64.655 19.931789
64.660 19.871073
64.665 20.907385
64.670 21.238277
64.675 22.109566
64.680 22.057003
64.685 22.20932
64.690 22.33399
64.695 21.978239
64.700 21.254589
64.705 20.68528
64.710 19.411364
64.715 18.706247
64.720 18.825602
64.725 18.867737
64.730 18.644987
64.735 18.872057
64.740 19.937828
64.745 21.564161
64.750 21.873856
64.755 21.043974
64.760 21.114521
64.765 21.823092
64.770 21.904837
64.775 21.384291
64.780 21.205261
64.785 21.153122
64.790 21.267149
64.795 21.34547
64.800 21.361353
64.805 21.393948
64.810 21.575174
64.815 21.8332
64.820 22.388395
64.825 22.504335
64.830 22.246078
64.835 21.985062
64.840 21.925543
64.845 21.684593
64.850 21.23896
64.855 20.626133
64.860 21.525146
64.865 21.831758
64.870 21.590559
64.875 21.400894
64.880 21.034163
64.885 21.113285
64.890 21.234026
64.895 19.933941
64.900 20.087572
64.905 20.720703
64.910 21.380968
64.915 21.56044
64.920 21.720369
64.925 22.239094
64.930 22.823528
64.935 22.380314
64.940 22.224863
64.945 21.704451
64.950 22.005989
64.955 21.857218
64.960 22.374584
64.965 23.376513
64.970 23.737926
64.975 23.676786
64.980 23.891693
64.985 23.728525
64.990 23.889486
64.995 22.873808
65.000 22.322323
65.005 22.410585
65.010 22.406055
65.015 22.843142
65.020 23.844936
65.025 24.123177
65.030 24.674002
65.035 24.993444
65.040 25.10379
65.045 25.334028
65.050 25.199789
65.055 24.271008
65.060 24.304003
65.065 24.330547
65.070 23.490324
65.075 23.307192
65.080 23.141474
65.085 23.509411
65.090 23.508011
65.095 23.306425
65.100 23.085974
65.105 23.930557
65.110 23.648716
65.115 22.955637
65.120 22.378386
65.125 21.799063
65.130 22.183718
65.135 21.887327
65.140 21.297455
65.145 21.595745
65.150 22.553343
65.155 22.792999
65.160 23.882441
65.165 23.668217
65.170 23.849234
65.175 23.60816
65.180 23.740337
65.185 23.362976
65.190 23.323687
65.195 23.071089
65.200 23.275347
65.205 23.13192
65.210 23.355169
65.215 23.216501
65.220 23.811079
65.225 24.641676
65.230 25.030123
65.235 24.624189
65.240 24.847067
65.245 24.413052
65.250 24.669727
65.255 24.289831
65.260 23.440111
65.265 22.446184
65.270 22.536692
65.275 22.26556
65.280 22.423624
65.285 21.979296
65.290 21.68811
65.295 21.738911
65.300 21.994238
65.305 21.774033
65.310 22.12727
65.315 22.812567
65.320 23.175819
65.325 23.198151
65.330 23.289389
65.335 23.45857
65.340 23.947647
65.345 23.801311
65.350 23.930651
65.355 24.130598
65.360 23.673023
65.365 23.284908
65.370 23.303356
65.375 23.55863
65.380 24.584377
65.385 23.963936
65.390 23.808056
65.395 24.433401
65.400 24.731873
65.405 24.511156
65.410 24.215616
65.415 23.617058
65.420 23.533951
65.425 23.192257
65.430 22.869776
65.435 23.767023
65.440 23.872223
65.445 24.084354
65.450 24.035923
65.455 24.433012
65.460 25.19257
65.465 25.713058
65.470 25.504755
65.475 26.139994
65.480 25.713264
65.485 25.973305
65.490 26.448072
65.495 26.892656
65.500 27.6071
65.505 27.765059
65.510 27.572906
65.515 27.431906
65.520 26.731085
65.525 26.681242
65.530 26.322691
65.535 25.910572
65.540 25.497919
65.545 26.31539
65.550 26.672621
65.555 27.80596
65.560 28.708178
65.565 29.107471
65.570 29.541594
65.575 30.601992
65.580 31.432087
65.585 31.790905
65.590 31.475702
65.595 31.107214
65.600 30.938652
65.605 31.065866
65.610 30.464205
65.615 30.676695
65.620 31.025755
65.625 30.996435
65.630 31.086176
65.635 30.748772
65.640 30.867054
65.645 31.453606
65.650 31.321913
65.655 31.181456
65.660 31.522936
65.665 32.214008
65.670 32.850174
65.675 32.975487
65.680 33.064938
65.685 33.566097
65.690 34.284962
65.695 34.64666
65.700 34.45956
65.705 34.694458
65.710 35.375687
65.715 35.337395
65.720 34.428928
65.725 34.463718
65.730 34.825817
65.735 34.012695
65.740 34.102699
65.745 34.163727
65.750 33.665432
65.755 34.067688
65.760 33.83379
65.765 33.702175
65.770 34.502098
65.775 34.562737
65.780 34.473709
65.785 35.84494
65.790 36.707317
65.795 37.133476
65.800 37.038845
65.805 36.952435
65.810 36.933064
65.815 37.558998
65.820 36.892559
65.825 36.563644
65.830 36.885082
65.835 37.552502
65.840 38.007072
65.845 37.533432
65.850 37.992195
65.855 38.251152
65.860 38.478268
65.865 38.187672
65.870 38.093472
65.875 38.474831
65.880 38.957058
65.885 38.539944
65.890 38.229259
65.895 38.33477
65.900 38.896629
65.905 39.210579
65.910 38.711315
65.915 38.997097
65.920 38.717468
65.925 39.553467
65.930 39.924671
65.935 39.183079
65.940 38.630726
65.945 38.916336
65.950 39.39901
65.955 39.658096
65.960 39.380001
65.965 39.028111
65.970 39.414181
65.975 39.087917
65.980 38.930923
65.985 37.964756
65.990 37.95253
65.995 38.091869
66.000 37.744247
66.005 37.612461
66.010 37.794144
66.015 37.548744
66.020 36.561058
66.025 35.751667
66.030 35.271103
66.035 36.299133
66.040 36.574432
66.045 36.680531
66.050 36.333012
66.055 37.763321
66.060 37.775227
66.065 36.933048
66.070 35.765099
66.075 35.086437
66.080 35.042603
66.085 34.798687
66.090 34.153873
66.095 34.485558
66.100 35.056446
66.105 34.951622
66.110 35.375484
66.115 35.325943
66.120 35.557697
66.125 36.083046
66.130 35.962757
66.135 35.642441
66.140 35.565514
66.145 35.3004
66.150 35.284145
66.155 35.370274
66.160 35.147537
66.165 35.826756
66.170 36.460526
66.175 36.216919
66.180 35.713997
66.185 35.519745
66.190 35.032108
66.195 34.520279
66.200 33.83086
66.205 33.590965
66.210 34.25499
66.215 34.204659
66.220 33.894505
66.225 34.200615
66.230 34.435265
66.235 34.05529
66.240 32.926582
66.245 32.489967
66.250 32.218124
66.255 32.172947
66.260 31.931026
66.265 31.603226
66.270 31.673424
66.275 32.209152
66.280 31.688129
66.285 31.925251
66.290 32.354313
66.295 32.396965
66.300 31.738617
66.305 32.5774
66.310 33.16581
66.315 33.630871
66.320 33.617489
66.325 33.495029
66.330 33.708752
66.335 33.932312
66.340 33.144489
66.345 32.454357
66.350 32.590042
66.355 32.481819
66.360 32.773258
66.365 33.258064
66.370 33.148296
66.375 32.532459
66.380 32.587269
66.385 31.66637
66.390 31.643038
66.395 31.340681
66.400 30.971689
66.405 31.189957
66.410 31.950331
66.415 31.968079
66.420 31.883123
66.425 31.706615
66.430 30.066301
66.435 29.37261
66.440 28.954098
66.445 27.721075
66.450 27.364172
66.455 27.786238
66.460 27.646658
66.465 27.844099
66.470 27.960846
66.475 28.181515
66.480 29.416876
66.485 29.436626
66.490 28.704109
66.495 28.952663
66.500 29.621384
66.505 29.945021
66.510 29.795952
66.515 29.373014
66.520 29.293179
66.525 29.422798
66.530 29.017723
66.535 28.764994
66.540 28.174675
66.545 27.728271
66.550 28.041386
66.555 27.946028
66.560 27.790449
66.565 28.144207
66.570 28.414261
66.575 28.055069
66.580 27.783735
66.585 27.722816
66.590 27.841722
66.595 28.017702
66.600 27.398344
66.605 27.362852
66.610 28.190882
66.615 28.391029
66.620 28.325806
66.625 28.81031
66.630 29.13209
66.635 29.34919
66.640 29.034109
66.645 28.374895
66.650 28.47628
66.655 28.269279
66.660 27.456219
66.665 26.108849
66.670 25.592062
66.675 25.644503
66.680 25.88002
66.685 25.329041
66.690 25.283655
66.695 24.87244
66.700 24.979805
66.705 24.917379
66.710 24.938215
66.715 24.619207
66.720 24.654497
66.725 23.809938
66.730 24.376595
66.735 25.291271
66.740 25.233231
66.745 24.997469
66.750 25.410751
66.755 25.318001
66.760 26.124979
66.765 25.938755
66.770 25.715488
66.775 25.857491
66.780 26.710316
66.785 26.919073
66.790 27.071877
66.795 27.070719
66.800 27.070639
66.805 26.74268
66.810 25.94928
66.815 25.300608
66.820 24.379044
66.825 23.321262
66.830 22.156204
66.835 21.98082
66.840 22.087477
66.845 23.086796
66.850 22.654394
66.855 23.449535
66.860 24.554499
66.865 25.025421
66.870 25.006359
66.875 25.109531
66.880 24.785446
66.885 25.129848
66.890 24.395998
66.895 24.169136
66.900 24.034792
66.905 23.805168
66.910 23.950399
66.915 23.927864
66.920 23.810822
66.925 24.085579
66.930 23.761082
66.935 24.222843
66.940 24.71999
66.945 23.962881
66.950 23.118675
66.955 22.61853
66.960 22.728012
66.965 23.176273
66.970 23.074604
66.975 22.945076
66.980 23.574394
66.985 24.406738
66.990 25.152901
66.995 24.700603
67.000 24.151993
67.005 24.033045
67.010 23.584118
67.015 23.135794
67.020 22.90818
67.025 22.829685
67.030 23.730412
67.035 23.600595
67.040 23.62224
67.045 23.810526
67.050 23.604486
67.055 22.900482
67.060 22.329103
67.065 22.027859
67.070 22.175411
67.075 22.653702
67.080 22.815233
67.085 24.172678
67.090 24.74951
67.095 24.545605
67.100 24.42967
67.105 24.576092
67.110 24.683218
67.115 24.941748
67.120 24.605474
67.125 24.534369
67.130 24.561413
67.135 24.306211
67.140 24.207361
67.145 23.916056
67.150 22.973295
67.155 22.915792
67.160 23.367193
67.165 23.859447
67.170 23.527924
67.175 23.413063
67.180 23.230152
67.185 23.475187
67.190 22.916126
67.195 22.712755
67.200 23.029659
67.205 23.633516
67.210 23.58674
67.215 23.740536
67.220 24.18989
67.225 24.527525
67.230 24.436205
67.235 23.38858
67.240 22.798092
67.245 22.640001
67.250 22.380791
67.255 22.494503
67.260 22.463108
67.265 22.537693
67.270 23.028351
67.275 23.460459
67.280 23.544111
67.285 23.897488
67.290 23.283783
67.295 23.135687
67.300 22.876106
67.305 23.150455
67.310 22.341661
67.315 22.17037
67.320 21.744181
67.325 21.735704
67.330 21.701567
67.335 21.26808
67.340 21.390102
67.345 22.457514
67.350 22.235464
67.355 22.51112
67.360 22.747032
67.365 22.916523
67.370 23.363432
67.375 23.162947
67.380 22.739872
67.385 22.512676
67.390 22.470003
67.395 22.298985
67.400 22.108431
67.405 22.272249
67.410 22.491804
67.415 22.589237
67.420 23.27203
67.425 23.103542
67.430 23.315598
67.435 23.733452
67.440 23.289865
67.445 22.938427
67.450 23.043762
67.455 22.769186
67.460 22.777727
67.465 22.615877
67.470 22.153578
67.475 22.347069
67.480 22.275089
67.485 21.927271
67.490 21.536888
67.495 21.608551
67.500 21.575348
67.505 21.752441
67.510 21.781534
67.515 22.088177
67.520 22.566172
67.525 23.193863
67.530 23.063063
67.535 23.065592
67.540 22.517454
67.545 22.64106
67.550 22.783522
67.555 22.927843
67.560 22.7208
67.565 22.900951
67.570 23.207069
67.575 23.545008
67.580 22.894402
67.585 22.985615
67.590 22.579872
67.595 22.153543
67.600 21.453028
67.605 21.446274
67.610 22.161825
67.615 22.279642
67.620 22.059925
67.625 21.942924
67.630 22.159786
67.635 22.667938
67.640 22.577288
67.645 22.15877
67.650 22.358002
67.655 22.765526
67.660 23.088913
67.665 24.073351
67.670 24.261427
67.675 24.530022
67.680 23.946478
67.685 23.536291
67.690 22.985243
67.695 22.563261
67.700 21.878008
67.705 21.755861
67.710 21.718355
67.715 22.243889
67.720 21.890959
67.725 21.854597
67.730 21.907619
67.735 21.671207
67.740 21.042225
67.745 20.109646
67.750 19.957363
67.755 20.118624
67.760 19.848339
67.765 19.469517
67.770 19.311953
67.775 19.463844
67.780 19.895933
67.785 19.858116
67.790 19.380562
67.795 20.039534
67.800 20.909267
67.805 21.673767
67.810 21.779579
67.815 22.080811
67.820 22.522493
67.825 23.16223
67.830 23.061775
67.835 22.892738
67.840 22.842756
67.845 23.150291
67.850 23.180063
67.855 23.270317
67.860 23.623962
67.865 23.234026
67.870 22.481686
67.875 21.993753
67.880 21.058456
67.885 20.682976
67.890 20.258917
67.895 20.392042
67.900 21.476696
67.905 21.847942
67.910 22.051674
67.915 22.794798
67.920 22.966665
67.925 23.070518
67.930 22.569473
67.935 21.161219
67.940 21.05652
67.945 21.647947
67.950 21.334368
67.955 21.471489
67.960 21.76531
67.965 21.882278
67.970 22.570517
67.975 22.69001
67.980 22.311249
67.985 22.649706
67.990 22.351477
67.995 21.498281
68.000 20.660749
68.005 20.525658
68.010 20.762859
68.015 21.0655
68.020 21.39514
68.025 22.189808
68.030 22.762691
68.035 23.844637
68.040 23.659649
68.045 23.115097
68.050 22.941414
68.055 22.346632
68.060 21.554554
68.065 21.335331
68.070 20.992756
68.075 21.536308
68.080 21.65612
68.085 21.420361
68.090 21.698927
68.095 22.163349
68.100 22.238781
68.105 21.999504
68.110 21.625175
68.115 21.770578
68.120 22.04394
68.125 21.768099
68.130 21.740059
68.135 21.779291
68.140 22.488853
68.145 22.749966
68.150 22.343599
68.155 21.982962
68.160 22.115412
68.165 22.31325
68.170 22.345285
68.175 22.064457
68.180 21.852816
68.185 21.804459
68.190 22.061092
68.195 21.90867
68.200 21.474268
68.205 20.954624
68.210 19.967529
68.215 19.613655
68.220 19.868458
68.225 19.570847
68.230 19.98724
68.235 20.114206
68.240 20.990074
68.245 21.895674
68.250 22.138155
68.255 22.371729
68.260 22.545046
68.265 22.748587
68.270 22.779421
68.275 22.276814
68.280 22.361771
68.285 22.611887
68.290 22.72917
68.295 22.560843
68.300 23.062929
68.305 22.905891
68.310 22.705778
68.315 22.594402
68.320 22.045349
68.325 22.275799
68.330 22.556244
68.335 21.896786
68.340 21.800877
68.345 22.256485
68.350 22.440582
68.355 22.501287
68.360 21.731894
68.365 21.370655
68.370 21.439087
68.375 21.487085
68.380 21.895962
68.385 21.856394
68.390 22.183954
68.395 21.954727
68.400 21.691158
68.405 21.885386
68.410 21.765055
68.415 21.248478
68.420 21.491692
68.425 21.839308
68.430 22.523874
68.435 23.276417
68.440 23.275986
68.445 23.385756
68.450 23.657928
68.455 23.232519
68.460 22.586849
68.465 22.309454
68.470 22.006805
68.475 21.935614
68.480 21.736601
68.485 21.685398
68.490 22.602516
68.495 22.879135
68.500 23.207722
68.505 22.946955
68.510 22.978689
68.515 23.424736
68.520 23.802301
68.525 23.70204
68.530 23.570858
68.535 23.326456
68.540 23.508738
68.545 23.79084
68.550 22.772333
68.555 21.551563
68.560 21.591866
68.565 21.815664
68.570 22.20104
68.575 22.368441
68.580 22.346506
68.585 23.135733
68.590 23.90897
68.595 23.510799
68.600 23.085161
68.605 22.816204
68.610 22.380487
68.615 21.997984
68.620 21.740007
68.625 21.289349
68.630 21.026196
68.635 21.078335
68.640 22.107203
68.645 23.279013
68.650 23.525896
68.655 24.107101
68.660 24.867161
68.665 25.696667
68.670 26.359224
68.675 25.674629
68.680 25.116222
68.685 25.275927
68.690 24.890083
68.695 24.744671
68.700 24.38792
68.705 23.700998
68.710 23.942785
68.715 23.462284
68.720 23.069523
68.725 22.829708
68.730 22.924767
68.735 23.346951
68.740 23.387676
68.745 23.35516
68.750 24.044994
68.755 24.287521
68.760 24.140491
68.765 24.010136
68.770 23.998825
68.775 23.501326
68.780 23.347847
68.785 23.009577
68.790 23.567696
68.795 23.681158
68.800 23.3046
68.805 23.738712
68.810 23.95064
68.815 24.060335
68.820 23.71303
68.825 23.1178
68.830 23.710917
68.835 24.273119
68.840 23.860016
68.845 24.147835
68.850 24.397844
68.855 24.920275
68.860 24.985001
68.865 24.20326
68.870 23.258615
68.875 23.439009
68.880 23.399717
68.885 23.372536
68.890 23.530012
68.895 23.31579
68.900 24.135685
68.905 24.40621
68.910 23.927891
68.915 23.539576
68.920 23.691311
68.925 23.946487
68.930 23.680267
68.935 23.97069
68.940 24.092527
68.945 24.377136
68.950 24.310715
68.955 23.707323
68.960 23.618546
68.965 23.502178
68.970 23.219763
68.975 23.737284
68.980 23.917686
68.985 23.976637
68.990 23.670799
68.995 24.122587
69.000 24.961409
69.005 25.097719
69.010 25.336632
69.015 25.662457
69.020 26.010075
69.025 26.303501
69.030 26.487213
69.035 25.782265
69.040 25.981504
69.045 25.838301
69.050 25.624338
69.055 26.215673
69.060 26.13435
69.065 26.158092
69.070 26.056177
69.075 25.429281
69.080 25.261084
69.085 25.355274
69.090 25.922979
69.095 25.891724
69.100 25.735819
69.105 26.291496
69.110 27.086582
69.115 27.426796
69.120 26.76511
69.125 26.10281
69.130 26.048637
69.135 26.392908
69.140 26.524855
69.145 25.97261
69.150 25.874844
69.155 26.107924
69.160 25.987303
69.165 25.754007
69.170 25.474009
69.175 25.463926
69.180 25.306662
69.185 25.548298
69.190 26.390755
69.195 26.971146
69.200 27.883745
69.205 28.234467
69.210 29.082487
69.215 30.101213
69.220 30.066584
69.225 29.747757
69.230 29.514172
69.235 28.690655
69.240 28.099182
69.245 27.806364
69.250 27.251535
69.255 27.497042
69.260 27.322035
69.265 27.406441
69.270 28.284533
69.275 28.651928
69.280 28.69389
69.285 28.161974
69.290 28.268932
69.295 28.846003
69.300 29.129192
69.305 28.319597
69.310 28.631186
69.315 28.658236
69.320 29.333281
69.325 29.038345
69.330 28.986876
69.335 28.928064
69.340 29.39028
69.345 29.033709
69.350 29.223106
69.355 29.562061
69.360 29.628294
69.365 29.669069
69.370 30.204996
69.375 30.258308
69.380 30.497959
69.385 30.243486
69.390 30.216904
69.395 30.222218
69.400 30.304533
69.405 29.959726
69.410 29.564075
69.415 29.394121
69.420 28.702604
69.425 28.578144
69.430 28.86764
69.435 28.558979
69.440 28.748522
69.445 29.480223
69.450 30.499395
69.455 31.201401
69.460 31.406439
69.465 31.269602
69.470 31.080198
69.475 30.940308
69.480 30.937742
69.485 30.464766
69.490 30.205254
69.495 29.854164
69.500 29.813728
69.505 30.051901
69.510 30.624155
69.515 29.829508
69.520 29.97463
69.525 29.614576
69.530 30.235708
69.535 30.699337
69.540 30.134995
69.545 29.622046
69.550 30.045324
69.555 30.355314
69.560 30.718775
69.565 29.858276
69.570 29.761431
69.575 30.242075
69.580 29.974936
69.585 29.405283
69.590 28.354061
69.595 28.246426
69.600 29.17491
69.605 28.804861
69.610 28.658922
69.615 29.317015
69.620 29.839348
69.625 30.330217
69.630 30.195457
69.635 29.657307
69.640 30.208221
69.645 30.369442
69.650 29.846037
69.655 29.777451
69.660 29.646721
69.665 28.888584
69.670 28.117908
69.675 27.402468
69.680 27.819393
69.685 28.289997
69.690 28.149017
69.695 28.505449
69.700 29.470856
69.705 30.108265
69.710 30.201254
69.715 29.481804
69.720 29.102505
69.725 28.997715
69.730 28.466959
69.735 28.147898
69.740 27.797865
69.745 26.903864
69.750 26.111919
69.755 26.102543
69.760 26.171339
69.765 26.703674
69.770 27.428654
69.775 27.464939
69.780 27.88077
69.785 28.784437
69.790 28.368341
69.795 27.900908
69.800 27.005688
69.805 26.693283
69.810 27.164553
69.815 27.296635
69.820 27.104441
69.825 27.070417
69.830 27.102093
69.835 27.246149
69.840 26.784204
69.845 26.157158
69.850 25.221066
69.855 24.906412
69.860 24.514875
69.865 23.99518
69.870 23.452118
69.875 23.675198
69.880 23.903259
69.885 24.441761
69.890 24.809767
69.895 24.784641
69.900 24.721926
69.905 24.028376
69.910 23.449928
69.915 23.824703
69.920 23.776379
69.925 23.14127
69.930 22.607763
69.935 22.778318
69.940 22.921247
69.945 22.914629
69.950 22.120016
69.955 21.968174
69.960 22.214291
69.965 22.566288
69.970 22.172878
69.975 21.941992
69.980 22.046646
69.985 21.885853
69.990 21.992428
69.995 21.681021
70.000 22.051422
70.005 22.822401
70.010 23.513897
70.015 23.268661
70.020 23.149387
70.025 23.65567
70.030 23.743563
70.035 22.933453
70.040 22.816061
70.045 22.139978
70.050 22.299786
70.055 22.606474
70.060 21.529034
70.065 22.213335
70.070 22.906563
70.075 22.529325
70.080 22.432859
70.085 22.522482
70.090 22.692513
70.095 22.748587
70.100 22.078327
70.105 21.667959
70.110 21.930407
70.115 22.468058
70.120 21.699085
70.125 21.994595
70.130 22.302794
70.135 22.133369
70.140 21.911936
70.145 22.106876
70.150 22.435249
70.155 22.489124
70.160 22.116495
70.165 21.684582
70.170 21.658606
70.175 21.713198
70.180 20.966652
70.185 20.753483
70.190 21.660107
70.195 22.06801
70.200 22.484566
70.205 22.722368
70.210 22.582397
70.215 22.79229
70.220 22.623272
70.225 21.168844
70.230 20.643061
70.235 20.262274
70.240 19.628103
70.245 19.668325
70.250 19.638727
70.255 19.855072
70.260 20.520624
70.265 20.804459
70.270 21.47398
70.275 22.190357
70.280 22.296259
70.285 22.319496
70.290 21.761934
70.295 21.534485
70.300 21.035679
70.305 20.501163
70.310 20.209539
70.315 20.246761
70.320 20.191633
70.325 20.343218
70.330 20.159698
70.335 20.442318
70.340 20.78595
70.345 20.352938
70.350 20.181887
70.355 20.270464
70.360 19.817425
70.365 19.707024
70.370 19.478048
70.375 19.701075
70.380 19.872883
70.385 19.986282
70.390 20.762978
70.395 21.4874
70.400 22.180328
70.405 21.770063
70.410 21.4951
70.415 22.091791
70.420 22.095619
70.425 21.705132
70.430 21.617472
70.435 21.093744
70.440 21.337549
70.445 20.539906
70.450 19.862919
70.455 19.071768
70.460 18.727118
70.465 18.507008
70.470 18.98665
70.475 19.516783
70.480 19.767038
70.485 19.768709
70.490 19.539148
70.495 19.687326
70.500 19.765972
70.505 19.61939
70.510 19.480228
70.515 19.272396
70.520 19.412354
70.525 19.508699
70.530 19.630369
70.535 19.639706
70.540 20.288612
70.545 20.242519
70.550 20.870935
70.555 21.471235
70.560 21.690388
70.565 21.33606
70.570 20.938583
70.575 20.332777
70.580 20.429296
70.585 20.277119
70.590 20.054966
70.595 20.189917
70.600 20.415922
70.605 20.671244
70.610 20.927773
70.615 20.18235
70.620 19.08625
70.625 17.92704
70.630 17.800518
70.635 17.614969
70.640 17.92354
70.645 17.964657
70.650 18.739559
70.655 19.856823
70.660 20.452297
70.665 20.264687
70.670 19.983898
70.675 19.814816
70.680 19.850609
70.685 19.594774
70.690 19.966812
70.695 20.303373
70.700 21.022966
70.705 21.008205
70.710 20.77722
70.715 20.269365
70.720 20.483227
70.725 20.365164
70.730 19.889626
70.735 19.830284
70.740 19.757172
70.745 19.801355
70.750 20.565426
70.755 20.399561
70.760 20.560812
70.765 20.953365
70.770 21.011425
70.775 21.15959
70.780 21.007547
70.785 20.922558
70.790 20.981153
70.795 21.112766
70.800 20.410507
70.805 20.324057
70.810 20.224762
70.815 19.825571
70.820 20.089272
70.825 19.875511
70.830 19.302813
70.835 19.515234
70.840 19.598076
70.845 19.216076
70.850 19.690975
70.855 19.264782
70.860 18.812885
70.865 19.442873
70.870 19.829395
70.875 20.025181
70.880 20.159433
70.885 19.978212
70.890 20.376127
70.895 20.854158
70.900 20.439032
70.905 19.942343
70.910 19.891716
70.915 19.418636
70.920 19.223295
70.925 19.11957
70.930 18.853971
70.935 19.627899
70.940 19.749918
70.945 20.084232
70.950 20.445833
70.955 20.767269
70.960 20.625889
70.965 19.984188
70.970 19.579437
70.975 19.308073
70.980 19.302809
70.985 19.182863
70.990 18.759167
70.995 19.715023
71.000 20.392467
71.005 20.431099
71.010 21.176836
71.015 21.12641
71.020 21.677917
71.025 21.189489
71.030 20.104805
71.035 20.090731
71.040 20.220127
71.045 19.702143
71.050 19.464888
71.055 19.482584
71.060 20.572443
71.065 20.867867
71.070 20.011114
71.075 19.485758
71.080 19.682547
71.085 19.436106
71.090 18.811184
71.095 18.446758
71.100 18.75828
71.105 19.564514
71.110 19.846405
71.115 19.145386
71.120 19.557608
71.125 19.723494
71.130 19.438234
71.135 18.999479
71.140 18.150558
71.145 18.536777
71.150 19.360197
71.155 19.776114
71.160 20.416773
71.165 20.60961
71.170 21.12023
71.175 21.470549
71.180 21.209309
71.185 21.225605
71.190 20.40202
71.195 19.335011
71.200 18.989048
71.205 18.918861
71.210 18.647665
71.215 18.518162
71.220 18.467825
71.225 18.264114
71.230 18.919992
71.235 19.637486
71.240 19.823112
71.245 19.704735
71.250 19.699652
71.255 19.374271
71.260 19.006239
71.265 18.707474
71.270 18.430002
71.275 18.761101
71.280 19.072327
71.285 19.171116
71.290 19.67078
71.295 19.89456
71.300 19.681801
71.305 19.73616
71.310 19.57032
71.315 19.58596
71.320 19.470963
71.325 19.588545
71.330 20.012331
71.335 19.806953
71.340 19.642635
71.345 19.672209
71.350 19.858206
71.355 19.735701
71.360 19.327976
71.365 19.174568
71.370 19.409925
71.375 18.860065
71.380 18.912876
71.385 18.796967
71.390 18.510818
71.395 18.68413
71.400 18.970934
71.405 18.931065
71.410 19.441504
71.415 19.153925
71.420 19.410767
71.425 20.011059
71.430 19.634546
71.435 18.755333
71.440 18.515457
71.445 18.663103
71.450 18.879169
71.455 18.586187
71.460 18.047689
71.465 18.615162
71.470 19.599773
71.475 19.837049
71.480 19.947748
71.485 19.604881
71.490 19.947561
71.495 20.600658
71.500 20.598898
71.505 19.880596
71.510 19.391817
71.515 19.320267
71.520 19.142597
71.525 18.839272
71.530 18.615343
71.535 18.377569
71.540 18.570192
71.545 18.449541
71.550 18.652075
71.555 18.9788
71.560 18.761755
71.565 18.605383
71.570 18.332947
71.575 19.054989
71.580 19.088198
71.585 18.413563
71.590 18.284744
71.595 19.147373
71.600 19.743345
71.605 19.580933
71.610 19.09289
71.615 18.867943
71.620 19.370546
71.625 19.626768
71.630 19.271801
71.635 19.091312
71.640 18.745913
71.645 18.681326
71.650 19.111929
71.655 19.015041
71.660 18.78042
71.665 18.827351
71.670 18.862982
71.675 19.569452
71.680 19.477789
71.685 19.390629
71.690 19.232344
71.695 19.155775
71.700 19.256147
71.705 19.06992
71.710 19.158764
71.715 19.841263
71.720 19.814348
71.725 19.66338
71.730 19.475355
71.735 19.148075
71.740 19.262938
71.745 19.170198
71.750 19.284979
71.755 19.724518
71.760 20.036242
71.765 20.025358
71.770 20.646881
71.775 20.695469
71.780 20.631014
71.785 20.550507
71.790 20.495319
71.795 20.319073
71.800 20.398808
71.805 20.06633
71.810 19.595591
71.815 19.298817
71.820 19.501711
71.825 19.794779
71.830 19.847383
71.835 19.553947
71.840 19.789934
71.845 20.283283
71.850 20.096863
71.855 19.337618
71.860 19.370453
71.865 19.338789
71.870 19.679127
71.875 19.954119
71.880 19.552826
71.885 19.980892
71.890 20.114212
71.895 20.071442
71.900 19.949434
71.905 19.403675
71.910 19.481035
71.915 19.498512
71.920 19.662439
71.925 19.514332
71.930 19.114626
71.935 19.35445
71.940 19.535295
71.945 19.188883
71.950 18.937679
71.955 18.891314
71.960 19.625505
71.965 20.110806
71.970 19.853458
71.975 19.760946
71.980 19.651024
71.985 19.655346
71.990 18.760122
71.995 17.848
72.000 17.607687
72.005 17.218893
72.010 17.010015
72.015 17.236742
72.020 17.39378
72.025 17.128531
72.030 16.936163
72.035 17.352079
72.040 17.199991
72.045 17.135281
72.050 16.915249
72.055 17.23691
72.060 17.760847
72.065 18.059757
72.070 17.711481
72.075 17.82181
72.080 17.995991
72.085 17.841803
72.090 17.735228
72.095 17.480299
72.100 17.580812
72.105 17.434446
72.110 18.026827
72.115 19.237949
72.120 19.340452
72.125 19.588535
72.130 19.738611
72.135 19.275843
72.140 19.476166
72.145 18.517614
72.150 18.066916
72.155 18.205666
72.160 18.112164
72.165 18.34684
72.170 18.832151
72.175 19.186628
72.180 19.639086
72.185 18.629932
72.190 18.446253
72.195 18.289454
72.200 18.383801
72.205 17.823704
72.210 17.418711
72.215 17.324333
72.220 18.391123
72.225 18.971996
72.230 19.154297
72.235 18.993629
72.240 19.897036
72.245 20.263721
72.250 20.746058
72.255 20.594685
72.260 20.596083
72.265 20.397709
72.270 20.770348
72.275 20.791483
72.280 20.704666
72.285 20.125483
72.290 20.128677
72.295 19.868244
72.300 20.051577
72.305 19.361708
72.310 18.506987
72.315 18.58746
72.320 18.127707
72.325 17.811262
72.330 18.029926
72.335 18.206776
72.340 18.292568
72.345 18.263597
72.350 18.238144
72.355 18.353842
72.360 18.474318
72.365 17.678183
72.370 17.356655
72.375 17.727871
72.380 17.962706
72.385 17.926573
72.390 18.1486
72.395 18.219475
72.400 18.817015
72.405 18.704191
72.410 18.509521
72.415 18.579042
72.420 18.316162
72.425 18.038548
72.430 17.978888
72.435 17.915813
72.440 17.352118
72.445 17.473909
72.450 18.040424
72.455 17.666702
72.460 17.422583
72.465 17.099749
72.470 17.155823
72.475 17.871868
72.480 17.620708
72.485 17.451941
72.490 17.805086
72.495 18.194386
72.500 18.617836
72.505 18.913179
72.510 18.779325
72.515 18.834248
72.520 18.988503
72.525 19.009989
72.530 18.810137
72.535 18.902586
72.540 18.355223
72.545 18.343248
72.550 18.342678
72.555 18.292284
72.560 18.120962
72.565 18.049429
72.570 17.797613
72.575 17.351391
72.580 17.307838
72.585 17.169193
72.590 17.622955
72.595 18.027475
72.600 18.041183
72.605 18.121716
72.610 18.602032
72.615 18.132526
72.620 18.361893
72.625 17.98703
72.630 17.626398
72.635 17.608549
72.640 17.70673
72.645 17.798346
72.650 18.149233
72.655 18.450655
72.660 19.341383
72.665 19.516779
72.670 19.871973
72.675 20.056562
72.680 19.727024
72.685 19.560181
72.690 19.078352
72.695 18.557022
72.700 18.462397
72.705 18.061922
72.710 17.970913
72.715 17.900417
72.720 17.849783
72.725 17.528324
72.730 17.438612
72.735 17.373917
72.740 17.501514
72.745 17.70207
72.750 17.184238
72.755 17.243589
72.760 17.099739
72.765 17.556746
72.770 17.540491
72.775 17.431162
72.780 17.242687
72.785 17.347502
72.790 17.371048
72.795 18.262953
72.800 18.189734
72.805 17.878962
72.810 18.224321
72.815 18.728134
72.820 18.604794
72.825 18.509216
72.830 18.191532
72.835 18.304384
72.840 18.371532
72.845 17.898714
72.850 17.90184
72.855 17.954002
72.860 17.365059
72.865 16.603512
72.870 16.439905
72.875 16.689598
72.880 17.250261
72.885 17.422289
72.890 17.433493
72.895 18.088511
72.900 18.510559
72.905 18.79353
72.910 18.475613
72.915 17.748556
72.920 17.146957
72.925 16.983025
72.930 17.112703
72.935 17.078726
72.940 17.21818
72.945 17.011057
72.950 16.934637
72.955 17.801146
72.960 18.421846
72.965 18.207603
72.970 18.380728
72.975 18.585711
72.980 19.192783
72.985 19.334827
72.990 19.398876
72.995 19.102707
73.000 19.078959
