!@!!GADDS PLOTSO FILE: Chi integration type
!@!!Title/SampleName: map-e1
!@!!Comment: ?
!@!!User: Bruker Instrument Administrator
!@!!Site: University of Illinois Chicago
!@!!Frame: map-e1_01_000.gfrm
!@!!Wavelengths    1.54184   1.54056   1.54439
!@!!Frame angles: 2Theta: 63.000 Omega: 50.000 Phi: 0.000 Chi: 90.000
!@!!Integration range: 2Theta: 53.000 to 73.000  Gamma: -105.000 to -75.000
!@!!Integration method: bin normalized
!@!N
!@!SS
!@!M
!@!L 0.0 0.0 0.0 0.0
!@!XDegrees
!@!YCounts
53.000 6.788516
53.005 6.88207
53.010 6.661441
53.015 6.827662
53.020 7.009555
53.025 7.137131
53.030 6.954317
53.035 7.183189
53.040 7.522183
53.045 7.702354
53.050 7.778645
53.055 7.5662
53.060 7.493084
53.065 7.204461
53.070 6.990684
53.075 6.903097
53.080 7.189492
53.085 7.459035
53.090 7.487272
53.095 7.662364
53.100 7.954417
53.105 7.943892
53.110 8.285918
53.115 8.170622
53.120 8.365905
53.125 8.235225
53.130 7.942346
53.135 8.500079
53.140 8.406348
53.145 7.975534
53.150 8.138147
53.155 8.348633
53.160 8.528125
53.165 8.78925
53.170 8.192942
53.175 8.261307
53.180 8.41483
53.185 8.021556
53.190 8.075318
53.195 8.527205
53.200 8.243168
53.205 8.217219
53.210 8.006679
53.215 7.792902
53.220 8.01259
53.225 7.543459
53.230 7.183814
53.235 7.118816
53.240 7.131376
53.245 7.016417
53.250 6.90392
53.255 6.887169
53.260 7.224576
53.265 7.644366
53.270 7.995539
53.275 8.135038
53.280 8.277627
53.285 8.236475
53.290 8.076999
53.295 7.490977
53.300 7.518157
53.305 7.607927
53.310 7.394554
53.315 7.569515
53.320 7.704855
53.325 7.679913
53.330 7.773295
53.335 7.645431
53.340 7.516223
53.345 7.498218
53.350 7.386021
53.355 7.23575
53.360 7.56879
53.365 7.631539
53.370 7.853337
53.375 7.920167
53.380 8.144097
53.385 8.114563
53.390 8.789008
53.395 8.84353
53.400 8.909741
53.405 8.697288
53.410 8.744445
53.415 9.113213
53.420 9.219341
53.425 8.576448
53.430 8.209063
53.435 8.056839
53.440 8.315457
53.445 8.213262
53.450 7.586132
53.455 7.447004
53.460 7.692061
53.465 8.156887
53.470 8.403906
53.475 8.579132
53.480 8.797611
53.485 9.000797
53.490 8.985281
53.495 8.986337
53.500 8.81433
53.505 8.554078
53.510 8.420628
53.515 8.524469
53.520 8.845067
53.525 9.216948
53.530 9.248623
53.535 9.231417
53.540 8.902733
53.545 8.988021
53.550 8.842412
53.555 8.635742
53.560 8.000729
53.565 7.511253
53.570 7.363246
53.575 7.61622
53.580 7.582687
53.585 7.215102
53.590 7.086354
53.595 7.262803
53.600 7.687649
53.605 7.848252
53.610 7.454182
53.615 7.622063
53.620 8.073174
53.625 8.334151
53.630 8.310099
53.635 8.26468
53.640 8.327398
53.645 8.327885
53.650 8.593386
53.655 8.628051
53.660 8.781036
53.665 8.892303
53.670 8.688428
53.675 8.90614
53.680 8.939193
53.685 8.878398
53.690 8.884554
53.695 8.788225
53.700 8.677887
53.705 8.853889
53.710 8.714004
53.715 8.246546
53.720 8.166296
53.725 8.624866
53.730 8.407165
53.735 8.299694
53.740 7.979789
53.745 8.27002
53.750 8.651059
53.755 8.451449
53.760 8.213553
53.765 8.261935
53.770 8.492987
53.775 8.67112
53.780 8.122488
53.785 7.822906
53.790 7.78446
53.795 7.557767
53.800 7.712395
53.805 7.579226
53.810 7.393792
53.815 7.65367
53.820 8.019487
53.825 8.677482
53.830 8.944963
53.835 8.913285
53.840 9.307243
53.845 9.446692
53.850 9.489788
53.855 8.843609
53.860 8.216428
53.865 7.867343
53.870 7.682448
53.875 7.427134
53.880 7.638422
53.885 7.734671
53.890 7.880672
53.895 7.787046
53.900 7.98999
53.905 7.977884
53.910 7.960289
53.915 7.871781
53.920 7.452716
53.925 7.17801
53.930 7.423038
53.935 7.616895
53.940 7.776423
53.945 7.836031
53.950 8.21293
53.955 8.543307
53.960 8.9846
53.965 8.945739
53.970 8.804103
53.975 8.494514
53.980 8.474916
53.985 8.191464
53.990 8.229898
53.995 8.213436
54.000 7.92536
54.005 7.911803
54.010 8.05687
54.015 7.829201
54.020 7.772166
54.025 7.558742
54.030 7.236165
54.035 7.06952
54.040 7.314505
54.045 7.207862
54.050 6.891944
54.055 7.156768
54.060 7.510565
54.065 7.702599
54.070 7.975626
54.075 8.223215
54.080 8.480167
54.085 8.633879
54.090 8.550665
54.095 8.33107
54.100 8.324727
54.105 8.130245
54.110 7.492632
54.115 7.087829
54.120 7.145485
54.125 7.117224
54.130 7.44951
54.135 7.646703
54.140 7.500444
54.145 8.107412
54.150 8.433932
54.155 8.542495
54.160 8.635261
54.165 8.600153
54.170 8.63765
54.175 8.887708
54.180 9.112294
54.185 9.226892
54.190 8.939355
54.195 8.526702
54.200 8.324079
54.205 8.245839
54.210 8.048185
54.215 8.054454
54.220 8.215326
54.225 8.578122
54.230 8.823665
54.235 9.206572
54.240 9.656569
54.245 9.59938
54.250 9.203965
54.255 8.918679
54.260 9.045473
54.265 9.573738
54.270 9.55767
54.275 9.463981
54.280 9.519276
54.285 9.48743
54.290 9.268097
54.295 8.945284
54.300 8.27193
54.305 8.329205
54.310 8.471174
54.315 8.465032
54.320 8.44183
54.325 8.317717
54.330 8.338684
54.335 8.323647
54.340 8.510653
54.345 8.379035
54.350 8.899421
54.355 9.281545
54.360 9.529486
54.365 9.216203
54.370 8.973676
54.375 8.331268
54.380 8.20475
54.385 7.814863
54.390 8.012698
54.395 7.845048
54.400 7.964257
54.405 7.901905
54.410 7.870728
54.415 8.102216
54.420 7.916614
54.425 7.788487
54.430 8.067547
54.435 8.072319
54.440 8.469897
54.445 8.845263
54.450 8.748816
54.455 9.18613
54.460 9.422768
54.465 9.499382
54.470 9.876492
54.475 9.725779
54.480 9.701788
54.485 9.813394
54.490 9.592001
54.495 9.148993
54.500 9.076184
54.505 8.659326
54.510 8.311467
54.515 8.287556
54.520 8.293407
54.525 8.210651
54.530 8.484231
54.535 8.627692
54.540 8.736333
54.545 8.842118
54.550 8.286965
54.555 8.34453
54.560 8.773207
54.565 8.977671
54.570 9.011287
54.575 9.197181
54.580 9.264677
54.585 9.341112
54.590 9.148513
54.595 9.033239
54.600 8.931074
54.605 8.78302
54.610 8.798207
54.615 8.732767
54.620 8.548509
54.625 8.198792
54.630 7.820535
54.635 7.504915
54.640 7.577734
54.645 7.967091
54.650 8.657706
54.655 9.113143
54.660 9.203347
54.665 9.133574
54.670 9.30692
54.675 9.122853
54.680 8.898402
54.685 8.168587
54.690 8.474964
54.695 8.759499
54.700 8.689445
54.705 8.595418
54.710 8.225554
54.715 8.412093
54.720 8.284983
54.725 7.951514
54.730 8.072825
54.735 8.465065
54.740 9.047944
54.745 9.567478
54.750 9.545041
54.755 9.850842
54.760 9.90339
54.765 9.874679
54.770 9.384932
54.775 8.971607
54.780 9.175679
54.785 9.117805
54.790 9.296389
54.795 9.136617
54.800 9.236113
54.805 9.855285
54.810 10.234062
54.815 10.084597
54.820 10.074517
54.825 10.262799
54.830 10.159753
54.835 10.274323
54.840 9.677022
54.845 9.190889
54.850 9.114029
54.855 8.898851
54.860 8.536695
54.865 9.098929
54.870 8.990479
54.875 9.192282
54.880 9.288224
54.885 9.491884
54.890 9.277612
54.895 9.822465
54.900 9.739044
54.905 9.663311
54.910 9.818651
54.915 9.953702
54.920 9.907515
54.925 9.792958
54.930 9.352663
54.935 9.144726
54.940 9.291465
54.945 9.15015
54.950 8.869738
54.955 9.37151
54.960 9.283215
54.965 9.261976
54.970 9.004084
54.975 9.01589
54.980 9.601117
54.985 10.230636
54.990 10.388521
54.995 10.708037
55.000 10.727517
55.005 11.230602
55.010 10.738158
55.015 9.755752
55.020 9.041933
55.025 8.616026
55.030 8.639272
55.035 8.784983
55.040 8.952212
55.045 9.770626
55.050 10.541986
55.055 11.13823
55.060 11.057137
55.065 11.15002
55.070 10.926394
55.075 10.307001
55.080 10.194917
55.085 9.214452
55.090 8.479084
55.095 8.549651
55.100 8.33517
55.105 8.675089
55.110 8.908452
55.115 8.934738
55.120 9.445714
55.125 9.974919
55.130 9.852679
55.135 9.758077
55.140 9.354098
55.145 9.431733
55.150 9.33155
55.155 9.584203
55.160 9.823725
55.165 9.933632
55.170 10.19484
55.175 10.095918
55.180 10.070716
55.185 10.195652
55.190 9.353627
55.195 8.85828
55.200 8.786342
55.205 8.835299
55.210 9.095829
55.215 8.813398
55.220 8.665287
55.225 9.344627
55.230 9.478008
55.235 9.258865
55.240 9.281054
55.245 9.506271
55.250 10.02539
55.255 10.034195
55.260 10.442763
55.265 10.427522
55.270 10.571198
55.275 10.163424
55.280 9.5867
55.285 9.341283
55.290 8.727332
55.295 8.098923
55.300 8.354088
55.305 8.658193
55.310 8.867654
55.315 8.909677
55.320 9.06497
55.325 9.602
55.330 10.05118
55.335 9.802245
55.340 9.283244
55.345 9.606906
55.350 9.807582
55.355 9.642715
55.360 9.53457
55.365 9.343455
55.370 9.497724
55.375 9.628446
55.380 9.213589
55.385 8.958153
55.390 9.009189
55.395 9.09329
55.400 8.894187
55.405 8.781526
55.410 8.959805
55.415 8.891206
55.420 9.104613
55.425 9.280369
55.430 9.847728
55.435 10.069207
55.440 9.917809
55.445 9.752279
55.450 9.959312
55.455 10.00913
55.460 9.525837
55.465 9.110126
55.470 8.772846
55.475 8.782359
55.480 8.42837
55.485 8.197307
55.490 8.276957
55.495 8.27183
55.500 8.623369
55.505 9.001456
55.510 9.316711
55.515 9.970982
55.520 9.917722
55.525 9.869025
55.530 10.272159
55.535 10.100888
55.540 9.730417
55.545 9.311092
55.550 9.067822
55.555 9.594222
55.560 9.822442
55.565 9.491919
55.570 9.775002
55.575 9.933247
55.580 10.241041
55.585 10.283255
55.590 10.036895
55.595 9.833005
55.600 9.656506
55.605 9.591734
55.610 10.229303
55.615 10.51773
55.620 10.388983
55.625 10.198792
55.630 9.948686
55.635 9.70105
55.640 9.418586
55.645 8.755303
55.650 8.374789
55.655 8.176502
55.660 8.459492
55.665 8.480575
55.670 8.544972
55.675 8.658842
55.680 8.911011
55.685 9.541315
55.690 9.708723
55.695 9.55899
55.700 9.231155
55.705 9.455503
55.710 9.544859
55.715 9.420135
55.720 8.997869
55.725 9.204893
55.730 8.874577
55.735 9.007201
55.740 8.824654
55.745 8.872156
55.750 9.051086
55.755 8.709942
55.760 8.499281
55.765 9.263103
55.770 9.30217
55.775 9.192204
55.780 8.978001
55.785 9.276421
55.790 9.456597
55.795 9.665671
55.800 9.40054
55.805 9.526451
55.810 9.501231
55.815 9.188495
55.820 9.269731
55.825 9.619481
55.830 9.61475
55.835 9.592456
55.840 9.508506
55.845 9.740279
55.850 10.062429
55.855 9.998172
55.860 9.423856
55.865 9.520852
55.870 9.527683
55.875 9.506408
55.880 9.587101
55.885 9.461072
55.890 9.505322
55.895 9.724268
55.900 9.777656
55.905 9.949959
55.910 10.265943
55.915 10.236315
55.920 10.267154
55.925 10.266034
55.930 10.428504
55.935 10.140415
55.940 9.570175
55.945 9.071278
55.950 8.551682
55.955 8.216766
55.960 8.291316
55.965 7.981886
55.970 8.335417
55.975 9.056519
55.980 9.486783
55.985 9.656609
55.990 9.821647
55.995 9.849237
56.000 9.963878
56.005 9.509473
56.010 9.009532
56.015 8.637437
56.020 8.635734
56.025 8.573676
56.030 8.104013
56.035 8.169407
56.040 8.638829
56.045 8.763139
56.050 8.714234
56.055 8.417467
56.060 8.549448
56.065 8.496315
56.070 8.493838
56.075 8.273971
56.080 8.290517
56.085 8.743771
56.090 9.333168
56.095 9.211408
56.100 9.855944
56.105 10.211296
56.110 10.467683
56.115 10.89968
56.120 10.991259
56.125 10.674376
56.130 10.871135
56.135 10.900021
56.140 10.506725
56.145 10.502847
56.150 10.469197
56.155 10.796826
56.160 10.991872
56.165 10.374626
56.170 9.80852
56.175 10.11912
56.180 10.484365
56.185 10.05738
56.190 9.60153
56.195 9.411481
56.200 9.869701
56.205 10.183214
56.210 10.16869
56.215 9.675797
56.220 9.792718
56.225 10.325848
56.230 10.884002
56.235 11.187119
56.240 11.117776
56.245 11.499594
56.250 12.039243
56.255 12.122938
56.260 11.366559
56.265 10.626428
56.270 10.202557
56.275 10.120646
56.280 9.69666
56.285 9.480036
56.290 9.686189
56.295 10.276297
56.300 10.701623
56.305 10.687572
56.310 10.719955
56.315 10.389689
56.320 10.222136
56.325 9.833681
56.330 9.563379
56.335 9.096223
56.340 8.973131
56.345 9.208633
56.350 9.24107
56.355 9.078176
56.360 8.82901
56.365 9.183717
56.370 10.08326
56.375 10.220528
56.380 10.19442
56.385 10.599529
56.390 10.915418
56.395 11.177761
56.400 10.574436
56.405 10.040007
56.410 10.29214
56.415 10.531466
56.420 10.365202
56.425 10.09781
56.430 10.342136
56.435 10.537889
56.440 10.225213
56.445 9.775455
56.450 9.640157
56.455 9.995029
56.460 10.151035
56.465 9.969233
56.470 10.373702
56.475 10.78131
56.480 10.802228
56.485 10.214465
56.490 9.790097
56.495 9.546101
56.500 9.528614
56.505 9.39869
56.510 9.635434
56.515 9.902701
56.520 10.53797
56.525 11.346495
56.530 11.883548
56.535 12.031784
56.540 12.318159
56.545 11.735344
56.550 11.426699
56.555 11.243783
56.560 11.094646
56.565 11.036324
56.570 10.896169
56.575 10.346502
56.580 11.01028
56.585 11.207999
56.590 10.88604
56.595 10.412231
56.600 10.550753
56.605 10.550789
56.610 10.556852
56.615 10.172431
56.620 9.953032
56.625 9.997698
56.630 10.099554
56.635 9.816791
56.640 10.235796
56.645 10.350441
56.650 10.325096
56.655 10.51066
56.660 10.678487
56.665 11.070434
56.670 11.442851
56.675 11.2985
56.680 11.437731
56.685 11.66458
56.690 12.263492
56.695 12.398913
56.700 11.719453
56.705 11.506818
56.710 11.648204
56.715 11.586275
56.720 11.657997
56.725 11.234275
56.730 11.402545
56.735 11.787227
56.740 11.742367
56.745 11.726431
56.750 11.85229
56.755 11.774161
56.760 12.384118
56.765 12.343724
56.770 12.548851
56.775 12.168319
56.780 12.217495
56.785 12.025239
56.790 11.471174
56.795 11.073367
56.800 10.719637
56.805 10.385597
56.810 10.748694
56.815 10.671618
56.820 10.597205
56.825 10.812852
56.830 10.452054
56.835 10.512305
56.840 10.329638
56.845 9.578814
56.850 9.474365
56.855 9.958627
56.860 9.985533
56.865 10.055854
56.870 10.339913
56.875 10.854998
56.880 11.682201
56.885 11.969017
56.890 11.693928
56.895 11.485015
56.900 11.566024
56.905 11.518276
56.910 11.41986
56.915 10.935282
56.920 10.71288
56.925 10.593043
56.930 10.875663
56.935 11.195442
56.940 11.052692
56.945 10.91855
56.950 10.947873
56.955 10.93106
56.960 10.671774
56.965 10.475422
56.970 9.885275
56.975 10.128561
56.980 10.313242
56.985 10.410911
56.990 10.765405
56.995 10.987758
57.000 10.856291
57.005 11.045238
57.010 10.842975
57.015 10.688879
57.020 10.280665
57.025 10.145672
57.030 10.02914
57.035 10.250424
57.040 9.990353
57.045 10.074611
57.050 10.012251
57.055 10.057903
57.060 10.133327
57.065 10.272124
57.070 10.598103
57.075 10.840138
57.080 10.713111
57.085 10.836926
57.090 10.674934
57.095 10.514024
57.100 10.590708
57.105 10.789651
57.110 10.826644
57.115 10.599068
57.120 10.720119
57.125 11.08798
57.130 11.023635
57.135 10.852881
57.140 10.733027
57.145 10.529653
57.150 10.976993
57.155 10.799715
57.160 10.545631
57.165 10.386893
57.170 10.260225
57.175 10.142311
57.180 10.105026
57.185 9.8497
57.190 9.757604
57.195 9.765368
57.200 10.179865
57.205 10.570384
57.210 11.000186
57.215 11.077601
57.220 10.970078
57.225 11.296579
57.230 11.494198
57.235 11.426681
57.240 11.034581
57.245 10.514734
57.250 10.386482
57.255 10.679116
57.260 10.94096
57.265 10.962087
57.270 10.776119
57.275 10.618371
57.280 10.944771
57.285 11.093188
57.290 10.950053
57.295 10.93385
57.300 11.398342
57.305 11.860689
57.310 12.168833
57.315 12.320913
57.320 12.208752
57.325 12.009143
57.330 11.912536
57.335 11.666451
57.340 11.206081
57.345 10.836511
57.350 11.000319
57.355 11.486215
57.360 11.614833
57.365 11.51776
57.370 11.6099
57.375 11.900088
57.380 11.986923
57.385 11.550328
57.390 11.795877
57.395 11.959159
57.400 12.006577
57.405 12.108912
57.410 12.33376
57.415 12.453112
57.420 12.307623
57.425 11.706809
57.430 11.571511
57.435 11.299938
57.440 10.624926
57.445 10.281815
57.450 9.915753
57.455 10.29499
57.460 10.1228
57.465 9.670681
57.470 10.091521
57.475 10.303612
57.480 10.354384
57.485 10.194401
57.490 9.890059
57.495 10.234023
57.500 10.84156
57.505 10.969257
57.510 10.944169
57.515 11.369821
57.520 11.722706
57.525 11.82347
57.530 11.605387
57.535 11.327777
57.540 11.332072
57.545 11.561164
57.550 11.652821
57.555 11.520778
57.560 11.196422
57.565 11.740686
57.570 12.121052
57.575 12.306543
57.580 12.379827
57.585 12.325525
57.590 12.785877
57.595 13.009872
57.600 12.627978
57.605 11.845119
57.610 11.626472
57.615 11.28068
57.620 11.176388
57.625 11.063023
57.630 10.845591
57.635 10.607986
57.640 10.568382
57.645 10.364682
57.650 10.751257
57.655 10.790607
57.660 10.555954
57.665 10.618369
57.670 11.049709
57.675 11.465093
57.680 11.481879
57.685 11.328272
57.690 11.012365
57.695 11.508092
57.700 11.479947
57.705 11.117805
57.710 10.949508
57.715 11.007197
57.720 10.9685
57.725 11.377175
57.730 10.913613
57.735 10.808719
57.740 10.974139
57.745 10.954885
57.750 11.006849
57.755 10.935726
57.760 11.042737
57.765 11.823445
57.770 12.408894
57.775 12.451244
57.780 12.355333
57.785 12.432196
57.790 12.602427
57.795 12.291349
57.800 11.683561
57.805 11.813683
57.810 11.700785
57.815 11.682008
57.820 11.564057
57.825 11.436008
57.830 11.635627
57.835 11.999318
57.840 11.426892
57.845 11.571563
57.850 11.451377
57.855 11.172893
57.860 11.388494
57.865 11.47946
57.870 11.21635
57.875 11.542405
57.880 11.703375
57.885 11.969153
57.890 12.165444
57.895 12.409224
57.900 12.233721
57.905 12.486484
57.910 12.087923
57.915 11.783174
57.920 11.714862
57.925 11.720509
57.930 11.599265
57.935 12.100105
57.940 12.127557
57.945 12.163539
57.950 12.299034
57.955 12.285886
57.960 12.250437
57.965 11.895391
57.970 11.418618
57.975 11.687182
57.980 11.603263
57.985 11.912588
57.990 12.103577
57.995 11.912351
58.000 11.689085
58.005 11.414586
58.010 11.28072
58.015 11.528658
58.020 11.222582
58.025 10.96227
58.030 11.103687
58.035 11.438643
58.040 11.209608
58.045 11.241115
58.050 11.422987
58.055 11.647949
58.060 11.584257
58.065 11.567821
58.070 11.579982
58.075 12.091041
58.080 12.023966
58.085 11.607794
58.090 11.265965
58.095 11.461535
58.100 11.51607
58.105 11.246884
58.110 11.524672
58.115 11.366663
58.120 11.420527
58.125 11.847355
58.130 12.206225
58.135 12.161003
58.140 12.467358
58.145 11.738065
58.150 12.058953
58.155 12.006805
58.160 11.733181
58.165 11.45197
58.170 11.434605
58.175 11.196404
58.180 11.498392
58.185 11.517036
58.190 11.817126
58.195 11.958584
58.200 12.008747
58.205 12.0704
58.210 12.41999
58.215 12.80985
58.220 13.045847
58.225 12.921975
58.230 12.798779
58.235 12.691679
58.240 12.653229
58.245 12.701471
58.250 12.71222
58.255 12.658063
58.260 12.899076
58.265 12.876017
58.270 13.340679
58.275 14.091407
58.280 13.988278
58.285 13.527536
58.290 13.496463
58.295 13.708324
58.300 14.180386
58.305 14.002976
58.310 14.085041
58.315 14.232734
58.320 14.418227
58.325 14.318524
58.330 14.453498
58.335 14.251707
58.340 13.897628
58.345 13.66645
58.350 14.11117
58.355 14.721698
58.360 15.10299
58.365 14.634346
58.370 15.072786
58.375 15.657466
58.380 15.928624
58.385 16.222391
58.390 16.156664
58.395 16.205629
58.400 16.293325
58.405 15.95408
58.410 15.797953
58.415 16.150888
58.420 16.335611
58.425 16.317392
58.430 16.543449
58.435 17.420156
58.440 17.962381
58.445 17.620882
58.450 17.430582
58.455 17.910002
58.460 18.424459
58.465 18.587675
58.470 18.140947
58.475 18.239262
58.480 18.370943
58.485 18.22761
58.490 18.464361
58.495 18.477573
58.500 18.643915
58.505 18.813053
58.510 19.213194
58.515 20.149321
58.520 20.574284
58.525 19.985363
58.530 19.984291
58.535 20.160982
58.540 20.841759
58.545 20.751354
58.550 19.918783
58.555 19.312624
58.560 19.260479
58.565 19.648378
58.570 19.335617
58.575 18.373684
58.580 17.780579
58.585 17.696257
58.590 18.065443
58.595 18.860044
58.600 18.689226
58.605 18.803831
58.610 19.691584
58.615 20.055887
58.620 20.106266
58.625 19.913565
58.630 19.123787
58.635 19.189888
58.640 18.248421
58.645 17.750387
58.650 17.719233
58.655 18.306007
58.660 18.336412
58.665 18.158846
58.670 18.06443
58.675 18.581947
58.680 18.691898
58.685 19.18751
58.690 19.263273
58.695 20.533068
58.700 20.800081
58.705 20.737782
58.710 20.394493
58.715 19.957396
58.720 19.048552
58.725 18.458422
58.730 17.229391
58.735 17.130312
58.740 16.778048
58.745 16.882484
58.750 16.756681
58.755 16.423601
58.760 16.282091
58.765 16.118465
58.770 15.099365
58.775 14.446735
58.780 14.052846
58.785 14.292614
58.790 14.434477
58.795 14.4189
58.800 14.211212
58.805 15.00482
58.810 15.752236
58.815 16.280838
58.820 15.891033
58.825 15.968316
58.830 16.11726
58.835 16.336584
58.840 16.148043
58.845 16.064667
58.850 16.153223
58.855 16.626141
58.860 16.660137
58.865 16.150402
58.870 15.709532
58.875 15.931784
58.880 15.646637
58.885 15.270745
58.890 15.008903
58.895 15.19144
58.900 15.249809
58.905 14.97895
58.910 14.904922
58.915 14.744819
58.920 14.30865
58.925 14.253572
58.930 13.238344
58.935 12.796876
58.940 12.895045
58.945 12.273463
58.950 12.108068
58.955 11.674147
58.960 11.733144
58.965 12.650752
58.970 13.254986
58.975 13.190007
58.980 13.676721
58.985 14.439045
58.990 14.951632
58.995 14.630566
59.000 13.995496
59.005 13.410579
59.010 13.416547
59.015 13.226396
59.020 12.721345
59.025 12.184085
59.030 12.191025
59.035 12.43162
59.040 12.643224
59.045 12.661098
59.050 12.781359
59.055 13.428004
59.060 13.756197
59.065 13.373446
59.070 13.0937
59.075 12.846754
59.080 12.845255
59.085 12.293694
59.090 11.848047
59.095 12.114995
59.100 12.345963
59.105 12.625916
59.110 12.905802
59.115 12.673382
59.120 12.73807
59.125 12.814142
59.130 12.568424
59.135 12.082673
59.140 11.965159
59.145 11.737163
59.150 11.514019
59.155 11.291644
59.160 11.158217
59.165 11.412089
59.170 11.847883
59.175 11.618238
59.180 11.38194
59.185 12.068664
59.190 12.654659
59.195 12.759639
59.200 12.72372
59.205 12.932482
59.210 13.165773
59.215 13.263525
59.220 12.824435
59.225 12.286758
59.230 11.827102
59.235 11.803617
59.240 11.352235
59.245 11.216962
59.250 11.142152
59.255 10.973978
59.260 11.237832
59.265 11.449187
59.270 11.480294
59.275 11.560722
59.280 11.409974
59.285 11.517502
59.290 11.556389
59.295 11.232143
59.300 11.180769
59.305 11.209252
59.310 11.827665
59.315 12.080906
59.320 11.963838
59.325 12.183105
59.330 12.51646
59.335 12.369842
59.340 12.325403
59.345 12.15183
59.350 12.247127
59.355 12.250297
59.360 12.015944
59.365 11.972173
59.370 12.366797
59.375 12.411305
59.380 11.957275
59.385 11.973117
59.390 12.242831
59.395 12.041105
59.400 11.796384
59.405 11.76828
59.410 11.661393
59.415 11.714557
59.420 11.808958
59.425 11.390302
59.430 11.785553
59.435 11.946079
59.440 11.961375
59.445 12.090218
59.450 12.235682
59.455 12.286491
59.460 13.02669
59.465 13.063562
59.470 13.060508
59.475 13.212402
59.480 12.864386
59.485 12.801708
59.490 12.793384
59.495 12.579523
59.500 12.546505
59.505 12.510516
59.510 11.988997
59.515 12.068752
59.520 11.89794
59.525 11.790163
59.530 11.492902
59.535 10.993032
59.540 10.808782
59.545 11.200464
59.550 10.969335
59.555 11.037562
59.560 10.887
59.565 10.816404
59.570 11.029101
59.575 11.317674
59.580 11.185173
59.585 11.446101
59.590 11.43136
59.595 11.58809
59.600 11.777923
59.605 12.396339
59.610 12.70615
59.615 12.768513
59.620 12.69843
59.625 12.606018
59.630 12.803317
59.635 12.686892
59.640 12.455197
59.645 12.125586
59.650 12.293557
59.655 12.247598
59.660 12.312947
59.665 12.377786
59.670 12.712997
59.675 12.261217
59.680 12.004841
59.685 11.816153
59.690 12.017247
59.695 12.05387
59.700 12.169652
59.705 11.961872
59.710 12.129637
59.715 12.3758
59.720 12.258253
59.725 12.03124
59.730 11.976031
59.735 11.867915
59.740 12.061653
59.745 12.411139
59.750 12.34557
59.755 12.812066
59.760 13.076306
59.765 12.777246
59.770 12.358097
59.775 12.911501
59.780 13.354709
59.785 13.783803
59.790 13.873011
59.795 14.069285
59.800 13.977491
59.805 14.382589
59.810 14.374844
59.815 14.1305
59.820 13.871103
59.825 13.389202
59.830 13.269403
59.835 13.307825
59.840 12.707444
59.845 11.724884
59.850 11.304255
59.855 11.41424
59.860 11.649045
59.865 11.779152
59.870 11.618787
59.875 11.832021
59.880 11.823981
59.885 11.985682
59.890 11.502913
59.895 11.391576
59.900 11.383432
59.905 11.737373
59.910 11.909019
59.915 11.876827
59.920 11.738894
59.925 11.978104
59.930 12.391204
59.935 12.248283
59.940 12.295411
59.945 12.309951
59.950 12.749986
59.955 12.876277
59.960 12.665908
59.965 12.393649
59.970 12.697289
59.975 12.747721
59.980 12.433008
59.985 12.087808
59.990 12.506691
59.995 12.644278
60.000 12.937967
60.005 12.684602
60.010 12.713771
60.015 13.027968
60.020 13.288098
60.025 13.253031
60.030 12.832374
60.035 12.659771
60.040 12.81054
60.045 12.259227
60.050 11.492912
60.055 10.960611
60.060 10.647367
60.065 10.922708
60.070 10.36945
60.075 10.421862
60.080 10.83223
60.085 11.620329
60.090 12.088885
60.095 12.305903
60.100 12.241146
60.105 12.317577
60.110 12.193979
60.115 11.72649
60.120 11.349483
60.125 11.019701
60.130 10.602411
60.135 10.666245
60.140 10.967536
60.145 11.331297
60.150 11.398494
60.155 11.531256
60.160 11.442162
60.165 11.527569
60.170 11.094762
60.175 10.928304
60.180 10.22829
60.185 10.140132
60.190 9.943745
60.195 10.02874
60.200 10.253351
60.205 10.395277
60.210 10.560555
60.215 10.981946
60.220 11.075955
60.225 10.968543
60.230 10.877804
60.235 11.390285
60.240 11.61901
60.245 11.670181
60.250 11.816669
60.255 12.519042
60.260 13.236063
60.265 13.121238
60.270 12.560493
60.275 12.569715
60.280 12.615873
60.285 12.718951
60.290 12.162259
60.295 11.559602
60.300 11.680427
60.305 11.596965
60.310 11.185081
60.315 11.12326
60.320 10.798524
60.325 10.895766
60.330 11.12211
60.335 11.164686
60.340 11.234679
60.345 11.119984
60.350 10.616645
60.355 10.376938
60.360 10.392515
60.365 9.945218
60.370 9.936515
60.375 10.308244
60.380 10.77281
60.385 11.999356
60.390 12.854544
60.395 13.332296
60.400 13.260592
60.405 13.240367
60.410 13.468961
60.415 13.103413
60.420 12.212005
60.425 11.555522
60.430 11.595583
60.435 12.411824
60.440 12.544796
60.445 12.499928
60.450 13.413665
60.455 13.834675
60.460 14.333971
60.465 13.84783
60.470 13.307491
60.475 13.723045
60.480 13.946028
60.485 13.770709
60.490 13.912365
60.495 13.453536
60.500 13.401434
60.505 13.761703
60.510 12.987861
60.515 12.787936
60.520 12.553364
60.525 12.409325
60.530 12.502511
60.535 12.978881
60.540 13.440032
60.545 13.86218
60.550 13.447532
60.555 13.440424
60.560 13.013035
60.565 13.125428
60.570 13.030935
60.575 12.376346
60.580 12.03488
60.585 11.831508
60.590 11.830827
60.595 12.153107
60.600 11.645491
60.605 11.349324
60.610 11.6373
60.615 12.198521
60.620 12.523565
60.625 12.270046
60.630 11.8927
60.635 11.925957
60.640 11.539895
60.645 11.172757
60.650 10.975403
60.655 10.902979
60.660 11.092957
60.665 11.174698
60.670 11.553766
60.675 11.880451
60.680 11.967525
60.685 11.692272
60.690 11.5052
60.695 11.523054
60.700 11.456158
60.705 11.352698
60.710 10.991707
60.715 10.878488
60.720 11.338807
60.725 11.818676
60.730 12.071104
60.735 12.361511
60.740 12.549819
60.745 12.741837
60.750 12.998147
60.755 12.496556
60.760 12.109386
60.765 12.061687
60.770 12.02762
60.775 12.330439
60.780 12.301754
60.785 11.923136
60.790 11.839778
60.795 12.208574
60.800 12.168328
60.805 12.106281
60.810 11.857568
60.815 11.831811
60.820 11.750998
60.825 11.965919
60.830 11.441817
60.835 11.138536
60.840 11.408889
60.845 11.196884
60.850 11.286728
60.855 11.043317
60.860 10.89118
60.865 10.864594
60.870 11.143906
60.875 10.896106
60.880 11.17016
60.885 11.467432
60.890 12.038787
60.895 12.327711
60.900 12.572366
60.905 12.63424
60.910 12.78422
60.915 12.878553
60.920 13.027362
60.925 12.807175
60.930 12.362801
60.935 12.330743
60.940 11.978961
60.945 11.662115
60.950 11.424206
60.955 11.298732
60.960 11.803707
60.965 12.116752
60.970 12.264346
60.975 12.596659
60.980 12.819899
60.985 13.174233
60.990 13.181723
60.995 12.633862
61.000 12.639616
61.005 12.488499
61.010 12.414307
61.015 12.201402
61.020 12.24929
61.025 12.404324
61.030 12.874104
61.035 12.92402
61.040 12.699627
61.045 12.936543
61.050 13.244314
61.055 12.960338
61.060 12.780235
61.065 12.652305
61.070 12.975757
61.075 13.366622
61.080 13.411833
61.085 13.378935
61.090 13.992206
61.095 13.961407
61.100 13.525457
61.105 13.375106
61.110 13.115845
61.115 13.136894
61.120 12.657689
61.125 11.998963
61.130 12.115472
61.135 12.435849
61.140 12.122337
61.145 11.881756
61.150 11.527408
61.155 11.406861
61.160 11.450693
61.165 11.757515
61.170 11.944702
61.175 12.003555
61.180 12.006024
61.185 11.931564
61.190 11.865372
61.195 11.875821
61.200 11.915751
61.205 11.727156
61.210 12.023494
61.215 12.119982
61.220 11.831999
61.225 12.10323
61.230 12.719196
61.235 12.98621
61.240 12.907703
61.245 12.936166
61.250 13.586719
61.255 14.523997
61.260 14.622756
61.265 14.239324
61.270 14.171329
61.275 14.399818
61.280 14.320543
61.285 13.917023
61.290 13.549314
61.295 13.271319
61.300 13.252086
61.305 12.764407
61.310 12.662876
61.315 12.133942
61.320 11.889071
61.325 12.01348
61.330 12.123294
61.335 11.782507
61.340 12.046725
61.345 12.09403
61.350 12.325386
61.355 12.513803
61.360 12.669529
61.365 12.894893
61.370 13.015229
61.375 13.03758
61.380 12.962695
61.385 12.566034
61.390 12.524053
61.395 12.246583
61.400 11.709259
61.405 11.941984
61.410 11.958291
61.415 11.841075
61.420 12.296762
61.425 11.938717
61.430 11.867784
61.435 12.35526
61.440 12.001957
61.445 12.274071
61.450 12.680317
61.455 12.768782
61.460 13.181641
61.465 13.681483
61.470 13.257637
61.475 12.864057
61.480 12.467401
61.485 12.483217
61.490 12.395888
61.495 12.65263
61.500 12.288017
61.505 12.476231
61.510 13.271927
61.515 13.242053
61.520 12.801074
61.525 12.625971
61.530 12.291316
61.535 12.203512
61.540 12.290178
61.545 12.08837
61.550 11.939015
61.555 12.206168
61.560 12.299414
61.565 12.553992
61.570 12.77576
61.575 12.692249
61.580 12.779676
61.585 13.027999
61.590 12.811283
61.595 12.674127
61.600 12.312204
61.605 12.276077
61.610 11.865813
61.615 11.184119
61.620 11.293202
61.625 11.644351
61.630 11.611612
61.635 11.452843
61.640 11.438399
61.645 11.995068
61.650 12.235112
61.655 11.905856
61.660 11.655154
61.665 11.650861
61.670 11.509452
61.675 11.924121
61.680 11.926026
61.685 12.053979
61.690 12.008185
61.695 11.989665
61.700 12.35413
61.705 12.80055
61.710 12.191792
61.715 12.121562
61.720 12.268081
61.725 12.496111
61.730 12.29586
61.735 11.974134
61.740 11.791702
61.745 11.626231
61.750 11.182847
61.755 11.068075
61.760 11.681424
61.765 11.843277
61.770 11.977967
61.775 11.931364
61.780 12.37538
61.785 12.963585
61.790 12.966686
61.795 12.882005
61.800 13.013311
61.805 13.006034
61.810 12.974351
61.815 12.615982
61.820 12.93257
61.825 13.324592
61.830 13.167924
61.835 12.84173
61.840 12.987442
61.845 13.018977
61.850 13.570344
61.855 13.100121
61.860 13.023368
61.865 13.447097
61.870 14.156733
61.875 14.139352
61.880 14.125669
61.885 14.148203
61.890 14.104942
61.895 13.798845
61.900 13.800831
61.905 13.544002
61.910 13.491058
61.915 13.539618
61.920 13.099885
61.925 12.974333
61.930 12.550477
61.935 11.981511
61.940 11.553072
61.945 11.502198
61.950 11.386755
61.955 11.586592
61.960 11.449277
61.965 11.486377
61.970 11.645277
61.975 12.085367
61.980 12.210336
61.985 12.385506
61.990 12.454532
61.995 12.871191
62.000 12.737562
62.005 12.662543
62.010 12.905705
62.015 13.237301
62.020 13.010183
62.025 12.635865
62.030 12.455615
62.035 12.339376
62.040 12.492447
62.045 12.65992
62.050 12.603074
62.055 12.738767
62.060 12.979978
62.065 12.938549
62.070 13.192315
62.075 12.933516
62.080 12.215366
62.085 11.989079
62.090 12.148434
62.095 11.989489
62.100 12.3184
62.105 12.369772
62.110 12.609233
62.115 12.664049
62.120 12.334323
62.125 12.632817
62.130 13.043672
62.135 12.857923
62.140 12.543056
62.145 12.121237
62.150 12.755254
62.155 12.918359
62.160 12.723607
62.165 12.598958
62.170 12.783343
62.175 13.270482
62.180 14.124505
62.185 13.958028
62.190 13.602452
62.195 13.25233
62.200 13.488445
62.205 13.220057
62.210 13.242356
62.215 13.270528
62.220 13.429492
62.225 13.629535
62.230 13.871509
62.235 13.462625
62.240 13.795029
62.245 13.476294
62.250 12.75347
62.255 12.793171
62.260 13.423864
62.265 13.226662
62.270 13.128023
62.275 12.8826
62.280 12.667588
62.285 12.701099
62.290 12.608442
62.295 12.503541
62.300 12.798776
62.305 13.063533
62.310 13.220877
62.315 13.547443
62.320 13.538202
62.325 13.328126
62.330 13.116656
62.335 12.745173
62.340 12.470812
62.345 12.679203
62.350 12.923784
62.355 12.744317
62.360 12.322988
62.365 12.234293
62.370 12.884112
62.375 13.208851
62.380 12.908594
62.385 12.449262
62.390 12.604505
62.395 13.030983
62.400 12.972968
62.405 12.672112
62.410 13.123334
62.415 13.548387
62.420 13.605494
62.425 13.610281
62.430 13.624141
62.435 13.886173
62.440 13.564478
62.445 12.924205
62.450 12.6656
62.455 13.176008
62.460 13.326372
62.465 13.479724
62.470 13.554417
62.475 14.349675
62.480 14.776812
62.485 14.441595
62.490 13.865129
62.495 13.693413
62.500 13.307606
62.505 12.805611
62.510 12.201157
62.515 11.819668
62.520 12.219362
62.525 12.377641
62.530 12.43446
62.535 12.613042
62.540 12.371164
62.545 12.09727
62.550 11.937907
62.555 12.410872
62.560 12.690962
62.565 12.736029
62.570 12.757698
62.575 13.271385
62.580 13.53953
62.585 13.63517
62.590 12.821608
62.595 12.404296
62.600 12.520608
62.605 12.65594
62.610 12.361727
62.615 12.343821
62.620 12.648091
62.625 12.849445
62.630 12.793962
62.635 12.642687
62.640 12.502087
62.645 13.140783
62.650 13.76762
62.655 13.849174
62.660 14.216856
62.665 14.350557
62.670 14.363332
62.675 14.170388
62.680 14.071372
62.685 13.968333
62.690 13.820506
62.695 13.794947
62.700 14.251098
62.705 14.662469
62.710 15.486165
62.715 15.478782
62.720 15.103765
62.725 15.10955
62.730 14.857547
62.735 14.653149
62.740 14.32443
62.745 13.878289
62.750 13.940876
62.755 14.294513
62.760 14.182285
62.765 14.567706
62.770 14.303782
62.775 14.30063
62.780 13.814917
62.785 13.36794
62.790 13.121157
62.795 13.072515
62.800 12.740252
62.805 13.131086
62.810 13.190674
62.815 13.363581
62.820 13.698707
62.825 13.720059
62.830 13.467758
62.835 13.188235
62.840 13.021329
62.845 13.089675
62.850 12.928858
62.855 12.497232
62.860 12.406766
62.865 12.778581
62.870 12.985967
62.875 13.233222
62.880 13.471032
62.885 13.929852
62.890 14.36048
62.895 14.362249
62.900 13.97649
62.905 14.142711
62.910 14.029136
62.915 13.560332
62.920 12.905463
62.925 12.907928
62.930 12.6712
62.935 12.539796
62.940 12.500657
62.945 12.05271
62.950 12.069017
62.955 11.922553
62.960 11.889715
62.965 12.748189
62.970 13.595078
62.975 13.685937
62.980 14.546639
62.985 15.417726
62.990 15.832333
62.995 15.616947
63.000 14.913025
63.005 14.219263
63.010 13.958718
63.015 13.581815
63.020 12.935782
63.025 12.830834
63.030 12.903647
63.035 13.377779
63.040 13.808672
63.045 14.431533
63.050 14.572533
63.055 15.114357
63.060 15.48486
63.065 15.676867
63.070 15.868802
63.075 16.067545
63.080 15.641434
63.085 15.384081
63.090 15.179213
63.095 14.8811
63.100 14.20127
63.105 13.272429
63.110 12.837093
63.115 12.64508
63.120 12.519747
63.125 12.069505
63.130 12.193862
63.135 13.033609
63.140 13.286621
63.145 13.62694
63.150 13.907539
63.155 14.199386
63.160 14.174588
63.165 14.253767
63.170 14.117747
63.175 14.668835
63.180 14.17265
63.185 14.194351
63.190 13.896963
63.195 13.600604
63.200 13.150709
63.205 12.528925
63.210 11.924748
63.215 12.144667
63.220 11.985437
63.225 12.455343
63.230 13.053722
63.235 13.446999
63.240 14.144067
63.245 13.854128
63.250 13.570535
63.255 13.637233
63.260 13.582643
63.265 13.726048
63.270 13.539322
63.275 13.355747
63.280 13.868989
63.285 14.273373
63.290 14.305175
63.295 13.700306
63.300 13.484541
63.305 13.449501
63.310 13.545062
63.315 13.764798
63.320 14.090549
63.325 13.803925
63.330 14.052912
63.335 13.68516
63.340 13.698633
63.345 13.489066
63.350 13.662377
63.355 12.958938
63.360 12.931707
63.365 12.997463
63.370 13.393305
63.375 13.469874
63.380 13.151773
63.385 12.557933
63.390 12.736873
63.395 12.981156
63.400 12.918219
63.405 12.837963
63.410 12.591681
63.415 12.892942
63.420 13.365088
63.425 13.251094
63.430 13.295877
63.435 13.442154
63.440 13.095146
63.445 13.393793
63.450 13.360935
63.455 12.9449
63.460 13.075885
63.465 13.020592
63.470 13.662616
63.475 14.256896
63.480 13.992921
63.485 14.077709
63.490 14.224344
63.495 14.12192
63.500 14.222911
63.505 13.627594
63.510 13.169068
63.515 13.343525
63.520 12.73299
63.525 12.559665
63.530 12.635917
63.535 12.839252
63.540 13.332409
63.545 13.579999
63.550 13.881039
63.555 14.497376
63.560 14.440581
63.565 14.128588
63.570 13.608537
63.575 13.475273
63.580 13.203415
63.585 12.706125
63.590 12.658861
63.595 13.694556
63.600 13.985129
63.605 13.930208
63.610 13.78274
63.615 14.224846
63.620 14.668603
63.625 14.424651
63.630 13.575835
63.635 13.63979
63.640 13.89289
63.645 14.347755
63.650 14.067878
63.655 14.030149
63.660 14.082275
63.665 14.254095
63.670 14.549548
63.675 13.929737
63.680 13.4503
63.685 13.341096
63.690 13.013099
63.695 13.032585
63.700 12.885633
63.705 12.872664
63.710 13.629761
63.715 13.547012
63.720 13.561267
63.725 14.138727
63.730 14.174435
63.735 14.505387
63.740 14.314766
63.745 13.882875
63.750 13.791253
63.755 13.53372
63.760 13.173537
63.765 12.850975
63.770 12.9657
63.775 13.155581
63.780 13.417883
63.785 13.581202
63.790 13.904222
63.795 14.288054
63.800 14.531701
63.805 14.423501
63.810 14.513649
63.815 14.641401
63.820 14.78715
63.825 14.639956
63.830 14.147871
63.835 14.537255
63.840 14.751595
63.845 14.56185
63.850 14.651724
63.855 15.138274
63.860 15.07849
63.865 15.791565
63.870 15.46911
63.875 15.230619
63.880 15.188304
63.885 15.417703
63.890 15.477239
63.895 15.717275
63.900 15.743564
63.905 16.038992
63.910 16.110312
63.915 16.247686
63.920 15.798955
63.925 15.664904
63.930 16.152727
63.935 16.215424
63.940 16.463816
63.945 17.041166
63.950 17.201292
63.955 17.485775
63.960 17.494986
63.965 17.437283
63.970 17.399632
63.975 17.346882
63.980 17.087925
63.985 17.197412
63.990 17.401396
63.995 17.834864
64.000 18.219625
64.005 18.864975
64.010 19.796476
64.015 20.91493
64.020 21.398796
64.025 21.984089
64.030 22.029118
64.035 22.022728
64.040 21.739191
64.045 21.780916
64.050 21.814129
64.055 22.143606
64.060 22.207357
64.065 22.722069
64.070 22.795509
64.075 23.24172
64.080 23.339943
64.085 23.356518
64.090 23.599298
64.095 23.546738
64.100 23.251719
64.105 23.375322
64.110 22.524483
64.115 22.441257
64.120 22.878014
64.125 23.053011
64.130 23.122509
64.135 23.409161
64.140 24.062487
64.145 24.565578
64.150 24.295277
64.155 24.011036
64.160 24.293011
64.165 24.682253
64.170 24.540836
64.175 24.098974
64.180 24.451799
64.185 24.878811
64.190 24.893211
64.195 24.768656
64.200 24.237022
64.205 24.390572
64.210 24.306492
64.215 24.372272
64.220 24.631065
64.225 24.244329
64.230 23.931381
64.235 24.359018
64.240 24.939753
64.245 25.953386
64.250 25.449066
64.255 25.782562
64.260 26.081802
64.265 26.814734
64.270 26.803698
64.275 25.869978
64.280 24.802862
64.285 24.932035
64.290 24.422697
64.295 24.072584
64.300 23.456791
64.305 23.760996
64.310 23.874544
64.315 23.899124
64.320 23.820105
64.325 24.027464
64.330 24.45521
64.335 23.91946
64.340 23.090681
64.345 23.119991
64.350 23.491331
64.355 23.502897
64.360 23.22657
64.365 23.201178
64.370 24.3253
64.375 24.202234
64.380 23.695606
64.385 23.45322
64.390 23.033175
64.395 22.464533
64.400 21.976112
64.405 21.662651
64.410 22.401278
64.415 22.587914
64.420 22.791309
64.425 23.24124
64.430 23.051004
64.435 22.944317
64.440 22.024591
64.445 22.134777
64.450 22.325369
64.455 22.348211
64.460 21.824936
64.465 22.499765
64.470 22.536371
64.475 22.557997
64.480 22.421621
64.485 21.964426
64.490 21.257277
64.495 20.891495
64.500 20.391033
64.505 20.132719
64.510 20.449129
64.515 20.186218
64.520 20.274384
64.525 20.473637
64.530 20.426638
64.535 20.177872
64.540 20.063948
64.545 19.712395
64.550 19.001913
64.555 18.898201
64.560 18.812336
64.565 18.843884
64.570 18.716469
64.575 17.961699
64.580 17.688816
64.585 17.876062
64.590 17.489475
64.595 17.202429
64.600 16.895681
64.605 16.715805
64.610 17.318195
64.615 17.51181
64.620 17.090782
64.625 17.201427
64.630 17.863527
64.635 17.937103
64.640 17.578041
64.645 16.770418
64.650 16.289356
64.655 16.310602
64.660 16.345503
64.665 15.723759
64.670 15.33024
64.675 15.102837
64.680 15.513664
64.685 15.396554
64.690 15.553656
64.695 15.574062
64.700 15.691471
64.705 15.937922
64.710 16.822968
64.715 17.003813
64.720 17.401133
64.725 17.412624
64.730 17.510841
64.735 17.656139
64.740 17.873781
64.745 17.49169
64.750 17.360764
64.755 17.573673
64.760 18.284304
64.765 18.883757
64.770 19.363157
64.775 19.725628
64.780 19.673429
64.785 20.40156
64.790 20.057669
64.795 19.107574
64.800 18.805183
64.805 18.556807
64.810 18.495966
64.815 18.533089
64.820 17.391165
64.825 17.447752
64.830 17.389957
64.835 16.855385
64.840 16.762304
64.845 16.81432
64.850 17.281179
64.855 17.834297
64.860 18.228979
64.865 18.608112
64.870 18.715052
64.875 18.522343
64.880 18.187891
64.885 17.617533
64.890 17.49753
64.895 17.473862
64.900 17.397585
64.905 17.530989
64.910 17.701548
64.915 17.561649
64.920 17.850655
64.925 18.07531
64.930 17.667042
64.935 17.631184
64.940 17.656279
64.945 17.721704
64.950 18.124016
64.955 17.738686
64.960 17.523226
64.965 17.856359
64.970 17.676039
64.975 17.649929
64.980 17.510666
64.985 17.727713
64.990 18.728685
64.995 18.637043
65.000 18.705288
65.005 19.186245
65.010 19.572872
65.015 19.861242
65.020 20.376516
65.025 20.126232
65.030 20.480278
65.035 21.100782
65.040 21.135263
65.045 20.831276
65.050 20.282366
65.055 19.189175
65.060 19.055422
65.065 19.15539
65.070 18.740372
65.075 18.176836
65.080 18.435631
65.085 19.422564
65.090 20.445417
65.095 20.852732
65.100 20.816927
65.105 21.014326
65.110 21.14175
65.115 21.359694
65.120 21.395802
65.125 21.324945
65.130 21.059406
65.135 20.825064
65.140 20.655724
65.145 20.985525
65.150 20.783199
65.155 19.737501
65.160 19.320808
65.165 19.779642
65.170 19.877985
65.175 19.657413
65.180 19.168282
65.185 19.381557
65.190 19.559116
65.195 19.939821
65.200 19.770544
65.205 19.740099
65.210 20.071333
65.215 20.545057
65.220 20.06628
65.225 20.159283
65.230 20.087576
65.235 20.201677
65.240 20.501225
65.245 20.100594
65.250 19.85899
65.255 19.789942
65.260 20.177198
65.265 19.221016
65.270 18.253267
65.275 17.998405
65.280 18.298494
65.285 18.504574
65.290 18.562765
65.295 18.027472
65.300 19.110949
65.305 19.366787
65.310 18.37076
65.315 18.085852
65.320 17.98411
65.325 18.295565
65.330 17.905457
65.335 17.337408
65.340 17.395987
65.345 17.955021
65.350 17.593525
65.355 17.666018
65.360 17.476891
65.365 17.603271
65.370 17.708965
65.375 17.67103
65.380 17.912813
65.385 18.46204
65.390 18.509304
65.395 18.49556
65.400 18.693457
65.405 18.608158
65.410 18.606716
65.415 18.021706
65.420 17.67309
65.425 17.469786
65.430 17.902658
65.435 18.017973
65.440 17.582266
65.445 18.076595
65.450 18.346668
65.455 18.302317
65.460 17.815899
65.465 17.401026
65.470 17.628862
65.475 18.19306
65.480 18.354788
65.485 18.973133
65.490 18.946459
65.495 19.70466
65.500 20.086344
65.505 20.102688
65.510 20.837395
65.515 20.92864
65.520 21.228029
65.525 21.814507
65.530 22.046217
65.535 22.138126
65.540 22.233948
65.545 21.747074
65.550 22.289961
65.555 22.140884
65.560 22.037987
65.565 21.56707
65.570 21.733253
65.575 22.009459
65.580 21.915197
65.585 21.264744
65.590 20.775843
65.595 20.524914
65.600 21.133759
65.605 21.772976
65.610 22.584723
65.615 23.823385
65.620 24.117893
65.625 24.786022
65.630 25.148438
65.635 24.740194
65.640 24.487886
65.645 23.67522
65.650 23.190825
65.655 23.680914
65.660 23.755295
65.665 24.160301
65.670 24.435551
65.675 24.468895
65.680 25.168678
65.685 25.644724
65.690 25.733229
65.695 26.286167
65.700 26.902679
65.705 26.813671
65.710 26.761343
65.715 26.664799
65.720 26.021709
65.725 26.422203
65.730 26.47706
65.735 26.082211
65.740 26.863396
65.745 26.73048
65.750 26.403635
65.755 26.075064
65.760 24.845055
65.765 24.316431
65.770 24.485558
65.775 23.951199
65.780 24.259743
65.785 24.577383
65.790 25.391054
65.795 25.99227
65.800 26.049374
65.805 25.666225
65.810 25.774225
65.815 26.125723
65.820 26.695072
65.825 26.379471
65.830 26.298481
65.835 26.298994
65.840 26.312986
65.845 26.501505
65.850 26.573137
65.855 26.239811
65.860 26.066414
65.865 26.283459
65.870 26.294237
65.875 26.19219
65.880 25.977522
65.885 25.542173
65.890 25.568956
65.895 26.148087
65.900 26.404387
65.905 26.510761
65.910 27.072802
65.915 27.280666
65.920 27.198641
65.925 26.927992
65.930 27.119955
65.935 27.462685
65.940 27.779583
65.945 26.60812
65.950 25.827
65.955 25.549263
65.960 25.050962
65.965 24.122869
65.970 23.977295
65.975 23.53964
65.980 23.847763
65.985 24.468845
65.990 25.123543
65.995 25.817953
66.000 25.915758
66.005 24.965343
66.010 24.53093
66.015 24.59635
66.020 24.381069
66.025 24.116079
66.030 23.89463
66.035 24.194023
66.040 24.048723
66.045 23.815544
66.050 23.633615
66.055 23.772165
66.060 23.608969
66.065 23.135548
66.070 22.306442
66.075 22.192873
66.080 22.310453
66.085 21.905252
66.090 21.251644
66.095 21.078915
66.100 21.202469
66.105 21.656145
66.110 22.119621
66.115 22.098339
66.120 22.041044
66.125 22.242378
66.130 22.25923
66.135 21.940792
66.140 21.405975
66.145 20.942635
66.150 20.942413
66.155 20.994049
66.160 20.40053
66.165 19.794226
66.170 19.268047
66.175 19.075323
66.180 19.36837
66.185 19.087339
66.190 19.034063
66.195 19.201324
66.200 19.421221
66.205 19.820913
66.210 19.7703
66.215 19.478249
66.220 19.225145
66.225 18.587328
66.230 18.457609
66.235 18.832594
66.240 18.411066
66.245 17.831217
66.250 17.602196
66.255 17.69039
66.260 17.593681
66.265 17.121183
66.270 15.686427
66.275 15.475633
66.280 15.851194
66.285 15.998467
66.290 16.035692
66.295 16.655579
66.300 16.910255
66.305 17.324814
66.310 16.828714
66.315 16.289478
66.320 16.090889
66.325 15.529247
66.330 15.092795
66.335 15.017142
66.340 15.358862
66.345 15.288846
66.350 15.538826
66.355 15.749128
66.360 16.163174
66.365 16.174824
66.370 16.640533
66.375 16.740425
66.380 17.109661
66.385 16.779171
66.390 16.323605
66.395 16.148344
66.400 16.309299
66.405 15.711315
66.410 15.369864
66.415 15.660559
66.420 15.607429
66.425 15.673433
66.430 15.402025
66.435 14.803345
66.440 14.229184
66.445 14.36368
66.450 14.197156
66.455 14.166015
66.460 13.38214
66.465 13.106609
66.470 13.564673
66.475 14.085443
66.480 13.606344
66.485 13.739953
66.490 13.604476
66.495 13.774738
66.500 13.984687
66.505 13.422552
66.510 13.488761
66.515 13.478993
66.520 13.581038
66.525 13.967074
66.530 14.348765
66.535 14.216708
66.540 14.240932
66.545 13.86105
66.550 13.590728
66.555 13.446571
66.560 13.090578
66.565 13.193091
66.570 13.840586
66.575 13.843904
66.580 13.899326
66.585 14.574347
66.590 15.12785
66.595 15.685999
66.600 15.517993
66.605 14.802449
66.610 14.892212
66.615 14.716865
66.620 14.436054
66.625 14.030682
66.630 13.590281
66.635 13.351346
66.640 13.292902
66.645 13.040651
66.650 12.331856
66.655 11.726668
66.660 11.457151
66.665 11.963153
66.670 11.895556
66.675 12.398256
66.680 12.999512
66.685 13.812449
66.690 13.927311
66.695 13.82891
66.700 13.282565
66.705 13.632217
66.710 13.420765
66.715 13.282358
66.720 13.190644
66.725 13.126078
66.730 12.838158
66.735 12.825376
66.740 12.988205
66.745 13.743501
66.750 13.949759
66.755 13.733877
66.760 13.851952
66.765 14.023827
66.770 14.02462
66.775 14.010622
66.780 13.625518
66.785 13.6218
66.790 14.203033
66.795 14.398369
66.800 14.44556
66.805 14.433555
66.810 14.247749
66.815 14.079144
66.820 13.7949
66.825 13.275656
66.830 13.294911
66.835 13.523815
66.840 13.23358
66.845 13.140789
66.850 13.214645
66.855 13.116488
66.860 13.404857
66.865 13.3088
66.870 13.410909
66.875 13.968059
66.880 13.744906
66.885 13.648351
66.890 13.58088
66.895 13.471856
66.900 13.678168
66.905 13.956882
66.910 13.98785
66.915 13.97654
66.920 14.182824
66.925 14.451926
66.930 15.041773
66.935 15.053299
66.940 15.127291
66.945 15.000843
66.950 15.243657
66.955 15.094875
66.960 15.07695
66.965 15.033987
66.970 15.125755
66.975 14.558331
66.980 14.430831
66.985 14.567109
66.990 14.576806
66.995 14.280532
67.000 13.75703
67.005 13.729166
67.010 14.511269
67.015 14.485229
67.020 14.141921
67.025 13.785651
67.030 13.796687
67.035 13.790931
67.040 13.438404
67.045 13.448512
67.050 13.794212
67.055 13.708197
67.060 13.916762
67.065 13.705715
67.070 13.694825
67.075 13.880898
67.080 13.66472
67.085 13.276242
67.090 13.216306
67.095 13.736357
67.100 14.06609
67.105 13.771292
67.110 13.72643
67.115 13.486313
67.120 13.871627
67.125 14.143435
67.130 14.028298
67.135 13.99255
67.140 14.279371
67.145 14.237068
67.150 14.474326
67.155 14.246188
67.160 14.165697
67.165 14.09434
67.170 14.525826
67.175 14.671094
67.180 14.569969
67.185 14.719403
67.190 15.286592
67.195 15.225588
67.200 14.725736
67.205 14.032354
67.210 14.695738
67.215 14.929854
67.220 14.753433
67.225 13.880774
67.230 13.647637
67.235 14.230545
67.240 14.325882
67.245 13.574008
67.250 13.421205
67.255 13.520698
67.260 14.091963
67.265 14.034623
67.270 14.137012
67.275 14.005719
67.280 14.430587
67.285 14.749283
67.290 14.777092
67.295 14.841734
67.300 15.528185
67.305 15.51416
67.310 15.33035
67.315 14.591841
67.320 14.116562
67.325 13.927054
67.330 13.60275
67.335 13.158782
67.340 13.265465
67.345 13.777817
67.350 13.910156
67.355 14.380721
67.360 14.75958
67.365 14.987084
67.370 14.711872
67.375 14.622393
67.380 14.747056
67.385 14.942443
67.390 14.747369
67.395 14.575302
67.400 14.579516
67.405 14.546574
67.410 14.461126
67.415 13.788973
67.420 13.146794
67.425 13.085857
67.430 13.234462
67.435 13.431484
67.440 13.591577
67.445 14.178575
67.450 14.74362
67.455 15.359473
67.460 15.126381
67.465 14.790652
67.470 15.068644
67.475 14.837789
67.480 14.522122
67.485 14.369358
67.490 14.303577
67.495 14.344601
67.500 14.341472
67.505 13.884112
67.510 13.95552
67.515 13.520235
67.520 13.478579
67.525 13.701456
67.530 13.757763
67.535 14.038702
67.540 14.096462
67.545 14.093051
67.550 14.511448
67.555 14.80885
67.560 14.887176
67.565 15.50069
67.570 15.130018
67.575 15.318565
67.580 15.526763
67.585 15.634151
67.590 15.058681
67.595 14.875603
67.600 14.796985
67.605 14.735383
67.610 14.643101
67.615 14.141373
67.620 13.777953
67.625 14.155576
67.630 14.264515
67.635 14.067899
67.640 14.119518
67.645 14.260895
67.650 14.898526
67.655 14.757708
67.660 14.28526
67.665 14.015248
67.670 13.566194
67.675 13.621585
67.680 13.540561
67.685 13.628776
67.690 14.21739
67.695 14.163411
67.700 14.312859
67.705 14.470552
67.710 15.029525
67.715 15.51912
67.720 15.376868
67.725 15.024188
67.730 15.301179
67.735 14.842306
67.740 14.894567
67.745 14.341404
67.750 13.908936
67.755 13.578203
67.760 13.289595
67.765 13.291953
67.770 13.222358
67.775 13.197233
67.780 13.365801
67.785 13.789546
67.790 14.46874
67.795 14.292108
67.800 14.530522
67.805 15.203233
67.810 15.720069
67.815 15.963029
67.820 15.725094
67.825 15.886435
67.830 16.559818
67.835 16.242426
67.840 15.80751
67.845 15.235212
67.850 14.714005
67.855 14.882742
67.860 15.024992
67.865 15.152668
67.870 15.245088
67.875 15.426794
67.880 15.857346
67.885 16.052774
67.890 15.526378
67.895 14.441207
67.900 13.800688
67.905 14.23445
67.910 14.422489
67.915 14.487525
67.920 14.25221
67.925 14.420033
67.930 14.941133
67.935 15.273828
67.940 14.657155
67.945 14.203431
67.950 13.756629
67.955 13.61197
67.960 13.12689
67.965 12.635873
67.970 12.525048
67.975 13.02739
67.980 13.236121
67.985 13.299747
67.990 13.250599
67.995 13.463465
68.000 13.851808
68.005 13.729431
68.010 13.066281
68.015 13.116014
68.020 13.199875
68.025 13.646391
68.030 14.624051
68.035 15.059843
68.040 15.32661
68.045 15.939067
68.050 15.528986
68.055 15.243093
68.060 15.053815
68.065 14.42863
68.070 14.076086
68.075 13.649595
68.080 13.986833
68.085 14.45998
68.090 14.693249
68.095 14.499209
68.100 14.417302
68.105 14.63557
68.110 15.064063
68.115 14.557642
68.120 14.715166
68.125 14.755122
68.130 14.871783
68.135 15.228806
68.140 15.227988
68.145 14.995543
68.150 14.985779
68.155 14.976897
68.160 15.104999
68.165 15.048506
68.170 14.641495
68.175 14.411796
68.180 14.604717
68.185 14.437655
68.190 14.292573
68.195 14.172894
68.200 14.417057
68.205 14.354945
68.210 13.836521
68.215 13.608318
68.220 14.218474
68.225 14.279613
68.230 14.026608
68.235 14.070482
68.240 14.292247
68.245 14.572213
68.250 14.798554
68.255 14.613426
68.260 14.309269
68.265 14.691409
68.270 14.456764
68.275 14.682177
68.280 13.963229
68.285 13.132834
68.290 13.383764
68.295 13.438228
68.300 13.04709
68.305 13.314144
68.310 13.181579
68.315 13.821487
68.320 14.533883
68.325 14.402058
68.330 14.937715
68.335 15.339299
68.340 15.06024
68.345 15.325797
68.350 15.018933
68.355 14.886798
68.360 14.575781
68.365 14.023165
68.370 14.112154
68.375 14.222224
68.380 14.255562
68.385 15.10826
68.390 14.934864
68.395 14.896983
68.400 14.938728
68.405 14.332188
68.410 14.433225
68.415 14.331611
68.420 14.323137
68.425 14.528595
68.430 14.866002
68.435 15.147676
68.440 15.424775
68.445 15.315372
68.450 15.831112
68.455 15.43873
68.460 15.35328
68.465 15.719086
68.470 15.578768
68.475 15.835885
68.480 15.908089
68.485 15.363695
68.490 15.709819
68.495 15.708854
68.500 15.233515
68.505 15.344838
68.510 15.261523
68.515 15.261922
68.520 14.688463
68.525 14.22016
68.530 14.655886
68.535 14.295129
68.540 14.102737
68.545 14.675921
68.550 14.86649
68.555 15.238051
68.560 15.093684
68.565 14.89736
68.570 15.883103
68.575 15.917448
68.580 15.621475
68.585 15.963678
68.590 15.674084
68.595 15.974468
68.600 15.529993
68.605 15.54916
68.610 16.108305
68.615 15.901175
68.620 16.151541
68.625 16.881863
68.630 17.097485
68.635 17.688498
68.640 17.572401
68.645 17.620018
68.650 17.903748
68.655 17.437181
68.660 17.535387
68.665 17.324753
68.670 17.484331
68.675 17.507448
68.680 17.423832
68.685 17.820908
68.690 18.083893
68.695 18.096949
68.700 18.045155
68.705 17.698318
68.710 17.878738
68.715 18.156721
68.720 18.138819
68.725 18.566322
68.730 19.072163
68.735 19.31698
68.740 19.608459
68.745 19.323946
68.750 18.900436
68.755 19.2089
68.760 19.496395
68.765 19.842388
68.770 20.320992
68.775 20.051493
68.780 20.044964
68.785 20.318941
68.790 19.815886
68.795 19.542355
68.800 19.346111
68.805 19.135366
68.810 19.339808
68.815 19.644985
68.820 19.624035
68.825 19.890518
68.830 20.254673
68.835 20.707821
68.840 21.119823
68.845 21.027287
68.850 21.213215
68.855 21.380089
68.860 21.194777
68.865 20.908773
68.870 21.129913
68.875 21.031271
68.880 21.11554
68.885 20.796244
68.890 21.129614
68.895 21.642151
68.900 22.235607
68.905 21.973335
68.910 22.496992
68.915 23.488956
68.920 24.355196
68.925 24.984352
68.930 24.905632
68.935 24.836555
68.940 25.498184
68.945 25.348557
68.950 24.957638
68.955 24.657902
68.960 24.287277
68.965 23.780575
68.970 23.231678
68.975 23.014393
68.980 23.07333
68.985 23.22365
68.990 23.02075
68.995 22.978397
69.000 23.771259
69.005 23.941963
69.010 23.462936
69.015 23.331511
69.020 22.980167
69.025 23.282452
69.030 23.373184
69.035 23.118242
69.040 23.716314
69.045 24.627113
69.050 24.641869
69.055 24.512556
69.060 24.320396
69.065 24.056829
69.070 24.065996
69.075 23.732504
69.080 23.926956
69.085 23.898445
69.090 24.324982
69.095 24.776642
69.100 25.287779
69.105 25.934772
69.110 25.897652
69.115 25.641409
69.120 26.336161
69.125 26.583538
69.130 26.136877
69.135 26.333981
69.140 26.058249
69.145 25.722853
69.150 25.410433
69.155 24.947384
69.160 24.426672
69.165 24.255533
69.170 23.907526
69.175 24.619476
69.180 25.944923
69.185 26.172615
69.190 25.980745
69.195 25.899632
69.200 26.4734
69.205 26.405783
69.210 25.378407
69.215 24.394583
69.220 24.254816
69.225 24.361895
69.230 24.163778
69.235 23.618242
69.240 23.268785
69.245 22.798719
69.250 22.962122
69.255 22.692993
69.260 22.559929
69.265 22.983358
69.270 23.249729
69.275 23.483112
69.280 23.175941
69.285 22.47809
69.290 22.640182
69.295 22.964575
69.300 22.604231
69.305 21.963608
69.310 21.942924
69.315 21.821064
69.320 22.25226
69.325 22.007496
69.330 21.162189
69.335 20.56391
69.340 20.917994
69.345 19.96969
69.350 20.270338
69.355 19.906631
69.360 19.703026
69.365 19.97254
69.370 20.19816
69.375 19.849344
69.380 20.10994
69.385 19.448502
69.390 19.502939
69.395 19.813801
69.400 20.366964
69.405 20.241882
69.410 19.979244
69.415 19.75346
69.420 19.756767
69.425 19.301439
69.430 19.228109
69.435 18.478527
69.440 18.407024
69.445 18.637049
69.450 17.915234
69.455 17.354551
69.460 17.409496
69.465 17.163713
69.470 16.823952
69.475 16.906584
69.480 16.904999
69.485 17.245604
69.490 17.526802
69.495 17.328232
69.500 16.904718
69.505 16.644604
69.510 16.292288
69.515 16.026627
69.520 16.051584
69.525 15.801434
69.530 15.647148
69.535 15.776659
69.540 15.716028
69.545 15.358945
69.550 14.766141
69.555 14.00916
69.560 14.020113
69.565 13.582754
69.570 13.951037
69.575 14.250424
69.580 14.585788
69.585 15.361142
69.590 15.877701
69.595 16.239038
69.600 16.379351
69.605 15.709743
69.610 15.302456
69.615 15.356132
69.620 15.335516
69.625 15.209169
69.630 14.806046
69.635 14.683813
69.640 15.137377
69.645 15.159173
69.650 15.241856
69.655 15.882678
69.660 16.582531
69.665 16.976637
69.670 17.290556
69.675 17.279562
69.680 17.76873
69.685 17.56134
69.690 16.927509
69.695 16.367004
69.700 16.248301
69.705 15.902155
69.710 15.928193
69.715 15.285866
69.720 15.570911
69.725 15.546541
69.730 15.111854
69.735 14.966565
69.740 15.305474
69.745 15.520061
69.750 15.318986
69.755 14.719975
69.760 14.671193
69.765 14.39127
69.770 14.859708
69.775 14.656472
69.780 14.521123
69.785 14.317632
69.790 14.288708
69.795 14.221545
69.800 14.590891
69.805 14.302391
69.810 14.179238
69.815 14.470554
69.820 14.9865
69.825 14.886718
69.830 14.733096
69.835 14.617351
69.840 14.375554
69.845 14.333163
69.850 14.38003
69.855 14.153457
69.860 14.28124
69.865 14.863842
69.870 14.974689
69.875 15.296982
69.880 15.52124
69.885 15.352499
69.890 15.706174
69.895 15.991575
69.900 15.85512
69.905 15.927508
69.910 15.480405
69.915 15.437815
69.920 15.747088
69.925 15.410927
69.930 14.88954
69.935 14.489916
69.940 14.312515
69.945 14.357358
69.950 13.923232
69.955 13.599823
69.960 13.483047
69.965 13.387397
69.970 13.432822
69.975 12.994845
69.980 12.823667
69.985 12.467952
69.990 12.509925
69.995 12.827205
70.000 13.534987
70.005 13.193331
70.010 13.198318
70.015 13.508773
70.020 13.430441
70.025 13.386927
70.030 12.888144
70.035 13.146227
70.040 13.335766
70.045 13.968382
70.050 14.499935
70.055 14.634339
70.060 14.728435
70.065 14.848883
70.070 14.776403
70.075 14.856314
70.080 14.679423
70.085 14.228378
70.090 14.07393
70.095 14.122736
70.100 14.031169
70.105 14.023093
70.110 13.981042
70.115 13.902408
70.120 14.415326
70.125 14.776401
70.130 14.626145
70.135 14.437512
70.140 14.349345
70.145 14.677086
70.150 14.685926
70.155 14.801849
70.160 14.974341
70.165 15.212182
70.170 15.401257
70.175 15.376719
70.180 15.063372
70.185 15.072198
70.190 14.878392
70.195 14.738146
70.200 14.814773
70.205 14.972676
70.210 14.676476
70.215 14.666429
70.220 15.212079
70.225 15.270124
70.230 14.876529
70.235 14.662803
70.240 14.816291
70.245 15.284423
70.250 15.325794
70.255 15.05687
70.260 15.206044
70.265 15.533174
70.270 15.603514
70.275 15.266147
70.280 15.379356
70.285 14.865074
70.290 14.491431
70.295 14.512876
70.300 14.885191
70.305 15.028479
70.310 15.07499
70.315 14.326409
70.320 14.610723
70.325 14.89969
70.330 14.872137
70.335 14.4703
70.340 14.719193
70.345 14.859421
70.350 15.485844
70.355 15.426538
70.360 15.007948
70.365 15.16444
70.370 14.726575
70.375 14.646697
70.380 14.246771
70.385 14.015391
70.390 13.709666
70.395 14.213812
70.400 14.017098
70.405 14.105729
70.410 13.778738
70.415 13.749354
70.420 13.693054
70.425 13.855846
70.430 13.481953
70.435 13.401011
70.440 13.640923
70.445 14.172893
70.450 14.11019
70.455 13.943872
70.460 13.601344
70.465 13.624026
70.470 13.657698
70.475 13.428082
70.480 13.619546
70.485 13.682762
70.490 14.197553
70.495 14.494919
70.500 14.493866
70.505 14.770295
70.510 14.583032
70.515 14.428795
70.520 14.761705
70.525 14.414112
70.530 14.33772
70.535 14.623264
70.540 14.535074
70.545 14.277925
70.550 14.284619
70.555 14.514256
70.560 14.716939
70.565 14.80461
70.570 15.035761
70.575 15.213575
70.580 15.715036
70.585 15.631383
70.590 15.353703
70.595 15.212686
70.600 14.896498
70.605 14.352446
70.610 14.643929
70.615 14.362782
70.620 14.434062
70.625 14.50397
70.630 14.702625
70.635 14.811904
70.640 14.836182
70.645 14.697123
70.650 14.647477
70.655 14.63914
70.660 14.46456
70.665 14.551452
70.670 14.541186
70.675 14.548735
70.680 14.525161
70.685 14.875538
70.690 14.883776
70.695 14.868684
70.700 14.155471
70.705 13.967524
70.710 14.124801
70.715 14.104026
70.720 14.05235
70.725 14.234139
70.730 14.841451
70.735 14.960114
70.740 14.964539
70.745 14.885154
70.750 14.838862
70.755 14.519923
70.760 14.210698
70.765 14.211024
70.770 14.656219
70.775 14.788606
70.780 14.74981
70.785 14.603804
70.790 14.794006
70.795 14.53069
70.800 14.405133
70.805 14.207869
70.810 13.916965
70.815 13.384766
70.820 13.816506
70.825 13.750456
70.830 13.620802
70.835 13.75808
70.840 13.662602
70.845 13.94157
70.850 14.056094
70.855 14.258779
70.860 14.549943
70.865 14.791379
70.870 14.950447
70.875 15.025756
70.880 15.379633
70.885 15.626435
70.890 15.076893
70.895 14.774892
70.900 14.696368
70.905 14.358724
70.910 14.494866
70.915 14.216726
70.920 13.429632
70.925 13.70683
70.930 13.574508
70.935 13.334349
70.940 13.726214
70.945 13.888826
70.950 14.345089
70.955 14.599063
70.960 14.85703
70.965 14.777232
70.970 15.067249
70.975 15.35462
70.980 15.102381
70.985 15.373945
70.990 15.29141
70.995 14.783237
71.000 14.857433
71.005 14.385218
71.010 13.703266
71.015 13.594671
71.020 13.405211
71.025 12.857989
71.030 12.715158
71.035 12.676564
71.040 12.924562
71.045 12.873034
71.050 12.11791
71.055 12.434482
71.060 13.369865
71.065 13.634858
71.070 13.728372
71.075 13.50202
71.080 13.512538
71.085 14.04644
71.090 13.628537
71.095 13.87286
71.100 14.277885
71.105 14.208063
71.110 13.865384
71.115 13.8028
71.120 13.615187
71.125 13.369424
71.130 12.618159
71.135 12.182113
71.140 12.359042
71.145 12.242705
71.150 12.551669
71.155 12.760186
71.160 12.808443
71.165 13.098916
71.170 13.629189
71.175 13.763915
71.180 13.998457
71.185 14.237164
71.190 14.686793
71.195 14.441664
71.200 13.958993
71.205 13.647122
71.210 13.382709
71.215 13.674658
71.220 13.165916
71.225 12.604089
71.230 13.178256
71.235 13.892478
71.240 14.03538
71.245 14.014427
71.250 14.174063
71.255 14.54852
71.260 15.031522
71.265 14.975947
71.270 14.227604
71.275 13.983451
71.280 14.104939
71.285 13.388762
71.290 13.361358
71.295 13.305309
71.300 13.828045
71.305 14.180878
71.310 14.50337
71.315 14.699998
71.320 14.882459
71.325 14.566137
71.330 13.943395
71.335 13.57187
71.340 13.812194
71.345 14.285253
71.350 14.536508
71.355 14.640346
71.360 14.407077
71.365 14.44516
71.370 13.990698
71.375 13.534525
71.380 12.866847
71.385 13.031526
71.390 13.124804
71.395 13.670946
71.400 13.819559
71.405 14.214156
71.410 14.750347
71.415 14.941668
71.420 14.957281
71.425 14.641151
71.430 14.228894
71.435 14.823977
71.440 14.56544
71.445 14.232605
71.450 13.979179
71.455 14.011739
71.460 14.687482
71.465 14.602421
71.470 13.894554
71.475 13.496127
71.480 13.299763
71.485 13.440189
71.490 13.302545
71.495 13.35188
71.500 13.550931
71.505 13.557819
71.510 13.390399
71.515 13.520324
71.520 13.4033
71.525 13.567239
71.530 13.516768
71.535 14.219251
71.540 14.561207
71.545 15.066061
71.550 15.03507
71.555 15.013151
71.560 14.767148
71.565 14.267762
71.570 13.599422
71.575 13.651159
71.580 13.602836
71.585 13.540992
71.590 13.509886
71.595 13.897116
71.600 14.050898
71.605 14.38576
71.610 14.735882
71.615 14.530277
71.620 14.651811
71.625 14.346524
71.630 13.914509
71.635 13.693147
71.640 13.954536
71.645 13.985027
71.650 14.01053
71.655 13.803658
71.660 13.908974
71.665 13.71482
71.670 13.966976
71.675 13.835836
71.680 13.631966
71.685 14.120377
71.690 14.681729
71.695 14.982594
71.700 15.451652
71.705 15.855497
71.710 15.621508
71.715 15.929401
71.720 15.901954
71.725 15.925842
71.730 16.038712
71.735 15.913327
71.740 14.885977
71.745 14.579175
71.750 14.25139
71.755 13.727004
71.760 13.730163
71.765 13.696144
71.770 13.814485
71.775 14.230135
71.780 14.004061
71.785 13.801264
71.790 13.481621
71.795 13.188715
71.800 13.257935
71.805 13.540668
71.810 13.562493
71.815 14.31179
71.820 14.924547
71.825 15.10943
71.830 14.878825
71.835 14.284966
71.840 13.862548
71.845 14.045385
71.850 14.3476
71.855 14.634075
71.860 14.968136
71.865 15.283959
71.870 15.637942
71.875 15.90239
71.880 15.495424
71.885 14.658124
71.890 13.919337
71.895 13.541778
71.900 13.118075
71.905 13.00023
71.910 13.495958
71.915 13.089765
71.920 13.540689
71.925 13.411707
71.930 12.975444
71.935 12.804584
71.940 12.85789
71.945 12.842357
71.950 13.330172
71.955 13.732291
71.960 14.195632
71.965 14.910545
71.970 15.172604
71.975 14.931198
71.980 14.643032
71.985 14.389277
71.990 14.02541
71.995 13.992488
72.000 13.739506
72.005 13.699064
72.010 13.957124
72.015 13.596334
72.020 13.644984
72.025 13.796449
72.030 13.950306
72.035 14.151523
72.040 13.950359
72.045 13.971922
72.050 14.388822
72.055 13.845168
72.060 13.02169
72.065 12.801942
72.070 13.210784
72.075 13.201301
72.080 12.794561
72.085 12.947896
72.090 13.657273
72.095 14.227877
72.100 14.301868
72.105 14.555427
72.110 14.749804
72.115 14.248873
72.120 14.381162
72.125 14.015261
72.130 13.591577
72.135 13.328657
72.140 13.248075
72.145 13.118422
72.150 13.007932
72.155 12.887586
72.160 13.23722
72.165 13.833209
72.170 13.946742
72.175 13.799147
72.180 14.366965
72.185 14.55143
72.190 14.504291
72.195 14.062531
72.200 13.780014
72.205 13.902781
72.210 14.002275
72.215 13.979811
72.220 14.619681
72.225 14.968091
72.230 15.211884
72.235 15.215842
72.240 15.35025
72.245 15.375364
72.250 14.956268
72.255 13.872411
72.260 13.706427
72.265 14.214563
72.270 13.968793
72.275 13.536803
72.280 13.678556
72.285 14.179738
72.290 14.134676
72.295 13.844094
72.300 13.595546
72.305 13.647209
72.310 14.160562
72.315 14.451208
72.320 14.971258
72.325 15.54285
72.330 15.845248
72.335 15.780362
72.340 16.033266
72.345 15.333136
72.350 14.621268
72.355 14.463091
72.360 14.205443
72.365 13.865596
72.370 13.745839
72.375 13.728699
72.380 13.876201
72.385 14.327328
72.390 14.235163
72.395 14.264575
72.400 14.707495
72.405 14.312108
72.410 14.543599
72.415 14.280277
72.420 14.456262
72.425 14.424561
72.430 14.17484
72.435 14.243353
72.440 14.224527
72.445 13.902051
72.450 14.142182
72.455 13.920825
72.460 13.680207
72.465 13.393908
72.470 12.964497
72.475 12.753194
72.480 12.986294
72.485 12.687176
72.490 12.798259
72.495 13.349947
72.500 14.037486
72.505 14.641441
72.510 14.708563
72.515 14.837925
72.520 15.267695
72.525 15.448547
72.530 15.41036
72.535 15.524461
72.540 15.520508
72.545 15.471891
72.550 14.994845
72.555 15.10611
72.560 14.959836
72.565 14.550963
72.570 14.067065
72.575 13.87965
72.580 14.007982
72.585 14.192001
72.590 13.38393
72.595 12.401739
72.600 12.838719
72.605 12.685762
72.610 12.633667
72.615 12.401743
72.620 12.326852
72.625 13.042688
72.630 13.31663
72.635 12.863135
72.640 13.350127
72.645 13.663987
72.650 13.668785
72.655 13.450495
72.660 13.544309
72.665 13.961534
72.670 14.101416
72.675 13.802508
72.680 13.347561
72.685 13.187386
72.690 13.215572
72.695 13.377888
72.700 13.373532
72.705 13.198069
72.710 12.997197
72.715 13.307209
72.720 13.368232
72.725 13.860048
72.730 13.786804
72.735 13.733599
72.740 13.726014
72.745 13.85328
72.750 13.630426
72.755 13.585014
72.760 12.85014
72.765 12.426809
72.770 12.486336
72.775 12.871351
72.780 13.271418
72.785 13.481391
72.790 13.118994
72.795 13.243204
72.800 13.682325
72.805 13.868301
72.810 13.670295
72.815 13.22188
72.820 13.718296
72.825 14.003896
72.830 14.130903
72.835 14.043741
72.840 14.264782
72.845 14.184797
72.850 14.132963
72.855 14.099161
72.860 14.383912
72.865 14.331811
72.870 14.38885
72.875 14.149763
72.880 14.009477
72.885 13.594224
72.890 12.986148
72.895 12.757686
72.900 12.550479
72.905 12.340119
72.910 12.399302
72.915 12.872822
72.920 13.451778
72.925 13.540949
72.930 13.106152
72.935 12.556787
72.940 12.581164
72.945 12.494814
72.950 12.295463
72.955 12.131824
72.960 12.435452
72.965 12.943418
72.970 13.301499
72.975 13.331145
72.980 13.642334
72.985 13.318549
72.990 13.158992
72.995 12.718447
73.000 12.622715
