!@!!GADDS PLOTSO FILE: Chi integration type
!@!!Title/SampleName: map-e9
!@!!Comment: ?
!@!!User: Bruker Instrument Administrator
!@!!Site: University of Illinois Chicago
!@!!Frame: map-e9_01_000.gfrm
!@!!Wavelengths    1.54184   1.54056   1.54439
!@!!Frame angles: 2Theta: 63.000 Omega: 50.000 Phi: 0.000 Chi: 90.000
!@!!Integration range: 2Theta: 53.000 to 73.000  Gamma: -105.000 to -75.000
!@!!Integration method: bin normalized
!@!N
!@!SS
!@!M
!@!L 0.0 0.0 0.0 0.0
!@!XDegrees
!@!YCounts
53.000 6.925652
53.005 6.712904
53.010 6.06718
53.015 5.799542
53.020 5.659082
53.025 6.083946
53.030 6.379268
53.035 6.609396
53.040 6.595983
53.045 6.94037
53.050 7.064311
53.055 7.022695
53.060 6.837944
53.065 6.692851
53.070 7.029374
53.075 6.875533
53.080 6.390114
53.085 6.085
53.090 6.383112
53.095 6.76742
53.100 6.680246
53.105 6.569343
53.110 6.881846
53.115 7.461037
53.120 7.783876
53.125 6.998446
53.130 7.046305
53.135 7.152284
53.140 7.080996
53.145 7.111118
53.150 6.941814
53.155 6.915031
53.160 7.194628
53.165 6.764068
53.170 7.068367
53.175 7.141489
53.180 6.717443
53.185 6.813118
53.190 7.00238
53.195 6.828491
53.200 7.278228
53.205 6.786728
53.210 6.814703
53.215 7.088807
53.220 7.142662
53.225 7.234642
53.230 7.549109
53.235 7.340695
53.240 7.441349
53.245 7.440587
53.250 7.829321
53.255 7.937442
53.260 7.611665
53.265 7.215206
53.270 7.114471
53.275 7.092839
53.280 6.428005
53.285 5.718804
53.290 5.267189
53.295 5.341994
53.300 5.079752
53.305 5.598798
53.310 6.018436
53.315 6.321895
53.320 6.359556
53.325 6.555034
53.330 6.980725
53.335 7.120308
53.340 6.830582
53.345 6.605863
53.350 6.741739
53.355 6.844928
53.360 6.962045
53.365 6.773824
53.370 6.650815
53.375 6.892627
53.380 7.142854
53.385 7.587543
53.390 7.418555
53.395 6.98848
53.400 7.105637
53.405 7.299531
53.410 7.123183
53.415 6.921353
53.420 6.841898
53.425 7.280321
53.430 7.488126
53.435 7.1931
53.440 6.8426
53.445 6.824484
53.450 6.528274
53.455 6.775702
53.460 6.770029
53.465 6.882289
53.470 7.194497
53.475 6.873263
53.480 6.95277
53.485 6.869831
53.490 6.356945
53.495 6.241531
53.500 6.190394
53.505 6.245686
53.510 6.546464
53.515 6.882663
53.520 6.982066
53.525 6.927976
53.530 7.013248
53.535 7.101567
53.540 7.548582
53.545 7.674256
53.550 7.355799
53.555 7.4344
53.560 7.796401
53.565 8.065917
53.570 7.981493
53.575 7.561222
53.580 7.288984
53.585 7.325906
53.590 7.271208
53.595 6.974707
53.600 6.548052
53.605 6.726275
53.610 7.381055
53.615 7.676984
53.620 8.07247
53.625 7.993597
53.630 7.857841
53.635 7.892416
53.640 7.493571
53.645 7.338499
53.650 7.679261
53.655 7.610664
53.660 7.822026
53.665 7.582752
53.670 7.928177
53.675 7.890886
53.680 7.549729
53.685 7.608253
53.690 7.52733
53.695 7.24716
53.700 7.706918
53.705 7.757771
53.710 7.885289
53.715 7.924588
53.720 7.646917
53.725 7.850083
53.730 7.844116
53.735 7.618959
53.740 7.667565
53.745 7.311615
53.750 7.054241
53.755 7.24188
53.760 7.149834
53.765 7.774253
53.770 7.9863
53.775 7.77949
53.780 8.023753
53.785 8.262575
53.790 8.094361
53.795 8.033617
53.800 7.74563
53.805 7.624642
53.810 7.533742
53.815 7.494907
53.820 7.323444
53.825 7.334356
53.830 7.474388
53.835 7.24191
53.840 7.374284
53.845 7.382006
53.850 7.374151
53.855 7.239544
53.860 7.596028
53.865 7.427433
53.870 7.646514
53.875 7.562155
53.880 7.679233
53.885 7.706174
53.890 7.934431
53.895 7.740649
53.900 7.792869
53.905 7.654306
53.910 7.857923
53.915 7.866667
53.920 7.634758
53.925 7.776765
53.930 8.038573
53.935 8.108583
53.940 8.105047
53.945 8.186392
53.950 8.553177
53.955 8.711961
53.960 8.511502
53.965 8.30242
53.970 8.107408
53.975 8.169456
53.980 8.068334
53.985 7.661007
53.990 7.76339
53.995 8.125578
54.000 8.66263
54.005 8.530733
54.010 8.159896
54.015 8.065193
54.020 8.123914
54.025 8.378834
54.030 7.98736
54.035 8.015226
54.040 8.155183
54.045 8.436717
54.050 9.005752
54.055 8.847713
54.060 8.781556
54.065 8.453571
54.070 8.366076
54.075 8.616068
54.080 8.512679
54.085 8.155173
54.090 8.153091
54.095 7.890243
54.100 7.733335
54.105 7.255511
54.110 6.771031
54.115 6.324194
54.120 6.016904
54.125 6.257453
54.130 6.548981
54.135 7.212719
54.140 7.855998
54.145 7.966745
54.150 8.355789
54.155 8.563536
54.160 8.302427
54.165 8.377337
54.170 8.085046
54.175 7.888763
54.180 8.216565
54.185 8.481099
54.190 8.613181
54.195 8.941592
54.200 8.845908
54.205 8.806447
54.210 8.764232
54.215 8.838855
54.220 8.359263
54.225 7.811302
54.230 7.801191
54.235 8.004311
54.240 8.101903
54.245 8.446596
54.250 8.475044
54.255 8.95783
54.260 9.322903
54.265 8.860695
54.270 8.441705
54.275 8.250386
54.280 8.145056
54.285 8.088393
54.290 8.123957
54.295 8.018827
54.300 8.4118
54.305 8.678506
54.310 8.49745
54.315 8.613872
54.320 8.518655
54.325 8.463231
54.330 8.163775
54.335 8.097711
54.340 8.353664
54.345 8.437326
54.350 8.426483
54.355 8.286767
54.360 8.375793
54.365 8.649203
54.370 8.451749
54.375 8.456137
54.380 8.477594
54.385 8.221672
54.390 8.227217
54.395 8.540251
54.400 8.280974
54.405 8.360371
54.410 8.253778
54.415 8.034187
54.420 7.889699
54.425 7.785136
54.430 7.41116
54.435 7.498389
54.440 7.567331
54.445 7.543043
54.450 7.758284
54.455 7.872342
54.460 8.051343
54.465 7.941187
54.470 7.956069
54.475 8.125549
54.480 8.042983
54.485 8.217325
54.490 8.095936
54.495 8.207581
54.500 8.40565
54.505 8.500218
54.510 8.810196
54.515 9.066686
54.520 9.373614
54.525 9.321083
54.530 8.991974
54.535 9.09413
54.540 8.998045
54.545 8.611742
54.550 8.136648
54.555 8.197786
54.560 8.639776
54.565 8.444838
54.570 8.026761
54.575 7.783764
54.580 8.070087
54.585 8.490876
54.590 8.05584
54.595 7.828968
54.600 8.297542
54.605 8.64862
54.610 8.718934
54.615 8.630406
54.620 8.811752
54.625 8.969805
54.630 8.94296
54.635 8.556757
54.640 8.416546
54.645 8.113084
54.650 7.822078
54.655 7.361811
54.660 7.923182
54.665 8.269591
54.670 8.317935
54.675 8.638421
54.680 8.942397
54.685 8.968785
54.690 8.91387
54.695 8.432529
54.700 8.29143
54.705 8.610881
54.710 8.145378
54.715 7.946991
54.720 7.605652
54.725 7.011086
54.730 7.14586
54.735 7.396433
54.740 7.562225
54.745 7.660258
54.750 7.553784
54.755 7.785959
54.760 8.416419
54.765 8.311937
54.770 8.154532
54.775 8.435113
54.780 8.842762
54.785 9.195377
54.790 9.013421
54.795 8.598802
54.800 8.406751
54.805 8.097402
54.810 7.744924
54.815 7.257555
54.820 7.113879
54.825 7.252701
54.830 7.338734
54.835 7.428287
54.840 7.470226
54.845 7.909802
54.850 8.175801
54.855 7.976224
54.860 7.749307
54.865 7.889165
54.870 8.212822
54.875 8.186241
54.880 8.093605
54.885 8.288647
54.890 8.373496
54.895 8.706758
54.900 8.922044
54.905 8.683716
54.910 8.856351
54.915 8.96865
54.920 9.092136
54.925 9.261856
54.930 8.976469
54.935 8.916821
54.940 8.874389
54.945 8.523724
54.950 8.101333
54.955 8.025441
54.960 7.994581
54.965 8.008691
54.970 7.90777
54.975 7.715454
54.980 7.797696
54.985 8.11682
54.990 7.910822
54.995 7.667908
55.000 7.490442
55.005 7.403156
55.010 7.708278
55.015 7.645342
55.020 7.711494
55.025 7.834287
55.030 8.139039
55.035 8.298989
55.040 8.479959
55.045 8.609058
55.050 8.552089
55.055 8.693998
55.060 8.869914
55.065 8.636701
55.070 8.236368
55.075 8.16587
55.080 8.069468
55.085 8.014299
55.090 7.801569
55.095 8.206462
55.100 8.202282
55.105 8.135724
55.110 8.269822
55.115 8.090784
55.120 7.828213
55.125 7.576005
55.130 7.484179
55.135 7.978622
55.140 7.705401
55.145 7.448318
55.150 7.454675
55.155 7.792318
55.160 8.069661
55.165 8.171995
55.170 8.123797
55.175 8.15792
55.180 8.51368
55.185 8.290254
55.190 8.062633
55.195 7.533617
55.200 7.542668
55.205 7.585958
55.210 7.610797
55.215 7.592009
55.220 7.954808
55.225 8.199461
55.230 8.521456
55.235 8.170553
55.240 8.056525
55.245 8.363057
55.250 8.288933
55.255 8.720084
55.260 8.74895
55.265 8.468242
55.270 8.713213
55.275 8.699006
55.280 8.459605
55.285 8.498193
55.290 8.334328
55.295 8.200845
55.300 7.903747
55.305 8.064911
55.310 8.200775
55.315 8.352796
55.320 8.389569
55.325 8.268457
55.330 8.337708
55.335 8.456257
55.340 8.370519
55.345 8.459784
55.350 8.756076
55.355 8.678937
55.360 8.718673
55.365 8.923139
55.370 9.156746
55.375 9.108777
55.380 8.725739
55.385 8.381412
55.390 8.466918
55.395 9.012153
55.400 8.987299
55.405 9.116691
55.410 9.135172
55.415 9.17447
55.420 9.111022
55.425 9.054273
55.430 8.658561
55.435 8.373273
55.440 8.772011
55.445 9.26158
55.450 9.560657
55.455 9.354597
55.460 9.371394
55.465 9.44988
55.470 9.483412
55.475 9.216374
55.480 9.112966
55.485 9.328019
55.490 9.605812
55.495 9.596443
55.500 9.671277
55.505 9.390689
55.510 8.930005
55.515 8.86071
55.520 8.929745
55.525 9.004734
55.530 8.873603
55.535 9.534235
55.540 10.023951
55.545 10.300302
55.550 10.032495
55.555 9.429551
55.560 9.3977
55.565 9.40841
55.570 8.565526
55.575 8.844181
55.580 8.930418
55.585 9.140819
55.590 9.166224
55.595 9.106625
55.600 9.319489
55.605 9.328471
55.610 8.886094
55.615 8.360486
55.620 8.537801
55.625 8.600361
55.630 7.997375
55.635 7.824577
55.640 7.765806
55.645 7.799759
55.650 7.908614
55.655 7.786591
55.660 7.837234
55.665 8.353395
55.670 8.438218
55.675 8.182871
55.680 7.908686
55.685 7.867484
55.690 7.857426
55.695 7.781665
55.700 7.820273
55.705 7.92403
55.710 8.191339
55.715 8.503269
55.720 8.600231
55.725 9.103299
55.730 9.12206
55.735 8.88899
55.740 9.045289
55.745 9.509776
55.750 9.604368
55.755 9.64711
55.760 9.704026
55.765 10.325557
55.770 10.558464
55.775 10.452076
55.780 10.309271
55.785 9.98558
55.790 9.945022
55.795 9.821774
55.800 9.142314
55.805 9.454979
55.810 9.860626
55.815 10.038022
55.820 10.524384
55.825 10.051375
55.830 10.157434
55.835 10.466098
55.840 10.319584
55.845 9.745735
55.850 9.535395
55.855 9.628691
55.860 9.68434
55.865 9.461575
55.870 9.354927
55.875 9.353339
55.880 9.341091
55.885 9.257141
55.890 8.945503
55.895 8.519913
55.900 8.47434
55.905 8.524473
55.910 8.478019
55.915 9.023996
55.920 9.020113
55.925 9.235695
55.930 9.633315
55.935 9.473083
55.940 9.620081
55.945 10.345541
55.950 10.265413
55.955 10.215372
55.960 10.188072
55.965 10.135891
55.970 10.470135
55.975 10.387922
55.980 9.878314
55.985 9.773044
55.990 10.199873
55.995 10.424892
56.000 10.688287
56.005 10.618887
56.010 10.436707
56.015 10.122299
56.020 10.07903
56.025 9.859933
56.030 9.755492
56.035 9.491756
56.040 9.257012
56.045 9.379981
56.050 9.701054
56.055 9.785214
56.060 9.409462
56.065 9.304357
56.070 9.498957
56.075 9.552732
56.080 9.226974
56.085 8.799439
56.090 8.879404
56.095 9.302588
56.100 9.482395
56.105 9.514687
56.110 9.469824
56.115 9.900171
56.120 9.723157
56.125 9.191652
56.130 8.814529
56.135 8.637038
56.140 8.504235
56.145 8.101604
56.150 8.152262
56.155 8.881699
56.160 9.307331
56.165 9.570488
56.170 10.014109
56.175 10.320423
56.180 10.623384
56.185 10.316178
56.190 10.342014
56.195 10.558941
56.200 10.352478
56.205 10.117998
56.210 10.091686
56.215 9.938677
56.220 10.074887
56.225 9.944401
56.230 9.994657
56.235 10.166107
56.240 10.038632
56.245 10.156341
56.250 10.260776
56.255 10.513766
56.260 9.981608
56.265 10.076792
56.270 10.371756
56.275 10.255893
56.280 10.26952
56.285 10.517649
56.290 10.685448
56.295 10.893935
56.300 10.433102
56.305 10.186896
56.310 10.297692
56.315 9.94196
56.320 9.152798
56.325 8.418846
56.330 8.682684
56.335 8.413615
56.340 8.308751
56.345 8.347553
56.350 8.77035
56.355 9.319323
56.360 9.632689
56.365 9.586919
56.370 9.576632
56.375 9.622167
56.380 9.585736
56.385 9.282427
56.390 9.114808
56.395 9.104136
56.400 9.124001
56.405 9.741814
56.410 10.297275
56.415 10.11015
56.420 9.891425
56.425 9.569247
56.430 9.444463
56.435 9.459525
56.440 9.338201
56.445 8.884875
56.450 9.082075
56.455 9.1737
56.460 9.832783
56.465 9.875087
56.470 9.602771
56.475 9.476155
56.480 9.464832
56.485 9.319458
56.490 9.772549
56.495 10.102001
56.500 10.379724
56.505 10.9259
56.510 11.314942
56.515 11.653183
56.520 12.151532
56.525 11.68588
56.530 11.171535
56.535 10.680465
56.540 10.257867
56.545 9.961802
56.550 9.716784
56.555 9.7381
56.560 9.886418
56.565 10.01152
56.570 10.361526
56.575 10.254347
56.580 10.587841
56.585 10.760424
56.590 10.914128
56.595 11.225726
56.600 11.341365
56.605 11.199238
56.610 11.366157
56.615 11.245596
56.620 11.25879
56.625 10.904964
56.630 10.678947
56.635 10.36553
56.640 10.03493
56.645 9.520197
56.650 9.013609
56.655 8.913912
56.660 8.895326
56.665 8.720684
56.670 8.885439
56.675 9.137481
56.680 9.665335
56.685 9.924897
56.690 10.061791
56.695 9.822575
56.700 10.073333
56.705 10.192454
56.710 10.296021
56.715 10.116667
56.720 9.931841
56.725 9.981006
56.730 10.094724
56.735 10.120353
56.740 10.37232
56.745 10.17104
56.750 10.371785
56.755 10.445044
56.760 10.567713
56.765 10.718877
56.770 10.737085
56.775 10.54683
56.780 10.652433
56.785 10.938626
56.790 11.092091
56.795 11.389697
56.800 11.633788
56.805 11.650296
56.810 11.489867
56.815 11.19121
56.820 10.862641
56.825 10.842577
56.830 10.322452
56.835 10.285783
56.840 10.430103
56.845 10.936002
56.850 11.275761
56.855 11.492232
56.860 11.026185
56.865 10.911088
56.870 10.799072
56.875 10.627365
56.880 10.275868
56.885 9.951277
56.890 9.58525
56.895 9.817719
56.900 9.866821
56.905 9.915396
56.910 9.775702
56.915 9.630076
56.920 9.715074
56.925 9.737248
56.930 9.195734
56.935 9.033908
56.940 8.712105
56.945 8.665862
56.950 8.798889
56.955 9.042075
56.960 9.377323
56.965 9.99716
56.970 10.085019
56.975 10.354112
56.980 10.558546
56.985 10.400046
56.990 10.169794
56.995 10.274927
57.000 9.985607
57.005 10.163217
57.010 10.328563
57.015 10.78733
57.020 10.875226
57.025 11.349807
57.030 11.460834
57.035 11.677547
57.040 11.55035
57.045 11.699601
57.050 11.352213
57.055 11.393507
57.060 11.229699
57.065 10.740657
57.070 10.830123
57.075 10.785235
57.080 10.567381
57.085 10.393215
57.090 10.027945
57.095 9.802662
57.100 9.793289
57.105 9.621341
57.110 9.665681
57.115 9.237535
57.120 9.2473
57.125 9.699298
57.130 10.136786
57.135 10.736122
57.140 10.894321
57.145 10.574171
57.150 10.798155
57.155 11.066516
57.160 10.793686
57.165 10.850969
57.170 10.929558
57.175 11.102436
57.180 11.18578
57.185 10.994024
57.190 11.002954
57.195 11.135598
57.200 11.018729
57.205 10.70094
57.210 11.15427
57.215 11.415583
57.220 11.687249
57.225 11.736644
57.230 11.916688
57.235 11.922845
57.240 11.87653
57.245 11.396386
57.250 10.975554
57.255 10.61943
57.260 9.922938
57.265 9.700215
57.270 9.696379
57.275 9.311378
57.280 9.143477
57.285 9.439597
57.290 9.525575
57.295 9.498054
57.300 9.35819
57.305 9.440497
57.310 9.586229
57.315 10.149554
57.320 10.667089
57.325 10.785031
57.330 11.01648
57.335 11.197246
57.340 10.899766
57.345 10.50867
57.350 10.08342
57.355 9.262115
57.360 9.152078
57.365 9.20887
57.370 9.65729
57.375 10.347124
57.380 11.163062
57.385 11.663936
57.390 12.441668
57.395 12.922488
57.400 13.148499
57.405 13.112455
57.410 13.099166
57.415 12.90281
57.420 12.852391
57.425 12.52429
57.430 12.381573
57.435 11.950396
57.440 11.202196
57.445 10.350736
57.450 10.177383
57.455 10.107578
57.460 10.261592
57.465 10.160209
57.470 10.30722
57.475 10.50951
57.480 10.936148
57.485 10.626284
57.490 10.727758
57.495 10.703839
57.500 10.953843
57.505 10.825729
57.510 10.988246
57.515 10.970409
57.520 10.755898
57.525 10.557502
57.530 10.69728
57.535 10.453254
57.540 10.485808
57.545 10.440042
57.550 10.472416
57.555 11.565093
57.560 12.146382
57.565 12.189916
57.570 12.505621
57.575 12.344839
57.580 12.182678
57.585 12.42679
57.590 11.608098
57.595 11.2645
57.600 11.156517
57.605 11.021468
57.610 10.946582
57.615 10.840012
57.620 10.651647
57.625 10.734707
57.630 10.866793
57.635 10.804579
57.640 11.204796
57.645 11.594028
57.650 11.720664
57.655 11.89141
57.660 12.174314
57.665 11.853296
57.670 12.084619
57.675 11.589244
57.680 11.334911
57.685 11.081233
57.690 11.028881
57.695 10.926934
57.700 11.034448
57.705 10.787306
57.710 10.799213
57.715 10.845849
57.720 11.168917
57.725 11.059065
57.730 11.240417
57.735 11.44093
57.740 11.747849
57.745 11.807973
57.750 12.370137
57.755 12.49
57.760 12.243658
57.765 11.662048
57.770 11.800733
57.775 11.9231
57.780 12.059839
57.785 11.721309
57.790 11.476516
57.795 11.719759
57.800 12.278335
57.805 11.527742
57.810 11.423344
57.815 11.463984
57.820 11.553615
57.825 11.546585
57.830 11.119783
57.835 10.733628
57.840 10.732819
57.845 10.503216
57.850 9.956132
57.855 10.267359
57.860 10.641953
57.865 10.996839
57.870 10.87152
57.875 11.271878
57.880 11.625267
57.885 12.049902
57.890 11.753871
57.895 11.575245
57.900 11.691923
57.905 11.984296
57.910 12.319532
57.915 12.837383
57.920 12.822104
57.925 12.721314
57.930 12.464782
57.935 12.549966
57.940 12.589431
57.945 11.964369
57.950 11.306607
57.955 11.368993
57.960 12.047983
57.965 12.374572
57.970 12.284114
57.975 12.272847
57.980 12.211619
57.985 12.779466
57.990 12.740042
57.995 12.230927
58.000 12.173113
58.005 12.376916
58.010 12.355638
58.015 12.345159
58.020 11.69038
58.025 11.574251
58.030 11.694304
58.035 11.875527
58.040 11.476656
58.045 11.929088
58.050 12.559743
58.055 12.980382
58.060 13.129956
58.065 13.444318
58.070 13.864726
58.075 14.091981
58.080 13.788713
58.085 13.140135
58.090 12.570362
58.095 12.213986
58.100 11.644444
58.105 11.356043
58.110 11.627306
58.115 11.913431
58.120 12.274158
58.125 12.816393
58.130 13.516593
58.135 13.374704
58.140 13.962241
58.145 14.273836
58.150 13.617189
58.155 13.758115
58.160 13.239636
58.165 13.015616
58.170 13.528524
58.175 12.820677
58.180 12.785711
58.185 13.178061
58.190 12.980556
58.195 13.365327
58.200 13.397754
58.205 13.543371
58.210 14.001307
58.215 13.698302
58.220 13.660328
58.225 13.867705
58.230 13.656148
58.235 13.343926
58.240 13.005079
58.245 12.721569
58.250 12.873737
58.255 13.111412
58.260 13.09506
58.265 13.406428
58.270 13.912529
58.275 14.282398
58.280 13.88567
58.285 14.13581
58.290 14.081674
58.295 14.57906
58.300 15.03247
58.305 15.142811
58.310 15.636349
58.315 16.260117
58.320 16.233826
58.325 16.275747
58.330 16.005812
58.335 15.921538
58.340 15.845294
58.345 15.359145
58.350 15.601388
58.355 16.140594
58.360 16.223701
58.365 16.109348
58.370 16.353451
58.375 16.784269
58.380 17.194939
58.385 17.554155
58.390 18.208012
58.395 18.491512
58.400 18.781088
58.405 18.247431
58.410 17.804638
58.415 17.905228
58.420 17.558582
58.425 17.445555
58.430 18.023193
58.435 18.188772
58.440 19.250099
58.445 19.370457
58.450 19.863464
58.455 20.0693
58.460 20.073118
58.465 20.189577
58.470 21.335274
58.475 21.143394
58.480 21.960667
58.485 22.114981
58.490 22.808899
58.495 23.850302
58.500 23.95714
58.505 23.658869
58.510 24.143393
58.515 24.095392
58.520 24.498663
58.525 24.505659
58.530 24.162735
58.535 23.977644
58.540 24.131063
58.545 24.187124
58.550 23.849236
58.555 23.955843
58.560 24.23562
58.565 24.682043
58.570 25.228174
58.575 25.166235
58.580 25.864473
58.585 26.679533
58.590 26.458982
58.595 26.481911
58.600 26.562597
58.605 26.972258
58.610 27.371574
58.615 27.156773
58.620 27.611763
58.625 28.076538
58.630 28.578575
58.635 28.546318
58.640 28.137495
58.645 28.033609
58.650 27.728643
58.655 27.449854
58.660 27.074759
58.665 26.525211
58.670 26.540314
58.675 26.69603
58.680 26.04014
58.685 26.161367
58.690 25.995872
58.695 26.736313
58.700 26.954247
58.705 26.767733
58.710 26.352631
58.715 26.810616
58.720 26.249161
58.725 26.304672
58.730 25.55117
58.735 25.034224
58.740 24.835188
58.745 24.604996
58.750 24.298054
58.755 23.968004
58.760 23.570593
58.765 23.582106
58.770 23.517183
58.775 23.193617
58.780 22.366451
58.785 21.972322
58.790 22.408171
58.795 21.810406
58.800 21.522461
58.805 21.42169
58.810 21.579638
58.815 21.764015
58.820 21.746199
58.825 21.008924
58.830 20.286667
58.835 19.528778
58.840 18.256763
58.845 18.138241
58.850 17.937546
58.855 17.277685
58.860 17.011709
58.865 17.516323
58.870 17.804703
58.875 18.16221
58.880 17.825798
58.885 18.274794
58.890 18.84498
58.895 18.650934
58.900 18.449444
58.905 18.343298
58.910 17.977758
58.915 17.775425
58.920 17.259691
58.925 17.454731
58.930 17.481085
58.935 17.225992
58.940 16.885202
58.945 16.971767
58.950 16.958603
58.955 16.375643
58.960 15.834095
58.965 15.853129
58.970 15.951249
58.975 15.943675
58.980 15.807161
58.985 15.521194
58.990 15.517754
58.995 15.457021
59.000 15.071555
59.005 14.968833
59.010 14.632106
59.015 14.550091
59.020 14.744606
59.025 14.648419
59.030 14.342195
59.035 14.537298
59.040 14.714828
59.045 15.021407
59.050 15.238729
59.055 15.334597
59.060 15.298538
59.065 15.396464
59.070 15.596785
59.075 15.41523
59.080 14.996395
59.085 14.480763
59.090 14.63826
59.095 14.584999
59.100 14.224042
59.105 13.800421
59.110 13.745868
59.115 14.263736
59.120 14.346292
59.125 13.788347
59.130 14.446282
59.135 14.822598
59.140 14.732735
59.145 14.400444
59.150 14.021573
59.155 14.273888
59.160 14.186196
59.165 13.496184
59.170 12.99629
59.175 13.183187
59.180 13.61869
59.185 13.350796
59.190 13.086239
59.195 13.07215
59.200 13.177102
59.205 13.199351
59.210 13.549094
59.215 12.898183
59.220 12.721643
59.225 12.742619
59.230 13.132471
59.235 13.205721
59.240 13.235194
59.245 12.671879
59.250 12.87509
59.255 12.797255
59.260 12.362737
59.265 11.855798
59.270 11.619637
59.275 11.109207
59.280 10.803227
59.285 10.642885
59.290 10.776739
59.295 11.035309
59.300 11.071892
59.305 11.471519
59.310 11.944093
59.315 12.125147
59.320 12.381444
59.325 12.747602
59.330 12.848249
59.335 12.746047
59.340 12.994485
59.345 12.731916
59.350 12.715402
59.355 12.866885
59.360 13.044166
59.365 13.114452
59.370 12.659175
59.375 12.093829
59.380 12.412171
59.385 12.555087
59.390 12.729523
59.395 12.596113
59.400 12.970618
59.405 13.423995
59.410 13.562442
59.415 13.393889
59.420 12.985974
59.425 12.739314
59.430 12.64154
59.435 12.480818
59.440 12.647541
59.445 12.513425
59.450 12.89426
59.455 12.885833
59.460 12.932967
59.465 13.024718
59.470 13.016927
59.475 12.685573
59.480 12.635873
59.485 12.683979
59.490 12.958633
59.495 12.618742
59.500 12.737319
59.505 12.986726
59.510 13.766072
59.515 14.068749
59.520 14.340324
59.525 14.879124
59.530 15.133323
59.535 14.786538
59.540 14.644521
59.545 13.799724
59.550 13.392798
59.555 12.624702
59.560 11.905909
59.565 11.226402
59.570 11.142083
59.575 10.95301
59.580 10.869838
59.585 10.955843
59.590 11.256115
59.595 11.864095
59.600 12.488928
59.605 12.784163
59.610 12.950224
59.615 13.783044
59.620 14.124111
59.625 14.364909
59.630 13.672918
59.635 13.252482
59.640 13.287235
59.645 13.382323
59.650 13.121793
59.655 12.85301
59.660 12.511654
59.665 12.658416
59.670 12.841333
59.675 12.741215
59.680 12.519384
59.685 12.438059
59.690 12.483848
59.695 12.371217
59.700 12.970016
59.705 12.893505
59.710 12.399516
59.715 11.922407
59.720 11.492676
59.725 10.934062
59.730 10.700886
59.735 10.445819
59.740 10.878151
59.745 11.615886
59.750 12.100782
59.755 12.435676
59.760 12.942586
59.765 13.321579
59.770 13.023129
59.775 12.803696
59.780 12.742045
59.785 13.137672
59.790 13.322145
59.795 13.460021
59.800 13.052487
59.805 12.760422
59.810 12.67497
59.815 12.582574
59.820 12.255191
59.825 12.157651
59.830 12.052222
59.835 12.246617
59.840 11.76323
59.845 11.595184
59.850 11.065193
59.855 10.815757
59.860 10.849951
59.865 11.263197
59.870 11.369335
59.875 11.604044
59.880 11.630562
59.885 11.914449
59.890 12.242477
59.895 11.981786
59.900 11.268351
59.905 11.30565
59.910 11.405304
59.915 11.30864
59.920 11.275933
59.925 11.494215
59.930 11.923196
59.935 12.823003
59.940 12.942621
59.945 13.220965
59.950 13.165014
59.955 13.222233
59.960 12.969586
59.965 13.184008
59.970 13.006824
59.975 12.815198
59.980 13.065352
59.985 13.537663
59.990 13.587812
59.995 13.181395
60.000 12.654505
60.005 12.475588
60.010 12.36653
60.015 11.654341
60.020 11.062329
60.025 10.672254
60.030 10.73724
60.035 10.793994
60.040 10.561423
60.045 10.667704
60.050 11.073102
60.055 11.299715
60.060 12.054702
60.065 12.420181
60.070 12.219417
60.075 12.085169
60.080 11.952908
60.085 12.016344
60.090 12.468397
60.095 11.884442
60.100 11.692719
60.105 12.287065
60.110 12.829394
60.115 13.39427
60.120 13.535861
60.125 13.06734
60.130 13.238011
60.135 13.268166
60.140 13.056402
60.145 12.629845
60.150 11.93022
60.155 11.546561
60.160 11.461242
60.165 11.496105
60.170 11.255174
60.175 11.067079
60.180 10.979296
60.185 10.978828
60.190 10.916116
60.195 11.489017
60.200 11.36313
60.205 11.468752
60.210 11.407569
60.215 11.692371
60.220 11.758901
60.225 11.799505
60.230 11.472322
60.235 11.700465
60.240 11.648344
60.245 11.527612
60.250 11.451619
60.255 11.533181
60.260 11.417288
60.265 11.540146
60.270 11.598196
60.275 11.692393
60.280 11.956249
60.285 12.309931
60.290 12.448548
60.295 12.361463
60.300 12.01095
60.305 12.399121
60.310 12.543268
60.315 12.828325
60.320 13.092516
60.325 13.260593
60.330 13.879318
60.335 13.911976
60.340 13.470329
60.345 13.47485
60.350 13.170323
60.355 12.933525
60.360 12.946835
60.365 12.661058
60.370 12.09053
60.375 11.901347
60.380 12.295555
60.385 12.725949
60.390 12.812071
60.395 12.698915
60.400 12.420795
60.405 13.027817
60.410 13.432929
60.415 13.182653
60.420 12.828333
60.425 13.075795
60.430 13.280916
60.435 13.715747
60.440 13.569753
60.445 13.323205
60.450 13.322003
60.455 13.113538
60.460 12.748339
60.465 12.747136
60.470 12.703103
60.475 12.726056
60.480 12.281441
60.485 11.927853
60.490 12.077579
60.495 12.253582
60.500 11.868001
60.505 12.05568
60.510 12.079601
60.515 12.315561
60.520 12.444831
60.525 12.544374
60.530 12.599418
60.535 12.932389
60.540 13.177823
60.545 13.067204
60.550 12.922375
60.555 13.166817
60.560 13.093124
60.565 13.103986
60.570 12.635274
60.575 12.575377
60.580 12.704188
60.585 12.822494
60.590 12.643215
60.595 12.673165
60.600 12.598096
60.605 12.678536
60.610 12.765598
60.615 12.904884
60.620 13.329142
60.625 13.507272
60.630 13.256422
60.635 13.55937
60.640 13.600132
60.645 13.446321
60.650 13.070955
60.655 12.694401
60.660 12.664441
60.665 12.91214
60.670 12.800618
60.675 12.71708
60.680 12.286747
60.685 11.695539
60.690 11.189866
60.695 11.355607
60.700 10.686944
60.705 10.852146
60.710 10.868616
60.715 11.344894
60.720 12.262284
60.725 12.588476
60.730 12.709875
60.735 12.998786
60.740 12.99386
60.745 13.399979
60.750 13.300423
60.755 13.65768
60.760 14.037831
60.765 14.006931
60.770 14.162097
60.775 14.050117
60.780 13.962615
60.785 13.960268
60.790 13.329066
60.795 12.95595
60.800 13.086913
60.805 12.969786
60.810 12.494452
60.815 12.044685
60.820 12.393963
60.825 12.54504
60.830 12.411366
60.835 12.484925
60.840 12.770626
60.845 13.28512
60.850 13.519757
60.855 13.404587
60.860 13.922942
60.865 13.927096
60.870 13.35311
60.875 13.071884
60.880 13.079682
60.885 13.311661
60.890 12.98554
60.895 12.473705
60.900 12.683693
60.905 12.997341
60.910 12.874883
60.915 12.410848
60.920 12.251218
60.925 12.724334
60.930 12.978837
60.935 13.150502
60.940 13.021238
60.945 12.941656
60.950 13.069315
60.955 13.096734
60.960 12.855716
60.965 12.484274
60.970 12.724132
60.975 12.931645
60.980 13.431845
60.985 13.343217
60.990 13.259656
60.995 13.287403
61.000 13.409182
61.005 13.138746
61.010 13.121329
61.015 12.670668
61.020 12.733141
61.025 12.425775
61.030 12.213717
61.035 12.354339
61.040 12.043962
61.045 12.073295
61.050 12.272213
61.055 12.000668
61.060 12.260571
61.065 12.409102
61.070 12.359141
61.075 12.495926
61.080 12.437327
61.085 12.536507
61.090 12.470461
61.095 12.638058
61.100 12.597522
61.105 12.341711
61.110 12.211548
61.115 12.201037
61.120 12.346478
61.125 12.432641
61.130 11.875783
61.135 11.765716
61.140 11.906621
61.145 12.457158
61.150 12.168928
61.155 12.108319
61.160 12.634041
61.165 12.619446
61.170 12.480335
61.175 12.764798
61.180 12.789928
61.185 12.845675
61.190 12.715717
61.195 12.823162
61.200 13.635413
61.205 13.561934
61.210 13.20056
61.215 13.05689
61.220 13.134999
61.225 13.090481
61.230 12.697958
61.235 11.725295
61.240 11.902919
61.245 12.045031
61.250 12.023343
61.255 11.965967
61.260 11.79697
61.265 11.924227
61.270 12.422682
61.275 12.484602
61.280 12.328186
61.285 11.856214
61.290 11.518753
61.295 11.528445
61.300 11.835338
61.305 12.455267
61.310 12.569608
61.315 12.600894
61.320 13.058742
61.325 13.361995
61.330 13.877429
61.335 13.523822
61.340 12.741496
61.345 12.781997
61.350 12.956754
61.355 12.899578
61.360 12.755279
61.365 12.103621
61.370 11.779598
61.375 12.293634
61.380 12.150965
61.385 11.824355
61.390 11.873838
61.395 11.84863
61.400 12.37026
61.405 13.23106
61.410 13.399768
61.415 13.73255
61.420 14.417739
61.425 14.921659
61.430 15.224791
61.435 15.20067
61.440 14.480691
61.445 14.153532
61.450 14.508021
61.455 14.237875
61.460 13.973678
61.465 13.125605
61.470 13.110829
61.475 13.247656
61.480 12.913509
61.485 12.194273
61.490 11.844798
61.495 11.833181
61.500 12.352745
61.505 12.721315
61.510 13.135109
61.515 13.631742
61.520 13.30776
61.525 13.178952
61.530 12.96313
61.535 13.208464
61.540 12.906176
61.545 12.951736
61.550 12.699841
61.555 13.358918
61.560 13.568449
61.565 14.013883
61.570 13.982487
61.575 13.806274
61.580 13.842015
61.585 14.566646
61.590 14.917891
61.595 15.261358
61.600 14.763118
61.605 14.285573
61.610 14.288303
61.615 13.830517
61.620 12.829536
61.625 12.342974
61.630 11.854295
61.635 11.844587
61.640 12.210207
61.645 11.818224
61.650 11.703621
61.655 11.859762
61.660 12.025632
61.665 12.04306
61.670 12.279377
61.675 12.233695
61.680 12.944841
61.685 13.378818
61.690 13.478174
61.695 13.161761
61.700 12.984704
61.705 12.988708
61.710 12.888305
61.715 12.574841
61.720 12.133991
61.725 11.597198
61.730 11.840561
61.735 11.983046
61.740 11.773775
61.745 11.944059
61.750 11.320653
61.755 11.515098
61.760 12.215551
61.765 12.247701
61.770 12.40233
61.775 12.842778
61.780 12.756248
61.785 13.02503
61.790 13.519535
61.795 13.41792
61.800 13.565944
61.805 13.662341
61.810 13.816053
61.815 13.925489
61.820 14.072949
61.825 14.201262
61.830 14.246872
61.835 14.320436
61.840 14.107627
61.845 13.590067
61.850 13.673794
61.855 13.663067
61.860 12.890248
61.865 12.258979
61.870 11.971638
61.875 12.0887
61.880 12.089395
61.885 12.185171
61.890 12.387006
61.895 12.815815
61.900 13.157982
61.905 13.388984
61.910 13.391089
61.915 13.202394
61.920 12.9155
61.925 12.288994
61.930 12.597706
61.935 12.73814
61.940 12.835336
61.945 13.031495
61.950 13.537033
61.955 14.140999
61.960 14.23723
61.965 13.859937
61.970 13.644679
61.975 13.645245
61.980 13.385884
61.985 12.411361
61.990 11.799727
61.995 11.769497
62.000 11.624634
62.005 11.490989
62.010 11.258772
62.015 11.388722
62.020 11.839533
62.025 11.82854
62.030 11.612108
62.035 11.721894
62.040 12.222276
62.045 12.6428
62.050 13.122836
62.055 13.581989
62.060 14.270077
62.065 14.061408
62.070 13.733339
62.075 13.546426
62.080 13.210098
62.085 12.959394
62.090 13.031474
62.095 13.019021
62.100 13.915301
62.105 14.298048
62.110 14.344188
62.115 14.664132
62.120 14.46527
62.125 14.289062
62.130 14.091072
62.135 13.929086
62.140 14.090696
62.145 14.088879
62.150 13.882204
62.155 14.314944
62.160 14.848649
62.165 15.435892
62.170 16.275291
62.175 16.060934
62.180 16.222528
62.185 16.158609
62.190 15.716647
62.195 14.840006
62.200 14.510106
62.205 13.797739
62.210 13.772163
62.215 13.735281
62.220 14.064164
62.225 14.375992
62.230 14.608095
62.235 14.260633
62.240 14.765163
62.245 15.115981
62.250 14.451364
62.255 14.044211
62.260 13.927262
62.265 14.194028
62.270 14.391209
62.275 14.480776
62.280 13.84302
62.285 13.976687
62.290 13.987674
62.295 13.627961
62.300 13.501426
62.305 13.328777
62.310 13.200564
62.315 13.482063
62.320 13.240467
62.325 13.556623
62.330 13.433326
62.335 13.065339
62.340 12.894192
62.345 12.678942
62.350 12.828552
62.355 12.826969
62.360 12.583748
62.365 12.994787
62.370 13.302607
62.375 13.899604
62.380 14.024261
62.385 13.950828
62.390 13.918255
62.395 14.320821
62.400 14.481671
62.405 14.675145
62.410 14.180157
62.415 14.176735
62.420 14.589857
62.425 14.702003
62.430 13.961807
62.435 13.436728
62.440 13.254039
62.445 12.941369
62.450 12.406455
62.455 12.527448
62.460 12.678441
62.465 12.894754
62.470 13.392902
62.475 13.384219
62.480 13.692723
62.485 13.878624
62.490 13.937615
62.495 14.079378
62.500 14.342837
62.505 13.872316
62.510 13.919128
62.515 14.193711
62.520 13.931895
62.525 13.418988
62.530 12.980618
62.535 13.151678
62.540 13.462978
62.545 13.570231
62.550 13.08244
62.555 12.898892
62.560 12.693687
62.565 12.929804
62.570 12.934362
62.575 12.615936
62.580 12.359807
62.585 12.625117
62.590 12.548294
62.595 12.681568
62.600 12.518905
62.605 12.251366
62.610 12.640202
62.615 12.726046
62.620 12.560068
62.625 12.848866
62.630 12.980874
62.635 13.434291
62.640 13.868547
62.645 13.910807
62.650 13.847406
62.655 13.941119
62.660 13.91294
62.665 13.748096
62.670 13.620129
62.675 13.431765
62.680 13.378736
62.685 13.458914
62.690 13.79234
62.695 13.989683
62.700 13.966659
62.705 13.833911
62.710 14.287188
62.715 14.230259
62.720 14.806904
62.725 14.744493
62.730 15.180527
62.735 15.695228
62.740 15.294882
62.745 14.76971
62.750 14.753276
62.755 14.335731
62.760 14.148066
62.765 13.644875
62.770 13.302314
62.775 13.47191
62.780 13.303509
62.785 13.272237
62.790 13.111497
62.795 13.176888
62.800 13.230641
62.805 12.894222
62.810 13.05843
62.815 12.999263
62.820 13.026562
62.825 13.379289
62.830 13.935057
62.835 14.280585
62.840 15.021287
62.845 15.023576
62.850 15.294203
62.855 14.858172
62.860 14.680533
62.865 14.17095
62.870 13.362263
62.875 12.789804
62.880 12.383242
62.885 11.926033
62.890 12.046248
62.895 12.242702
62.900 12.548068
62.905 12.678931
62.910 12.955643
62.915 13.560324
62.920 14.304011
62.925 14.188651
62.930 13.565476
62.935 13.016911
62.940 13.381848
62.945 13.347354
62.950 13.255908
62.955 12.98259
62.960 13.051495
62.965 13.431797
62.970 13.49532
62.975 13.106749
62.980 13.185041
62.985 12.888874
62.990 12.816555
62.995 13.136334
63.000 13.312491
63.005 13.351291
63.010 13.603358
63.015 13.160306
63.020 13.142716
63.025 13.367307
63.030 13.513643
63.035 13.16192
63.040 13.447432
63.045 13.313413
63.050 13.75903
63.055 13.985291
63.060 13.540789
63.065 13.545295
63.070 13.64994
63.075 13.621495
63.080 13.92463
63.085 13.738586
63.090 13.547115
63.095 13.186414
63.100 12.621688
63.105 12.298072
63.110 11.652615
63.115 11.681417
63.120 12.307796
63.125 12.590261
63.130 13.188432
63.135 13.638273
63.140 14.322629
63.145 14.989313
63.150 14.869012
63.155 14.42095
63.160 14.623364
63.165 15.101749
63.170 15.411751
63.175 15.385498
63.180 15.557786
63.185 15.725422
63.190 15.370984
63.195 15.257344
63.200 14.83877
63.205 14.232705
63.210 14.202622
63.215 14.296127
63.220 14.306138
63.225 14.580963
63.230 14.768895
63.235 14.597415
63.240 14.760633
63.245 14.387318
63.250 13.928261
63.255 13.954963
63.260 13.579522
63.265 12.867774
63.270 12.823783
63.275 13.155351
63.280 13.96663
63.285 14.39023
63.290 14.396747
63.295 15.054116
63.300 15.802879
63.305 16.373901
63.310 16.463741
63.315 16.794088
63.320 17.122406
63.325 17.343634
63.330 17.0966
63.335 16.480822
63.340 15.986526
63.345 15.377088
63.350 15.601821
63.355 15.69089
63.360 15.059152
63.365 14.902327
63.370 15.16345
63.375 15.330533
63.380 15.784641
63.385 15.042019
63.390 14.400327
63.395 14.888563
63.400 15.297812
63.405 15.273645
63.410 15.308236
63.415 14.900432
63.420 14.78548
63.425 14.494364
63.430 13.790634
63.435 13.627522
63.440 13.577509
63.445 13.242253
63.450 13.03138
63.455 12.593271
63.460 12.97688
63.465 13.072162
63.470 12.795488
63.475 13.163065
63.480 13.442873
63.485 13.891602
63.490 14.399311
63.495 14.451029
63.500 14.983002
63.505 15.226368
63.510 15.230915
63.515 14.93866
63.520 15.217415
63.525 15.580867
63.530 16.17588
63.535 16.204613
63.540 16.10812
63.545 16.183968
63.550 16.767618
63.555 15.987304
63.560 15.213808
63.565 14.833836
63.570 14.699212
63.575 15.090197
63.580 15.066665
63.585 15.085162
63.590 15.781789
63.595 15.950729
63.600 15.429625
63.605 14.700918
63.610 13.991307
63.615 13.801724
63.620 13.150566
63.625 12.692847
63.630 12.664
63.635 13.179486
63.640 13.642764
63.645 13.65427
63.650 13.82881
63.655 14.694529
63.660 15.212851
63.665 14.968488
63.670 14.660273
63.675 15.026835
63.680 14.853038
63.685 14.4994
63.690 14.005238
63.695 13.218212
63.700 13.303269
63.705 13.215982
63.710 13.394136
63.715 14.006289
63.720 13.970243
63.725 13.940178
63.730 14.65861
63.735 15.350262
63.740 15.661671
63.745 15.757149
63.750 15.792377
63.755 16.242687
63.760 16.207273
63.765 15.88201
63.770 15.5045
63.775 15.482018
63.780 15.364592
63.785 14.498473
63.790 13.949567
63.795 14.075628
63.800 14.548694
63.805 14.832843
63.810 14.675099
63.815 14.929582
63.820 15.063677
63.825 14.951883
63.830 14.710588
63.835 14.571816
63.840 14.969329
63.845 14.531692
63.850 14.162731
63.855 14.406759
63.860 14.998427
63.865 15.565433
63.870 15.307813
63.875 15.269294
63.880 15.529277
63.885 15.979771
63.890 16.798084
63.895 16.696121
63.900 16.631817
63.905 16.515688
63.910 16.016449
63.915 16.352757
63.920 16.039782
63.925 15.752447
63.930 15.593813
63.935 16.017031
63.940 16.483267
63.945 16.687496
63.950 16.328875
63.955 16.560745
63.960 16.375147
63.965 16.515867
63.970 15.982238
63.975 15.85668
63.980 16.118355
63.985 16.197258
63.990 16.449165
63.995 16.757093
64.000 16.980951
64.005 17.608828
64.010 17.916843
64.015 18.011816
64.020 18.878567
64.025 19.394876
64.030 19.912367
64.035 20.136402
64.040 20.035173
64.045 20.278931
64.050 20.828377
64.055 20.692463
64.060 20.548143
64.065 20.695652
64.070 20.612545
64.075 20.7199
64.080 20.557259
64.085 20.148115
64.090 20.677383
64.095 21.082912
64.100 20.683222
64.105 20.55237
64.110 21.358234
64.115 23.013817
64.120 24.437365
64.125 24.140265
64.130 24.630325
64.135 25.478247
64.140 25.971838
64.145 26.046713
64.150 25.243227
64.155 24.79439
64.160 25.379372
64.165 26.102644
64.170 26.869268
64.175 27.180098
64.180 27.382895
64.185 28.103052
64.190 29.433193
64.195 30.137032
64.200 29.653439
64.205 29.492786
64.210 30.394007
64.215 31.363741
64.220 31.665152
64.225 31.1092
64.230 31.002523
64.235 31.388874
64.240 32.115833
64.245 32.010338
64.250 31.917206
64.255 32.948803
64.260 33.825802
64.265 34.288033
64.270 35.081997
64.275 35.937511
64.280 36.086708
64.285 35.952209
64.290 35.815533
64.295 36.466316
64.300 36.810596
64.305 35.893997
64.310 35.733898
64.315 35.801311
64.320 36.206478
64.325 36.441879
64.330 36.198315
64.335 36.784702
64.340 37.492752
64.345 37.402332
64.350 37.260704
64.355 36.900257
64.360 37.446869
64.365 38.194576
64.370 38.466606
64.375 38.2061
64.380 38.319317
64.385 38.754421
64.390 39.286484
64.395 38.93718
64.400 38.112183
64.405 37.502098
64.410 36.761066
64.415 36.48962
64.420 36.068241
64.425 36.190231
64.430 35.690296
64.435 35.771111
64.440 35.891766
64.445 36.530952
64.450 36.320347
64.455 35.659401
64.460 34.566044
64.465 34.498455
64.470 33.462524
64.475 32.788517
64.480 32.83392
64.485 32.764065
64.490 33.346527
64.495 33.500946
64.500 32.669708
64.505 32.872784
64.510 32.607742
64.515 32.238323
64.520 31.740969
64.525 31.376087
64.530 30.741934
64.535 30.875067
64.540 31.052938
64.545 30.852648
64.550 29.958611
64.555 29.369289
64.560 28.151293
64.565 27.692871
64.570 26.667648
64.575 24.899809
64.580 24.846142
64.585 24.617996
64.590 24.585966
64.595 24.073877
64.600 23.552862
64.605 23.495214
64.610 23.590158
64.615 22.846813
64.620 22.829561
64.625 22.94725
64.630 23.628798
64.635 23.563179
64.640 22.575399
64.645 22.392464
64.650 22.093819
64.655 21.620651
64.660 20.899372
64.665 20.522638
64.670 20.504961
64.675 20.63629
64.680 20.186663
64.685 19.853155
64.690 19.438635
64.695 18.924255
64.700 18.690342
64.705 18.796272
64.710 19.243568
64.715 19.718746
64.720 20.055626
64.725 19.880892
64.730 20.500557
64.735 20.501539
64.740 19.75519
64.745 18.717346
64.750 18.230156
64.755 18.052437
64.760 18.30794
64.765 17.895889
64.770 17.302301
64.775 17.695007
64.780 18.346945
64.785 18.262403
64.790 17.896931
64.795 17.753178
64.800 17.837996
64.805 18.081791
64.810 17.670017
64.815 17.187845
64.820 17.490429
64.825 17.883574
64.830 17.837416
64.835 17.583549
64.840 17.253103
64.845 17.245293
64.850 16.840292
64.855 16.576118
64.860 16.48168
64.865 16.343655
64.870 16.39735
64.875 16.739288
64.880 16.97666
64.885 16.759554
64.890 16.4
64.895 16.286484
64.900 16.340824
64.905 16.386015
64.910 16.121721
64.915 15.965757
64.920 16.871634
64.925 17.176489
64.930 16.934975
64.935 16.804764
64.940 17.194868
64.945 17.709599
64.950 17.832891
64.955 17.40308
64.960 17.570501
64.965 18.042591
64.970 17.995743
64.975 17.640259
64.980 17.26133
64.985 17.393497
64.990 17.167711
64.995 16.758745
65.000 16.981943
65.005 17.6087
65.010 18.195744
65.015 18.077734
65.020 18.883352
65.025 19.869957
65.030 20.287436
65.035 20.201128
65.040 20.485514
65.045 20.391321
65.050 20.751883
65.055 20.245129
65.060 19.36342
65.065 19.039816
65.070 19.264782
65.075 18.331881
65.080 18.024035
65.085 17.703804
65.090 17.187294
65.095 17.273191
65.100 17.194271
65.105 17.145914
65.110 17.840929
65.115 18.769127
65.120 19.184822
65.125 19.851946
65.130 20.706646
65.135 20.88574
65.140 20.879786
65.145 20.870808
65.150 20.583874
65.155 20.612766
65.160 21.087234
65.165 21.121796
65.170 21.169127
65.175 21.429121
65.180 21.18516
65.185 20.648575
65.190 20.61952
65.195 20.899025
65.200 20.892532
65.205 21.008923
65.210 20.599756
65.215 20.612755
65.220 20.689899
65.225 20.582792
65.230 19.827562
65.235 19.296289
65.240 19.11281
65.245 19.464001
65.250 19.925669
65.255 20.401623
65.260 20.71991
65.265 21.151573
65.270 21.967196
65.275 22.572912
65.280 22.561897
65.285 22.516314
65.290 22.193108
65.295 22.15131
65.300 21.752293
65.305 22.064579
65.310 22.048992
65.315 21.809761
65.320 21.459877
65.325 21.298964
65.330 21.435621
65.335 22.213877
65.340 21.854595
65.345 21.812523
65.350 22.039343
65.355 23.154085
65.360 24.113842
65.365 23.825129
65.370 23.862898
65.375 24.502932
65.380 24.943905
65.385 24.977003
65.390 24.901825
65.395 24.848864
65.400 24.999346
65.405 25.375961
65.410 25.893015
65.415 26.290939
65.420 26.551769
65.425 27.773405
65.430 28.51144
65.435 28.794891
65.440 28.739714
65.445 28.146017
65.450 28.052719
65.455 27.984779
65.460 27.527119
65.465 27.349865
65.470 27.325884
65.475 27.873842
65.480 28.068136
65.485 28.581057
65.490 28.972195
65.495 28.687628
65.500 28.648222
65.505 28.901007
65.510 28.906345
65.515 28.814466
65.520 28.606874
65.525 28.908356
65.530 29.846712
65.535 30.251511
65.540 30.582146
65.545 31.480841
65.550 32.777321
65.555 33.932022
65.560 34.125786
65.565 34.494968
65.570 35.664829
65.575 37.250748
65.580 37.822277
65.585 37.475384
65.590 37.1833
65.595 37.098389
65.600 36.700768
65.605 36.428413
65.610 35.715797
65.615 35.679901
65.620 35.818192
65.625 35.944668
65.630 36.122021
65.635 35.173649
65.640 35.169147
65.645 35.050102
65.650 35.210392
65.655 35.075607
65.660 34.871452
65.665 34.987148
65.670 35.601635
65.675 35.912041
65.680 36.340599
65.685 35.503742
65.690 35.44352
65.695 35.19183
65.700 35.305637
65.705 35.161152
65.710 34.841301
65.715 33.830696
65.720 33.496643
65.725 33.864269
65.730 33.839699
65.735 33.359108
65.740 33.428524
65.745 32.842377
65.750 33.288761
65.755 33.779427
65.760 33.089619
65.765 32.78936
65.770 32.904587
65.775 32.624004
65.780 32.586269
65.785 32.2742
65.790 31.682076
65.795 31.801767
65.800 31.934364
65.805 32.076473
65.810 32.09095
65.815 32.060474
65.820 31.982525
65.825 31.891716
65.830 31.793383
65.835 31.251873
65.840 31.017965
65.845 30.727839
65.850 30.190102
65.855 29.665026
65.860 29.111403
65.865 28.870846
65.870 28.947243
65.875 28.051077
65.880 27.586811
65.885 27.439293
65.890 27.030275
65.895 27.778311
65.900 26.620424
65.905 25.730478
65.910 25.742151
65.915 25.617899
65.920 25.857269
65.925 25.812088
65.930 24.862906
65.935 25.308527
65.940 25.362352
65.945 25.091791
65.950 24.962517
65.955 24.496122
65.960 24.461723
65.965 24.598654
65.970 24.443092
65.975 24.217224
65.980 24.526482
65.985 24.491093
65.990 24.34013
65.995 23.718014
66.000 23.273514
66.005 23.384726
66.010 22.967495
66.015 21.872913
66.020 21.137642
66.025 21.088657
66.030 19.922823
66.035 19.643606
66.040 19.315229
66.045 19.253256
66.050 19.739223
66.055 19.728523
66.060 19.338369
66.065 19.258768
66.070 19.056644
66.075 19.022306
66.080 18.628471
66.085 18.116755
66.090 18.44845
66.095 18.441067
66.100 18.66256
66.105 17.717695
66.110 17.056248
66.115 16.948782
66.120 16.459206
66.125 16.16864
66.130 16.061863
66.135 15.991255
66.140 16.245205
66.145 16.548306
66.150 16.583979
66.155 17.309401
66.160 16.870581
66.165 16.580997
66.170 16.343563
66.175 16.134871
66.180 16.086628
66.185 15.815803
66.190 15.471297
66.195 15.70908
66.200 15.67745
66.205 15.796139
66.210 15.766616
66.215 15.644132
66.220 16.01049
66.225 15.636625
66.230 15.830749
66.235 16.076815
66.240 15.799779
66.245 16.119749
66.250 16.327084
66.255 16.351572
66.260 16.178799
66.265 15.680834
66.270 15.794125
66.275 16.005722
66.280 15.544743
66.285 15.941316
66.290 15.831612
66.295 16.127043
66.300 16.068579
66.305 16.216131
66.310 15.82379
66.315 15.981728
66.320 15.614927
66.325 15.226177
66.330 15.407974
66.335 15.612097
66.340 15.630741
66.345 16.040247
66.350 15.647544
66.355 15.425583
66.360 15.727485
66.365 15.609826
66.370 15.571856
66.375 14.638747
66.380 14.126012
66.385 13.705651
66.390 13.401022
66.395 13.147104
66.400 13.285982
66.405 13.68814
66.410 14.679173
66.415 15.6394
66.420 16.364483
66.425 16.607519
66.430 16.356651
66.435 15.823103
66.440 15.305716
66.445 14.977482
66.450 13.992541
66.455 13.934118
66.460 13.894919
66.465 14.418489
66.470 14.653137
66.475 14.661221
66.480 14.742894
66.485 15.351186
66.490 15.133055
66.495 15.418288
66.500 14.862466
66.505 14.751766
66.510 14.585649
66.515 14.612997
66.520 14.406216
66.525 14.453331
66.530 14.536034
66.535 15.029372
66.540 15.401352
66.545 15.582997
66.550 16.085182
66.555 16.269316
66.560 16.323666
66.565 16.542027
66.570 16.60383
66.575 16.129917
66.580 15.905208
66.585 15.424076
66.590 15.734259
66.595 16.029266
66.600 15.516328
66.605 15.482242
66.610 15.864511
66.615 16.626484
66.620 16.841949
66.625 16.671366
66.630 16.457649
66.635 16.531765
66.640 15.838973
66.645 15.839941
66.650 15.036615
66.655 14.387708
66.660 14.197877
66.665 14.202558
66.670 14.019513
66.675 14.366829
66.680 14.366307
66.685 14.876787
66.690 15.561636
66.695 15.517381
66.700 15.66879
66.705 16.329548
66.710 16.044416
66.715 15.4571
66.720 14.696732
66.725 14.19637
66.730 14.00111
66.735 13.64562
66.740 13.422256
66.745 13.357289
66.750 13.423667
66.755 13.695695
66.760 13.572567
66.765 14.032166
66.770 14.561113
66.775 15.007367
66.780 15.547949
66.785 15.730844
66.790 15.782436
66.795 16.0161
66.800 15.911391
66.805 15.387632
66.810 14.39384
66.815 14.204644
66.820 14.248546
66.825 14.158308
66.830 14.315075
66.835 14.110315
66.840 14.741991
66.845 15.496903
66.850 15.963983
66.855 16.372416
66.860 16.868137
66.865 16.535666
66.870 16.435776
66.875 16.23288
66.880 15.976431
66.885 16.048559
66.890 15.746421
66.895 15.746614
66.900 15.972433
66.905 16.029411
66.910 15.851904
66.915 15.456885
66.920 14.913728
66.925 14.862786
66.930 15.102401
66.935 14.458426
66.940 14.394951
66.945 14.922758
66.950 15.187562
66.955 15.135179
66.960 14.99066
66.965 14.751011
66.970 15.752628
66.975 15.80973
66.980 15.277225
66.985 15.403166
66.990 15.541119
66.995 15.748438
67.000 15.604609
67.005 15.230429
67.010 15.421632
67.015 15.309704
67.020 14.99382
67.025 15.33242
67.030 15.257956
67.035 15.346085
67.040 15.641791
67.045 15.335811
67.050 16.056568
67.055 16.166901
67.060 15.467872
67.065 15.221194
67.070 14.628283
67.075 14.229869
67.080 14.209352
67.085 13.669632
67.090 13.625071
67.095 13.797272
67.100 14.244473
67.105 15.049079
67.110 15.146998
67.115 15.461383
67.120 15.67976
67.125 15.945374
67.130 16.100176
67.135 15.803736
67.140 15.594863
67.145 15.510862
67.150 15.805983
67.155 15.720032
67.160 15.662619
67.165 15.582355
67.170 15.495367
67.175 15.335648
67.180 15.212319
67.185 15.500182
67.190 15.546225
67.195 15.464203
67.200 15.965961
67.205 15.737383
67.210 16.069071
67.215 15.952467
67.220 15.611496
67.225 16.219015
67.230 16.057819
67.235 15.315006
67.240 14.865623
67.245 14.988054
67.250 15.23991
67.255 14.757319
67.260 14.137579
67.265 14.34868
67.270 15.233195
67.275 15.83982
67.280 15.802542
67.285 15.736802
67.290 15.778843
67.295 15.513694
67.300 15.919517
67.305 15.654036
67.310 15.579968
67.315 15.637529
67.320 15.70169
67.325 15.933143
67.330 16.509493
67.335 16.231512
67.340 16.185417
67.345 15.877264
67.350 15.680281
67.355 15.267218
67.360 14.918301
67.365 14.482469
67.370 14.759487
67.375 14.687963
67.380 14.742792
67.385 14.757696
67.390 14.712484
67.395 14.668915
67.400 14.338798
67.405 14.036119
67.410 14.587449
67.415 14.545973
67.420 14.375004
67.425 14.453589
67.430 14.642277
67.435 14.521535
67.440 13.991915
67.445 13.730299
67.450 13.888765
67.455 14.103225
67.460 14.121591
67.465 13.883748
67.470 14.537499
67.475 14.895272
67.480 14.823563
67.485 14.700028
67.490 14.76123
67.495 14.8596
67.500 15.700246
67.505 15.537528
67.510 15.364244
67.515 15.265615
67.520 15.176456
67.525 15.136933
67.530 14.461926
67.535 14.061866
67.540 14.20479
67.545 14.180435
67.550 14.162473
67.555 14.263281
67.560 14.43907
67.565 14.85507
67.570 14.994847
67.575 14.945438
67.580 15.305387
67.585 15.714849
67.590 15.940404
67.595 16.142096
67.600 16.28754
67.605 15.955858
67.610 16.028946
67.615 15.444224
67.620 15.122499
67.625 15.163179
67.630 15.166598
67.635 15.111892
67.640 15.036636
67.645 14.980208
67.650 15.153782
67.655 15.361186
67.660 15.479571
67.665 15.203881
67.670 15.030828
67.675 15.096802
67.680 15.232738
67.685 15.166316
67.690 14.867284
67.695 14.488646
67.700 14.440237
67.705 14.257695
67.710 14.230438
67.715 14.32713
67.720 14.351686
67.725 14.169785
67.730 14.114735
67.735 14.55306
67.740 14.833611
67.745 14.668819
67.750 14.659535
67.755 14.810287
67.760 14.985385
67.765 15.065893
67.770 14.317194
67.775 14.118313
67.780 14.064664
67.785 13.940252
67.790 13.897092
67.795 13.675303
67.800 13.281579
67.805 13.821638
67.810 14.119272
67.815 14.148733
67.820 14.375011
67.825 14.523228
67.830 14.89727
67.835 14.959016
67.840 14.675063
67.845 14.400099
67.850 14.653848
67.855 14.831721
67.860 14.846145
67.865 14.704228
67.870 15.041232
67.875 14.827255
67.880 15.395776
67.885 15.605394
67.890 16.021458
67.895 16.564215
67.900 16.541271
67.905 16.607315
67.910 16.470388
67.915 16.278677
67.920 15.672052
67.925 15.230332
67.930 14.989833
67.935 15.154488
67.940 15.448618
67.945 15.893982
67.950 16.062397
67.955 16.302307
67.960 16.316252
67.965 16.144733
67.970 16.269894
67.975 16.215368
67.980 15.950898
67.985 15.620483
67.990 15.264458
67.995 15.320023
68.000 15.142653
68.005 14.798787
68.010 14.466766
68.015 14.383285
68.020 14.591181
68.025 14.353521
68.030 14.070087
68.035 13.979571
68.040 14.049839
68.045 13.933153
68.050 14.719981
68.055 15.028913
68.060 15.613169
68.065 15.919703
68.070 16.713959
68.075 17.327209
68.080 17.72007
68.085 17.43092
68.090 17.346291
68.095 17.51572
68.100 17.397226
68.105 17.200642
68.110 16.907694
68.115 16.899511
68.120 17.029964
68.125 16.676424
68.130 16.326683
68.135 16.23926
68.140 15.785074
68.145 16.109148
68.150 15.984393
68.155 15.762062
68.160 15.859391
68.165 15.849066
68.170 15.618404
68.175 15.500651
68.180 14.878455
68.185 15.065104
68.190 15.907317
68.195 15.985584
68.200 15.943007
68.205 16.082119
68.210 16.309225
68.215 16.012753
68.220 15.348618
68.225 14.400659
68.230 14.497014
68.235 14.87084
68.240 15.279043
68.245 15.725198
68.250 16.151155
68.255 15.939504
68.260 16.349476
68.265 17.290016
68.270 17.79915
68.275 17.643034
68.280 17.268257
68.285 17.490301
68.290 17.651304
68.295 17.230928
68.300 16.076761
68.305 15.858045
68.310 16.052395
68.315 16.321255
68.320 16.256104
68.325 15.809123
68.330 15.86428
68.335 15.603353
68.340 15.104785
68.345 14.993404
68.350 14.565152
68.355 15.049967
68.360 15.731105
68.365 16.205904
68.370 16.914055
68.375 17.086603
68.380 16.934563
68.385 17.010271
68.390 16.945232
68.395 16.989351
68.400 16.834587
68.405 16.799534
68.410 17.044254
68.415 17.514233
68.420 18.438103
68.425 18.967646
68.430 19.234585
68.435 18.957001
68.440 18.599419
68.445 18.49032
68.450 18.233271
68.455 17.956696
68.460 17.689882
68.465 17.798933
68.470 18.243622
68.475 18.831907
68.480 19.167276
68.485 19.226395
68.490 19.2924
68.495 19.434847
68.500 19.311798
68.505 19.001354
68.510 19.118814
68.515 18.850204
68.520 18.441269
68.525 18.026031
68.530 17.778952
68.535 17.69817
68.540 18.028114
68.545 17.453463
68.550 17.983568
68.555 18.842747
68.560 19.074617
68.565 19.2166
68.570 19.743626
68.575 20.025991
68.580 20.452587
68.585 20.643297
68.590 20.898703
68.595 21.753662
68.600 22.278624
68.605 22.563427
68.610 22.949314
68.615 23.676611
68.620 23.943295
68.625 24.475979
68.630 24.263111
68.635 24.028744
68.640 23.839842
68.645 24.118647
68.650 23.768459
68.655 24.144535
68.660 23.862164
68.665 24.191149
68.670 25.449867
68.675 25.712765
68.680 25.971622
68.685 26.058834
68.690 25.81694
68.695 26.096207
68.700 25.495148
68.705 24.691269
68.710 24.425711
68.715 24.87151
68.720 25.119194
68.725 25.590092
68.730 26.319504
68.735 26.863592
68.740 26.878897
68.745 27.510542
68.750 27.487165
68.755 28.180593
68.760 28.597069
68.765 28.339798
68.770 29.225552
68.775 29.445457
68.780 28.511368
68.785 28.149658
68.790 27.899265
68.795 28.126638
68.800 28.708923
68.805 28.422985
68.810 29.632288
68.815 30.532034
68.820 30.674345
68.825 30.576031
68.830 31.607225
68.835 31.407425
68.840 31.260756
68.845 30.741884
68.850 31.238951
68.855 31.553099
68.860 31.993246
68.865 32.112366
68.870 32.770088
68.875 33.088135
68.880 32.837856
68.885 33.471432
68.890 33.971745
68.895 33.755451
68.900 32.677231
68.905 32.652798
68.910 32.256889
68.915 32.130955
68.920 31.373848
68.925 30.776525
68.930 30.733122
68.935 31.870314
68.940 32.25642
68.945 32.779831
68.950 32.1264
68.955 31.574261
68.960 31.806206
68.965 32.191956
68.970 31.5611
68.975 31.594984
68.980 31.89159
68.985 32.812614
68.990 32.845547
68.995 32.698692
69.000 32.070286
69.005 32.179211
69.010 31.800901
69.015 30.947554
69.020 30.406355
69.025 30.278963
69.030 30.212362
69.035 29.648279
69.040 28.761564
69.045 28.630753
69.050 28.514708
69.055 28.453321
69.060 28.43153
69.065 28.252871
69.070 26.919115
69.075 26.245697
69.080 25.788614
69.085 25.587231
69.090 25.700182
69.095 25.128063
69.100 25.346914
69.105 25.733727
69.110 25.650785
69.115 25.744688
69.120 25.574528
69.125 25.649822
69.130 25.514433
69.135 24.570248
69.140 24.436571
69.145 24.499163
69.150 23.983795
69.155 23.333452
69.160 22.414202
69.165 22.328386
69.170 22.851437
69.175 22.77116
69.180 22.579529
69.185 22.810318
69.190 23.042145
69.195 23.11644
69.200 22.643942
69.205 22.418354
69.210 21.952139
69.215 21.515486
69.220 21.21879
69.225 21.488903
69.230 21.712233
69.235 22.026644
69.240 21.725683
69.245 21.346977
69.250 21.471773
69.255 21.437141
69.260 20.618275
69.265 19.838631
69.270 19.248091
69.275 19.472633
69.280 19.107405
69.285 19.202948
69.290 19.772276
69.295 19.936348
69.300 20.242256
69.305 20.064575
69.310 19.779879
69.315 19.576084
69.320 19.269268
69.325 18.514248
69.330 18.499346
69.335 17.797869
69.340 17.546494
69.345 17.741755
69.350 17.525265
69.355 17.307316
69.360 16.857924
69.365 16.914434
69.370 17.031963
69.375 17.339521
69.380 17.050833
69.385 17.106089
69.390 17.192547
69.395 17.305788
69.400 16.950409
69.405 16.597479
69.410 16.184376
69.415 15.973888
69.420 15.395885
69.425 15.061008
69.430 15.129337
69.435 15.373472
69.440 15.439436
69.445 15.090631
69.450 15.273376
69.455 15.382102
69.460 15.194805
69.465 14.864369
69.470 15.071339
69.475 15.303025
69.480 15.785483
69.485 15.404103
69.490 15.470413
69.495 15.702957
69.500 15.799892
69.505 15.878641
69.510 15.941013
69.515 16.288202
69.520 16.531368
69.525 16.055473
69.530 16.374414
69.535 16.805635
69.540 16.618378
69.545 16.019051
69.550 15.621907
69.555 15.638783
69.560 16.053963
69.565 15.361794
69.570 15.300556
69.575 15.274732
69.580 15.318577
69.585 15.289639
69.590 15.551074
69.595 15.309794
69.600 15.57964
69.605 15.673936
69.610 15.659904
69.615 16.076715
69.620 16.352951
69.625 16.160675
69.630 16.619928
69.635 16.337616
69.640 16.089369
69.645 15.66722
69.650 15.616863
69.655 16.228308
69.660 16.102448
69.665 15.368736
69.670 15.395278
69.675 15.751142
69.680 16.195305
69.685 16.252651
69.690 15.899353
69.695 16.446774
69.700 16.189875
69.705 15.774838
69.710 15.636667
69.715 15.38705
69.720 15.193747
69.725 14.493948
69.730 14.446007
69.735 15.049799
69.740 15.332536
69.745 15.345201
69.750 15.866697
69.755 16.135639
69.760 17.104483
69.765 17.104029
69.770 16.48303
69.775 16.057022
69.780 16.011518
69.785 15.445345
69.790 15.175311
69.795 14.950656
69.800 15.006209
69.805 15.837264
69.810 16.25046
69.815 16.601809
69.820 16.547243
69.825 16.210854
69.830 15.735171
69.835 15.737499
69.840 15.658197
69.845 14.775602
69.850 14.465864
69.855 14.498252
69.860 14.951025
69.865 15.606275
69.870 15.864146
69.875 16.202173
69.880 16.846382
69.885 17.050127
69.890 17.359493
69.895 16.969061
69.900 16.368008
69.905 16.102001
69.910 16.205414
69.915 16.045155
69.920 15.954948
69.925 15.817935
69.930 15.394629
69.935 15.094855
69.940 14.740791
69.945 14.609846
69.950 14.640429
69.955 14.701286
69.960 14.501489
69.965 14.706276
69.970 14.472047
69.975 14.464388
69.980 14.536789
69.985 14.697657
69.990 14.32443
69.995 14.454448
70.000 14.761408
70.005 15.387692
70.010 14.667968
70.015 14.638663
70.020 14.526083
70.025 14.854489
70.030 15.271946
70.035 15.664117
70.040 15.617175
70.045 16.308401
70.050 16.234207
70.055 16.559904
70.060 16.111996
70.065 15.746911
70.070 15.424945
70.075 15.408801
70.080 15.16773
70.085 14.869849
70.090 14.823601
70.095 14.598248
70.100 14.603701
70.105 14.680822
70.110 14.43795
70.115 14.251957
70.120 14.410951
70.125 14.389153
70.130 14.549974
70.135 14.418631
70.140 14.950292
70.145 15.105785
70.150 14.914086
70.155 14.712186
70.160 14.937026
70.165 15.331035
70.170 15.824924
70.175 15.614598
70.180 15.683055
70.185 16.227299
70.190 16.218287
70.195 16.187592
70.200 15.61098
70.205 14.842859
70.210 14.906542
70.215 15.277146
70.220 15.476136
70.225 15.590246
70.230 15.52913
70.235 15.455721
70.240 15.732325
70.245 15.918272
70.250 15.476151
70.255 14.88651
70.260 14.72683
70.265 15.099514
70.270 15.201385
70.275 14.89426
70.280 14.678157
70.285 15.101929
70.290 15.207613
70.295 15.266525
70.300 15.436901
70.305 15.844053
70.310 16.093983
70.315 15.753947
70.320 15.232066
70.325 15.187613
70.330 15.164217
70.335 14.997198
70.340 15.360482
70.345 15.544378
70.350 15.981553
70.355 16.089638
70.360 16.129648
70.365 15.667078
70.370 15.327432
70.375 14.592273
70.380 14.360843
70.385 13.826157
70.390 14.108877
70.395 14.356668
70.400 14.451083
70.405 14.393285
70.410 14.733909
70.415 14.335103
70.420 14.169487
70.425 14.120716
70.430 14.224255
70.435 14.439099
70.440 14.905652
70.445 15.006536
70.450 15.001154
70.455 15.74712
70.460 15.328625
70.465 15.156473
70.470 14.920612
70.475 14.451778
70.480 14.5538
70.485 14.870015
70.490 14.709504
70.495 14.534984
70.500 14.417379
70.505 15.054784
70.510 15.834546
70.515 16.114796
70.520 16.461704
70.525 16.440029
70.530 17.175333
70.535 17.072573
70.540 17.031551
70.545 16.45915
70.550 16.27471
70.555 16.226843
70.560 16.152102
70.565 15.919999
70.570 15.740245
70.575 14.890649
70.580 14.807473
70.585 14.262993
70.590 13.819919
70.595 13.687933
70.600 13.603405
70.605 14.051089
70.610 14.669593
70.615 14.937993
70.620 15.391394
70.625 15.603528
70.630 15.496743
70.635 15.2609
70.640 14.981908
70.645 14.693809
70.650 14.655968
70.655 15.298588
70.660 15.505612
70.665 15.644665
70.670 15.687882
70.675 15.47807
70.680 15.470638
70.685 15.298437
70.690 14.996662
70.695 14.949377
70.700 14.866434
70.705 14.885107
70.710 15.728974
70.715 15.92036
70.720 15.30851
70.725 14.956729
70.730 15.218106
70.735 15.285837
70.740 15.691306
70.745 15.416243
70.750 15.61643
70.755 16.132147
70.760 16.157976
70.765 15.474479
70.770 15.456166
70.775 14.578982
70.780 14.480389
70.785 14.235784
70.790 13.900613
70.795 13.866788
70.800 14.325905
70.805 14.023086
70.810 14.042881
70.815 13.793081
70.820 13.605839
70.825 13.723235
70.830 13.756683
70.835 13.371497
70.840 13.911889
70.845 14.269131
70.850 14.337843
70.855 14.60795
70.860 14.427941
70.865 14.449199
70.870 14.446456
70.875 14.095045
70.880 14.062465
70.885 14.503252
70.890 15.081803
70.895 15.211592
70.900 15.648664
70.905 16.173878
70.910 16.684963
70.915 16.623934
70.920 16.572924
70.925 16.4335
70.930 16.724901
70.935 16.866636
70.940 16.337814
70.945 16.140427
70.950 15.579092
70.955 15.539863
70.960 15.102001
70.965 14.559215
70.970 15.11603
70.975 15.405684
70.980 15.71529
70.985 15.876778
70.990 15.626083
70.995 15.669043
71.000 15.661589
71.005 15.186194
71.010 14.938922
71.015 14.460011
71.020 14.2163
71.025 14.12678
71.030 13.985313
71.035 13.909813
71.040 13.694303
71.045 13.858753
71.050 14.15642
71.055 14.425013
71.060 14.788744
71.065 14.459381
71.070 14.088133
71.075 14.306203
71.080 14.578992
71.085 14.738672
71.090 14.829185
71.095 15.383866
71.100 15.589076
71.105 15.573988
71.110 15.656138
71.115 15.491308
71.120 15.425776
71.125 15.158797
71.130 14.587558
71.135 14.521336
71.140 14.458261
71.145 14.376249
71.150 13.967523
71.155 13.741821
71.160 13.709072
71.165 13.922379
71.170 13.978107
71.175 13.998747
71.180 13.577013
71.185 13.940773
71.190 14.423561
71.195 15.174771
71.200 15.615121
71.205 16.706497
71.210 17.175224
71.215 17.572672
71.220 17.499683
71.225 17.325247
71.230 16.407183
71.235 16.255844
71.240 15.223672
71.245 15.006885
71.250 15.250062
71.255 15.594521
71.260 15.602083
71.265 16.023066
71.270 16.803307
71.275 16.862
71.280 16.472452
71.285 15.749187
71.290 15.139682
71.295 14.926896
71.300 13.951183
71.305 13.208493
71.310 13.401212
71.315 13.844422
71.320 13.988206
71.325 13.864198
71.330 14.330287
71.335 15.139234
71.340 15.548504
71.345 15.487906
71.350 15.524643
71.355 15.470062
71.360 15.612979
71.365 15.994467
71.370 15.613116
71.375 15.667291
71.380 15.723635
71.385 15.75611
71.390 16.002918
71.395 16.086895
71.400 15.459843
71.405 15.14397
71.410 14.972117
71.415 15.109439
71.420 14.988124
71.425 14.570165
71.430 14.205797
71.435 14.072269
71.440 14.102241
71.445 14.135303
71.450 14.319057
71.455 14.868055
71.460 14.821266
71.465 14.493859
71.470 14.590315
71.475 15.036743
71.480 14.2867
71.485 13.979343
71.490 13.924337
71.495 14.35437
71.500 14.787775
71.505 14.727489
71.510 14.178493
71.515 14.496188
71.520 14.199657
71.525 14.530976
71.530 14.543221
71.535 14.439332
71.540 14.550519
71.545 14.643173
71.550 14.713944
71.555 14.876881
71.560 14.348533
71.565 14.460682
71.570 14.554767
71.575 14.097532
71.580 13.580881
71.585 12.873063
71.590 12.993881
71.595 13.29097
71.600 13.112935
71.605 13.710641
71.610 14.49763
71.615 15.281286
71.620 15.621989
71.625 15.592161
71.630 15.438601
71.635 15.651788
71.640 15.465228
71.645 15.464931
71.650 15.201082
71.655 14.895947
71.660 14.703516
71.665 14.362324
71.670 13.970016
71.675 13.980043
71.680 13.692947
71.685 14.062057
71.690 13.848698
71.695 14.065061
71.700 14.84721
71.705 14.721139
71.710 14.365343
71.715 14.263874
71.720 14.280129
71.725 14.562284
71.730 14.491739
71.735 14.247559
71.740 14.594368
71.745 14.940161
71.750 15.088428
71.755 15.632354
71.760 15.596291
71.765 15.684923
71.770 15.235969
71.775 14.963192
71.780 15.230653
71.785 15.037129
71.790 14.328198
71.795 14.012531
71.800 14.526987
71.805 14.997849
71.810 15.220103
71.815 15.043949
71.820 15.264677
71.825 16.06004
71.830 16.427116
71.835 15.802413
71.840 15.906019
71.845 15.900456
71.850 15.742167
71.855 15.358983
71.860 15.225113
71.865 15.021191
71.870 15.098499
71.875 14.487967
71.880 14.683397
71.885 15.198633
71.890 15.540693
71.895 15.418361
71.900 15.564348
71.905 15.459357
71.910 15.96025
71.915 15.578591
71.920 15.090539
71.925 15.0669
71.930 14.816872
71.935 15.018785
71.940 14.866823
71.945 14.586071
71.950 14.957335
71.955 14.444982
71.960 13.920656
71.965 13.844825
71.970 13.660407
71.975 13.534723
71.980 14.172629
71.985 14.297063
71.990 14.580341
71.995 14.922859
72.000 15.212743
72.005 15.261726
72.010 15.218804
72.015 14.379347
72.020 14.547969
72.025 15.037607
72.030 15.567481
72.035 15.500977
72.040 15.265734
72.045 15.632701
72.050 15.548766
72.055 15.020259
72.060 14.920987
72.065 14.487292
72.070 14.770525
72.075 14.765856
72.080 14.598013
72.085 15.076399
72.090 14.7548
72.095 14.498993
72.100 14.816066
72.105 14.791598
72.110 15.098055
72.115 15.044834
72.120 14.841963
72.125 14.768678
72.130 14.457513
72.135 14.323868
72.140 14.084423
72.145 13.999402
72.150 14.024407
72.155 13.843979
72.160 13.97278
72.165 14.235327
72.170 13.935326
72.175 13.744303
72.180 13.277843
72.185 13.528072
72.190 13.994502
72.195 13.809836
72.200 13.980105
72.205 14.407904
72.210 14.83058
72.215 15.197741
72.220 15.431569
72.225 14.866386
72.230 14.94542
72.235 14.840206
72.240 15.08182
72.245 14.969515
72.250 14.872265
72.255 14.847513
72.260 14.994238
72.265 14.491266
72.270 13.880809
72.275 13.631849
72.280 13.419498
72.285 13.464984
72.290 13.925873
72.295 14.032243
72.300 13.656125
72.305 13.894048
72.310 14.131871
72.315 14.256841
72.320 13.18468
72.325 12.630851
72.330 12.873318
72.335 13.513004
72.340 13.490605
72.345 13.862831
72.350 14.51191
72.355 14.961163
72.360 15.407199
72.365 15.691704
72.370 15.918538
72.375 16.116228
72.380 15.78349
72.385 15.444527
72.390 15.238813
72.395 15.291154
72.400 15.569241
72.405 14.772082
72.410 13.934367
72.415 13.757623
72.420 13.698672
72.425 13.803227
72.430 13.448998
72.435 13.103323
72.440 13.454454
72.445 13.780022
72.450 14.064226
72.455 14.64777
72.460 15.055473
72.465 15.489126
72.470 15.921358
72.475 15.930541
72.480 15.565036
72.485 15.140712
72.490 14.686099
72.495 14.391219
72.500 13.733951
72.505 13.264675
72.510 13.203316
72.515 13.213713
72.520 13.643733
72.525 13.464388
72.530 13.677234
72.535 13.646621
72.540 13.670577
72.545 13.645142
72.550 13.713776
72.555 13.693992
72.560 13.47741
72.565 13.444762
72.570 13.470815
72.575 13.371596
72.580 14.026893
72.585 14.024691
72.590 14.312719
72.595 14.714201
72.600 15.046755
72.605 15.556757
72.610 15.662891
72.615 15.152746
72.620 15.103263
72.625 14.763087
72.630 14.238174
72.635 13.540803
72.640 13.438181
72.645 13.579745
72.650 12.903626
72.655 12.627542
72.660 12.374213
72.665 12.611629
72.670 13.061821
72.675 13.445211
72.680 13.463371
72.685 13.84446
72.690 14.317825
72.695 14.48722
72.700 14.342504
72.705 13.608485
72.710 13.363028
72.715 13.340265
72.720 13.308147
72.725 13.017718
72.730 12.954436
72.735 13.295415
72.740 13.915745
72.745 14.272354
72.750 14.404622
72.755 14.065873
72.760 14.421351
72.765 14.475423
72.770 14.142047
72.775 13.877617
72.780 13.475459
72.785 13.811024
72.790 14.542437
72.795 14.51135
72.800 14.923989
72.805 15.296844
72.810 15.191589
72.815 14.877618
72.820 14.638726
72.825 14.253292
72.830 13.942167
72.835 13.614631
72.840 13.275161
72.845 13.2725
72.850 13.747805
72.855 13.515606
72.860 12.991487
72.865 13.035785
72.870 13.106435
72.875 13.115237
72.880 13.244637
72.885 13.399788
72.890 13.293056
72.895 13.788794
72.900 13.939041
72.905 14.212159
72.910 14.348033
72.915 13.733204
72.920 13.328073
72.925 13.144589
72.930 12.991657
72.935 12.573688
72.940 12.186205
72.945 12.196442
72.950 12.490019
72.955 12.960979
72.960 13.686907
72.965 13.994102
72.970 14.255727
72.975 13.771669
72.980 13.867242
72.985 13.48211
72.990 13.499218
72.995 13.419392
73.000 13.46896
