!@!!GADDS PLOTSO FILE: Chi integration type
!@!!Title/SampleName: map-86
!@!!Comment: ?
!@!!User: Bruker Instrument Administrator
!@!!Site: University of Illinois Chicago
!@!!Frame: map-86_01_000.gfrm
!@!!Wavelengths    1.54184   1.54056   1.54439
!@!!Frame angles: 2Theta: 63.000 Omega: 50.000 Phi: 0.000 Chi: 90.000
!@!!Integration range: 2Theta: 53.000 to 73.000  Gamma: -105.000 to -75.000
!@!!Integration method: bin normalized
!@!N
!@!SS
!@!M
!@!L 0.0 0.0 0.0 0.0
!@!XDegrees
!@!YCounts
53.000 6.931711
53.005 6.903023
53.010 6.855678
53.015 6.507002
53.020 6.51293
53.025 6.900092
53.030 6.847492
53.035 7.078872
53.040 6.870167
53.045 7.236153
53.050 7.241561
53.055 6.861045
53.060 6.472833
53.065 6.378594
53.070 6.452273
53.075 6.53985
53.080 6.057733
53.085 6.423795
53.090 6.74894
53.095 6.89492
53.100 7.365914
53.105 7.263844
53.110 7.627785
53.115 7.847562
53.120 7.732009
53.125 7.76072
53.130 8.134359
53.135 8.005212
53.140 7.999262
53.145 7.407476
53.150 6.974331
53.155 7.165998
53.160 7.445991
53.165 7.33515
53.170 7.385303
53.175 7.336061
53.180 7.443323
53.185 7.742195
53.190 7.279728
53.195 6.957439
53.200 7.200242
53.205 7.555958
53.210 7.447987
53.215 7.425611
53.220 7.479716
53.225 7.505543
53.230 7.62655
53.235 7.506823
53.240 7.066599
53.245 7.518281
53.250 8.129068
53.255 8.047597
53.260 7.86047
53.265 7.600576
53.270 7.414808
53.275 7.385602
53.280 6.764857
53.285 6.355028
53.290 6.886688
53.295 7.21952
53.300 7.082498
53.305 7.353374
53.310 7.621641
53.315 7.29163
53.320 6.95075
53.325 6.576653
53.330 6.627566
53.335 7.082515
53.340 6.971504
53.345 6.996657
53.350 7.233656
53.355 7.413398
53.360 7.502451
53.365 7.111025
53.370 6.898878
53.375 6.743145
53.380 6.850105
53.385 7.374986
53.390 7.696649
53.395 8.271513
53.400 8.560259
53.405 8.925658
53.410 8.980832
53.415 9.156727
53.420 9.034678
53.425 8.887769
53.430 8.423062
53.435 8.106989
53.440 7.801138
53.445 7.985726
53.450 7.773077
53.455 8.055339
53.460 8.187331
53.465 8.302673
53.470 8.631307
53.475 8.52247
53.480 8.274017
53.485 8.076707
53.490 7.793351
53.495 7.688719
53.500 7.639914
53.505 7.514229
53.510 7.88697
53.515 7.758874
53.520 7.850655
53.525 7.621244
53.530 7.662068
53.535 7.658214
53.540 7.81643
53.545 7.967128
53.550 8.102724
53.555 8.022345
53.560 7.921794
53.565 7.609723
53.570 7.659588
53.575 7.756478
53.580 7.712847
53.585 7.59134
53.590 7.598225
53.595 7.634123
53.600 7.594522
53.605 7.254305
53.610 6.907496
53.615 7.246832
53.620 7.49889
53.625 7.435643
53.630 7.332811
53.635 7.700627
53.640 7.997283
53.645 8.312239
53.650 8.165303
53.655 8.151761
53.660 8.191658
53.665 8.336054
53.670 8.423669
53.675 8.163308
53.680 8.359408
53.685 8.405763
53.690 8.544133
53.695 8.924189
53.700 8.934701
53.705 8.787617
53.710 8.851964
53.715 8.654255
53.720 8.753443
53.725 8.469454
53.730 8.133974
53.735 8.135594
53.740 8.13677
53.745 8.009445
53.750 7.523698
53.755 7.396815
53.760 7.454546
53.765 7.364404
53.770 7.842153
53.775 7.767497
53.780 7.823053
53.785 8.130459
53.790 8.061113
53.795 8.190208
53.800 8.145226
53.805 7.502951
53.810 7.334432
53.815 7.310491
53.820 7.278494
53.825 6.903681
53.830 7.222903
53.835 7.19332
53.840 7.675735
53.845 8.047194
53.850 7.993311
53.855 8.021566
53.860 7.962202
53.865 7.540029
53.870 7.687728
53.875 7.781644
53.880 7.496144
53.885 7.351617
53.890 7.81352
53.895 8.06526
53.900 8.050091
53.905 7.850963
53.910 7.117912
53.915 7.029403
53.920 6.927619
53.925 6.887594
53.930 7.423069
53.935 7.509484
53.940 7.862197
53.945 8.431616
53.950 9.368206
53.955 9.507747
53.960 9.142654
53.965 8.923032
53.970 8.75796
53.975 8.468728
53.980 7.988788
53.985 7.482594
53.990 7.722753
53.995 7.860478
54.000 8.081511
54.005 7.808013
54.010 7.530209
54.015 7.527278
54.020 7.558356
54.025 7.514822
54.030 7.158674
54.035 7.340224
54.040 7.534689
54.045 8.077232
54.050 8.597795
54.055 8.783574
54.060 8.847734
54.065 8.748035
54.070 8.730817
54.075 9.248311
54.080 8.970287
54.085 8.7965
54.090 8.744956
54.095 8.72685
54.100 8.82145
54.105 8.647311
54.110 8.733564
54.115 8.616634
54.120 8.154428
54.125 8.227424
54.130 8.1854
54.135 8.432695
54.140 8.569521
54.145 8.283595
54.150 8.35082
54.155 8.421752
54.160 8.409157
54.165 8.834106
54.170 8.98993
54.175 9.045797
54.180 8.881297
54.185 8.68183
54.190 8.57914
54.195 8.589522
54.200 8.435022
54.205 8.326569
54.210 8.609587
54.215 8.938487
54.220 8.836335
54.225 8.860077
54.230 8.518192
54.235 8.599943
54.240 8.166186
54.245 7.876798
54.250 8.197068
54.255 8.318785
54.260 8.405559
54.265 8.489728
54.270 8.695895
54.275 9.098479
54.280 9.35893
54.285 9.379257
54.290 9.599388
54.295 9.608473
54.300 9.574645
54.305 9.176831
54.310 8.895459
54.315 8.652276
54.320 8.398653
54.325 8.005809
54.330 7.834306
54.335 7.811023
54.340 7.728239
54.345 7.746384
54.350 7.548486
54.355 7.903327
54.360 8.292172
54.365 8.353207
54.370 8.07886
54.375 8.233958
54.380 8.702064
54.385 8.676551
54.390 8.324377
54.395 7.868344
54.400 8.317001
54.405 9.047452
54.410 8.712807
54.415 8.235555
54.420 8.226879
54.425 9.092446
54.430 9.742264
54.435 9.579138
54.440 9.320014
54.445 9.235026
54.450 9.236493
54.455 9.093801
54.460 8.309389
54.465 7.779666
54.470 7.442184
54.475 7.964833
54.480 8.626254
54.485 9.048346
54.490 9.039518
54.495 9.681429
54.500 9.971853
54.505 9.730008
54.510 9.532096
54.515 8.982948
54.520 9.197236
54.525 9.418923
54.530 8.907155
54.535 9.13535
54.540 9.261089
54.545 9.219231
54.550 9.717367
54.555 9.251164
54.560 8.840642
54.565 8.502071
54.570 8.343496
54.575 8.376945
54.580 8.208667
54.585 7.78239
54.590 7.800339
54.595 7.97797
54.600 8.187677
54.605 8.232055
54.610 8.09298
54.615 8.305557
54.620 8.558243
54.625 8.97497
54.630 9.40727
54.635 9.872256
54.640 9.693925
54.645 9.808174
54.650 9.305785
54.655 9.242336
54.660 8.987956
54.665 8.349122
54.670 8.085532
54.675 8.169435
54.680 7.885514
54.685 8.25673
54.690 8.416556
54.695 8.582011
54.700 8.825609
54.705 8.67204
54.710 8.755684
54.715 8.719194
54.720 8.079146
54.725 7.926211
54.730 7.927985
54.735 7.860384
54.740 7.880532
54.745 8.028588
54.750 8.244482
54.755 8.574968
54.760 8.889544
54.765 8.877299
54.770 8.979554
54.775 9.309736
54.780 8.884934
54.785 8.558101
54.790 8.31048
54.795 7.964169
54.800 7.866277
54.805 7.790533
54.810 7.351094
54.815 7.655759
54.820 8.102771
54.825 8.051796
54.830 7.672966
54.835 7.897171
54.840 8.40619
54.845 8.96122
54.850 9.219152
54.855 8.949325
54.860 9.230923
54.865 9.62215
54.870 9.789362
54.875 9.369349
54.880 9.330564
54.885 9.328027
54.890 9.579208
54.895 9.578641
54.900 9.271474
54.905 9.255331
54.910 9.346097
54.915 9.147468
54.920 9.333672
54.925 9.62935
54.930 9.214785
54.935 9.114977
54.940 9.046121
54.945 9.252812
54.950 8.888598
54.955 8.505274
54.960 8.317963
54.965 8.917964
54.970 9.027098
54.975 9.231081
54.980 9.265789
54.985 9.648638
54.990 9.46298
54.995 9.599138
55.000 9.933744
55.005 9.921622
55.010 9.721754
55.015 9.512862
55.020 9.35288
55.025 9.380692
55.030 9.491823
55.035 9.355154
55.040 9.791337
55.045 9.955431
55.050 10.481821
55.055 10.838575
55.060 10.841002
55.065 10.754312
55.070 10.604524
55.075 10.328225
55.080 10.346703
55.085 10.611354
55.090 10.810739
55.095 11.008182
55.100 10.691732
55.105 10.418196
55.110 9.883199
55.115 9.742877
55.120 9.370504
55.125 8.887332
55.130 8.67031
55.135 8.737929
55.140 8.595523
55.145 8.719727
55.150 8.163914
55.155 7.996823
55.160 8.286667
55.165 8.256644
55.170 8.562473
55.175 9.061212
55.180 9.398914
55.185 9.99878
55.190 10.44844
55.195 10.593235
55.200 10.753588
55.205 10.523257
55.210 10.301692
55.215 10.068229
55.220 9.431141
55.225 9.331694
55.230 9.490672
55.235 9.330025
55.240 9.484484
55.245 9.720725
55.250 10.194862
55.255 10.412731
55.260 9.867739
55.265 9.968756
55.270 10.359
55.275 10.444061
55.280 10.277452
55.285 9.596627
55.290 9.983953
55.295 10.223292
55.300 9.981091
55.305 9.805874
55.310 9.848101
55.315 9.945235
55.320 10.379024
55.325 10.30119
55.330 10.464767
55.335 10.458481
55.340 10.250497
55.345 9.881039
55.350 9.635083
55.355 9.797348
55.360 9.838538
55.365 9.805403
55.370 9.986094
55.375 10.352393
55.380 10.672063
55.385 10.803708
55.390 10.488644
55.395 9.970589
55.400 9.313128
55.405 8.835049
55.410 8.464104
55.415 8.108015
55.420 7.977899
55.425 8.563225
55.430 9.361565
55.435 10.072198
55.440 10.307181
55.445 10.478447
55.450 10.656749
55.455 10.61656
55.460 10.121856
55.465 9.616683
55.470 9.623199
55.475 9.737759
55.480 9.765804
55.485 9.78723
55.490 9.645251
55.495 9.75013
55.500 9.936754
55.505 9.98949
55.510 10.010057
55.515 10.144882
55.520 10.226047
55.525 10.564508
55.530 10.872802
55.535 10.578239
55.540 10.397026
55.545 10.3243
55.550 10.401201
55.555 10.585278
55.560 10.098095
55.565 9.937611
55.570 9.962155
55.575 10.539486
55.580 10.515579
55.585 10.284603
55.590 10.435674
55.595 10.363136
55.600 9.987137
55.605 9.526602
55.610 9.409854
55.615 9.426799
55.620 9.124516
55.625 8.80165
55.630 9.290618
55.635 9.654282
55.640 10.090325
55.645 9.758606
55.650 10.007085
55.655 10.431421
55.660 10.432571
55.665 9.899036
55.670 9.779387
55.675 9.714011
55.680 9.539388
55.685 9.243924
55.690 8.886559
55.695 8.716864
55.700 9.146704
55.705 9.091127
55.710 8.983224
55.715 9.180817
55.720 9.176517
55.725 9.776972
55.730 10.03139
55.735 9.62281
55.740 9.565499
55.745 9.437263
55.750 9.855459
55.755 10.070322
55.760 10.00593
55.765 10.29633
55.770 10.544457
55.775 10.731326
55.780 11.095877
55.785 10.897166
55.790 10.502554
55.795 10.17597
55.800 9.905278
55.805 10.037903
55.810 9.679035
55.815 9.69874
55.820 9.878304
55.825 10.787231
55.830 11.383461
55.835 11.675968
55.840 11.682042
55.845 12.194044
55.850 11.792736
55.855 11.361046
55.860 10.735384
55.865 10.37126
55.870 10.14556
55.875 10.114247
55.880 10.165851
55.885 9.9679
55.890 10.075055
55.895 10.115095
55.900 9.897206
55.905 9.85498
55.910 10.116568
55.915 10.180453
55.920 10.456526
55.925 10.700573
55.930 11.013002
55.935 11.40181
55.940 11.605517
55.945 11.565573
55.950 11.501475
55.955 11.715331
55.960 11.763726
55.965 11.759109
55.970 11.836049
55.975 11.39348
55.980 10.81955
55.985 10.73726
55.990 10.078045
55.995 10.013393
56.000 9.932332
56.005 9.994012
56.010 10.574511
56.015 10.359344
56.020 10.767573
56.025 11.733412
56.030 11.868828
56.035 11.49214
56.040 10.97718
56.045 10.785675
56.050 10.920433
56.055 10.603349
56.060 9.575495
56.065 9.306473
56.070 9.256118
56.075 9.22641
56.080 9.253809
56.085 9.308445
56.090 9.471403
56.095 9.628212
56.100 9.453939
56.105 9.428578
56.110 9.869171
56.115 9.471729
56.120 9.15229
56.125 8.869128
56.130 8.567099
56.135 8.907808
56.140 9.133315
56.145 9.155441
56.150 10.241507
56.155 11.097511
56.160 12.08411
56.165 12.71043
56.170 12.345015
56.175 12.324728
56.180 11.90467
56.185 11.461103
56.190 11.398983
56.195 10.868281
56.200 11.112004
56.205 11.171655
56.210 11.18749
56.215 11.886646
56.220 11.589202
56.225 11.454447
56.230 11.381513
56.235 11.539248
56.240 11.803242
56.245 11.81399
56.250 11.679369
56.255 11.923595
56.260 11.95793
56.265 11.54121
56.270 10.99838
56.275 11.269217
56.280 11.120122
56.285 11.050706
56.290 11.38099
56.295 11.859089
56.300 12.833253
56.305 13.141953
56.310 13.097287
56.315 13.335194
56.320 12.80176
56.325 12.208919
56.330 12.08916
56.335 11.582205
56.340 11.237502
56.345 11.359802
56.350 11.535662
56.355 11.866639
56.360 11.59998
56.365 10.557813
56.370 10.730974
56.375 10.840482
56.380 10.454232
56.385 10.398896
56.390 10.456141
56.395 10.602857
56.400 11.082403
56.405 10.989021
56.410 10.560398
56.415 10.177369
56.420 9.927194
56.425 9.958482
56.430 9.851208
56.435 9.540057
56.440 9.629728
56.445 9.968681
56.450 10.209689
56.455 10.293526
56.460 10.350081
56.465 10.906162
56.470 11.073814
56.475 10.969813
56.480 11.394559
56.485 11.909225
56.490 12.789527
56.495 13.392695
56.500 13.263569
56.505 13.37597
56.510 13.041164
56.515 12.738516
56.520 12.478858
56.525 11.72878
56.530 11.181849
56.535 10.61802
56.540 10.197615
56.545 10.374693
56.550 10.675639
56.555 10.694386
56.560 11.06814
56.565 11.147395
56.570 11.503884
56.575 12.428977
56.580 12.634479
56.585 12.253276
56.590 11.849792
56.595 12.381161
56.600 12.622393
56.605 12.741343
56.610 12.146182
56.615 12.234056
56.620 12.641707
56.625 12.791849
56.630 12.067356
56.635 11.95989
56.640 11.625576
56.645 11.386946
56.650 11.10266
56.655 10.88992
56.660 10.627791
56.665 11.077525
56.670 10.841696
56.675 11.201259
56.680 11.342552
56.685 11.74187
56.690 12.103598
56.695 11.986957
56.700 11.580198
56.705 11.723765
56.710 11.523322
56.715 11.842962
56.720 11.790578
56.725 11.336921
56.730 11.515769
56.735 11.900461
56.740 11.871982
56.745 12.079051
56.750 11.980419
56.755 11.708145
56.760 11.647018
56.765 11.384239
56.770 10.994044
56.775 11.054507
56.780 11.356804
56.785 10.998916
56.790 11.055214
56.795 11.229693
56.800 11.598246
56.805 12.167354
56.810 12.217923
56.815 11.887318
56.820 11.719666
56.825 11.593595
56.830 11.60477
56.835 11.414437
56.840 11.86503
56.845 11.79878
56.850 11.714102
56.855 11.750534
56.860 11.713953
56.865 11.978988
56.870 12.209286
56.875 11.937531
56.880 11.998884
56.885 12.157134
56.890 12.483595
56.895 12.71909
56.900 12.378103
56.905 12.05436
56.910 11.737308
56.915 11.535196
56.920 11.546729
56.925 12.248074
56.930 12.430691
56.935 12.975663
56.940 13.074224
56.945 13.225765
56.950 12.891494
56.955 12.63855
56.960 12.086677
56.965 11.892491
56.970 10.915325
56.975 10.595665
56.980 10.55837
56.985 11.205961
56.990 11.582739
56.995 11.680239
57.000 11.980728
57.005 12.17102
57.010 12.439762
57.015 12.416173
57.020 12.52241
57.025 12.60084
57.030 12.381233
57.035 12.073283
57.040 11.836762
57.045 11.686892
57.050 11.869827
57.055 11.482831
57.060 11.149173
57.065 11.115072
57.070 11.260657
57.075 11.724289
57.080 11.450931
57.085 11.438947
57.090 11.422028
57.095 11.259074
57.100 11.277099
57.105 11.382058
57.110 11.778939
57.115 12.23815
57.120 12.254869
57.125 12.414698
57.130 12.756433
57.135 12.513769
57.140 12.481945
57.145 12.275341
57.150 12.606667
57.155 12.756921
57.160 12.697951
57.165 12.896662
57.170 13.48558
57.175 13.090461
57.180 12.976636
57.185 12.671835
57.190 12.843688
57.195 12.937026
57.200 12.543695
57.205 12.401969
57.210 12.718711
57.215 12.451109
57.220 12.032705
57.225 11.518971
57.230 11.476157
57.235 11.660236
57.240 11.328894
57.245 11.38308
57.250 11.708797
57.255 12.229556
57.260 12.370862
57.265 12.541745
57.270 12.712566
57.275 12.986242
57.280 12.730338
57.285 12.111426
57.290 11.815967
57.295 11.446024
57.300 11.107449
57.305 10.889467
57.310 10.674476
57.315 10.895859
57.320 11.175797
57.325 11.117996
57.330 11.302683
57.335 11.446673
57.340 11.3901
57.345 11.587619
57.350 11.743317
57.355 11.680177
57.360 12.012123
57.365 12.687248
57.370 12.850279
57.375 13.228933
57.380 13.225747
57.385 13.291016
57.390 13.578877
57.395 13.715129
57.400 13.306499
57.405 12.902015
57.410 12.741139
57.415 12.628616
57.420 12.378421
57.425 12.429571
57.430 12.064604
57.435 11.77533
57.440 11.731618
57.445 12.051282
57.450 11.7803
57.455 12.176497
57.460 11.846729
57.465 11.678365
57.470 12.025107
57.475 12.102345
57.480 12.365087
57.485 12.57016
57.490 12.488113
57.495 12.903744
57.500 13.36237
57.505 13.892871
57.510 13.77837
57.515 13.499972
57.520 14.000278
57.525 14.085667
57.530 14.106363
57.535 13.933147
57.540 13.411535
57.545 13.160373
57.550 12.88376
57.555 12.690652
57.560 12.974373
57.565 13.036489
57.570 13.149194
57.575 13.279003
57.580 13.977648
57.585 14.72421
57.590 14.535565
57.595 13.9697
57.600 13.818617
57.605 13.836424
57.610 14.21844
57.615 13.61319
57.620 12.965304
57.625 13.139817
57.630 13.189126
57.635 13.323612
57.640 12.980159
57.645 12.416266
57.650 12.771444
57.655 12.696178
57.660 12.600955
57.665 12.830552
57.670 12.627678
57.675 12.730494
57.680 12.988578
57.685 12.753284
57.690 12.939668
57.695 12.630754
57.700 12.373205
57.705 12.944344
57.710 13.903227
57.715 14.106837
57.720 13.941392
57.725 13.938176
57.730 14.124328
57.735 13.757824
57.740 12.951727
57.745 11.970492
57.750 11.962349
57.755 12.440288
57.760 12.494442
57.765 12.804298
57.770 13.373749
57.775 13.593031
57.780 13.524957
57.785 13.51178
57.790 13.087363
57.795 12.476632
57.800 12.3471
57.805 11.870296
57.810 11.811661
57.815 12.13954
57.820 12.116884
57.825 12.478168
57.830 12.559428
57.835 12.806948
57.840 13.386889
57.845 13.558663
57.850 13.02519
57.855 12.715182
57.860 12.649942
57.865 12.769786
57.870 12.698324
57.875 12.279643
57.880 11.979869
57.885 12.639881
57.890 12.706937
57.895 13.003994
57.900 13.129755
57.905 13.31292
57.910 13.913747
57.915 14.29559
57.920 14.136613
57.925 13.939844
57.930 13.865456
57.935 13.357763
57.940 13.199361
57.945 12.714307
57.950 12.748189
57.955 12.916522
57.960 12.906962
57.965 13.262048
57.970 13.172931
57.975 13.34403
57.980 13.29358
57.985 12.8592
57.990 12.929057
57.995 12.876363
58.000 12.70014
58.005 12.840762
58.010 13.065434
58.015 13.049936
58.020 12.963269
58.025 12.8908
58.030 12.838161
58.035 13.251117
58.040 13.567813
58.045 13.443673
58.050 14.261128
58.055 14.916683
58.060 15.27361
58.065 15.439552
58.070 15.386152
58.075 15.378889
58.080 15.065733
58.085 14.743007
58.090 14.068438
58.095 13.868411
58.100 13.955219
58.105 13.905915
58.110 13.712717
58.115 13.741782
58.120 13.735885
58.125 14.065361
58.130 14.183274
58.135 14.038891
58.140 14.223185
58.145 14.865028
58.150 14.924042
58.155 15.158962
58.160 15.272266
58.165 15.436453
58.170 15.782329
58.175 16.040842
58.180 15.658446
58.185 15.767063
58.190 15.9776
58.195 16.266453
58.200 15.978712
58.205 15.561177
58.210 15.465397
58.215 15.698381
58.220 15.420461
58.225 14.878096
58.230 14.143062
58.235 14.414823
58.240 14.359571
58.245 13.920554
58.250 13.871409
58.255 14.135485
58.260 14.189163
58.265 14.461281
58.270 13.974211
58.275 14.061774
58.280 14.670582
58.285 14.770501
58.290 14.570533
58.295 14.966652
58.300 15.046562
58.305 15.666611
58.310 15.307914
58.315 14.89886
58.320 15.196897
58.325 15.535859
58.330 15.324074
58.335 15.624182
58.340 15.105661
58.345 15.333655
58.350 15.56918
58.355 15.530513
58.360 15.407891
58.365 15.474813
58.370 15.599217
58.375 16.174433
58.380 16.262924
58.385 16.340893
58.390 16.050922
58.395 16.148029
58.400 16.035149
58.405 16.119345
58.410 16.026264
58.415 16.138247
58.420 16.296618
58.425 16.808542
58.430 16.695393
58.435 16.661913
58.440 16.696342
58.445 16.466463
58.450 16.558346
58.455 16.815453
58.460 17.288467
58.465 17.911209
58.470 18.257475
58.475 17.99217
58.480 18.601151
58.485 18.602962
58.490 18.989267
58.495 19.253908
58.500 19.566198
58.505 19.832293
58.510 20.223663
58.515 19.925808
58.520 19.633427
58.525 18.831682
58.530 18.370859
58.535 18.570238
58.540 18.655399
58.545 18.749783
58.550 18.81699
58.555 19.346617
58.560 19.842703
58.565 19.621529
58.570 19.148546
58.575 19.148193
58.580 19.241646
58.585 19.230492
58.590 18.619835
58.595 18.43268
58.600 18.489454
58.605 18.44206
58.610 18.584646
58.615 19.407148
58.620 20.320509
58.625 20.914961
58.630 21.123554
58.635 20.730513
58.640 20.828745
58.645 20.671329
58.650 20.138926
58.655 19.161682
58.660 19.884933
58.665 20.148083
58.670 20.503429
58.675 20.631664
58.680 20.776299
58.685 20.781708
58.690 21.333609
58.695 21.02224
58.700 20.928579
58.705 21.074339
58.710 20.716503
58.715 20.629635
58.720 21.035196
58.725 21.478754
58.730 20.838987
58.735 20.887377
58.740 20.998363
58.745 21.421295
58.750 21.726624
58.755 21.632177
58.760 21.74539
58.765 22.321373
58.770 22.46533
58.775 22.744846
58.780 22.44788
58.785 22.020273
58.790 21.92293
58.795 21.617502
58.800 21.394697
58.805 21.271898
58.810 21.522196
58.815 21.679932
58.820 21.648605
58.825 22.072718
58.830 22.388832
58.835 22.207485
58.840 22.131248
58.845 21.969019
58.850 22.177418
58.855 22.182779
58.860 21.779659
58.865 21.326124
58.870 21.519951
58.875 21.700438
58.880 21.331299
58.885 20.865044
58.890 21.105625
58.895 21.438997
58.900 21.394279
58.905 21.278625
58.910 21.186625
58.915 21.145844
58.920 20.945047
58.925 20.16098
58.930 19.802057
58.935 20.480003
58.940 20.181473
58.945 20.031685
58.950 19.783463
58.955 19.826706
58.960 20.325886
58.965 19.695936
58.970 19.25305
58.975 19.808403
58.980 19.952974
58.985 19.986423
58.990 20.456539
58.995 21.030718
59.000 21.885839
59.005 22.187645
59.010 22.219723
59.015 22.157276
59.020 22.017445
59.025 21.384203
59.030 20.600916
59.035 19.817379
59.040 19.518131
59.045 19.196058
59.050 19.472294
59.055 19.97533
59.060 19.595221
59.065 19.35202
59.070 19.569601
59.075 19.699759
59.080 19.819489
59.085 19.54657
59.090 20.029854
59.095 21.020695
59.100 21.214901
59.105 21.136839
59.110 21.152567
59.115 21.454601
59.120 21.578371
59.125 20.994678
59.130 20.135191
59.135 19.51713
59.140 19.31918
59.145 18.227379
59.150 17.528437
59.155 17.367046
59.160 17.142897
59.165 17.566595
59.170 18.031404
59.175 17.96977
59.180 18.540236
59.185 19.359913
59.190 19.172564
59.195 19.171995
59.200 18.905865
59.205 18.87509
59.210 19.341562
59.215 18.851364
59.220 18.060863
59.225 18.319862
59.230 18.288134
59.235 18.465235
59.240 18.39846
59.245 18.099392
59.250 18.264038
59.255 18.428114
59.260 18.370764
59.265 18.460186
59.270 18.650255
59.275 18.989632
59.280 19.206224
59.285 18.667233
59.290 18.606936
59.295 18.254171
59.300 18.476633
59.305 18.158554
59.310 17.715719
59.315 17.363005
59.320 17.602617
59.325 17.320606
59.330 17.437958
59.335 17.596201
59.340 17.701378
59.345 17.949903
59.350 17.829386
59.355 17.552057
59.360 18.476898
59.365 18.294439
59.370 18.442795
59.375 18.253208
59.380 17.815418
59.385 18.006683
59.390 18.550783
59.395 18.153967
59.400 18.305534
59.405 17.352999
59.410 17.247009
59.415 17.488222
59.420 17.693024
59.425 17.179583
59.430 17.255314
59.435 17.272888
59.440 18.356216
59.445 18.708826
59.450 18.231627
59.455 17.864569
59.460 17.892664
59.465 17.551355
59.470 17.323557
59.475 17.329269
59.480 17.522852
59.485 18.092312
59.490 18.522474
59.495 18.296753
59.500 18.277538
59.505 17.736927
59.510 17.187658
59.515 16.848024
59.520 16.282074
59.525 15.937099
59.530 15.98918
59.535 16.048901
59.540 16.480141
59.545 16.277987
59.550 16.264837
59.555 16.574177
59.560 16.273413
59.565 16.391008
59.570 16.801023
59.575 16.495825
59.580 15.993908
59.585 15.831658
59.590 15.510201
59.595 15.672308
59.600 15.481163
59.605 15.608769
59.610 16.357746
59.615 16.745392
59.620 16.889374
59.625 17.390364
59.630 17.324045
59.635 17.156466
59.640 16.751915
59.645 16.569496
59.650 16.91567
59.655 17.03583
59.660 17.049644
59.665 16.714025
59.670 16.563864
59.675 16.313503
59.680 15.690191
59.685 15.550384
59.690 15.249858
59.695 15.384919
59.700 16.361431
59.705 16.687904
59.710 16.990213
59.715 17.174883
59.720 17.11657
59.725 17.009428
59.730 16.675056
59.735 16.49526
59.740 16.632917
59.745 16.870905
59.750 17.596783
59.755 17.886822
59.760 17.687578
59.765 17.523993
59.770 17.453859
59.775 17.332293
59.780 17.562246
59.785 17.054955
59.790 16.832457
59.795 17.344561
59.800 17.938822
59.805 17.523691
59.810 16.984859
59.815 16.524759
59.820 16.542971
59.825 16.728584
59.830 16.573383
59.835 15.94465
59.840 16.151295
59.845 16.439999
59.850 16.038145
59.855 15.514826
59.860 15.350078
59.865 15.999228
59.870 16.674894
59.875 16.83082
59.880 16.971985
59.885 17.025478
59.890 17.224152
59.895 16.915001
59.900 15.8658
59.905 15.017012
59.910 14.893944
59.915 14.940896
59.920 14.868122
59.925 15.031034
59.930 15.337844
59.935 15.950157
59.940 16.092314
59.945 15.481757
59.950 15.585734
59.955 16.288324
59.960 16.635639
59.965 16.524349
59.970 16.5839
59.975 16.86462
59.980 17.21027
59.985 17.736822
59.990 17.719296
59.995 17.526056
60.000 17.669559
60.005 17.671656
60.010 17.645857
60.015 17.136597
60.020 16.282368
60.025 15.837964
60.030 15.828321
60.035 15.359917
60.040 15.195201
60.045 15.500227
60.050 16.055075
60.055 16.129297
60.060 16.247585
60.065 16.238688
60.070 16.54534
60.075 16.309454
60.080 16.012566
60.085 15.275798
60.090 14.927818
60.095 14.361308
60.100 14.129562
60.105 13.836043
60.110 13.707319
60.115 13.799659
60.120 14.48892
60.125 14.739622
60.130 14.855157
60.135 14.413144
60.140 14.500459
60.145 14.469097
60.150 14.654578
60.155 14.374719
60.160 14.35145
60.165 14.713297
60.170 15.45155
60.175 15.499635
60.180 15.754284
60.185 15.205861
60.190 15.341851
60.195 15.038975
60.200 14.9946
60.205 14.866853
60.210 14.556134
60.215 14.569781
60.220 14.842453
60.225 14.538594
60.230 14.965255
60.235 14.830392
60.240 15.16194
60.245 15.808352
60.250 15.471141
60.255 15.431355
60.260 15.415637
60.265 15.105268
60.270 15.057739
60.275 14.63547
60.280 14.599791
60.285 15.05539
60.290 14.566731
60.295 14.554322
60.300 14.143671
60.305 14.187201
60.310 14.172302
60.315 13.804155
60.320 13.687237
60.325 13.775651
60.330 13.356642
60.335 13.697494
60.340 13.532112
60.345 13.242183
60.350 13.641808
60.355 13.877492
60.360 14.476292
60.365 14.671584
60.370 14.759082
60.375 15.090446
60.380 15.761122
60.385 15.705519
60.390 16.103228
60.395 17.100302
60.400 17.921455
60.405 17.673719
60.410 17.524622
60.415 17.594294
60.420 17.304111
60.425 16.759499
60.430 15.850957
60.435 15.337689
60.440 14.958718
60.445 14.344172
60.450 13.513751
60.455 13.775167
60.460 13.771631
60.465 13.832934
60.470 13.853861
60.475 14.386414
60.480 14.879765
60.485 14.972512
60.490 14.632258
60.495 14.583458
60.500 14.35432
60.505 14.72511
60.510 14.809192
60.515 15.135955
60.520 15.314984
60.525 15.617328
60.530 15.593524
60.535 15.195745
60.540 15.146014
60.545 15.4148
60.550 15.751249
60.555 15.413606
60.560 14.986989
60.565 15.231993
60.570 15.749049
60.575 15.939639
60.580 15.535166
60.585 15.202427
60.590 15.675724
60.595 15.622248
60.600 15.443185
60.605 15.285909
60.610 14.430661
60.615 13.950506
60.620 13.865489
60.625 13.89084
60.630 13.94311
60.635 13.982759
60.640 14.659077
60.645 15.175726
60.650 15.232549
60.655 14.582948
60.660 14.513902
60.665 14.407209
60.670 14.771459
60.675 14.944012
60.680 14.865183
60.685 15.311222
60.690 15.957131
60.695 15.974011
60.700 15.883886
60.705 15.598919
60.710 14.786096
60.715 14.889642
60.720 14.762151
60.725 14.475539
60.730 14.182673
60.735 14.540447
60.740 14.38422
60.745 14.089799
60.750 14.158981
60.755 13.851444
60.760 14.304343
60.765 14.996622
60.770 14.861856
60.775 15.140699
60.780 15.26295
60.785 15.2328
60.790 15.550301
60.795 15.744182
60.800 15.685922
60.805 15.808136
60.810 16.261602
60.815 16.91497
60.820 16.649059
60.825 16.335453
60.830 15.483011
60.835 15.146377
60.840 15.217761
60.845 15.279106
60.850 15.618061
60.855 15.755006
60.860 15.204748
60.865 15.080171
60.870 15.26948
60.875 14.798872
60.880 13.755793
60.885 13.565222
60.890 14.126352
60.895 14.912587
60.900 15.743788
60.905 15.4231
60.910 15.821414
60.915 16.239346
60.920 16.306231
60.925 16.216763
60.930 15.92427
60.935 15.556603
60.940 15.828878
60.945 15.525538
60.950 15.462141
60.955 14.997708
60.960 14.851821
60.965 14.968633
60.970 14.9318
60.975 15.086411
60.980 15.607507
60.985 15.511783
60.990 15.645148
60.995 15.845277
61.000 16.090626
61.005 16.414782
61.010 16.242304
61.015 15.451505
61.020 15.23698
61.025 15.296361
61.030 14.917321
61.035 14.710229
61.040 14.123062
61.045 14.217779
61.050 14.427878
61.055 14.124674
61.060 14.174039
61.065 14.300424
61.070 14.205867
61.075 14.297927
61.080 14.214194
61.085 14.450884
61.090 14.66256
61.095 13.977589
61.100 13.720484
61.105 13.890059
61.110 13.901711
61.115 14.202754
61.120 14.057733
61.125 15.099348
61.130 15.734721
61.135 16.073795
61.140 15.783208
61.145 16.161917
61.150 15.659657
61.155 15.734982
61.160 15.371243
61.165 15.273929
61.170 15.354262
61.175 15.35209
61.180 15.488544
61.185 16.060776
61.190 15.763836
61.195 15.634721
61.200 15.915607
61.205 16.175821
61.210 16.843113
61.215 16.59137
61.220 16.520185
61.225 16.44396
61.230 16.089745
61.235 15.802164
61.240 15.014326
61.245 14.675267
61.250 14.842456
61.255 14.837052
61.260 14.93529
61.265 15.076548
61.270 15.220439
61.275 15.872516
61.280 15.632924
61.285 15.307222
61.290 15.434924
61.295 15.725618
61.300 16.073977
61.305 15.896134
61.310 15.654833
61.315 15.587283
61.320 15.352285
61.325 14.741279
61.330 14.387391
61.335 14.174662
61.340 14.532556
61.345 14.692633
61.350 14.815993
61.355 15.267494
61.360 16.276657
61.365 16.38159
61.370 15.989424
61.375 15.774339
61.380 15.986924
61.385 16.190107
61.390 15.915124
61.395 15.272879
61.400 15.340073
61.405 15.490333
61.410 15.05195
61.415 14.717715
61.420 14.696157
61.425 14.831109
61.430 15.060517
61.435 15.244336
61.440 15.33137
61.445 15.652915
61.450 15.83376
61.455 15.835207
61.460 16.070347
61.465 15.690718
61.470 15.952213
61.475 15.670771
61.480 15.562848
61.485 15.017578
61.490 15.008731
61.495 14.546357
61.500 14.650628
61.505 14.032188
61.510 14.080956
61.515 14.727232
61.520 14.96604
61.525 14.448085
61.530 14.516367
61.535 14.34461
61.540 14.6351
61.545 14.576997
61.550 14.075108
61.555 14.27232
61.560 14.687257
61.565 15.027122
61.570 15.238437
61.575 15.712324
61.580 16.20245
61.585 16.476978
61.590 16.304325
61.595 16.11796
61.600 16.051643
61.605 16.408165
61.610 15.982104
61.615 15.800397
61.620 15.483883
61.625 15.734899
61.630 15.930301
61.635 16.24876
61.640 15.733719
61.645 15.702831
61.650 15.759858
61.655 16.001068
61.660 16.106274
61.665 15.675903
61.670 15.496076
61.675 15.823395
61.680 15.965174
61.685 15.63271
61.690 14.79575
61.695 14.489179
61.700 14.310053
61.705 14.103062
61.710 13.207106
61.715 12.753036
61.720 13.056861
61.725 13.415093
61.730 13.802388
61.735 14.30752
61.740 14.328284
61.745 15.046154
61.750 15.750318
61.755 15.618143
61.760 15.79831
61.765 15.542249
61.770 15.475518
61.775 15.763961
61.780 15.508038
61.785 15.040899
61.790 14.944705
61.795 14.86065
61.800 14.97368
61.805 15.407219
61.810 16.325958
61.815 16.868181
61.820 16.620724
61.825 16.830709
61.830 17.042629
61.835 16.934465
61.840 16.606943
61.845 15.667932
61.850 15.524673
61.855 15.796094
61.860 15.71738
61.865 16.37981
61.870 16.573195
61.875 16.493132
61.880 16.924963
61.885 17.42988
61.890 18.003937
61.895 18.158018
61.900 17.586521
61.905 17.114578
61.910 17.637785
61.915 17.082211
61.920 16.917799
61.925 16.665182
61.930 16.206985
61.935 16.181131
61.940 16.107643
61.945 15.77529
61.950 15.642564
61.955 15.773608
61.960 15.138962
61.965 14.899985
61.970 14.689934
61.975 14.8828
61.980 14.579317
61.985 14.606083
61.990 13.974096
61.995 14.349489
62.000 15.470742
62.005 16.687586
62.010 16.669847
62.015 16.251802
62.020 16.343801
62.025 16.515493
62.030 16.569374
62.035 15.36766
62.040 14.631497
62.045 14.886762
62.050 15.298086
62.055 15.051875
62.060 15.414437
62.065 15.778012
62.070 16.434895
62.075 16.187315
62.080 16.072945
62.085 16.076731
62.090 16.460995
62.095 16.152725
62.100 15.696994
62.105 15.438532
62.110 15.401903
62.115 15.293642
62.120 15.364848
62.125 15.021324
62.130 14.841968
62.135 15.278872
62.140 15.257301
62.145 15.15549
62.150 15.024633
62.155 15.041583
62.160 14.877855
62.165 15.36179
62.170 14.891225
62.175 14.855328
62.180 14.572589
62.185 14.478346
62.190 14.297518
62.195 14.089361
62.200 14.373096
62.205 14.757101
62.210 14.989867
62.215 15.495137
62.220 16.084412
62.225 16.389997
62.230 16.476778
62.235 16.031332
62.240 15.370807
62.245 14.740012
62.250 14.364769
62.255 14.211688
62.260 14.304152
62.265 14.643871
62.270 14.435298
62.275 15.203482
62.280 15.991486
62.285 16.227974
62.290 15.903009
62.295 15.820726
62.300 15.919879
62.305 16.044668
62.310 15.64355
62.315 15.350127
62.320 15.644296
62.325 16.127531
62.330 16.226038
62.335 16.096861
62.340 16.315094
62.345 16.391745
62.350 16.323254
62.355 15.775192
62.360 15.25696
62.365 15.34227
62.370 15.208421
62.375 15.103943
62.380 15.199437
62.385 15.255514
62.390 15.810028
62.395 16.225714
62.400 16.065577
62.405 15.853768
62.410 15.744841
62.415 15.707297
62.420 15.480476
62.425 14.877272
62.430 14.809117
62.435 15.169835
62.440 15.54497
62.445 15.671283
62.450 15.883237
62.455 16.002493
62.460 16.391125
62.465 16.434231
62.470 16.559917
62.475 16.664005
62.480 16.576637
62.485 16.377024
62.490 16.790657
62.495 17.185482
62.500 17.260048
62.505 17.115065
62.510 16.901798
62.515 16.517973
62.520 16.496176
62.525 16.093958
62.530 15.370504
62.535 14.809209
62.540 14.380678
62.545 14.356647
62.550 14.041044
62.555 13.27422
62.560 13.119125
62.565 13.515402
62.570 14.27632
62.575 14.719946
62.580 14.778201
62.585 15.657681
62.590 16.346796
62.595 17.071236
62.600 17.042181
62.605 16.459101
62.610 16.27438
62.615 16.092951
62.620 15.839926
62.625 15.952876
62.630 15.405729
62.635 15.200567
62.640 14.764573
62.645 14.884613
62.650 15.458982
62.655 15.487366
62.660 14.936062
62.665 15.025308
62.670 15.918038
62.675 16.152433
62.680 15.560705
62.685 15.154703
62.690 15.760647
62.695 16.235727
62.700 15.541974
62.705 14.653986
62.710 14.949592
62.715 15.73704
62.720 16.204235
62.725 15.638403
62.730 15.373281
62.735 15.600388
62.740 15.860229
62.745 16.422846
62.750 16.79694
62.755 16.660257
62.760 17.102552
62.765 17.790796
62.770 17.914782
62.775 17.741899
62.780 17.515896
62.785 16.861336
62.790 16.752375
62.795 16.283978
62.800 15.907386
62.805 15.845927
62.810 15.426962
62.815 15.046879
62.820 15.285741
62.825 15.415472
62.830 15.460919
62.835 16.177839
62.840 16.948845
62.845 16.957893
62.850 16.908279
62.855 16.289061
62.860 16.551344
62.865 16.938547
62.870 16.259661
62.875 15.915957
62.880 16.494411
62.885 16.435286
62.890 16.065201
62.895 16.176769
62.900 15.763535
62.905 15.419847
62.910 15.35018
62.915 15.366792
62.920 15.57727
62.925 15.853804
62.930 15.783673
62.935 16.226522
62.940 16.41782
62.945 16.12285
62.950 15.735481
62.955 15.808294
62.960 15.715578
62.965 15.477399
62.970 15.479504
62.975 16.022594
62.980 15.887032
62.985 16.130911
62.990 16.1299
62.995 16.119953
63.000 15.939328
63.005 15.535019
63.010 15.566518
63.015 15.975766
63.020 15.783034
63.025 15.756366
63.030 16.024992
63.035 16.140665
63.040 16.309351
63.045 15.933955
63.050 15.885528
63.055 15.655877
63.060 16.101448
63.065 16.11743
63.070 16.283697
63.075 16.324493
63.080 16.490063
63.085 16.184229
63.090 16.324903
63.095 15.923921
63.100 16.183908
63.105 16.139822
63.110 16.311098
63.115 16.431013
63.120 16.753387
63.125 16.852924
63.130 16.627068
63.135 16.099995
63.140 15.705457
63.145 15.199599
63.150 15.1308
63.155 14.889016
63.160 14.851404
63.165 15.391407
63.170 16.31451
63.175 16.765169
63.180 17.500854
63.185 17.578495
63.190 17.568398
63.195 17.650101
63.200 17.386866
63.205 16.809834
63.210 16.905989
63.215 16.058994
63.220 16.364889
63.225 16.976288
63.230 17.200415
63.235 17.104475
63.240 17.699114
63.245 17.236023
63.250 17.432608
63.255 17.366419
63.260 17.12396
63.265 16.799746
63.270 16.870623
63.275 16.218771
63.280 15.998811
63.285 16.333971
63.290 16.489918
63.295 16.567417
63.300 17.031618
63.305 17.110798
63.310 17.853945
63.315 18.927832
63.320 18.120382
63.325 17.51856
63.330 17.076942
63.335 17.214075
63.340 17.29162
63.345 16.552446
63.350 16.346148
63.355 16.69363
63.360 17.128428
63.365 17.57906
63.370 16.87182
63.375 16.654079
63.380 17.071064
63.385 17.147039
63.390 17.023943
63.395 17.203106
63.400 16.914865
63.405 17.119415
63.410 16.96471
63.415 16.640478
63.420 16.489141
63.425 16.798107
63.430 16.693882
63.435 16.879246
63.440 16.857347
63.445 17.395967
63.450 17.314959
63.455 17.080177
63.460 17.052567
63.465 16.963076
63.470 16.915358
63.475 16.924381
63.480 16.466948
63.485 16.757908
63.490 16.98432
63.495 16.491674
63.500 16.544643
63.505 16.50835
63.510 16.790783
63.515 17.198694
63.520 17.190485
63.525 17.275793
63.530 17.540592
63.535 17.926743
63.540 17.748713
63.545 17.489946
63.550 17.174671
63.555 16.623066
63.560 16.145472
63.565 16.45846
63.570 16.147346
63.575 16.670799
63.580 16.141973
63.585 16.134256
63.590 16.433355
63.595 16.11167
63.600 16.133497
63.605 16.607126
63.610 16.539431
63.615 16.670954
63.620 16.654789
63.625 16.88143
63.630 17.71488
63.635 17.353399
63.640 16.905329
63.645 16.744793
63.650 17.577179
63.655 17.677311
63.660 18.195541
63.665 18.399498
63.670 18.23122
63.675 18.179981
63.680 17.969893
63.685 18.181938
63.690 18.400999
63.695 17.693609
63.700 16.962118
63.705 16.722639
63.710 17.304758
63.715 17.765528
63.720 17.563623
63.725 16.95393
63.730 16.744699
63.735 17.269028
63.740 17.564514
63.745 16.723776
63.750 15.931902
63.755 15.696342
63.760 15.918607
63.765 16.037603
63.770 15.976071
63.775 16.194548
63.780 16.61021
63.785 16.997938
63.790 16.9643
63.795 17.472588
63.800 17.777411
63.805 17.295807
63.810 17.374718
63.815 17.686533
63.820 17.281038
63.825 17.251633
63.830 16.776327
63.835 16.907387
63.840 17.60112
63.845 17.529257
63.850 17.443621
63.855 17.725075
63.860 17.552914
63.865 17.597328
63.870 17.629486
63.875 17.96883
63.880 18.006371
63.885 18.128824
63.890 18.683426
63.895 18.946854
63.900 19.475637
63.905 20.20903
63.910 20.376314
63.915 21.115364
63.920 21.062048
63.925 21.004852
63.930 21.530975
63.935 21.453962
63.940 20.98753
63.945 20.170313
63.950 19.13895
63.955 19.230577
63.960 19.809452
63.965 19.846169
63.970 19.721685
63.975 20.006819
63.980 20.535095
63.985 20.535538
63.990 20.40222
63.995 19.919548
64.000 20.30913
64.005 20.15971
64.010 20.291386
64.015 20.591347
64.020 20.960806
64.025 20.817719
64.030 20.564713
64.035 20.590569
64.040 21.275229
64.045 21.138006
64.050 21.420288
64.055 21.433647
64.060 21.406551
64.065 21.593262
64.070 21.697012
64.075 22.140066
64.080 22.283401
64.085 22.128189
64.090 22.530935
64.095 23.161074
64.100 23.422232
64.105 22.749317
64.110 21.456268
64.115 21.468395
64.120 21.477894
64.125 21.381416
64.130 21.35203
64.135 21.69875
64.140 21.888464
64.145 22.266605
64.150 22.884359
64.155 23.43339
64.160 22.520342
64.165 21.933952
64.170 21.209867
64.175 21.300516
64.180 21.274694
64.185 20.497961
64.190 19.82888
64.195 20.593376
64.200 20.627979
64.205 20.975018
64.210 21.439783
64.215 20.977251
64.220 20.950014
64.225 21.208366
64.230 21.545193
64.235 21.316826
64.240 21.175482
64.245 21.027723
64.250 21.369644
64.255 22.216425
64.260 22.820711
64.265 22.625275
64.270 22.959646
64.275 22.967918
64.280 22.985212
64.285 23.452194
64.290 23.073294
64.295 22.621628
64.300 22.941942
64.305 22.976677
64.310 22.94252
64.315 23.048433
64.320 22.771645
64.325 22.988241
64.330 22.632723
64.335 22.142073
64.340 21.971684
64.345 22.116081
64.350 22.72748
64.355 23.286516
64.360 24.38662
64.365 25.383387
64.370 25.654535
64.375 26.540037
64.380 26.519411
64.385 26.483641
64.390 26.132145
64.395 25.186598
64.400 25.284628
64.405 25.406349
64.410 25.174789
64.415 25.131905
64.420 24.256329
64.425 23.733973
64.430 23.716532
64.435 23.769314
64.440 24.183084
64.445 24.963243
64.450 25.440569
64.455 26.05064
64.460 26.696487
64.465 26.991325
64.470 26.819139
64.475 26.365957
64.480 25.874666
64.485 25.78475
64.490 25.681988
64.495 25.682114
64.500 25.140623
64.505 24.556995
64.510 24.59564
64.515 24.483072
64.520 24.472555
64.525 24.598005
64.530 24.506788
64.535 24.844845
64.540 25.312265
64.545 25.055286
64.550 24.517813
64.555 24.717775
64.560 24.530542
64.565 24.423595
64.570 24.076778
64.575 24.389824
64.580 25.057816
64.585 25.273985
64.590 24.710051
64.595 24.180397
64.600 24.45162
64.605 25.242037
64.610 25.299511
64.615 24.905035
64.620 25.308752
64.625 25.383051
64.630 25.861691
64.635 25.50098
64.640 24.903
64.645 24.889482
64.650 24.575193
64.655 24.105373
64.660 24.282753
64.665 24.260069
64.670 24.906836
64.675 25.009127
64.680 25.063835
64.685 25.065451
64.690 24.392302
64.695 24.056538
64.700 23.517704
64.705 23.35474
64.710 23.317652
64.715 23.376965
64.720 23.622795
64.725 24.109356
64.730 24.207293
64.735 24.049837
64.740 23.534948
64.745 23.841185
64.750 23.417791
64.755 23.743595
64.760 24.334801
64.765 24.452967
64.770 23.983818
64.775 23.426483
64.780 22.441378
64.785 22.438459
64.790 22.110764
64.795 21.876318
64.800 21.522717
64.805 22.012514
64.810 22.772095
64.815 22.573584
64.820 22.756878
64.825 23.108032
64.830 23.044693
64.835 23.515348
64.840 23.773985
64.845 23.201267
64.850 23.004126
64.855 22.670288
64.860 22.060524
64.865 21.670588
64.870 20.979891
64.875 20.553898
64.880 21.616102
64.885 22.531059
64.890 22.387667
64.895 22.401226
64.900 22.499477
64.905 23.227186
64.910 23.494818
64.915 22.744465
64.920 21.795706
64.925 21.446276
64.930 21.647118
64.935 22.152754
64.940 22.117748
64.945 21.979538
64.950 22.783279
64.955 23.804417
64.960 24.399303
64.965 24.996244
64.970 25.14572
64.975 25.080118
64.980 24.982328
64.985 23.97097
64.990 23.509392
64.995 23.736977
65.000 23.661858
65.005 22.905729
65.010 22.812874
65.015 23.108484
65.020 23.936085
65.025 24.153322
65.030 23.266474
65.035 22.899567
65.040 23.006247
65.045 22.740347
65.050 22.411283
65.055 21.939217
65.060 21.841625
65.065 22.387814
65.070 22.187035
65.075 22.938036
65.080 23.525103
65.085 23.618795
65.090 23.949768
65.095 24.077963
65.100 24.307892
65.105 24.412794
65.110 23.473579
65.115 23.172653
65.120 23.202311
65.125 22.747534
65.130 22.452192
65.135 21.935173
65.140 21.998133
65.145 22.243191
65.150 22.420559
65.155 22.777559
65.160 23.723135
65.165 24.026482
65.170 24.414494
65.175 25.104702
65.180 25.48634
65.185 25.264009
65.190 24.445236
65.195 24.033009
65.200 23.802826
65.205 23.642336
65.210 23.219591
65.215 23.287878
65.220 23.063211
65.225 23.34507
65.230 23.471365
65.235 23.517515
65.240 23.528463
65.245 22.972197
65.250 22.70772
65.255 22.982862
65.260 22.640289
65.265 21.694109
65.270 21.327965
65.275 21.098644
65.280 21.164177
65.285 21.220097
65.290 20.993456
65.295 21.201176
65.300 21.553854
65.305 21.938944
65.310 21.973484
65.315 21.912844
65.320 21.474239
65.325 21.475657
65.330 21.094597
65.335 20.714161
65.340 20.06146
65.345 20.714254
65.350 21.714394
65.355 22.011164
65.360 22.390131
65.365 22.818428
65.370 23.177191
65.375 23.294056
65.380 22.404388
65.385 21.901001
65.390 21.991791
65.395 21.724564
65.400 21.452425
65.405 21.212395
65.410 21.55961
65.415 22.050964
65.420 21.786171
65.425 21.503454
65.430 21.660408
65.435 21.987274
65.440 22.208248
65.445 21.822275
65.450 21.882107
65.455 21.838455
65.460 21.554996
65.465 21.422663
65.470 21.732075
65.475 21.800913
65.480 21.70837
65.485 21.054075
65.490 21.150677
65.495 21.23332
65.500 21.292858
65.505 21.0026
65.510 21.321901
65.515 21.661562
65.520 22.117708
65.525 21.981495
65.530 22.224611
65.535 22.224892
65.540 22.566059
65.545 22.549982
65.550 22.718279
65.555 22.886309
65.560 23.15033
65.565 23.539751
65.570 23.352438
65.575 23.630548
65.580 23.9142
65.585 23.560049
65.590 23.371492
65.595 23.267794
65.600 22.552353
65.605 22.348701
65.610 21.546152
65.615 21.076157
65.620 21.115095
65.625 21.382393
65.630 21.679298
65.635 22.198812
65.640 22.566236
65.645 23.244032
65.650 23.230434
65.655 23.96813
65.660 24.024298
65.665 24.395596
65.670 24.586977
65.675 24.813511
65.680 25.000711
65.685 24.750517
65.690 24.320284
65.695 24.14534
65.700 23.614235
65.705 23.276688
65.710 22.862244
65.715 21.977962
65.720 22.520891
65.725 22.53569
65.730 22.719032
65.735 22.975643
65.740 23.231571
65.745 23.442741
65.750 23.831411
65.755 24.129536
65.760 24.272722
65.765 24.20244
65.770 24.565102
65.775 24.054993
65.780 23.74855
65.785 24.454941
65.790 25.124998
65.795 25.528957
65.800 25.729052
65.805 26.217201
65.810 26.976139
65.815 27.436909
65.820 27.43191
65.825 26.90522
65.830 26.756895
65.835 26.267466
65.840 26.420982
65.845 26.471947
65.850 26.444838
65.855 26.596952
65.860 26.941708
65.865 27.119551
65.870 27.784172
65.875 27.383606
65.880 27.548948
65.885 27.375198
65.890 27.263971
65.895 27.364727
65.900 28.05232
65.905 28.0366
65.910 27.869247
65.915 28.278635
65.920 28.324471
65.925 27.859062
65.930 27.243187
65.935 26.807699
65.940 26.829544
65.945 26.877699
65.950 27.330372
65.955 27.866838
65.960 28.670393
65.965 29.59017
65.970 30.230122
65.975 29.99662
65.980 30.037912
65.985 29.958824
65.990 30.272947
65.995 31.049623
66.000 31.219734
66.005 31.661034
66.010 32.017933
66.015 31.982862
66.020 32.16386
66.025 32.072334
66.030 32.072769
66.035 31.750757
66.040 31.288982
66.045 32.072124
66.050 32.440205
66.055 32.061016
66.060 32.898075
66.065 33.893776
66.070 34.212944
66.075 34.748184
66.080 35.121647
66.085 35.452087
66.090 35.842339
66.095 35.50111
66.100 35.205093
66.105 36.19548
66.110 37.2033
66.115 37.47485
66.120 37.953564
66.125 38.320351
66.130 37.906364
66.135 38.19976
66.140 38.04361
66.145 36.762379
66.150 36.035877
66.155 35.823803
66.160 35.466663
66.165 36.080772
66.170 36.116611
66.175 35.86525
66.180 36.811974
66.185 37.278202
66.190 37.40609
66.195 37.827305
66.200 38.26479
66.205 38.329971
66.210 38.915627
66.215 38.815517
66.220 39.332928
66.225 40.058079
66.230 39.889065
66.235 39.430408
66.240 38.837181
66.245 38.073032
66.250 38.151524
66.255 38.189991
66.260 38.469883
66.265 38.642517
66.270 39.341515
66.275 40.656738
66.280 41.063309
66.285 40.996025
66.290 40.789902
66.295 40.203991
66.300 39.651054
66.305 39.944263
66.310 39.256813
66.315 39.124832
66.320 38.991592
66.325 38.817665
66.330 39.058365
66.335 38.681747
66.340 38.446064
66.345 38.679905
66.350 38.424953
66.355 38.917217
66.360 39.198799
66.365 38.966923
66.370 40.310547
66.375 39.784927
66.380 39.934425
66.385 40.447182
66.390 39.584251
66.395 38.772892
66.400 39.18306
66.405 38.419109
66.410 37.713909
66.415 36.673325
66.420 35.934593
66.425 35.399891
66.430 34.68959
66.435 34.335484
66.440 34.106663
66.445 34.144329
66.450 34.295021
66.455 34.725151
66.460 35.337421
66.465 36.021385
66.470 35.840405
66.475 35.370258
66.480 35.025345
66.485 34.642422
66.490 33.92107
66.495 33.862358
66.500 33.282967
66.505 32.856682
66.510 32.353474
66.515 31.54446
66.520 30.876869
66.525 30.601894
66.530 29.218639
66.535 28.356613
66.540 27.766577
66.545 28.277201
66.550 28.337076
66.555 28.091209
66.560 27.666847
66.565 27.812605
66.570 28.259752
66.575 27.977947
66.580 26.761488
66.585 25.847656
66.590 25.146542
66.595 25.121796
66.600 25.146496
66.605 24.447147
66.610 24.320232
66.615 23.818451
66.620 23.987885
66.625 24.625576
66.630 23.889736
66.635 23.209856
66.640 22.719967
66.645 22.722454
66.650 22.541029
66.655 21.8151
66.660 20.923409
66.665 20.316435
66.670 19.662237
66.675 19.814831
66.680 19.884176
66.685 20.223976
66.690 20.370474
66.695 20.112568
66.700 20.655548
66.705 21.940472
66.710 21.70005
66.715 21.382074
66.720 21.130957
66.725 20.851433
66.730 20.676903
66.735 20.495277
66.740 20.043585
66.745 19.662867
66.750 19.485912
66.755 19.587469
66.760 20.198965
66.765 20.583694
66.770 20.72924
66.775 20.374472
66.780 20.738205
66.785 20.389498
66.790 20.349737
66.795 20.049538
66.800 19.840851
66.805 19.764547
66.810 20.16221
66.815 20.25886
66.820 20.288378
66.825 20.292406
66.830 19.665716
66.835 19.930719
66.840 20.010096
66.845 19.823732
66.850 20.282799
66.855 20.334595
66.860 20.240162
66.865 20.025454
66.870 20.114969
66.875 19.995125
66.880 19.809488
66.885 19.097609
66.890 18.73834
66.895 18.618469
66.900 18.682756
66.905 17.950157
66.910 18.038435
66.915 18.071049
66.920 17.702532
66.925 17.768597
66.930 17.824863
66.935 17.971951
66.940 18.444191
66.945 18.161636
66.950 18.260063
66.955 18.986603
66.960 19.026396
66.965 19.252394
66.970 18.909231
66.975 19.010065
66.980 18.958637
66.985 18.791821
66.990 18.694725
66.995 18.757648
67.000 19.040859
67.005 19.049852
67.010 18.802177
67.015 19.365686
67.020 19.325214
67.025 19.337547
67.030 18.960442
67.035 18.723301
67.040 19.021198
67.045 19.040611
67.050 18.956093
67.055 18.818865
67.060 18.818558
67.065 19.202135
67.070 19.499399
67.075 19.741396
67.080 19.989128
67.085 19.807774
67.090 20.102337
67.095 19.996647
67.100 19.886301
67.105 19.673534
67.110 19.52713
67.115 19.733114
67.120 19.98546
67.125 19.672062
67.130 19.715435
67.135 19.363152
67.140 19.229378
67.145 19.401043
67.150 19.442398
67.155 19.002985
67.160 18.919107
67.165 19.028509
67.170 18.949226
67.175 18.582932
67.180 17.8326
67.185 17.197849
67.190 17.174076
67.195 17.003555
67.200 16.301926
67.205 16.398979
67.210 16.636824
67.215 16.812191
67.220 17.532177
67.225 18.103374
67.230 18.62483
67.235 18.937441
67.240 19.557592
67.245 19.965727
67.250 19.590166
67.255 19.310911
67.260 19.619358
67.265 19.748373
67.270 20.113779
67.275 19.588226
67.280 19.51865
67.285 19.922602
67.290 20.013145
67.295 19.286304
67.300 18.791773
67.305 18.178747
67.310 18.680065
67.315 18.605679
67.320 18.334236
67.325 17.898756
67.330 17.906071
67.335 18.31554
67.340 18.075718
67.345 16.927795
67.350 16.641703
67.355 16.778234
67.360 16.702761
67.365 16.479967
67.370 16.348577
67.375 17.046698
67.380 17.765312
67.385 18.369228
67.390 18.430462
67.395 18.615898
67.400 18.508474
67.405 18.504509
67.410 18.474869
67.415 18.309702
67.420 17.858641
67.425 18.214939
67.430 18.136541
67.435 18.466318
67.440 18.038591
67.445 18.159029
67.450 17.650497
67.455 17.329788
67.460 16.993895
67.465 16.879477
67.470 17.617125
67.475 18.025486
67.480 18.003708
67.485 18.446043
67.490 18.392929
67.495 19.026312
67.500 19.430893
67.505 18.943562
67.510 18.668051
67.515 18.690216
67.520 19.12829
67.525 19.182598
67.530 18.297646
67.535 17.608374
67.540 17.378227
67.545 17.480869
67.550 17.232367
67.555 16.868198
67.560 16.968958
67.565 17.074453
67.570 17.600121
67.575 17.917109
67.580 18.36886
67.585 18.528927
67.590 18.656988
67.595 19.275648
67.600 19.904839
67.605 19.812332
67.610 19.685158
67.615 19.072144
67.620 18.888029
67.625 19.028435
67.630 18.70875
67.635 18.575571
67.640 18.473923
67.645 18.665808
67.650 18.575834
67.655 18.494396
67.660 18.618183
67.665 18.665377
67.670 18.722967
67.675 18.73698
67.680 18.920414
67.685 19.196407
67.690 19.370754
67.695 19.519793
67.700 19.638571
67.705 20.070873
67.710 20.275982
67.715 20.627304
67.720 20.674795
67.725 19.907455
67.730 19.471672
67.735 19.262949
67.740 18.67333
67.745 18.442045
67.750 18.26803
67.755 18.11393
67.760 18.738667
67.765 18.702738
67.770 18.399847
67.775 18.090063
67.780 17.773983
67.785 17.098934
67.790 17.160307
67.795 16.928816
67.800 16.672613
67.805 16.76016
67.810 17.010561
67.815 16.664957
67.820 16.838491
67.825 16.599291
67.830 16.405319
67.835 16.470812
67.840 16.454922
67.845 16.479271
67.850 17.155905
67.855 17.444883
67.860 17.468163
67.865 17.648956
67.870 17.276846
67.875 17.407637
67.880 17.282541
67.885 17.049313
67.890 16.874889
67.895 17.039553
67.900 17.791422
67.905 17.993202
67.910 18.11743
67.915 18.325583
67.920 17.955399
67.925 17.964951
67.930 18.169052
67.935 18.286716
67.940 18.46249
67.945 18.61035
67.950 18.748112
67.955 19.769302
67.960 20.119965
67.965 20.107136
67.970 20.282217
67.975 20.201265
67.980 19.913908
67.985 19.421288
67.990 18.93125
67.995 18.718729
68.000 18.346571
68.005 17.65274
68.010 18.038147
68.015 18.972309
68.020 19.59824
68.025 19.307362
68.030 19.098173
68.035 18.834612
68.040 18.859346
68.045 18.148489
68.050 17.685255
68.055 17.247288
68.060 17.349257
68.065 17.713039
68.070 18.467716
68.075 19.121466
68.080 19.288885
68.085 19.414984
68.090 19.51186
68.095 19.489614
68.100 19.21043
68.105 19.053362
68.110 18.446405
68.115 18.650946
68.120 18.456242
68.125 18.276461
68.130 18.321407
68.135 18.514595
68.140 18.265501
68.145 18.508291
68.150 18.280945
68.155 18.360102
68.160 18.244816
68.165 18.472916
68.170 18.710808
68.175 18.761103
68.180 18.650595
68.185 18.569647
68.190 19.002298
68.195 19.409019
68.200 19.538008
68.205 19.128725
68.210 18.001966
68.215 17.40485
68.220 16.800526
68.225 16.187378
68.230 16.724798
68.235 16.942259
68.240 17.338333
68.245 18.344337
68.250 19.011375
68.255 19.702875
68.260 19.517523
68.265 18.392994
68.270 17.723402
68.275 17.131145
68.280 17.198647
68.285 17.87278
68.290 17.611696
68.295 18.010866
68.300 18.456381
68.305 19.10043
68.310 19.759644
68.315 19.339924
68.320 19.008749
68.325 19.026123
68.330 19.098019
68.335 19.232523
68.340 19.423635
68.345 19.279724
68.350 19.306009
68.355 18.739754
68.360 18.578962
68.365 18.323368
68.370 18.097673
68.375 17.445951
68.380 17.564425
68.385 18.258259
68.390 18.923042
68.395 19.310822
68.400 19.206434
68.405 19.418385
68.410 19.900501
68.415 19.93009
68.420 20.438683
68.425 20.520784
68.430 20.329411
68.435 20.411854
68.440 20.451513
68.445 20.395899
68.450 20.072197
68.455 19.06419
68.460 18.87253
68.465 18.752161
68.470 18.171181
68.475 17.805391
68.480 18.238619
68.485 18.169209
68.490 18.39126
68.495 18.612154
68.500 18.620478
68.505 19.033619
68.510 18.854237
68.515 18.395725
68.520 18.418629
68.525 18.314863
68.530 18.263199
68.535 18.334429
68.540 18.443855
68.545 18.419245
68.550 18.089722
68.555 18.07128
68.560 17.987953
68.565 17.827816
68.570 18.106331
68.575 18.351358
68.580 18.789131
68.585 19.062607
68.590 19.085728
68.595 18.989395
68.600 18.731503
68.605 18.377773
68.610 18.371292
68.615 18.554817
68.620 18.778683
68.625 18.769983
68.630 19.077204
68.635 19.326447
68.640 19.615561
68.645 19.299282
68.650 18.726192
68.655 18.810909
68.660 18.610504
68.665 18.445276
68.670 18.60074
68.675 19.008158
68.680 19.73905
68.685 20.474289
68.690 20.427425
68.695 21.142431
68.700 21.035664
68.705 20.859669
68.710 20.169834
68.715 19.40049
68.720 18.732435
68.725 19.184628
68.730 19.291101
68.735 19.339376
68.740 19.450136
68.745 19.768593
68.750 19.828465
68.755 19.903927
68.760 19.193268
68.765 18.871624
68.770 19.625036
68.775 19.222494
68.780 19.441269
68.785 19.86997
68.790 19.993988
68.795 19.974192
68.800 19.49037
68.805 18.918461
68.810 19.315804
68.815 18.871595
68.820 18.669312
68.825 19.302372
68.830 20.592936
68.835 21.328268
68.840 21.322554
68.845 21.326571
68.850 21.390575
68.855 20.57263
68.860 19.904554
68.865 19.268478
68.870 18.666433
68.875 18.60277
68.880 18.945007
68.885 19.126495
68.890 19.221767
68.895 19.876169
68.900 20.306229
68.905 21.444597
68.910 21.43022
68.915 21.394297
68.920 22.155344
68.925 22.806683
68.930 21.948183
68.935 21.466417
68.940 20.696659
68.945 20.412441
68.950 20.360628
68.955 20.119961
68.960 20.178667
68.965 20.4163
68.970 20.974771
68.975 21.646889
68.980 21.468117
68.985 21.486059
68.990 21.719906
68.995 21.531502
69.000 21.706253
69.005 21.335732
69.010 20.734514
69.015 21.026531
69.020 20.800903
69.025 20.785574
69.030 21.23036
69.035 21.220182
69.040 21.659395
69.045 22.135347
69.050 22.24283
69.055 22.492218
69.060 22.044075
69.065 21.481842
69.070 21.187775
69.075 21.077467
69.080 21.068678
69.085 21.585581
69.090 22.017006
69.095 22.451239
69.100 23.620674
69.105 24.633204
69.110 24.691626
69.115 24.735525
69.120 24.668131
69.125 25.391277
69.130 25.1632
69.135 24.498316
69.140 24.292488
69.145 24.554447
69.150 25.317551
69.155 25.514219
69.160 24.746828
69.165 25.435272
69.170 26.135574
69.175 26.584738
69.180 27.568617
69.185 27.267506
69.190 26.900141
69.195 27.021755
69.200 26.800985
69.205 27.010332
69.210 27.216206
69.215 27.074554
69.220 27.506651
69.225 28.641045
69.230 29.04207
69.235 29.791649
69.240 29.612589
69.245 29.858429
69.250 30.035223
69.255 29.36759
69.260 29.479458
69.265 30.288084
69.270 30.059069
69.275 30.007526
69.280 30.154129
69.285 30.667847
69.290 30.577085
69.295 29.966183
69.300 29.424042
69.305 29.722574
69.310 30.317841
69.315 29.530867
69.320 29.576656
69.325 30.482519
69.330 31.146063
69.335 31.201487
69.340 30.808086
69.345 31.497797
69.350 32.863094
69.355 33.099445
69.360 33.295094
69.365 32.742592
69.370 33.789616
69.375 34.704189
69.380 34.228973
69.385 33.270828
69.390 32.759697
69.395 33.114796
69.400 33.438732
69.405 32.916199
69.410 33.104065
69.415 33.960728
69.420 35.069775
69.425 36.073627
69.430 35.939041
69.435 36.409557
69.440 37.126797
69.445 36.954746
69.450 36.739033
69.455 37.104538
69.460 36.545593
69.465 36.611622
69.470 35.929886
69.475 35.214752
69.480 35.322906
69.485 35.256893
69.490 35.498432
69.495 36.042416
69.500 36.146942
69.505 35.732159
69.510 35.973255
69.515 35.977135
69.520 35.319672
69.525 34.26524
69.530 33.802013
69.535 33.936481
69.540 34.607357
69.545 34.859982
69.550 34.677792
69.555 34.533871
69.560 34.966759
69.565 34.738598
69.570 35.898945
69.575 36.957596
69.580 36.834705
69.585 37.331676
69.590 37.261696
69.595 37.106674
69.600 36.934841
69.605 35.298306
69.610 33.640774
69.615 33.694317
69.620 33.767731
69.625 33.872658
69.630 34.130116
69.635 34.886894
69.640 35.482582
69.645 35.249432
69.650 34.130196
69.655 33.795673
69.660 33.339355
69.665 32.629124
69.670 31.498388
69.675 31.530832
69.680 32.212833
69.685 32.508877
69.690 32.359051
69.695 32.109535
69.700 31.948116
69.705 32.412899
69.710 31.640594
69.715 31.606482
69.720 31.348711
69.725 30.657673
69.730 30.365047
69.735 30.398993
69.740 29.889847
69.745 30.247448
69.750 29.767017
69.755 29.721062
69.760 29.799025
69.765 28.798294
69.770 28.126387
69.775 28.196194
69.780 27.807993
69.785 28.062754
69.790 27.979845
69.795 28.352386
69.800 28.934107
69.805 28.117781
69.810 27.203531
69.815 27.019405
69.820 26.13991
69.825 25.66239
69.830 25.309542
69.835 25.579943
69.840 25.974257
69.845 25.293337
69.850 24.706629
69.855 24.656605
69.860 24.596754
69.865 24.287964
69.870 24.116806
69.875 24.629534
69.880 24.299566
69.885 24.168333
69.890 24.413685
69.895 23.955095
69.900 23.077545
69.905 22.914244
69.910 22.472303
69.915 23.575544
69.920 23.82023
69.925 24.093124
69.930 24.338808
69.935 24.645636
69.940 23.918182
69.945 23.129274
69.950 22.75502
69.955 22.577003
69.960 21.673237
69.965 21.753025
69.970 22.068869
69.975 22.539215
69.980 23.042839
69.985 22.786074
69.990 22.790062
69.995 22.54384
70.000 22.132267
70.005 21.429255
70.010 20.416262
70.015 19.906622
70.020 19.834772
70.025 19.874723
70.030 20.075516
70.035 19.851746
70.040 20.249762
70.045 20.43754
70.050 20.072201
70.055 20.085577
70.060 19.435701
70.065 19.026598
70.070 19.061407
70.075 18.836641
70.080 19.29925
70.085 19.525005
70.090 19.597675
70.095 20.076126
70.100 20.297287
70.105 19.821951
70.110 20.254196
70.115 19.941065
70.120 19.481434
70.125 19.007559
70.130 19.030243
70.135 19.21932
70.140 19.102659
70.145 18.743439
70.150 19.31706
70.155 20.005203
70.160 20.196951
70.165 19.721807
70.170 20.186226
70.175 21.0509
70.180 20.945681
70.185 20.378166
70.190 20.481037
70.195 20.576147
70.200 20.694178
70.205 19.705547
70.210 19.397726
70.215 19.731697
70.220 20.05007
70.225 19.582277
70.230 19.760466
70.235 19.471132
70.240 19.464821
70.245 19.515148
70.250 19.424604
70.255 19.121431
70.260 19.145937
70.265 19.08037
70.270 19.412674
70.275 19.648056
70.280 19.23785
70.285 19.125378
70.290 19.580809
70.295 19.691204
70.300 19.42275
70.305 19.775124
70.310 19.429064
70.315 19.246531
70.320 19.237892
70.325 18.68471
70.330 18.547543
70.335 18.597179
70.340 18.479259
70.345 18.996506
70.350 18.930492
70.355 19.145241
70.360 19.185507
70.365 19.476753
70.370 18.959917
70.375 18.055136
70.380 18.130648
70.385 18.192909
70.390 17.581005
70.395 16.837236
70.400 16.381105
70.405 17.022211
70.410 17.204538
70.415 16.825277
70.420 16.717987
70.425 17.288881
70.430 18.20842
70.435 18.673061
70.440 18.884941
70.445 18.863155
70.450 18.752333
70.455 18.102932
70.460 18.102598
70.465 17.629171
70.470 17.705559
70.475 17.753393
70.480 17.654789
70.485 18.01325
70.490 18.309288
70.495 18.262209
70.500 18.019049
70.505 17.779078
70.510 17.272432
70.515 17.463816
70.520 17.730558
70.525 18.002699
70.530 17.842733
70.535 17.753515
70.540 17.543663
70.545 18.612818
70.550 18.567219
70.555 18.914206
70.560 19.102942
70.565 19.618425
70.570 19.717119
70.575 19.826138
70.580 19.361458
70.585 18.579638
70.590 18.848282
70.595 19.381119
70.600 18.913214
70.605 18.891342
70.610 18.742527
70.615 18.559113
70.620 18.861172
70.625 18.108335
70.630 17.946503
70.635 18.172466
70.640 18.902235
70.645 18.936905
70.650 18.970144
70.655 19.001175
70.660 19.28384
70.665 18.548321
70.670 17.854609
70.675 17.17399
70.680 17.161085
70.685 17.098358
70.690 16.757879
70.695 16.482105
70.700 16.706318
70.705 16.668159
70.710 16.474163
70.715 16.904951
70.720 17.218002
70.725 17.241032
70.730 17.600142
70.735 17.707039
70.740 18.234695
70.745 18.809599
70.750 18.502836
70.755 18.177002
70.760 17.790833
70.765 17.748993
70.770 18.275455
70.775 18.088518
70.780 17.624527
70.785 17.478701
70.790 17.943607
70.795 18.276199
70.800 18.58593
70.805 18.011526
70.810 17.408821
70.815 17.505787
70.820 18.430014
70.825 18.563478
70.830 18.232855
70.835 17.429226
70.840 17.762291
70.845 18.684061
70.850 18.235594
70.855 17.058748
70.860 17.025023
70.865 17.256779
70.870 18.058182
70.875 17.450031
70.880 17.026867
70.885 16.809389
70.890 16.933596
70.895 17.350609
70.900 16.838766
70.905 16.972858
70.910 17.648539
70.915 17.964497
70.920 18.72617
70.925 18.814058
70.930 19.147619
70.935 19.584341
70.940 19.326988
70.945 19.032196
70.950 18.836548
70.955 18.541883
70.960 17.65312
70.965 17.37328
70.970 16.992464
70.975 17.572618
70.980 17.94693
70.985 18.263521
70.990 18.353731
70.995 18.897804
71.000 18.84782
71.005 18.966301
71.010 18.707939
71.015 18.941402
71.020 19.448473
71.025 19.764395
71.030 19.624722
71.035 19.679543
71.040 19.662752
71.045 19.423492
71.050 19.187008
71.055 18.661978
71.060 17.973541
71.065 17.789894
71.070 18.098579
71.075 17.58577
71.080 17.230038
71.085 17.066442
71.090 17.152117
71.095 17.41946
71.100 17.630394
71.105 17.383989
71.110 17.198858
71.115 17.185192
71.120 16.974228
71.125 16.299105
71.130 16.116577
71.135 15.825585
71.140 15.837502
71.145 16.315065
71.150 16.449022
71.155 16.67621
71.160 17.174175
71.165 17.190981
71.170 17.448864
71.175 17.360228
71.180 17.591965
71.185 17.516275
71.190 17.584373
71.195 18.16028
71.200 18.0366
71.205 17.688463
71.210 17.852816
71.215 18.311628
71.220 17.947411
71.225 17.781973
71.230 17.183796
71.235 17.407055
71.240 17.507351
71.245 16.636393
71.250 16.439367
71.255 16.411121
71.260 15.818396
71.265 15.896093
71.270 15.295759
71.275 15.469996
71.280 15.649941
71.285 15.78052
71.290 16.51281
71.295 17.291281
71.300 17.699495
71.305 18.640585
71.310 18.957197
71.315 19.181488
71.320 18.821318
71.325 18.665394
71.330 18.829899
71.335 18.267977
71.340 18.193636
71.345 17.877905
71.350 18.001015
71.355 18.409403
71.360 18.339294
71.365 18.610609
71.370 18.811136
71.375 18.484911
71.380 18.316441
71.385 18.074003
71.390 17.744213
71.395 17.501669
71.400 17.100418
71.405 17.377159
71.410 17.281116
71.415 17.210972
71.420 17.477283
71.425 17.509922
71.430 17.418392
71.435 17.848076
71.440 17.729132
71.445 18.108042
71.450 18.528526
71.455 18.29368
71.460 18.558386
71.465 18.858734
71.470 18.404713
71.475 18.199436
71.480 17.886272
71.485 17.796833
71.490 17.88217
71.495 17.992521
71.500 17.335579
71.505 17.447731
71.510 17.380587
71.515 17.45488
71.520 17.36376
71.525 17.368923
71.530 17.21455
71.535 18.030617
71.540 18.068962
71.545 17.992622
71.550 17.935699
71.555 17.544214
71.560 17.161901
71.565 16.927229
71.570 16.608749
71.575 16.254204
71.580 15.958979
71.585 16.028645
71.590 15.945374
71.595 16.210852
71.600 16.226189
71.605 16.312159
71.610 16.985498
71.615 17.010344
71.620 17.091522
71.625 17.490229
71.630 17.470034
71.635 17.807453
71.640 17.549587
71.645 17.128817
71.650 17.106735
71.655 17.211569
71.660 17.116243
71.665 17.504709
71.670 17.267366
71.675 17.275139
71.680 17.785578
71.685 18.036945
71.690 17.402964
71.695 17.455652
71.700 17.466694
71.705 17.721567
71.710 17.608818
71.715 17.661659
71.720 17.77132
71.725 17.826658
71.730 17.136877
71.735 16.674629
71.740 16.932104
71.745 16.916454
71.750 16.531109
71.755 15.897143
71.760 16.704281
71.765 17.05566
71.770 16.897087
71.775 16.899807
71.780 17.310709
71.785 17.510098
71.790 17.700285
71.795 17.095062
71.800 16.548689
71.805 16.5261
71.810 15.950699
71.815 15.870995
71.820 16.190439
71.825 16.033319
71.830 15.998625
71.835 16.697498
71.840 17.337351
71.845 17.924896
71.850 18.080454
71.855 18.190037
71.860 18.020697
71.865 18.267828
71.870 17.337622
71.875 17.398638
71.880 17.246777
71.885 17.034241
71.890 17.193377
71.895 17.274609
71.900 17.529699
71.905 17.985685
71.910 17.553204
71.915 17.661755
71.920 17.938528
71.925 17.912821
71.930 17.678089
71.935 17.845274
71.940 17.413351
71.945 17.352463
71.950 17.034117
71.955 16.594582
71.960 16.615511
71.965 16.649412
71.970 16.435009
71.975 16.75209
71.980 16.481768
71.985 16.752787
71.990 17.035393
71.995 17.513134
72.000 17.311251
72.005 17.434256
72.010 17.059959
72.015 17.101131
72.020 17.645164
72.025 18.006487
72.030 17.8997
72.035 17.795902
72.040 17.80055
72.045 17.551628
72.050 17.216444
72.055 16.937193
72.060 16.639977
72.065 16.9641
72.070 16.744799
72.075 17.045609
72.080 17.629145
72.085 17.659111
72.090 17.146507
72.095 17.169914
72.100 17.496534
72.105 18.276464
72.110 18.351076
72.115 18.089134
72.120 17.992857
72.125 18.205317
72.130 18.327826
72.135 18.499664
72.140 18.390272
72.145 18.130127
72.150 17.826576
72.155 17.974718
72.160 17.880568
72.165 16.965912
72.170 16.719738
72.175 16.452766
72.180 16.697201
72.185 17.15609
72.190 17.246099
72.195 17.576115
72.200 17.741756
72.205 17.479057
72.210 17.202602
72.215 16.878647
72.220 16.594292
72.225 15.981166
72.230 16.025389
72.235 15.797414
72.240 15.985069
72.245 16.074751
72.250 16.209927
72.255 16.760698
72.260 17.284773
72.265 16.805418
72.270 17.338591
72.275 17.881445
72.280 18.002748
72.285 17.999762
72.290 18.410427
72.295 18.525997
72.300 18.639812
72.305 18.517431
72.310 18.362516
72.315 18.935751
72.320 18.514008
72.325 18.051159
72.330 17.809711
72.335 18.505726
72.340 18.450796
72.345 18.814156
72.350 18.601593
72.355 18.5662
72.360 18.545036
72.365 18.720488
72.370 18.016455
72.375 18.057673
72.380 17.649809
72.385 16.722696
72.390 16.548613
72.395 16.178123
72.400 15.930747
72.405 16.473635
72.410 15.801147
72.415 16.140791
72.420 17.04714
72.425 17.025545
72.430 16.838087
72.435 16.906496
72.440 16.939625
72.445 17.523336
72.450 17.266758
72.455 16.887007
72.460 16.829693
72.465 17.491833
72.470 17.259233
72.475 17.194822
72.480 17.408327
72.485 17.871643
72.490 18.512423
72.495 18.777636
72.500 18.65027
72.505 18.53759
72.510 18.230742
72.515 17.915899
72.520 17.856308
72.525 18.120615
72.530 17.727976
72.535 18.193695
72.540 18.816681
72.545 18.481665
72.550 18.325857
72.555 17.662775
72.560 17.157196
72.565 17.123377
72.570 16.725492
72.575 16.679873
72.580 17.282589
72.585 17.341436
72.590 17.609684
72.595 17.631929
72.600 17.587027
72.605 17.236765
72.610 16.907377
72.615 16.753586
72.620 17.241301
72.625 17.501856
72.630 17.217169
72.635 17.405272
72.640 17.476139
72.645 17.427359
72.650 17.068445
72.655 16.449278
72.660 15.665481
72.665 15.619439
72.670 15.957
72.675 16.327349
72.680 16.309387
72.685 16.154594
72.690 16.835527
72.695 17.297165
72.700 17.639921
72.705 17.468786
72.710 17.329948
72.715 17.403519
72.720 17.715542
72.725 17.497902
72.730 17.664341
72.735 16.661926
72.740 16.234503
72.745 16.127741
72.750 15.907676
72.755 15.305468
72.760 15.035093
72.765 14.919186
72.770 15.955228
72.775 16.016146
72.780 15.874006
72.785 15.73127
72.790 16.677181
72.795 17.044456
72.800 16.910625
72.805 16.444626
72.810 16.142778
72.815 16.190813
72.820 16.489716
72.825 16.084515
72.830 16.442675
72.835 16.433025
72.840 16.099512
72.845 16.174801
72.850 16.279539
72.855 15.701848
72.860 14.83641
72.865 14.772272
72.870 14.842978
72.875 15.031266
72.880 14.913443
72.885 14.8103
72.890 14.943382
72.895 14.915674
72.900 14.735716
72.905 15.20809
72.910 15.12934
72.915 15.056648
72.920 15.241958
72.925 15.607094
72.930 15.763217
72.935 15.600481
72.940 15.642537
72.945 15.86238
72.950 15.925424
72.955 15.940516
72.960 16.056793
72.965 15.731029
72.970 15.874894
72.975 16.052145
72.980 16.188141
72.985 16.404993
72.990 16.320953
72.995 16.448231
73.000 16.452984
