!@!!GADDS PLOTSO FILE: Chi integration type
!@!!Title/SampleName: map-134
!@!!Comment: ?
!@!!User: Bruker Instrument Administrator
!@!!Site: University of Illinois Chicago
!@!!Frame: map-134_01_000.gfrm
!@!!Wavelengths    1.54184   1.54056   1.54439
!@!!Frame angles: 2Theta: 63.000 Omega: 50.000 Phi: 0.000 Chi: 90.000
!@!!Integration range: 2Theta: 53.000 to 73.000  Gamma: -105.000 to -75.000
!@!!Integration method: bin normalized
!@!N
!@!SS
!@!M
!@!L 0.0 0.0 0.0 0.0
!@!XDegrees
!@!YCounts
53.000 3.114033
53.005 3.420772
53.010 3.745031
53.015 4.096653
53.020 4.234956
53.025 4.753149
53.030 4.6858
53.035 4.556179
53.040 4.397933
53.045 4.353874
53.050 4.237749
53.055 4.057255
53.060 3.810421
53.065 3.884681
53.070 3.769269
53.075 3.892074
53.080 3.806023
53.085 3.81038
53.090 3.525822
53.095 3.495125
53.100 3.466488
53.105 3.690686
53.110 3.678499
53.115 3.776961
53.120 3.740013
53.125 3.987257
53.130 4.042092
53.135 3.968728
53.140 3.670623
53.145 3.567347
53.150 3.682577
53.155 4.267197
53.160 4.28238
53.165 4.199929
53.170 4.241526
53.175 4.52177
53.180 4.509684
53.185 4.351915
53.190 3.765969
53.195 3.697668
53.200 3.590906
53.205 3.485333
53.210 3.442558
53.215 3.333457
53.220 3.611491
53.225 3.577342
53.230 3.633685
53.235 3.616275
53.240 3.531874
53.245 3.207282
53.250 2.963289
53.255 2.96129
53.260 2.889932
53.265 3.02954
53.270 3.267449
53.275 3.331619
53.280 3.567594
53.285 3.878406
53.290 4.176273
53.295 4.525775
53.300 4.477106
53.305 4.34123
53.310 4.242255
53.315 4.075453
53.320 3.891527
53.325 3.698464
53.330 3.64811
53.335 3.719126
53.340 4.088318
53.345 4.29786
53.350 4.36163
53.355 4.158545
53.360 4.473407
53.365 4.441554
53.370 4.504751
53.375 4.345281
53.380 4.451284
53.385 4.769503
53.390 4.600304
53.395 4.645697
53.400 4.691098
53.405 4.540177
53.410 4.722859
53.415 4.923536
53.420 4.959219
53.425 4.958085
53.430 4.651397
53.435 4.419825
53.440 4.457757
53.445 4.153224
53.450 3.511796
53.455 3.39187
53.460 3.719126
53.465 3.779426
53.470 3.806491
53.475 3.784142
53.480 4.024218
53.485 4.146688
53.490 4.297403
53.495 4.020947
53.500 3.939574
53.505 3.989219
53.510 4.033078
53.515 4.236187
53.520 4.226835
53.525 4.117925
53.530 4.167347
53.535 4.210528
53.540 4.346842
53.545 4.055025
53.550 3.868369
53.555 3.700565
53.560 3.676634
53.565 3.618504
53.570 3.579423
53.575 3.336029
53.580 3.561359
53.585 3.627953
53.590 3.644483
53.595 3.710771
53.600 3.736961
53.605 3.896043
53.610 3.912804
53.615 3.54549
53.620 3.817357
53.625 4.109445
53.630 3.897774
53.635 3.785752
53.640 3.735003
53.645 3.769637
53.650 3.79597
53.655 3.403248
53.660 3.244652
53.665 3.505889
53.670 3.649117
53.675 3.728988
53.680 3.732733
53.685 3.926351
53.690 3.878144
53.695 3.85457
53.700 3.68591
53.705 3.511792
53.710 3.327592
53.715 3.479561
53.720 3.452987
53.725 3.750585
53.730 3.97053
53.735 4.065429
53.740 4.107235
53.745 4.321212
53.750 4.403476
53.755 4.388116
53.760 4.303635
53.765 4.442637
53.770 4.360366
53.775 4.201288
53.780 4.02695
53.785 4.079005
53.790 3.986526
53.795 4.094436
53.800 4.307014
53.805 4.456878
53.810 4.785198
53.815 4.797239
53.820 4.476242
53.825 4.472152
53.830 4.340981
53.835 3.939263
53.840 3.880409
53.845 3.619155
53.850 3.473453
53.855 3.733767
53.860 3.91974
53.865 4.02564
53.870 4.366611
53.875 4.597416
53.880 4.538304
53.885 4.596108
53.890 4.436991
53.895 4.152645
53.900 4.033682
53.905 3.726806
53.910 3.760176
53.915 3.898348
53.920 4.006507
53.925 4.002831
53.930 4.1676
53.935 4.002582
53.940 3.873091
53.945 3.707451
53.950 3.465707
53.955 3.322579
53.960 3.324904
53.965 3.214709
53.970 3.346327
53.975 3.727828
53.980 3.77884
53.985 3.932326
53.990 4.124274
53.995 4.673835
54.000 4.838791
54.005 4.566822
54.010 4.443648
54.015 4.514606
54.020 4.863379
54.025 4.779622
54.030 4.272232
54.035 4.30637
54.040 4.077132
54.045 4.056188
54.050 4.043336
54.055 3.520059
54.060 3.37219
54.065 3.527065
54.070 3.673433
54.075 3.881102
54.080 3.872568
54.085 3.779912
54.090 4.089288
54.095 4.327502
54.100 4.630844
54.105 4.584632
54.110 4.704733
54.115 4.913392
54.120 4.98257
54.125 4.769434
54.130 4.518443
54.135 4.180815
54.140 4.445908
54.145 4.627982
54.150 4.537215
54.155 4.564012
54.160 4.778871
54.165 4.763694
54.170 4.796867
54.175 4.403032
54.180 4.10625
54.185 4.014504
54.190 3.937414
54.195 3.686274
54.200 3.524896
54.205 3.487685
54.210 3.703818
54.215 3.923203
54.220 4.012419
54.225 4.034327
54.230 4.177143
54.235 4.379896
54.240 4.585114
54.245 4.453857
54.250 4.1452
54.255 4.096758
54.260 4.20719
54.265 4.230166
54.270 4.28975
54.275 4.355869
54.280 4.884877
54.285 5.063592
54.290 5.19335
54.295 5.409954
54.300 5.660613
54.305 5.632873
54.310 5.634477
54.315 5.551124
54.320 5.36617
54.325 5.246346
54.330 5.223532
54.335 4.928113
54.340 4.894341
54.345 4.6295
54.350 4.723702
54.355 4.586372
54.360 4.762696
54.365 4.878519
54.370 4.778807
54.375 4.959309
54.380 5.126737
54.385 4.91847
54.390 5.112974
54.395 4.962267
54.400 5.031745
54.405 5.530599
54.410 5.530245
54.415 5.123661
54.420 5.372456
54.425 5.483669
54.430 5.36716
54.435 5.154638
54.440 4.806904
54.445 4.953434
54.450 5.342421
54.455 5.208211
54.460 4.968273
54.465 4.933141
54.470 5.012353
54.475 5.001817
54.480 4.584512
54.485 4.67398
54.490 4.893032
54.495 5.370623
54.500 5.319619
54.505 5.262563
54.510 5.102901
54.515 5.17031
54.520 4.857591
54.525 4.459143
54.530 4.346709
54.535 4.389792
54.540 4.512193
54.545 4.54193
54.550 4.714824
54.555 4.947268
54.560 5.08314
54.565 4.723567
54.570 4.525563
54.575 4.479819
54.580 4.223792
54.585 4.167253
54.590 4.212454
54.595 4.140697
54.600 4.291703
54.605 4.552421
54.610 4.566142
54.615 4.630301
54.620 4.757466
54.625 4.860138
54.630 4.728244
54.635 4.450552
54.640 4.190515
54.645 4.080392
54.650 4.086299
54.655 3.947637
54.660 4.217459
54.665 4.478805
54.670 4.782463
54.675 4.714702
54.680 4.840612
54.685 4.85337
54.690 4.294115
54.695 4.0382
54.700 3.760759
54.705 3.558328
54.710 3.7619
54.715 3.855324
54.720 4.29741
54.725 4.869213
54.730 4.988899
54.735 5.281692
54.740 5.237356
54.745 5.160199
54.750 5.028506
54.755 4.835493
54.760 4.940974
54.765 5.129043
54.770 4.894993
54.775 4.896885
54.780 5.036126
54.785 4.810331
54.790 4.535395
54.795 4.27133
54.800 4.286724
54.805 4.559707
54.810 4.783932
54.815 4.835656
54.820 5.192432
54.825 5.183819
54.830 5.039899
54.835 4.970979
54.840 5.09584
54.845 4.661107
54.850 4.386532
54.855 4.272962
54.860 4.235814
54.865 4.140573
54.870 3.88171
54.875 4.002937
54.880 4.565104
54.885 4.838324
54.890 4.641661
54.895 4.663573
54.900 4.606048
54.905 4.627222
54.910 4.266859
54.915 4.07172
54.920 3.903877
54.925 3.940248
54.930 4.066817
54.935 4.191304
54.940 4.459204
54.945 4.904345
54.950 4.931653
54.955 5.567868
54.960 5.976784
54.965 6.061863
54.970 6.247902
54.975 6.009959
54.980 5.589239
54.985 5.470877
54.990 5.015627
54.995 4.524445
55.000 4.213421
55.005 3.939301
55.010 4.03959
55.015 4.140859
55.020 4.324626
55.025 4.405955
55.030 4.555993
55.035 4.58359
55.040 4.610268
55.045 4.702767
55.050 4.843517
55.055 5.030765
55.060 5.132058
55.065 5.415815
55.070 5.664099
55.075 5.531186
55.080 5.391099
55.085 5.481242
55.090 5.354057
55.095 5.606876
55.100 5.329801
55.105 5.56812
55.110 6.045197
55.115 5.99773
55.120 6.228549
55.125 6.033985
55.130 5.700724
55.135 5.719111
55.140 5.358984
55.145 5.157108
55.150 5.398718
55.155 5.176338
55.160 5.365226
55.165 5.936809
55.170 6.23912
55.175 6.174191
55.180 6.320193
55.185 6.409991
55.190 6.375886
55.195 6.265509
55.200 5.987545
55.205 5.893223
55.210 6.227641
55.215 5.987453
55.220 5.281809
55.225 5.324344
55.230 5.585677
55.235 5.594635
55.240 5.202779
55.245 4.940252
55.250 4.731154
55.255 4.79211
55.260 4.442191
55.265 4.08007
55.270 3.898325
55.275 3.691634
55.280 3.82339
55.285 4.124998
55.290 4.515584
55.295 4.851528
55.300 4.906027
55.305 5.13002
55.310 5.825171
55.315 6.128962
55.320 6.228298
55.325 6.383853
55.330 6.208922
55.335 6.019125
55.340 6.07465
55.345 5.504984
55.350 5.208723
55.355 5.070709
55.360 4.743939
55.365 4.880239
55.370 4.914264
55.375 4.892207
55.380 5.176667
55.385 5.269555
55.390 5.40951
55.395 5.499287
55.400 5.630313
55.405 5.780586
55.410 5.752532
55.415 5.659906
55.420 5.434751
55.425 5.324642
55.430 5.287687
55.435 5.151062
55.440 5.200689
55.445 5.262004
55.450 5.619627
55.455 5.761933
55.460 5.900753
55.465 6.032359
55.470 5.996219
55.475 6.002051
55.480 5.953578
55.485 5.830277
55.490 5.908538
55.495 5.659957
55.500 5.507518
55.505 5.508885
55.510 5.211387
55.515 5.39601
55.520 5.185981
55.525 4.723771
55.530 4.566854
55.535 4.701271
55.540 4.642066
55.545 4.46994
55.550 4.303252
55.555 4.332701
55.560 4.668343
55.565 4.783062
55.570 4.84613
55.575 5.036857
55.580 5.433747
55.585 5.498533
55.590 5.753437
55.595 5.819743
55.600 5.648765
55.605 5.588897
55.610 5.508108
55.615 5.258373
55.620 5.454043
55.625 5.366006
55.630 5.121816
55.635 5.12939
55.640 5.057448
55.645 5.067081
55.650 5.171455
55.655 5.151649
55.660 5.388709
55.665 5.601471
55.670 5.637131
55.675 5.582213
55.680 5.672353
55.685 5.83477
55.690 5.72717
55.695 5.423633
55.700 5.516934
55.705 5.659914
55.710 6.064813
55.715 6.028752
55.720 5.97163
55.725 6.071313
55.730 6.24
55.735 6.457014
55.740 6.426796
55.745 6.291354
55.750 6.484137
55.755 6.352142
55.760 6.395267
55.765 6.542144
55.770 6.445304
55.775 6.627337
55.780 6.562842
55.785 6.521839
55.790 6.979665
55.795 7.044559
55.800 6.90636
55.805 6.866066
55.810 6.808468
55.815 7.116347
55.820 7.112915
55.825 6.909724
55.830 6.832241
55.835 6.933385
55.840 7.107921
55.845 7.119782
55.850 6.905887
55.855 6.673947
55.860 6.411929
55.865 6.641481
55.870 6.137259
55.875 5.74393
55.880 5.591557
55.885 5.628328
55.890 5.613835
55.895 5.56275
55.900 5.313666
55.905 5.679943
55.910 5.837255
55.915 5.942333
55.920 5.978404
55.925 6.030087
55.930 6.120122
55.935 6.214807
55.940 6.183894
55.945 6.514602
55.950 6.624429
55.955 6.336296
55.960 6.396687
55.965 6.390209
55.970 6.3804
55.975 6.049081
55.980 5.588909
55.985 5.822599
55.990 6.31581
55.995 6.423113
56.000 6.242132
56.005 6.202069
56.010 6.484148
56.015 6.522681
56.020 6.099508
56.025 5.716411
56.030 5.344144
56.035 5.323263
56.040 5.454242
56.045 5.543074
56.050 5.416556
56.055 5.585997
56.060 5.668989
56.065 5.889432
56.070 5.8357
56.075 5.717423
56.080 5.532274
56.085 5.38464
56.090 5.218646
56.095 5.278729
56.100 5.32792
56.105 5.524628
56.110 5.256239
56.115 5.385397
56.120 5.366701
56.125 5.452173
56.130 5.71204
56.135 5.772314
56.140 5.952096
56.145 6.129309
56.150 6.220298
56.155 6.321066
56.160 6.329089
56.165 6.122002
56.170 6.454949
56.175 6.324075
56.180 6.055362
56.185 6.23631
56.190 6.083652
56.195 5.795276
56.200 5.508683
56.205 4.975198
56.210 4.925791
56.215 5.175132
56.220 4.759376
56.225 5.065662
56.230 5.501013
56.235 5.945078
56.240 6.368998
56.245 6.251881
56.250 6.453216
56.255 6.852186
56.260 6.639084
56.265 6.951547
56.270 6.762938
56.275 6.599611
56.280 6.64799
56.285 6.514622
56.290 6.755369
56.295 6.659824
56.300 6.089226
56.305 6.10686
56.310 5.885768
56.315 5.905806
56.320 6.127652
56.325 5.487608
56.330 5.772302
56.335 5.861988
56.340 5.803506
56.345 5.940286
56.350 5.854207
56.355 5.538028
56.360 5.639714
56.365 5.419472
56.370 5.826324
56.375 6.056837
56.380 6.326418
56.385 6.370411
56.390 6.214893
56.395 6.259097
56.400 6.315234
56.405 6.342454
56.410 6.309362
56.415 6.173523
56.420 6.037302
56.425 6.280014
56.430 6.148041
56.435 5.691331
56.440 4.980474
56.445 4.681286
56.450 4.629448
56.455 4.767981
56.460 4.588226
56.465 4.65883
56.470 4.906704
56.475 5.723964
56.480 6.034101
56.485 5.970995
56.490 6.189249
56.495 6.302522
56.500 6.332935
56.505 6.307665
56.510 5.465009
56.515 5.268009
56.520 5.269558
56.525 5.062413
56.530 4.93001
56.535 4.749367
56.540 4.908712
56.545 5.015118
56.550 4.951892
56.555 5.075522
56.560 5.628314
56.565 6.186476
56.570 6.468144
56.575 6.513102
56.580 6.63941
56.585 6.67831
56.590 6.812165
56.595 6.560173
56.600 6.363277
56.605 6.200743
56.610 6.289176
56.615 6.5459
56.620 6.661913
56.625 6.414781
56.630 6.416065
56.635 6.715444
56.640 6.653045
56.645 6.581707
56.650 6.417433
56.655 6.489716
56.660 6.774527
56.665 6.930045
56.670 6.663284
56.675 6.631052
56.680 6.632867
56.685 6.433022
56.690 6.333061
56.695 5.70961
56.700 5.539965
56.705 6.166714
56.710 6.386778
56.715 6.758155
56.720 7.150351
56.725 7.21274
56.730 7.602829
56.735 8.255736
56.740 8.361425
56.745 8.567819
56.750 8.386553
56.755 8.296967
56.760 8.322961
56.765 8.251409
56.770 7.230283
56.775 6.530813
56.780 6.258377
56.785 6.334239
56.790 6.539084
56.795 6.710974
56.800 6.450309
56.805 6.703327
56.810 7.434763
56.815 7.548285
56.820 7.148329
56.825 6.841526
56.830 6.72258
56.835 6.823789
56.840 6.841455
56.845 6.561561
56.850 6.457072
56.855 6.648493
56.860 6.343072
56.865 6.392078
56.870 6.198427
56.875 6.048324
56.880 6.151793
56.885 6.187271
56.890 6.207028
56.895 6.253857
56.900 5.967997
56.905 5.923948
56.910 5.656606
56.915 5.261487
56.920 5.132099
56.925 5.365958
56.930 5.360121
56.935 5.448786
56.940 5.756334
56.945 5.938109
56.950 5.916141
56.955 6.014931
56.960 6.165513
56.965 6.435065
56.970 6.901228
56.975 6.713317
56.980 6.362002
56.985 6.614066
56.990 6.328247
56.995 6.282455
57.000 6.13776
57.005 6.005711
57.010 5.947927
57.015 6.173087
57.020 6.536036
57.025 6.907831
57.030 6.879786
57.035 6.944786
57.040 6.872102
57.045 6.909301
57.050 6.752602
57.055 6.524004
57.060 6.189014
57.065 6.079053
57.070 5.95882
57.075 5.804478
57.080 6.047243
57.085 6.179455
57.090 6.011287
57.095 6.314028
57.100 6.432536
57.105 6.567485
57.110 6.571346
57.115 6.80308
57.120 6.917492
57.125 6.718007
57.130 6.497563
57.135 6.322329
57.140 6.211628
57.145 6.037416
57.150 5.65776
57.155 5.733039
57.160 5.965802
57.165 6.133188
57.170 6.501075
57.175 6.745972
57.180 7.051095
57.185 7.264576
57.190 7.339622
57.195 7.51384
57.200 7.471388
57.205 7.553005
57.210 7.803266
57.215 7.948318
57.220 7.800158
57.225 7.828373
57.230 7.302106
57.235 7.197677
57.240 7.069832
57.245 6.544647
57.250 6.195884
57.255 6.053261
57.260 6.1809
57.265 6.428437
57.270 6.387373
57.275 6.553991
57.280 7.322264
57.285 7.468951
57.290 7.737662
57.295 7.844645
57.300 8.068738
57.305 7.984657
57.310 7.862573
57.315 7.6937
57.320 7.671817
57.325 7.580775
57.330 7.586525
57.335 7.595013
57.340 7.46871
57.345 7.368916
57.350 7.0611
57.355 7.450897
57.360 7.516781
57.365 7.392143
57.370 7.611071
57.375 7.788145
57.380 7.649052
57.385 7.998277
57.390 7.377206
57.395 6.901093
57.400 6.60036
57.405 6.496136
57.410 6.540572
57.415 6.43695
57.420 6.039242
57.425 6.393497
57.430 6.858013
57.435 7.094649
57.440 6.922258
57.445 6.547394
57.450 6.806337
57.455 7.148729
57.460 6.77618
57.465 7.034431
57.470 6.942325
57.475 7.110148
57.480 7.699035
57.485 7.760968
57.490 7.68889
57.495 8.071677
57.500 7.798899
57.505 7.733298
57.510 7.570173
57.515 7.272682
57.520 7.234686
57.525 7.162371
57.530 6.813438
57.535 7.297144
57.540 7.510787
57.545 7.824281
57.550 8.026945
57.555 7.979259
57.560 8.325067
57.565 8.568739
57.570 8.155308
57.575 8.004821
57.580 8.143472
57.585 8.143886
57.590 8.027164
57.595 7.954032
57.600 8.100298
57.605 8.370474
57.610 8.185165
57.615 7.637082
57.620 7.574739
57.625 7.836721
57.630 7.910083
57.635 7.886163
57.640 7.701585
57.645 8.073531
57.650 8.523838
57.655 8.732257
57.660 8.637554
57.665 8.321594
57.670 8.121289
57.675 8.034733
57.680 7.904354
57.685 7.523542
57.690 7.012032
57.695 6.732436
57.700 6.666921
57.705 6.635699
57.710 6.458045
57.715 6.259381
57.720 6.577944
57.725 6.662067
57.730 6.739882
57.735 6.448863
57.740 6.532822
57.745 6.682554
57.750 6.744641
57.755 6.603776
57.760 6.764473
57.765 6.973674
57.770 7.30745
57.775 7.521266
57.780 7.677551
57.785 7.617177
57.790 7.542325
57.795 7.365636
57.800 7.053841
57.805 7.072141
57.810 7.12766
57.815 7.212372
57.820 7.236637
57.825 7.305391
57.830 7.579974
57.835 7.932252
57.840 7.931684
57.845 8.057332
57.850 7.760676
57.855 7.974367
57.860 8.22474
57.865 8.291759
57.870 8.490403
57.875 8.383363
57.880 8.616132
57.885 8.82916
57.890 8.566511
57.895 8.554601
57.900 8.75694
57.905 8.459559
57.910 8.94617
57.915 8.90573
57.920 9.079751
57.925 9.599068
57.930 9.268513
57.935 8.974331
57.940 9.244652
57.945 8.430102
57.950 8.225424
57.955 8.242959
57.960 8.025598
57.965 8.139979
57.970 8.135436
57.975 8.152028
57.980 8.472235
57.985 8.497883
57.990 8.112686
57.995 7.815286
58.000 7.482498
58.005 7.111212
58.010 7.021924
58.015 7.025327
58.020 6.923064
58.025 7.584233
58.030 7.966704
58.035 8.033889
58.040 8.073853
58.045 8.204067
58.050 8.472345
58.055 8.455419
58.060 7.834083
58.065 7.728138
58.070 7.850716
58.075 7.815204
58.080 7.821043
58.085 7.426672
58.090 7.286916
58.095 7.741719
58.100 7.825017
58.105 8.116142
58.110 8.188086
58.115 7.895934
58.120 7.969545
58.125 8.183373
58.130 8.39861
58.135 8.365695
58.140 8.048847
58.145 8.127407
58.150 8.623826
58.155 8.794691
58.160 8.579566
58.165 8.533803
58.170 8.483888
58.175 8.474404
58.180 8.878657
58.185 8.646986
58.190 8.468319
58.195 8.431771
58.200 8.330783
58.205 8.215968
58.210 8.349976
58.215 8.152165
58.220 7.899814
58.225 7.966641
58.230 7.572006
58.235 7.396399
58.240 7.580556
58.245 7.827507
58.250 7.657108
58.255 7.364475
58.260 7.624285
58.265 8.24653
58.270 8.440729
58.275 8.543732
58.280 8.090361
58.285 8.432293
58.290 8.88113
58.295 9.000134
58.300 8.654442
58.305 8.601511
58.310 8.26883
58.315 8.356162
58.320 8.407619
58.325 8.067046
58.330 7.727889
58.335 7.862063
58.340 7.813177
58.345 8.122984
58.350 8.627616
58.355 8.959093
58.360 9.706078
58.365 10.223214
58.370 10.149091
58.375 10.390168
58.380 10.529174
58.385 10.924805
58.390 10.663317
58.395 10.046386
58.400 9.534311
58.405 9.903767
58.410 10.068316
58.415 10.018045
58.420 9.090093
58.425 9.088027
58.430 9.672616
58.435 10.026489
58.440 10.065838
58.445 10.042892
58.450 10.209347
58.455 10.174652
58.460 10.271731
58.465 10.31546
58.470 10.589124
58.475 10.856026
58.480 10.84945
58.485 11.228066
58.490 12.180766
58.495 12.509069
58.500 12.248487
58.505 12.636053
58.510 12.893146
58.515 13.648377
58.520 13.955211
58.525 14.140019
58.530 14.9384
58.535 15.146336
58.540 14.96628
58.545 14.947464
58.550 14.561414
58.555 14.495487
58.560 14.493215
58.565 14.153021
58.570 14.12488
58.575 13.829203
58.580 13.614904
58.585 13.925117
58.590 14.008089
58.595 14.033357
58.600 14.694035
58.605 14.776227
58.610 15.196074
58.615 15.415901
58.620 15.071728
58.625 15.647861
58.630 16.340704
58.635 16.50354
58.640 17.000208
58.645 17.116467
58.650 17.770687
58.655 17.823223
58.660 18.577562
58.665 18.612869
58.670 18.575502
58.675 18.799742
58.680 18.591566
58.685 18.355942
58.690 18.736494
58.695 18.220325
58.700 17.115879
58.705 16.377087
58.710 15.579323
58.715 15.640828
58.720 15.276347
58.725 15.010455
58.730 14.574434
58.735 15.234879
58.740 15.843254
58.745 16.150734
58.750 16.162767
58.755 16.351694
58.760 16.660515
58.765 16.832314
58.770 17.18659
58.775 17.04792
58.780 17.313656
58.785 17.33333
58.790 17.064793
58.795 16.946177
58.800 16.739117
58.805 15.904067
58.810 15.810017
58.815 15.58562
58.820 15.083697
58.825 14.904607
58.830 14.411304
58.835 13.780077
58.840 13.736038
58.845 13.647028
58.850 13.431016
58.855 13.425124
58.860 12.979538
58.865 12.93399
58.870 12.879938
58.875 13.033302
58.880 12.782722
58.885 12.612208
58.890 12.332726
58.895 12.224161
58.900 11.730014
58.905 11.675916
58.910 11.431002
58.915 11.391426
58.920 11.377443
58.925 11.287945
58.930 11.133472
58.935 11.346036
58.940 11.039379
58.945 10.961955
58.950 10.953143
58.955 10.959377
58.960 11.170102
58.965 10.99452
58.970 11.002501
58.975 11.026023
58.980 10.749545
58.985 10.511317
58.990 10.282286
58.995 10.003736
59.000 9.801131
59.005 9.447531
59.010 9.547069
59.015 9.736799
59.020 10.028984
59.025 10.320786
59.030 10.752466
59.035 10.809223
59.040 10.696029
59.045 10.479131
59.050 10.116529
59.055 9.667504
59.060 9.466616
59.065 9.319209
59.070 9.318902
59.075 9.679192
59.080 9.772202
59.085 9.738731
59.090 9.677199
59.095 9.861426
59.100 10.406215
59.105 10.662894
59.110 10.499796
59.115 10.28739
59.120 10.293482
59.125 10.162303
59.130 9.588059
59.135 9.133228
59.140 9.121598
59.145 8.955281
59.150 9.117071
59.155 9.053394
59.160 9.255057
59.165 9.352477
59.170 9.192305
59.175 9.231338
59.180 9.006685
59.185 8.904254
59.190 9.066038
59.195 8.636736
59.200 8.509798
59.205 8.12833
59.210 7.624697
59.215 7.280393
59.220 7.43204
59.225 7.721468
59.230 8.400989
59.235 8.751524
59.240 9.383877
59.245 9.88378
59.250 10.307927
59.255 10.32484
59.260 9.795889
59.265 9.431149
59.270 8.959215
59.275 8.879962
59.280 9.02135
59.285 8.69052
59.290 8.504707
59.295 8.960798
59.300 9.235761
59.305 9.570238
59.310 9.33653
59.315 8.874701
59.320 8.793714
59.325 8.712206
59.330 8.69964
59.335 8.520929
59.340 8.167085
59.345 8.067445
59.350 8.045885
59.355 7.971251
59.360 8.216313
59.365 8.250492
59.370 8.549167
59.375 8.923669
59.380 9.24496
59.385 9.695334
59.390 10.010303
59.395 10.102709
59.400 9.977164
59.405 9.763274
59.410 9.557022
59.415 9.387868
59.420 8.967485
59.425 8.541882
59.430 8.330721
59.435 8.376307
59.440 8.886743
59.445 9.266299
59.450 9.020617
59.455 8.69082
59.460 8.897517
59.465 9.130136
59.470 8.957187
59.475 8.296648
59.480 8.377431
59.485 8.802779
59.490 9.18156
59.495 9.048239
59.500 8.474251
59.505 8.313345
59.510 8.435786
59.515 8.163976
59.520 8.319826
59.525 8.963513
59.530 9.19502
59.535 9.234094
59.540 9.28359
59.545 9.365943
59.550 9.063824
59.555 8.601827
59.560 7.731774
59.565 7.464773
59.570 7.608626
59.575 8.006264
59.580 7.769501
59.585 7.855409
59.590 8.654493
59.595 9.132678
59.600 9.190155
59.605 9.224567
59.610 8.800455
59.615 8.589808
59.620 8.55481
59.625 7.988858
59.630 7.837646
59.635 7.762239
59.640 7.727589
59.645 7.909273
59.650 8.170735
59.655 8.319462
59.660 8.540967
59.665 8.512948
59.670 8.710129
59.675 8.648069
59.680 8.823638
59.685 8.749154
59.690 8.344913
59.695 8.34258
59.700 8.693887
59.705 8.415215
59.710 8.455803
59.715 8.420142
59.720 8.818671
59.725 9.113307
59.730 9.157056
59.735 8.908683
59.740 8.810145
59.745 9.006861
59.750 8.805837
59.755 8.885495
59.760 9.020384
59.765 8.967153
59.770 9.192472
59.775 9.171195
59.780 8.645473
59.785 8.259227
59.790 7.965934
59.795 7.949705
59.800 8.007627
59.805 7.890031
59.810 7.934953
59.815 8.171314
59.820 8.650197
59.825 8.328514
59.830 8.164296
59.835 8.319489
59.840 8.483805
59.845 8.80512
59.850 9.130058
59.855 9.05687
59.860 9.016009
59.865 8.895936
59.870 8.735734
59.875 8.683457
59.880 8.609357
59.885 8.151066
59.890 8.227593
59.895 8.686496
59.900 8.807067
59.905 9.136373
59.910 9.043202
59.915 8.84798
59.920 9.03087
59.925 9.141194
59.930 8.940637
59.935 8.516818
59.940 8.072181
59.945 7.84443
59.950 7.772502
59.955 7.836304
59.960 7.704869
59.965 7.547626
59.970 7.701262
59.975 7.965615
59.980 8.109988
59.985 8.140306
59.990 8.07281
59.995 8.152026
60.000 8.410205
60.005 8.703972
60.010 8.880089
60.015 9.14104
60.020 9.318572
60.025 9.194498
60.030 9.084382
60.035 9.204047
60.040 9.045521
60.045 8.944413
60.050 8.984867
60.055 8.747583
60.060 8.898747
60.065 8.795126
60.070 8.421034
60.075 8.436583
60.080 8.210403
60.085 8.366833
60.090 8.608967
60.095 8.815778
60.100 9.197345
60.105 9.331685
60.110 9.078259
60.115 9.015768
60.120 8.977908
60.125 8.621868
60.130 8.464898
60.135 8.157825
60.140 7.977445
60.145 8.411642
60.150 8.705004
60.155 8.479757
60.160 8.579777
60.165 8.813387
60.170 8.746512
60.175 9.051079
60.180 8.798221
60.185 8.697871
60.190 9.155169
60.195 9.332357
60.200 9.353395
60.205 9.511619
60.210 9.706435
60.215 9.779019
60.220 9.753259
60.225 9.554868
60.230 9.212621
60.235 8.742714
60.240 8.485498
60.245 8.420071
60.250 8.72213
60.255 8.590138
60.260 8.138702
60.265 8.390395
60.270 8.632579
60.275 9.028178
60.280 9.103851
60.285 8.804343
60.290 8.841814
60.295 9.411964
60.300 9.28948
60.305 9.295362
60.310 9.156895
60.315 9.055944
60.320 9.225786
60.325 9.337629
60.330 9.111618
60.335 9.227689
60.340 9.17042
60.345 9.056084
60.350 8.712431
60.355 8.445498
60.360 8.431815
60.365 8.479232
60.370 8.610579
60.375 8.800038
60.380 8.918074
60.385 8.968722
60.390 8.797295
60.395 8.615963
60.400 8.462729
60.405 8.200257
60.410 7.759264
60.415 7.859912
60.420 7.740956
60.425 7.935409
60.430 8.283248
60.435 8.236514
60.440 8.356085
60.445 8.577402
60.450 8.557423
60.455 8.71134
60.460 8.712153
60.465 8.758875
60.470 9.197134
60.475 9.572692
60.480 9.375549
60.485 9.525557
60.490 9.713855
60.495 10.059353
60.500 10.118453
60.505 9.857903
60.510 9.790728
60.515 10.234907
60.520 10.416524
60.525 10.237845
60.530 9.61555
60.535 9.307322
60.540 9.856987
60.545 9.851465
60.550 9.579338
60.555 9.052563
60.560 9.51193
60.565 9.593517
60.570 9.29678
60.575 8.784564
60.580 8.828783
60.585 8.73938
60.590 8.878724
60.595 8.498067
60.600 8.656372
60.605 9.084717
60.610 8.912519
60.615 9.041668
60.620 9.25603
60.625 9.302563
60.630 9.366971
60.635 9.489025
60.640 9.620008
60.645 9.724747
60.650 9.588155
60.655 9.40576
60.660 9.260628
60.665 9.05436
60.670 8.966256
60.675 8.895207
60.680 8.698346
60.685 8.592439
60.690 8.639038
60.695 8.98922
60.700 9.145778
60.705 9.354752
60.710 9.35401
60.715 9.366796
60.720 9.403964
60.725 9.334156
60.730 9.443729
60.735 9.647963
60.740 9.914134
60.745 10.029178
60.750 10.137025
60.755 10.228765
60.760 10.622452
60.765 10.750841
60.770 10.347211
60.775 9.822046
60.780 9.465399
60.785 9.560339
60.790 9.632553
60.795 9.223326
60.800 8.751717
60.805 9.027757
60.810 9.395404
60.815 9.639524
60.820 9.828388
60.825 9.744214
60.830 9.752897
60.835 9.623922
60.840 9.279476
60.845 9.020977
60.850 8.659986
60.855 8.354101
60.860 8.644123
60.865 9.072684
60.870 9.562697
60.875 9.786219
60.880 9.859215
60.885 10.155799
60.890 10.492878
60.895 10.01476
60.900 9.66025
60.905 9.359148
60.910 9.133941
60.915 8.657318
60.920 8.329776
60.925 8.509612
60.930 8.876004
60.935 8.896704
60.940 9.02483
60.945 9.507719
60.950 10.235616
60.955 10.606576
60.960 10.587334
60.965 10.255304
60.970 10.605697
60.975 10.16058
60.980 9.887276
60.985 9.927598
60.990 9.519831
60.995 9.069255
61.000 9.07919
61.005 8.963835
61.010 9.238686
61.015 9.325326
61.020 9.680579
61.025 9.680575
61.030 9.809756
61.035 9.671061
61.040 9.772433
61.045 9.646917
61.050 9.196255
61.055 8.729326
61.060 8.86874
61.065 8.873182
61.070 8.991543
61.075 8.965994
61.080 9.206091
61.085 9.205698
61.090 9.002707
61.095 8.872291
61.100 8.831198
61.105 8.652705
61.110 8.242208
61.115 8.266692
61.120 8.565889
61.125 8.900454
61.130 8.93945
61.135 8.863829
61.140 9.209435
61.145 9.741562
61.150 10.021247
61.155 10.008894
61.160 10.078109
61.165 10.244446
61.170 10.082324
61.175 9.783794
61.180 9.328425
61.185 8.960319
61.190 8.864883
61.195 8.617248
61.200 8.74792
61.205 9.078635
61.210 8.96066
61.215 9.503996
61.220 10.108451
61.225 10.320927
61.230 10.577964
61.235 10.275204
61.240 10.220062
61.245 10.690171
61.250 10.569011
61.255 10.224941
61.260 10.184799
61.265 10.366898
61.270 10.43499
61.275 10.458072
61.280 10.315
61.285 10.477982
61.290 10.578687
61.295 10.334505
61.300 9.742442
61.305 9.66323
61.310 9.488308
61.315 9.336806
61.320 9.273985
61.325 9.04874
61.330 8.977972
61.335 9.66082
61.340 10.024676
61.345 10.108673
61.350 10.130257
61.355 9.577222
61.360 9.721541
61.365 10.075889
61.370 9.705694
61.375 9.659569
61.380 9.554183
61.385 9.419844
61.390 9.412535
61.395 9.225104
61.400 9.118723
61.405 9.314831
61.410 9.094264
61.415 9.07907
61.420 9.284035
61.425 9.569399
61.430 9.34059
61.435 9.203081
61.440 9.095945
61.445 9.230011
61.450 9.348769
61.455 9.459264
61.460 9.120992
61.465 9.23277
61.470 9.598734
61.475 9.867863
61.480 9.847013
61.485 9.592317
61.490 9.217329
61.495 9.456526
61.500 9.605464
61.505 9.17247
61.510 8.692652
61.515 8.504754
61.520 8.599394
61.525 8.982877
61.530 9.159472
61.535 8.827918
61.540 8.88426
61.545 9.458952
61.550 9.957022
61.555 10.369283
61.560 10.262835
61.565 10.345656
61.570 10.464959
61.575 10.517795
61.580 10.317458
61.585 10.337277
61.590 9.720295
61.595 9.531067
61.600 9.632796
61.605 9.729434
61.610 10.010309
61.615 9.719309
61.620 9.630886
61.625 9.772248
61.630 9.773982
61.635 9.652603
61.640 9.568606
61.645 9.805485
61.650 9.775457
61.655 9.822629
61.660 10.167619
61.665 9.988072
61.670 9.780814
61.675 9.65196
61.680 9.624718
61.685 9.989736
61.690 9.640593
61.695 9.371002
61.700 9.836409
61.705 10.127117
61.710 10.160397
61.715 9.693094
61.720 9.713664
61.725 9.608694
61.730 9.183622
61.735 8.805987
61.740 8.783437
61.745 8.995348
61.750 9.343699
61.755 9.322969
61.760 9.707307
61.765 10.221317
61.770 10.558633
61.775 10.749787
61.780 10.771068
61.785 9.975111
61.790 9.983314
61.795 10.133694
61.800 10.082991
61.805 9.678986
61.810 9.513988
61.815 9.10289
61.820 9.992332
61.825 10.23385
61.830 10.279607
61.835 10.228819
61.840 10.127482
61.845 9.999179
61.850 10.025326
61.855 9.746814
61.860 9.996274
61.865 9.995305
61.870 10.383201
61.875 10.751345
61.880 11.001547
61.885 11.01452
61.890 10.42678
61.895 9.539634
61.900 9.388575
61.905 9.351394
61.910 9.588592
61.915 9.508593
61.920 9.501691
61.925 9.720866
61.930 9.994722
61.935 9.746696
61.940 9.168231
61.945 9.104706
61.950 9.370838
61.955 9.666941
61.960 9.828925
61.965 9.848143
61.970 10.353071
61.975 10.62114
61.980 10.372603
61.985 10.158197
61.990 9.769927
61.995 9.50862
62.000 9.22007
62.005 9.066314
62.010 9.540904
62.015 10.196101
62.020 10.240776
62.025 10.240854
62.030 10.331449
62.035 10.740171
62.040 10.564603
62.045 10.128235
62.050 9.87194
62.055 10.035437
62.060 10.555723
62.065 10.380239
62.070 10.241432
62.075 10.715015
62.080 10.78369
62.085 10.627947
62.090 10.211953
62.095 10.041547
62.100 10.592354
62.105 10.601595
62.110 10.202258
62.115 9.909342
62.120 9.753964
62.125 10.102683
62.130 9.814447
62.135 9.221341
62.140 8.879338
62.145 9.099442
62.150 8.964393
62.155 8.911114
62.160 9.07534
62.165 9.30376
62.170 10.091956
62.175 10.525965
62.180 10.706589
62.185 11.135895
62.190 11.501753
62.195 11.584164
62.200 11.539728
62.205 11.12842
62.210 10.637835
62.215 10.3247
62.220 9.957071
62.225 9.729622
62.230 9.308638
62.235 9.179787
62.240 9.202367
62.245 9.395602
62.250 9.486815
62.255 9.839223
62.260 9.702855
62.265 10.267574
62.270 10.463201
62.275 10.643974
62.280 10.562391
62.285 10.498994
62.290 10.218493
62.295 10.123984
62.300 9.415762
62.305 9.360611
62.310 9.228186
62.315 9.169534
62.320 9.183152
62.325 9.44843
62.330 9.582961
62.335 9.50171
62.340 9.307563
62.345 9.319626
62.350 9.532174
62.355 9.738714
62.360 10.042361
62.365 10.211822
62.370 10.548062
62.375 10.605818
62.380 10.494087
62.385 10.299667
62.390 10.110347
62.395 9.807933
62.400 9.892064
62.405 9.690949
62.410 9.748975
62.415 9.899814
62.420 10.098157
62.425 9.918165
62.430 10.144747
62.435 10.286761
62.440 10.979386
62.445 11.165747
62.450 11.364968
62.455 11.388515
62.460 11.731249
62.465 11.655549
62.470 11.503435
62.475 11.26229
62.480 11.101692
62.485 11.077873
62.490 11.159381
62.495 10.95186
62.500 10.883987
62.505 10.676805
62.510 10.56877
62.515 10.297578
62.520 9.768791
62.525 9.627436
62.530 9.330296
62.535 9.250268
62.540 9.266575
62.545 9.122093
62.550 9.395413
62.555 9.823768
62.560 9.822653
62.565 9.891132
62.570 9.881807
62.575 10.255207
62.580 10.59
62.585 10.526515
62.590 10.215854
62.595 10.13554
62.600 10.373229
62.605 10.197042
62.610 10.085061
62.615 9.92032
62.620 9.769658
62.625 10.00209
62.630 9.940855
62.635 10.128596
62.640 10.372164
62.645 10.31389
62.650 10.241303
62.655 10.239532
62.660 10.14928
62.665 10.233219
62.670 9.969156
62.675 10.234881
62.680 9.972312
62.685 9.900916
62.690 10.515692
62.695 10.633324
62.700 10.262053
62.705 10.067394
62.710 9.581731
62.715 9.80385
62.720 10.191195
62.725 9.681581
62.730 9.876939
62.735 10.231595
62.740 10.506665
62.745 11.120446
62.750 11.58998
62.755 11.357957
62.760 11.345461
62.765 11.532951
62.770 11.555968
62.775 11.529553
62.780 10.987354
62.785 10.521245
62.790 10.612794
62.795 10.687621
62.800 10.45818
62.805 10.57263
62.810 10.709105
62.815 10.770795
62.820 10.782564
62.825 10.526906
62.830 10.260039
62.835 10.340305
62.840 10.338991
62.845 10.140457
62.850 10.233855
62.855 10.646422
62.860 11.049926
62.865 11.215785
62.870 11.158534
62.875 11.10886
62.880 11.324356
62.885 11.032235
62.890 10.337515
62.895 10.056973
62.900 9.923641
62.905 10.112267
62.910 9.921906
62.915 9.930843
62.920 10.381895
62.925 10.710543
62.930 10.814159
62.935 10.994558
62.940 10.644958
62.945 10.630645
62.950 10.507197
62.955 10.448484
62.960 10.909636
62.965 10.802843
62.970 10.610552
62.975 10.494726
62.980 10.455248
62.985 10.185027
62.990 10.515328
62.995 9.865795
63.000 9.923591
63.005 10.16666
63.010 10.4338
63.015 10.506686
63.020 10.9767
63.025 10.466149
63.030 10.839607
63.035 10.870838
63.040 11.087934
63.045 11.344749
63.050 11.69745
63.055 11.264113
63.060 11.846199
63.065 11.815625
63.070 11.718803
63.075 11.461137
63.080 11.177723
63.085 11.082785
63.090 11.209826
63.095 10.800163
63.100 10.777895
63.105 11.071763
63.110 11.093041
63.115 11.179275
63.120 11.304264
63.125 11.445573
63.130 11.48245
63.135 11.092528
63.140 10.535823
63.145 10.399668
63.150 10.404495
63.155 9.891028
63.160 9.716941
63.165 9.704219
63.170 9.966339
63.175 10.422368
63.180 10.915027
63.185 10.56797
63.190 10.623606
63.195 10.846286
63.200 11.003004
63.205 11.08999
63.210 10.630742
63.215 10.594115
63.220 10.956182
63.225 10.62889
63.230 9.858896
63.235 9.813992
63.240 9.874548
63.245 10.283672
63.250 9.784171
63.255 10.195031
63.260 10.648643
63.265 10.660882
63.270 10.402295
63.275 10.147079
63.280 9.97869
63.285 10.170131
63.290 9.901624
63.295 9.791285
63.300 10.349874
63.305 10.621773
63.310 11.141122
63.315 11.41537
63.320 11.63938
63.325 12.023856
63.330 12.516411
63.335 12.673357
63.340 12.448506
63.345 12.647928
63.350 12.344578
63.355 11.875286
63.360 11.737163
63.365 11.636337
63.370 11.627849
63.375 11.785662
63.380 11.333799
63.385 11.259099
63.390 11.533074
63.395 11.390173
63.400 10.734982
63.405 9.964039
63.410 10.07975
63.415 10.420576
63.420 10.67029
63.425 10.718914
63.430 10.546655
63.435 11.044808
63.440 11.68991
63.445 11.273945
63.450 11.606236
63.455 11.402575
63.460 11.514196
63.465 11.68179
63.470 11.853081
63.475 11.638299
63.480 11.691172
63.485 11.444699
63.490 11.47788
63.495 11.199804
63.500 10.921536
63.505 10.720568
63.510 10.906754
63.515 10.958831
63.520 10.741673
63.525 10.460877
63.530 10.339639
63.535 10.520706
63.540 10.724607
63.545 10.865378
63.550 10.720877
63.555 10.847932
63.560 11.055714
63.565 11.297529
63.570 11.12875
63.575 11.125064
63.580 10.919042
63.585 11.0536
63.590 11.582513
63.595 11.307656
63.600 10.976083
63.605 11.218879
63.610 11.138875
63.615 11.557343
63.620 11.647537
63.625 11.364101
63.630 11.438212
63.635 11.591425
63.640 11.19873
63.645 10.946604
63.650 10.558444
63.655 10.525702
63.660 10.24673
63.665 10.26596
63.670 10.235607
63.675 10.610057
63.680 10.808089
63.685 10.820114
63.690 10.500932
63.695 10.748389
63.700 10.996969
63.705 11.049583
63.710 11.092171
63.715 11.099273
63.720 11.036638
63.725 11.218213
63.730 11.220008
63.735 11.390451
63.740 11.464635
63.745 11.094944
63.750 11.077137
63.755 11.24275
63.760 11.415146
63.765 11.68645
63.770 11.933876
63.775 12.375419
63.780 12.629517
63.785 12.305539
63.790 11.977166
63.795 11.362401
63.800 11.157292
63.805 10.662683
63.810 10.104671
63.815 10.17754
63.820 10.491523
63.825 11.101991
63.830 11.673208
63.835 11.641534
63.840 11.966794
63.845 12.142294
63.850 11.922951
63.855 11.891753
63.860 11.747381
63.865 11.67514
63.870 11.873596
63.875 12.326629
63.880 12.471083
63.885 12.808638
63.890 13.104483
63.895 13.197651
63.900 13.086491
63.905 12.875149
63.910 12.164069
63.915 12.146659
63.920 12.302572
63.925 12.202649
63.930 12.224487
63.935 12.88254
63.940 12.914281
63.945 12.884315
63.950 12.792483
63.955 12.293271
63.960 12.315625
63.965 12.157628
63.970 11.651188
63.975 11.78886
63.980 12.245824
63.985 12.384044
63.990 12.580377
63.995 13.007533
64.000 13.16785
64.005 13.605754
64.010 13.612083
64.015 13.532191
64.020 13.650357
64.025 13.787541
64.030 13.723607
64.035 14.00166
64.040 13.815062
64.045 13.911445
64.050 14.088629
64.055 14.458934
64.060 14.383138
64.065 14.059977
64.070 14.181021
64.075 14.608184
64.080 14.96969
64.085 14.776821
64.090 14.404832
64.095 14.670063
64.100 14.484745
64.105 14.210538
64.110 13.887585
64.115 13.990984
64.120 14.485331
64.125 14.329946
64.130 14.168959
64.135 14.510896
64.140 14.446267
64.145 14.511738
64.150 14.468654
64.155 14.490123
64.160 15.023166
64.165 15.380232
64.170 15.65504
64.175 16.21265
64.180 16.187513
64.185 16.615282
64.190 16.609114
64.195 17.30158
64.200 17.427795
64.205 17.471312
64.210 17.722281
64.215 18.488972
64.220 18.298515
64.225 18.438454
64.230 18.061251
64.235 18.176786
64.240 18.230068
64.245 18.270855
64.250 18.210142
64.255 19.251211
64.260 20.212397
64.265 21.113489
64.270 21.345947
64.275 21.625217
64.280 22.104959
64.285 22.349691
64.290 22.189375
64.295 21.686201
64.300 21.544004
64.305 22.054502
64.310 22.59079
64.315 22.716307
64.320 23.36162
64.325 24.131987
64.330 24.948263
64.335 25.325193
64.340 26.277044
64.345 27.204828
64.350 27.79393
64.355 27.680851
64.360 27.943987
64.365 27.937527
64.370 28.121651
64.375 27.729862
64.380 27.876225
64.385 27.57711
64.390 27.270597
64.395 27.437359
64.400 27.771263
64.405 28.197105
64.410 28.331425
64.415 27.627232
64.420 27.580048
64.425 28.051382
64.430 27.984951
64.435 27.894199
64.440 28.755878
64.445 28.951464
64.450 29.073141
64.455 28.885324
64.460 29.063225
64.465 28.560881
64.470 28.147387
64.475 28.192022
64.480 28.125603
64.485 28.276424
64.490 28.99222
64.495 28.709351
64.500 29.318918
64.505 28.789383
64.510 27.90122
64.515 27.193274
64.520 27.128975
64.525 27.050045
64.530 27.148932
64.535 26.910183
64.540 27.30612
64.545 26.955465
64.550 26.900835
64.555 25.775005
64.560 25.433243
64.565 24.674765
64.570 24.58312
64.575 24.62011
64.580 24.463934
64.585 24.26564
64.590 24.245365
64.595 23.249166
64.600 23.0401
64.605 22.803343
64.610 22.458345
64.615 22.123041
64.620 22.280706
64.625 22.514809
64.630 22.60564
64.635 22.404495
64.640 21.645407
64.645 21.146723
64.650 21.003363
64.655 20.407104
64.660 20.136461
64.665 20.572481
64.670 20.41935
64.675 20.27306
64.680 20.604523
64.685 20.36339
64.690 20.181396
64.695 20.093393
64.700 19.612867
64.705 19.386211
64.710 18.612957
64.715 17.755507
64.720 17.590847
64.725 17.113277
64.730 16.444065
64.735 15.908124
64.740 15.773916
64.745 15.820255
64.750 15.463334
64.755 15.119996
64.760 15.179865
64.765 15.686869
64.770 16.721327
64.775 16.630596
64.780 15.955992
64.785 15.906729
64.790 16.002317
64.795 15.992563
64.800 15.631214
64.805 14.659073
64.810 14.500329
64.815 15.105839
64.820 15.070162
64.825 15.353616
64.830 15.40977
64.835 15.308193
64.840 15.88303
64.845 15.665437
64.850 15.535611
64.855 16.373299
64.860 16.404493
64.865 16.323915
64.870 16.000252
64.875 15.196979
64.880 15.507961
64.885 15.51348
64.890 14.635741
64.895 14.531473
64.900 14.768884
64.905 15.151029
64.910 15.420473
64.915 15.284842
64.920 15.321184
64.925 15.434302
64.930 15.035051
64.935 15.129706
64.940 15.361582
64.945 15.608639
64.950 15.871018
64.955 15.72032
64.960 15.939158
64.965 16.35008
64.970 16.067888
64.975 15.949906
64.980 15.936014
64.985 15.936763
64.990 16.033964
64.995 15.969388
65.000 15.915923
65.005 15.559502
65.010 15.441381
65.015 15.93722
65.020 16.800915
65.025 17.053907
65.030 17.156956
65.035 17.270885
65.040 17.775206
65.045 17.738127
65.050 17.296524
65.055 16.559187
65.060 16.115381
65.065 16.281134
65.070 16.26836
65.075 16.422626
65.080 16.587843
65.085 16.494055
65.090 16.633699
65.095 17.658686
65.100 17.976707
65.105 18.083527
65.110 18.207455
65.115 18.403971
65.120 19.081623
65.125 20.280603
65.130 20.190222
65.135 20.285803
65.140 20.81045
65.145 20.696753
65.150 20.575598
65.155 19.833927
65.160 19.156099
65.165 19.170856
65.170 18.99081
65.175 19.227848
65.180 19.093794
65.185 20.059517
65.190 21.393972
65.195 22.29142
65.200 22.825663
65.205 23.030327
65.210 22.773226
65.215 22.774837
65.220 21.977167
65.225 21.771545
65.230 21.632597
65.235 21.904642
65.240 21.950922
65.245 21.972918
65.250 22.098291
65.255 22.458548
65.260 22.2955
65.265 21.748302
65.270 21.247078
65.275 21.181244
65.280 21.542133
65.285 22.274689
65.290 21.924362
65.295 22.178894
65.300 23.011169
65.305 23.180412
65.310 22.915979
65.315 23.317104
65.320 23.515238
65.325 23.857193
65.330 23.635941
65.335 23.678808
65.340 24.126968
65.345 24.458576
65.350 24.394424
65.355 23.947746
65.360 23.582582
65.365 23.480719
65.370 23.545366
65.375 23.437506
65.380 23.753672
65.385 23.785307
65.390 24.581142
65.395 25.478537
65.400 25.572771
65.405 25.669868
65.410 25.946077
65.415 26.91184
65.420 27.400181
65.425 27.878401
65.430 27.881765
65.435 28.676516
65.440 30.114935
65.445 30.058147
65.450 29.354496
65.455 29.040527
65.460 28.47337
65.465 28.780745
65.470 28.955305
65.475 28.156181
65.480 28.017578
65.485 27.774076
65.490 27.270414
65.495 27.601658
65.500 27.379797
65.505 27.543907
65.510 27.741261
65.515 27.405304
65.520 28.393641
65.525 29.251825
65.530 28.815872
65.535 28.954008
65.540 28.613287
65.545 28.490492
65.550 28.319254
65.555 26.883612
65.560 25.874239
65.565 25.628042
65.570 24.843611
65.575 24.125996
65.580 24.139114
65.585 24.857389
65.590 25.179193
65.595 25.300236
65.600 25.504034
65.605 25.518013
65.610 24.96607
65.615 23.690401
65.620 23.151901
65.625 23.150366
65.630 22.954384
65.635 22.233189
65.640 21.778965
65.645 21.784834
65.650 21.942852
65.655 21.506233
65.660 21.272577
65.665 21.580986
65.670 22.046158
65.675 22.331331
65.680 22.230124
65.685 22.429153
65.690 22.508705
65.695 22.623499
65.700 22.661835
65.705 22.30979
65.710 22.074373
65.715 21.511389
65.720 21.233347
65.725 21.248972
65.730 20.883575
65.735 20.540264
65.740 19.783525
65.745 19.086153
65.750 19.078747
65.755 18.807053
65.760 18.485073
65.765 18.178352
65.770 17.95022
65.775 18.363865
65.780 19.331972
65.785 18.905708
65.790 18.44161
65.795 17.523907
65.800 17.317358
65.805 17.208603
65.810 16.745865
65.815 16.024876
65.820 15.945004
65.825 16.513224
65.830 16.672726
65.835 16.609819
65.840 16.582029
65.845 16.356607
65.850 16.432732
65.855 16.988094
65.860 16.765196
65.865 16.523695
65.870 16.399431
65.875 15.96904
65.880 16.042505
65.885 15.686145
65.890 15.149682
65.895 15.097345
65.900 15.308381
65.905 15.537514
65.910 16.116838
65.915 16.061008
65.920 15.992026
65.925 16.492765
65.930 16.446222
65.935 16.059284
65.940 15.145265
65.945 14.575569
65.950 14.556151
65.955 14.675186
65.960 13.98595
65.965 13.300687
65.970 13.001991
65.975 13.574473
65.980 13.786996
65.985 13.439793
65.990 12.898491
65.995 13.115012
66.000 13.407714
66.005 13.730294
66.010 13.11878
66.015 13.053506
66.020 13.367666
66.025 13.664219
66.030 14.042485
66.035 14.323982
66.040 14.149565
66.045 14.623817
66.050 14.207088
66.055 14.277637
66.060 14.250732
66.065 13.587211
66.070 13.405322
66.075 13.800855
66.080 13.463091
66.085 13.542744
66.090 13.628076
66.095 13.472786
66.100 13.60235
66.105 13.373786
66.110 13.234384
66.115 13.627821
66.120 13.60379
66.125 13.435439
66.130 13.834113
66.135 14.202422
66.140 14.071955
66.145 13.84559
66.150 13.724559
66.155 13.561145
66.160 13.35864
66.165 13.083152
66.170 12.879717
66.175 13.20805
66.180 13.033299
66.185 12.702802
66.190 12.607221
66.195 12.709773
66.200 12.677364
66.205 12.738905
66.210 12.575102
66.215 12.608006
66.220 12.736483
66.225 12.61827
66.230 12.243911
66.235 12.380426
66.240 11.996517
66.245 11.928145
66.250 11.77588
66.255 12.262315
66.260 12.49804
66.265 12.292656
66.270 11.971047
66.275 12.478046
66.280 12.575727
66.285 12.822303
66.290 12.361418
66.295 12.511752
66.300 12.975385
66.305 13.079558
66.310 12.694077
66.315 12.527513
66.320 12.367028
66.325 12.708898
66.330 12.882957
66.335 13.100351
66.340 12.817914
66.345 12.72058
66.350 12.994943
66.355 12.835809
66.360 12.569083
66.365 12.109659
66.370 11.697005
66.375 11.880092
66.380 11.960784
66.385 11.828746
66.390 11.983691
66.395 12.083177
66.400 12.22193
66.405 12.083646
66.410 11.97317
66.415 12.209406
66.420 12.38272
66.425 12.019662
66.430 12.018297
66.435 12.301259
66.440 12.393805
66.445 12.227886
66.450 11.768675
66.455 11.847224
66.460 12.383564
66.465 12.073956
66.470 11.96302
66.475 12.366832
66.480 12.697525
66.485 13.234397
66.490 13.13885
66.495 12.920416
66.500 13.152677
66.505 12.862292
66.510 12.369127
66.515 11.757266
66.520 11.18883
66.525 11.122343
66.530 10.91757
66.535 11.180994
66.540 11.606688
66.545 11.608352
66.550 12.419171
66.555 12.622216
66.560 12.728823
66.565 12.897614
66.570 12.259943
66.575 11.836349
66.580 11.721493
66.585 11.085712
66.590 10.867162
66.595 10.767293
66.600 10.850715
66.605 10.728767
66.610 11.122903
66.615 11.585757
66.620 11.678361
66.625 12.089147
66.630 11.759697
66.635 11.912722
66.640 12.141898
66.645 11.882043
66.650 11.723532
66.655 11.877213
66.660 11.758407
66.665 11.790238
66.670 11.374301
66.675 11.071157
66.680 11.05597
66.685 10.903031
66.690 10.53931
66.695 10.400775
66.700 11.210768
66.705 11.508919
66.710 11.768351
66.715 11.726566
66.720 12.23861
66.725 12.639549
66.730 12.755334
66.735 12.324442
66.740 12.734692
66.745 12.846135
66.750 12.783584
66.755 13.011539
66.760 12.81793
66.765 12.691231
66.770 12.919888
66.775 12.974261
66.780 12.9844
66.785 12.590245
66.790 11.571494
66.795 11.606702
66.800 11.534748
66.805 11.1079
66.810 10.848863
66.815 11.112903
66.820 11.329833
66.825 11.954326
66.830 12.336511
66.835 12.090682
66.840 12.272878
66.845 12.495797
66.850 12.687073
66.855 12.761784
66.860 12.868863
66.865 13.114058
66.870 13.327797
66.875 13.130394
66.880 13.087591
66.885 12.679115
66.890 13.08284
66.895 13.593984
66.900 13.317754
66.905 13.49025
66.910 13.840603
66.915 13.300715
66.920 13.30919
66.925 12.752423
66.930 11.946528
66.935 12.064791
66.940 11.521667
66.945 11.270293
66.950 11.576851
66.955 11.728404
66.960 11.770535
66.965 12.151519
66.970 12.406542
66.975 13.182353
66.980 13.350093
66.985 13.532612
66.990 13.29906
66.995 13.285401
67.000 13.067753
67.005 12.408609
67.010 11.977993
67.015 11.610591
67.020 11.301679
67.025 11.742704
67.030 12.455822
67.035 13.208311
67.040 13.374649
67.045 13.391456
67.050 13.640039
67.055 13.898841
67.060 13.962372
67.065 13.458078
67.070 12.795251
67.075 12.659949
67.080 12.448729
67.085 12.323449
67.090 11.701806
67.095 11.46745
67.100 11.7424
67.105 12.19403
67.110 12.43664
67.115 12.570886
67.120 13.058504
67.125 13.643291
67.130 13.399196
67.135 12.901032
67.140 12.807883
67.145 12.948014
67.150 13.153074
67.155 13.27427
67.160 13.221253
67.165 13.489403
67.170 13.665796
67.175 13.225505
67.180 12.92141
67.185 12.420874
67.190 12.304275
67.195 12.769874
67.200 12.826127
67.205 12.449923
67.210 12.42095
67.215 12.572844
67.220 12.850832
67.225 12.630481
67.230 12.239102
67.235 11.811297
67.240 11.542662
67.245 11.522913
67.250 11.696019
67.255 11.731721
67.260 11.192823
67.265 10.595326
67.270 10.783473
67.275 10.994849
67.280 11.021611
67.285 11.057314
67.290 11.049737
67.295 11.449055
67.300 12.079426
67.305 12.358488
67.310 12.621651
67.315 12.699019
67.320 12.429032
67.325 12.601662
67.330 12.836876
67.335 12.532064
67.340 12.063795
67.345 11.78952
67.350 11.682306
67.355 11.597667
67.360 11.273376
67.365 11.310333
67.370 11.326921
67.375 11.344682
67.380 11.641799
67.385 12.309055
67.390 12.869702
67.395 12.7786
67.400 12.38503
67.405 12.308945
67.410 12.222551
67.415 12.012465
67.420 11.266754
67.425 10.797032
67.430 10.46736
67.435 10.664772
67.440 11.095102
67.445 11.046203
67.450 11.19373
67.455 10.975344
67.460 11.293971
67.465 11.423685
67.470 11.397952
67.475 11.166332
67.480 11.806477
67.485 11.847314
67.490 11.790004
67.495 11.57954
67.500 11.667085
67.505 12.102139
67.510 12.307122
67.515 11.894786
67.520 11.59175
67.525 11.690839
67.530 11.930356
67.535 12.016934
67.540 11.569133
67.545 11.673801
67.550 11.375066
67.555 11.606977
67.560 11.564007
67.565 11.415867
67.570 11.158632
67.575 11.085855
67.580 10.978644
67.585 11.164358
67.590 11.272754
67.595 11.658051
67.600 11.500508
67.605 11.484026
67.610 11.446202
67.615 11.380934
67.620 11.557203
67.625 11.889297
67.630 12.147775
67.635 12.610887
67.640 12.612903
67.645 12.678833
67.650 12.592555
67.655 12.467637
67.660 12.287033
67.665 11.912889
67.670 11.621439
67.675 11.824045
67.680 11.829261
67.685 12.089069
67.690 11.755685
67.695 11.41535
67.700 11.447962
67.705 11.631611
67.710 11.320502
67.715 10.994556
67.720 10.962181
67.725 11.047507
67.730 11.289985
67.735 11.292757
67.740 11.62599
67.745 12.064204
67.750 12.638255
67.755 13.00779
67.760 13.301213
67.765 13.651064
67.770 13.470863
67.775 12.922209
67.780 12.668719
67.785 12.354119
67.790 12.23024
67.795 12.02043
67.800 11.968506
67.805 12.506254
67.810 13.060947
67.815 13.027226
67.820 12.876122
67.825 12.693444
67.830 12.770072
67.835 12.447829
67.840 12.351961
67.845 12.32861
67.850 12.68975
67.855 12.812655
67.860 12.344839
67.865 12.030919
67.870 11.521746
67.875 11.603659
67.880 11.264293
67.885 10.922856
67.890 11.037625
67.895 11.197702
67.900 11.379893
67.905 11.514997
67.910 12.176442
67.915 12.474614
67.920 12.775764
67.925 12.945355
67.930 13.095206
67.935 14.447997
67.940 14.669451
67.945 14.347135
67.950 14.135977
67.955 14.025126
67.960 14.367638
67.965 14.289854
67.970 13.356046
67.975 13.583371
67.980 13.353951
67.985 13.718094
67.990 13.934877
67.995 14.082068
68.000 14.520506
68.005 14.792227
68.010 14.773775
68.015 14.92098
68.020 14.478059
68.025 14.084069
68.030 13.287818
68.035 13.144755
68.040 13.119184
68.045 12.704075
68.050 12.725796
68.055 13.025107
68.060 13.090628
68.065 13.270548
68.070 13.270852
68.075 13.451973
68.080 13.272363
68.085 12.974092
68.090 12.837494
68.095 13.166777
68.100 13.266806
68.105 12.98963
68.110 12.967235
68.115 13.479363
68.120 13.929112
68.125 13.644276
68.130 13.372587
68.135 13.299583
68.140 12.916151
68.145 12.226432
68.150 11.73332
68.155 11.548143
68.160 11.63078
68.165 12.000885
68.170 12.09289
68.175 12.271605
68.180 12.355613
68.185 12.293434
68.190 12.011658
68.195 12.227032
68.200 11.993052
68.205 12.052726
68.210 11.547324
68.215 11.462233
68.220 11.78938
68.225 12.260635
68.230 12.943254
68.235 13.287443
68.240 13.774336
68.245 14.33141
68.250 14.586595
68.255 14.924243
68.260 14.900058
68.265 14.704749
68.270 14.823354
68.275 15.075426
68.280 15.851603
68.285 16.014725
68.290 15.925666
68.295 15.66336
68.300 15.717401
68.305 15.513639
68.310 15.285458
68.315 15.032257
68.320 15.032406
68.325 14.994683
68.330 15.235774
68.335 15.203506
68.340 15.544673
68.345 15.799048
68.350 15.715572
68.355 15.683176
68.360 15.527831
68.365 15.645367
68.370 15.689998
68.375 15.424666
68.380 15.159131
68.385 15.502465
68.390 15.499726
68.395 15.822967
68.400 15.511864
68.405 15.599969
68.410 15.801276
68.415 16.41581
68.420 16.617771
68.425 16.925716
68.430 17.130093
68.435 17.716696
68.440 17.514708
68.445 17.561783
68.450 18.145239
68.455 18.770641
68.460 19.095755
68.465 19.107916
68.470 19.347433
68.475 19.780876
68.480 19.890585
68.485 19.642374
68.490 19.150129
68.495 19.621346
68.500 19.652605
68.505 18.878426
68.510 18.764812
68.515 18.868813
68.520 19.012852
68.525 19.423889
68.530 19.600407
68.535 19.913799
68.540 20.059301
68.545 19.791758
68.550 20.208771
68.555 21.151182
68.560 21.407194
68.565 21.50119
68.570 21.597445
68.575 22.245096
68.580 22.62887
68.585 22.024691
68.590 21.810873
68.595 21.793467
68.600 21.788389
68.605 22.412338
68.610 22.996115
68.615 23.884258
68.620 24.263489
68.625 23.732714
68.630 23.546644
68.635 23.038103
68.640 22.781931
68.645 22.104115
68.650 21.944832
68.655 22.799431
68.660 23.584496
68.665 23.887922
68.670 24.62994
68.675 25.213373
68.680 25.398981
68.685 25.396067
68.690 24.501211
68.695 23.672678
68.700 23.508131
68.705 23.809422
68.710 24.421764
68.715 24.400148
68.720 23.965712
68.725 24.431479
68.730 25.017443
68.735 25.105829
68.740 24.616974
68.745 24.012556
68.750 23.985008
68.755 23.47497
68.760 23.348375
68.765 23.872511
68.770 23.79685
68.775 23.164707
68.780 23.092072
68.785 22.972639
68.790 23.397161
68.795 22.969748
68.800 22.45846
68.805 22.82725
68.810 23.766747
68.815 23.661184
68.820 23.850111
68.825 24.048004
68.830 24.380533
68.835 24.295378
68.840 23.60244
68.845 22.484596
68.850 22.888321
68.855 23.377522
68.860 23.033869
68.865 22.724888
68.870 22.607395
68.875 22.432663
68.880 23.003645
68.885 22.045137
68.890 21.498095
68.895 21.638998
68.900 22.159039
68.905 22.603678
68.910 22.608898
68.915 22.116077
68.920 22.020168
68.925 21.868979
68.930 20.824684
68.935 19.258297
68.940 18.690823
68.945 18.598742
68.950 18.661537
68.955 18.663631
68.960 18.836063
68.965 19.352278
68.970 19.081707
68.975 18.853724
68.980 18.793032
68.985 18.47147
68.990 18.582487
68.995 18.171587
69.000 17.920216
69.005 18.133919
69.010 18.244337
69.015 17.912056
69.020 17.868532
69.025 18.018349
69.030 18.291811
69.035 18.458248
69.040 18.762285
69.045 18.796413
69.050 19.14609
69.055 19.703688
69.060 19.029043
69.065 18.634249
69.070 18.505732
69.075 18.555208
69.080 18.024328
69.085 17.515892
69.090 17.151745
69.095 17.096319
69.100 17.120428
69.105 17.188494
69.110 16.970823
69.115 17.304588
69.120 17.255716
69.125 17.079815
69.130 17.095369
69.135 16.844915
69.140 15.954534
69.145 15.008558
69.150 14.416127
69.155 14.689569
69.160 14.413764
69.165 14.72587
69.170 14.674594
69.175 14.70732
69.180 14.68101
69.185 14.891203
69.190 14.955531
69.195 14.83617
69.200 14.572754
69.205 14.9828
69.210 15.144995
69.215 15.201432
69.220 14.697791
69.225 14.067905
69.230 14.264125
69.235 14.001874
69.240 13.815819
69.245 14.192504
69.250 14.480687
69.255 14.59893
69.260 14.350824
69.265 14.031317
69.270 14.25262
69.275 14.232058
69.280 13.988176
69.285 13.706617
69.290 13.726894
69.295 13.90152
69.300 13.812653
69.305 14.041655
69.310 14.695392
69.315 14.197107
69.320 14.002176
69.325 13.538576
69.330 13.924344
69.335 14.138543
69.340 13.670568
69.345 13.204268
69.350 13.793338
69.355 14.355018
69.360 14.984306
69.365 14.871435
69.370 14.32993
69.375 13.831485
69.380 13.686206
69.385 13.344314
69.390 12.751234
69.395 12.971522
69.400 13.094677
69.405 13.359797
69.410 13.563933
69.415 13.198731
69.420 13.499667
69.425 13.437378
69.430 13.090647
69.435 12.91537
69.440 12.997416
69.445 13.09951
69.450 12.932637
69.455 13.169342
69.460 13.039726
69.465 12.784297
69.470 12.534224
69.475 12.366851
69.480 12.910206
69.485 13.551521
69.490 13.689595
69.495 14.100488
69.500 13.973289
69.505 14.390613
69.510 14.02512
69.515 13.629508
69.520 13.077661
69.525 12.877832
69.530 12.72051
69.535 12.981188
69.540 13.285744
69.545 13.474396
69.550 13.4299
69.555 13.530649
69.560 13.24065
69.565 13.467912
69.570 13.537558
69.575 13.335888
69.580 13.514837
69.585 13.379222
69.590 13.779738
69.595 13.628071
69.600 13.157996
69.605 12.571429
69.610 12.236694
69.615 12.129235
69.620 12.090705
69.625 11.523247
69.630 11.645574
69.635 12.204876
69.640 12.53915
69.645 12.305916
69.650 12.342266
69.655 12.411679
69.660 12.769089
69.665 12.919811
69.670 12.975635
69.675 13.547384
69.680 14.177032
69.685 13.675576
69.690 13.114442
69.695 13.144363
69.700 12.908948
69.705 12.231506
69.710 11.73006
69.715 12.025541
69.720 12.542171
69.725 12.966504
69.730 13.030622
69.735 13.146132
69.740 13.613301
69.745 13.51377
69.750 13.113717
69.755 12.547769
69.760 12.563078
69.765 12.392116
69.770 12.220854
69.775 11.798319
69.780 11.992073
69.785 11.899467
69.790 12.356113
69.795 12.276548
69.800 12.436456
69.805 12.331902
69.810 12.419364
69.815 12.181126
69.820 12.152287
69.825 12.002954
69.830 11.615231
69.835 11.728288
69.840 11.841487
69.845 11.695872
69.850 11.689794
69.855 11.958745
69.860 12.630166
69.865 13.106343
69.870 12.994678
69.875 13.186156
69.880 13.398633
69.885 14.011606
69.890 14.110415
69.895 13.798328
69.900 14.038507
69.905 13.910423
69.910 14.126353
69.915 14.31219
69.920 13.767485
69.925 14.03897
69.930 14.479176
69.935 14.476576
69.940 14.492996
69.945 14.665967
69.950 14.562365
69.955 14.364571
69.960 13.432718
69.965 13.031389
69.970 12.409255
69.975 11.840784
69.980 11.558727
69.985 11.264454
69.990 11.244695
69.995 11.257618
70.000 11.119442
70.005 11.344987
70.010 11.665977
70.015 11.601691
70.020 11.428448
70.025 11.250775
70.030 11.467435
70.035 11.461377
70.040 11.1405
70.045 11.415233
70.050 11.567639
70.055 11.774194
70.060 11.937592
70.065 12.142824
70.070 12.946493
70.075 13.506507
70.080 13.405686
70.085 13.624885
70.090 13.857396
70.095 14.175426
70.100 14.095013
70.105 13.926182
70.110 13.571024
70.115 13.201933
70.120 13.169683
70.125 13.144535
70.130 13.692595
70.135 13.23667
70.140 12.934058
70.145 13.186974
70.150 13.234875
70.155 13.136992
70.160 13.265356
70.165 12.88298
70.170 12.596219
70.175 12.673423
70.180 12.679963
70.185 12.695089
70.190 12.655392
70.195 12.244175
70.200 12.150916
70.205 12.119173
70.210 12.175151
70.215 11.936488
70.220 11.990997
70.225 11.936145
70.230 12.020242
70.235 12.338016
70.240 12.398148
70.245 12.537349
70.250 12.868842
70.255 13.540338
70.260 13.666033
70.265 13.299999
70.270 13.506248
70.275 13.739691
70.280 13.763752
70.285 13.690654
70.290 12.873904
70.295 12.648332
70.300 12.957728
70.305 13.084408
70.310 12.862507
70.315 12.602362
70.320 12.259683
70.325 12.291774
70.330 12.4276
70.335 12.087037
70.340 11.888445
70.345 12.1702
70.350 12.403331
70.355 12.463263
70.360 12.78347
70.365 12.88561
70.370 12.683712
70.375 12.031179
70.380 11.677296
70.385 11.779293
70.390 12.059811
70.395 12.06538
70.400 12.096179
70.405 12.345792
70.410 12.492184
70.415 12.854637
70.420 12.717999
70.425 12.630538
70.430 12.498406
70.435 12.752069
70.440 13.016835
70.445 13.074187
70.450 12.689604
70.455 12.521919
70.460 12.630312
70.465 12.785943
70.470 12.275665
70.475 11.691881
70.480 11.432834
70.485 11.416116
70.490 11.567904
70.495 11.063373
70.500 11.095407
70.505 11.551142
70.510 12.32516
70.515 12.521132
70.520 12.339918
70.525 12.528678
70.530 12.402071
70.535 12.034529
70.540 11.515582
70.545 11.622779
70.550 11.903384
70.555 12.00028
70.560 11.723114
70.565 11.933045
70.570 12.139722
70.575 11.948393
70.580 11.752898
70.585 11.825232
70.590 12.083376
70.595 12.609105
70.600 12.746367
70.605 12.65673
70.610 12.987559
70.615 13.810424
70.620 13.872294
70.625 13.721593
70.630 12.913938
70.635 12.879348
70.640 13.398822
70.645 13.505927
70.650 13.178318
70.655 13.338024
70.660 13.392433
70.665 13.847022
70.670 13.367006
70.675 12.985541
70.680 13.4575
70.685 13.299479
70.690 13.080317
70.695 13.078271
70.700 13.15026
70.705 13.499579
70.710 13.434157
70.715 12.918591
70.720 12.747278
70.725 12.727085
70.730 12.859176
70.735 13.023037
70.740 13.111934
70.745 13.134159
70.750 12.924682
70.755 12.883451
70.760 13.333607
70.765 12.978839
70.770 12.894108
70.775 12.41972
70.780 12.073657
70.785 12.172591
70.790 11.645404
70.795 11.092094
70.800 11.259457
70.805 11.675076
70.810 12.510463
70.815 12.261058
70.820 12.197525
70.825 12.524099
70.830 12.140893
70.835 11.543418
70.840 10.821895
70.845 10.407015
70.850 10.485295
70.855 10.374632
70.860 10.310969
70.865 10.273034
70.870 10.591846
70.875 10.796702
70.880 10.991541
70.885 11.130258
70.890 11.186642
70.895 11.031593
70.900 11.788299
70.905 11.583884
70.910 11.279696
70.915 11.242884
70.920 11.504158
70.925 12.029782
70.930 12.679888
70.935 12.780093
70.940 13.073372
70.945 13.625579
70.950 13.367152
70.955 13.03464
70.960 12.42073
70.965 11.696313
70.970 11.339774
70.975 11.09479
70.980 10.766089
70.985 11.469953
70.990 12.073045
70.995 12.774232
71.000 13.19989
71.005 13.339661
71.010 13.350035
71.015 12.762491
71.020 12.820098
71.025 12.377556
71.030 11.795378
71.035 11.838355
71.040 11.738158
71.045 11.877447
71.050 11.99243
71.055 11.515612
71.060 11.887953
71.065 11.74928
71.070 11.462038
71.075 11.574549
71.080 11.681696
71.085 11.851257
71.090 12.233198
71.095 11.662696
71.100 11.873482
71.105 12.196919
71.110 11.968257
71.115 12.02632
71.120 11.846354
71.125 12.025326
71.130 12.729944
71.135 12.776387
71.140 12.755722
71.145 13.08737
71.150 13.010228
71.155 13.303769
71.160 13.039612
71.165 12.680908
71.170 13.056776
71.175 13.144913
71.180 13.027123
71.185 12.891358
71.190 12.727212
71.195 12.988394
71.200 12.758166
71.205 12.421761
71.210 12.034623
71.215 11.962683
71.220 11.731791
71.225 12.029269
71.230 11.807713
71.235 11.597302
71.240 11.293125
71.245 11.515752
71.250 12.109935
71.255 12.246777
71.260 11.258925
71.265 11.65678
71.270 11.674129
71.275 12.131445
71.280 12.209105
71.285 12.077872
71.290 12.186712
71.295 12.477431
71.300 12.306831
71.305 12.518772
71.310 12.073762
71.315 11.76836
71.320 11.651329
71.325 11.496495
71.330 11.079831
71.335 10.952322
71.340 11.092825
71.345 11.347761
71.350 11.377808
71.355 11.584379
71.360 11.656337
71.365 11.615121
71.370 11.374085
71.375 11.307311
71.380 11.322087
71.385 11.255213
71.390 11.348118
71.395 11.598676
71.400 11.782607
71.405 11.639868
71.410 11.693377
71.415 11.541346
71.420 11.205641
71.425 10.730695
71.430 10.553817
71.435 11.163479
71.440 11.473411
71.445 11.603354
71.450 11.734662
71.455 12.026066
71.460 12.506141
71.465 12.233567
71.470 11.985905
71.475 12.099234
71.480 12.4146
71.485 12.413051
71.490 12.865992
71.495 13.004107
71.500 13.299112
71.505 13.517468
71.510 12.901404
71.515 12.918857
71.520 12.727603
71.525 12.789229
71.530 12.709291
71.535 12.90298
71.540 12.838383
71.545 12.533082
71.550 12.3924
71.555 12.275475
71.560 12.307364
71.565 12.183252
71.570 12.424586
71.575 12.985463
71.580 13.593285
71.585 13.208875
71.590 12.951201
71.595 12.661453
71.600 12.535603
71.605 12.24515
71.610 11.789088
71.615 11.871861
71.620 12.407123
71.625 13.005056
71.630 12.940506
71.635 12.879391
71.640 12.775788
71.645 12.816246
71.650 12.487112
71.655 12.172889
71.660 11.799285
71.665 11.646152
71.670 11.351371
71.675 11.568232
71.680 11.467823
71.685 11.64638
71.690 11.378817
71.695 11.220486
71.700 11.630585
71.705 12.068534
71.710 11.860026
71.715 11.821519
71.720 12.096969
71.725 12.293857
71.730 12.379895
71.735 12.34109
71.740 11.924305
71.745 12.307582
71.750 12.24532
71.755 12.285375
71.760 12.696054
71.765 12.730418
71.770 12.575263
71.775 12.658399
71.780 12.612449
71.785 12.672924
71.790 12.932827
71.795 12.863598
71.800 13.055552
71.805 13.509083
71.810 13.340604
71.815 13.265505
71.820 13.434437
71.825 12.77937
71.830 12.387441
71.835 11.878976
71.840 11.97545
71.845 12.098432
71.850 12.109713
71.855 12.022364
71.860 12.634995
71.865 12.697131
71.870 12.551981
71.875 12.46907
71.880 12.647723
71.885 13.061383
71.890 13.231035
71.895 13.224548
71.900 13.625552
71.905 14.2363
71.910 14.099055
71.915 13.651093
71.920 12.750869
71.925 12.147846
71.930 12.269423
71.935 12.023675
71.940 11.274854
71.945 11.418954
71.950 11.640358
71.955 12.062693
71.960 12.252431
71.965 12.119037
71.970 11.924451
71.975 11.978511
71.980 11.377916
71.985 11.572096
71.990 11.706307
71.995 11.679136
72.000 11.48019
72.005 11.674075
72.010 11.712786
72.015 11.819045
72.020 12.048377
72.025 12.280187
72.030 12.417935
72.035 12.879673
72.040 13.234058
72.045 13.824958
72.050 13.993085
72.055 13.637643
72.060 13.966817
72.065 14.021643
72.070 13.673093
72.075 13.269221
72.080 12.604221
72.085 12.37819
72.090 12.485394
72.095 12.270111
72.100 12.197268
72.105 12.392598
72.110 12.442858
72.115 13.046538
72.120 12.820441
72.125 12.549171
72.130 12.864133
72.135 12.829733
72.140 13.081743
72.145 13.294599
72.150 12.817344
72.155 12.90842
72.160 12.360907
72.165 12.313287
72.170 12.543441
72.175 12.248466
72.180 12.45708
72.185 12.497428
72.190 12.356217
72.195 12.200109
72.200 11.699556
72.205 11.547984
72.210 11.540108
72.215 11.835947
72.220 12.225961
72.225 12.821901
72.230 13.492819
72.235 13.88619
72.240 13.563754
72.245 13.6608
72.250 13.311913
72.255 13.131969
72.260 12.705008
72.265 12.631787
72.270 12.76383
72.275 12.62372
72.280 12.769718
72.285 12.375079
72.290 12.933418
72.295 13.17791
72.300 12.663935
72.305 12.557613
72.310 12.869847
72.315 13.299386
72.320 13.636347
72.325 13.001991
72.330 13.31074
72.335 13.556707
72.340 13.664415
72.345 13.534862
72.350 13.428808
72.355 13.315118
72.360 13.363983
72.365 13.75173
72.370 13.831608
72.375 13.983397
72.380 13.895676
72.385 13.339832
72.390 13.551415
72.395 13.213379
72.400 12.002246
72.405 11.280471
72.410 10.898382
72.415 10.852269
72.420 11.471771
72.425 11.107195
72.430 11.396173
72.435 11.714471
72.440 11.733846
72.445 11.90608
72.450 11.4668
72.455 11.103436
72.460 11.394461
72.465 11.710989
72.470 12.340984
72.475 12.881957
72.480 12.790545
72.485 12.535691
72.490 12.513339
72.495 12.35926
72.500 11.95561
72.505 11.148049
72.510 10.840129
72.515 10.877587
72.520 11.272018
72.525 11.498017
72.530 11.132508
72.535 11.17552
72.540 11.817411
72.545 11.869896
72.550 12.534315
72.555 12.331672
72.560 12.769417
72.565 13.022414
72.570 13.578078
72.575 13.723981
72.580 14.00182
72.585 14.033114
72.590 14.022825
72.595 13.508487
72.600 13.42962
72.605 13.35785
72.610 12.789539
72.615 12.649486
72.620 12.10094
72.625 12.169635
72.630 11.889134
72.635 12.258394
72.640 12.187027
72.645 12.29305
72.650 12.62128
72.655 12.329739
72.660 12.079122
72.665 11.450754
72.670 10.901336
72.675 10.499371
72.680 10.07088
72.685 9.64363
72.690 10.638968
72.695 11.231704
72.700 11.68232
72.705 12.025181
72.710 12.644166
72.715 12.754044
72.720 12.813112
72.725 12.322268
72.730 11.801683
72.735 11.616334
72.740 11.170327
72.745 11.041545
72.750 10.869098
72.755 11.021955
72.760 11.815362
72.765 11.879831
72.770 12.12067
72.775 12.277025
72.780 12.606565
72.785 12.884612
72.790 11.974977
72.795 11.552611
72.800 11.766928
72.805 11.815199
72.810 11.385559
72.815 11.085537
72.820 11.399331
72.825 11.796935
72.830 12.298726
72.835 12.052236
72.840 12.071688
72.845 12.196483
72.850 12.159627
72.855 12.214876
72.860 11.762561
72.865 11.633483
72.870 11.801517
72.875 11.934836
72.880 12.070351
72.885 12.306873
72.890 11.936046
72.895 11.467659
72.900 11.094248
72.905 11.408856
72.910 11.330589
72.915 11.021107
72.920 10.430828
72.925 10.591288
72.930 11.291035
72.935 11.797797
72.940 12.108797
72.945 12.325462
72.950 12.493965
72.955 12.918982
72.960 13.525319
72.965 13.561229
72.970 12.665086
72.975 12.366838
72.980 12.092569
72.985 12.009005
72.990 12.030857
72.995 11.556937
73.000 11.22143
