!@!!GADDS PLOTSO FILE: Chi integration type
!@!!Title/SampleName: map-152
!@!!Comment: ?
!@!!User: Bruker Instrument Administrator
!@!!Site: University of Illinois Chicago
!@!!Frame: map-152_01_000.gfrm
!@!!Wavelengths    1.54184   1.54056   1.54439
!@!!Frame angles: 2Theta: 63.000 Omega: 50.000 Phi: 0.000 Chi: 90.000
!@!!Integration range: 2Theta: 53.000 to 73.000  Gamma: -105.000 to -75.000
!@!!Integration method: bin normalized
!@!N
!@!SS
!@!M
!@!L 0.0 0.0 0.0 0.0
!@!XDegrees
!@!YCounts
53.000 7.444248
53.005 7.75019
53.010 7.994511
53.015 7.902087
53.020 8.256306
53.025 8.550452
53.030 8.82775
53.035 8.995035
53.040 8.599389
53.045 8.805723
53.050 8.626792
53.055 8.959729
53.060 8.906197
53.065 8.436759
53.070 8.265809
53.075 8.434544
53.080 8.643631
53.085 8.503272
53.090 8.410559
53.095 8.528323
53.100 8.618301
53.105 8.740994
53.110 8.559711
53.115 8.811817
53.120 8.610951
53.125 8.470951
53.130 8.389009
53.135 8.245565
53.140 8.334089
53.145 7.820206
53.150 7.464796
53.155 7.695797
53.160 8.180051
53.165 8.624925
53.170 9.275928
53.175 9.273145
53.180 10.036871
53.185 10.66438
53.190 10.510196
53.195 10.171921
53.200 9.961875
53.205 9.555449
53.210 9.524128
53.215 9.255116
53.220 8.751277
53.225 8.859321
53.230 8.931956
53.235 8.649658
53.240 8.397639
53.245 8.484432
53.250 8.560279
53.255 8.807693
53.260 8.682605
53.265 8.370046
53.270 8.441497
53.275 8.119632
53.280 7.878929
53.285 7.467735
53.290 7.422172
53.295 7.664778
53.300 7.849493
53.305 8.06813
53.310 7.99931
53.315 7.920202
53.320 8.505298
53.325 8.34343
53.330 8.363866
53.335 8.388229
53.340 8.543577
53.345 8.833439
53.350 8.768067
53.355 8.555944
53.360 8.416016
53.365 8.454894
53.370 8.41224
53.375 8.596478
53.380 8.774088
53.385 8.887349
53.390 9.118843
53.395 8.888696
53.400 8.773448
53.405 8.536277
53.410 8.426796
53.415 8.350047
53.420 8.326055
53.425 8.579412
53.430 8.733782
53.435 8.621109
53.440 8.46646
53.445 8.362886
53.450 8.334772
53.455 8.516152
53.460 8.38044
53.465 8.633681
53.470 9.339231
53.475 10.005312
53.480 10.36688
53.485 10.28608
53.490 10.113622
53.495 9.957541
53.500 9.515522
53.505 9.069102
53.510 8.683905
53.515 8.611538
53.520 8.423131
53.525 8.520985
53.530 8.726485
53.535 8.66563
53.540 8.23566
53.545 8.128248
53.550 8.075495
53.555 8.266286
53.560 8.388289
53.565 8.352506
53.570 8.466576
53.575 9.072392
53.580 8.878182
53.585 8.86902
53.590 8.970541
53.595 9.036187
53.600 9.652456
53.605 9.697231
53.610 9.513987
53.615 10.277091
53.620 10.48617
53.625 9.996946
53.630 9.668805
53.635 9.757153
53.640 10.284471
53.645 10.097743
53.650 9.537831
53.655 9.476744
53.660 9.664616
53.665 9.24192
53.670 8.303286
53.675 8.025733
53.680 8.395528
53.685 8.299975
53.690 8.40046
53.695 8.654264
53.700 9.098214
53.705 9.397609
53.710 9.350519
53.715 9.549835
53.720 9.887199
53.725 9.980375
53.730 9.974445
53.735 9.957493
53.740 10.151413
53.745 9.81216
53.750 9.636522
53.755 9.612472
53.760 9.596828
53.765 9.347189
53.770 9.394548
53.775 9.548781
53.780 10.107727
53.785 9.884099
53.790 9.603805
53.795 9.318696
53.800 9.206635
53.805 9.254165
53.810 8.820263
53.815 8.583669
53.820 8.7929
53.825 8.69133
53.830 9.160284
53.835 9.810034
53.840 9.833343
53.845 9.7595
53.850 9.925956
53.855 9.639229
53.860 9.897518
53.865 9.512372
53.870 9.405576
53.875 9.586912
53.880 9.454222
53.885 9.243765
53.890 9.420053
53.895 9.237806
53.900 9.471577
53.905 9.386698
53.910 9.209636
53.915 9.141313
53.920 9.038926
53.925 8.899182
53.930 8.900635
53.935 8.670901
53.940 8.938107
53.945 8.947728
53.950 9.031292
53.955 9.477356
53.960 9.565935
53.965 9.766292
53.970 9.347764
53.975 9.435217
53.980 9.921622
53.985 10.155478
53.990 9.732601
53.995 9.211153
54.000 9.049843
54.005 8.952452
54.010 8.435187
54.015 8.373324
54.020 8.360783
54.025 8.83069
54.030 9.534099
54.035 9.537577
54.040 9.748144
54.045 9.352728
54.050 9.248712
54.055 9.401353
54.060 8.988584
54.065 8.532759
54.070 8.869898
54.075 8.94006
54.080 9.277241
54.085 9.287112
54.090 9.489912
54.095 10.301332
54.100 10.053629
54.105 9.934902
54.110 9.87578
54.115 9.604087
54.120 9.521194
54.125 8.772529
54.130 8.101353
54.135 8.087974
54.140 7.941515
54.145 8.138751
54.150 8.364669
54.155 8.507257
54.160 8.864835
54.165 9.200782
54.170 9.058611
54.175 9.021903
54.180 9.032308
54.185 8.736563
54.190 8.889612
54.195 8.946613
54.200 8.70203
54.205 9.379158
54.210 9.762365
54.215 9.577196
54.220 9.791024
54.225 9.685908
54.230 10.169782
54.235 10.363424
54.240 9.801113
54.245 9.247583
54.250 9.134074
54.255 9.240706
54.260 9.021648
54.265 8.650712
54.270 8.482527
54.275 8.810737
54.280 9.476186
54.285 9.389962
54.290 9.088465
54.295 8.862859
54.300 9.071631
54.305 9.41034
54.310 9.377219
54.315 8.928555
54.320 8.702869
54.325 8.707711
54.330 8.754447
54.335 8.78034
54.340 8.649953
54.345 8.591279
54.350 8.516618
54.355 9.099482
54.360 9.147687
54.365 9.161599
54.370 8.892649
54.375 8.816867
54.380 8.915749
54.385 9.189446
54.390 9.126261
54.395 9.642017
54.400 10.13896
54.405 10.521845
54.410 10.667168
54.415 10.430946
54.420 10.282641
54.425 10.103879
54.430 9.647804
54.435 9.019766
54.440 9.051429
54.445 8.945134
54.450 9.103337
54.455 8.741165
54.460 8.206417
54.465 7.804614
54.470 8.009506
54.475 7.702892
54.480 7.79048
54.485 8.180514
54.490 8.431507
54.495 9.001009
54.500 9.609056
54.505 9.298962
54.510 9.10036
54.515 9.089606
54.520 8.525415
54.525 8.476743
54.530 7.81777
54.535 7.464365
54.540 7.699199
54.545 8.146238
54.550 8.814143
54.555 9.252019
54.560 9.594646
54.565 9.930704
54.570 9.939664
54.575 10.063067
54.580 9.735518
54.585 9.579045
54.590 9.548708
54.595 9.701906
54.600 9.858541
54.605 9.819942
54.610 10.003941
54.615 10.002891
54.620 10.208042
54.625 10.081809
54.630 10.205312
54.635 10.587406
54.640 10.631084
54.645 10.295813
54.650 10.220308
54.655 9.776166
54.660 9.819854
54.665 9.875079
54.670 9.322553
54.675 9.475254
54.680 9.395941
54.685 9.55725
54.690 9.831805
54.695 9.79313
54.700 9.621352
54.705 9.905047
54.710 9.145223
54.715 8.97158
54.720 8.691441
54.725 8.658981
54.730 8.533597
54.735 8.75479
54.740 8.824963
54.745 9.51687
54.750 9.785677
54.755 10.636621
54.760 10.940432
54.765 11.105496
54.770 10.827494
54.775 10.910856
54.780 10.82802
54.785 10.371263
54.790 9.646075
54.795 9.479997
54.800 9.85265
54.805 10.37749
54.810 10.497817
54.815 10.708822
54.820 10.584163
54.825 10.482621
54.830 10.163717
54.835 9.387729
54.840 9.042114
54.845 9.376511
54.850 9.824962
54.855 10.130322
54.860 10.492723
54.865 10.681324
54.870 10.825214
54.875 10.66665
54.880 10.551396
54.885 10.427774
54.890 10.416632
54.895 10.273629
54.900 10.456572
54.905 10.717882
54.910 10.598298
54.915 9.955149
54.920 9.415496
54.925 9.102687
54.930 9.05684
54.935 9.007444
54.940 8.609346
54.945 8.630506
54.950 8.871505
54.955 9.27436
54.960 9.324277
54.965 9.002598
54.970 8.715928
54.975 9.048315
54.980 9.295578
54.985 9.416886
54.990 9.272568
54.995 9.47661
55.000 9.338867
55.005 9.30591
55.010 9.112151
55.015 8.720139
55.020 8.607226
55.025 8.398521
55.030 8.605989
55.035 8.708838
55.040 8.778604
55.045 8.796191
55.050 9.01331
55.055 8.89574
55.060 8.977508
55.065 9.028008
55.070 9.4317
55.075 9.420272
55.080 9.119658
55.085 9.012604
55.090 9.274714
55.095 9.127159
55.100 8.995915
55.105 8.52741
55.110 8.982488
55.115 8.950772
55.120 9.227032
55.125 9.574471
55.130 9.941631
55.135 10.051839
55.140 10.187474
55.145 9.544438
55.150 9.801941
55.155 9.332471
55.160 9.281966
55.165 9.093481
55.170 8.744005
55.175 9.300281
55.180 9.579195
55.185 9.470849
55.190 9.778094
55.195 9.612922
55.200 9.862631
55.205 9.911211
55.210 9.671092
55.215 9.585033
55.220 9.654518
55.225 9.148512
55.230 9.029305
55.235 9.335428
55.240 9.555066
55.245 9.921036
55.250 9.842323
55.255 10.138415
55.260 10.435136
55.265 10.530526
55.270 10.630579
55.275 10.414089
55.280 10.26011
55.285 10.255871
55.290 9.830006
55.295 9.322555
55.300 9.144711
55.305 8.841715
55.310 9.004322
55.315 9.016535
55.320 9.148195
55.325 9.510606
55.330 9.638722
55.335 9.323591
55.340 9.04183
55.345 8.857231
55.350 9.04614
55.355 8.947803
55.360 9.252301
55.365 9.522164
55.370 9.751613
55.375 9.762518
55.380 9.647403
55.385 9.411501
55.390 9.510767
55.395 9.109839
55.400 8.98407
55.405 8.936859
55.410 8.928089
55.415 8.886141
55.420 9.119365
55.425 8.601571
55.430 8.526214
55.435 8.533367
55.440 8.318554
55.445 8.068418
55.450 8.204513
55.455 8.059302
55.460 7.930972
55.465 7.7537
55.470 7.418266
55.475 7.920937
55.480 8.318542
55.485 8.307717
55.490 8.654999
55.495 9.119209
55.500 9.285411
55.505 9.509566
55.510 9.091972
55.515 9.302846
55.520 8.99034
55.525 9.138756
55.530 9.236422
55.535 9.4289
55.540 9.720479
55.545 9.518097
55.550 9.383347
55.555 9.685081
55.560 9.415872
55.565 9.430936
55.570 9.621166
55.575 9.569569
55.580 10.316396
55.585 10.38764
55.590 10.334052
55.595 10.642965
55.600 10.782401
55.605 10.426588
55.610 10.498682
55.615 10.111323
55.620 9.673101
55.625 9.34059
55.630 9.176964
55.635 8.935829
55.640 8.622726
55.645 8.427235
55.650 8.358612
55.655 8.545304
55.660 8.554307
55.665 8.129826
55.670 7.819321
55.675 8.006751
55.680 7.752711
55.685 7.91457
55.690 8.188408
55.695 8.512877
55.700 8.521304
55.705 8.510477
55.710 8.235493
55.715 8.384949
55.720 8.394797
55.725 8.081473
55.730 8.11203
55.735 8.387515
55.740 8.518251
55.745 8.908278
55.750 9.210056
55.755 9.345555
55.760 9.384638
55.765 9.196173
55.770 9.045037
55.775 9.046959
55.780 8.824475
55.785 8.361462
55.790 8.479467
55.795 8.654019
55.800 8.366129
55.805 8.283321
55.810 8.574834
55.815 9.03852
55.820 9.448409
55.825 9.243572
55.830 9.345749
55.835 10.091942
55.840 10.789211
55.845 10.488985
55.850 10.163537
55.855 10.005042
55.860 10.123791
55.865 10.203561
55.870 9.50219
55.875 9.207947
55.880 9.550187
55.885 9.978968
55.890 10.141811
55.895 10.219169
55.900 9.980844
55.905 10.144978
55.910 10.113735
55.915 9.773226
55.920 9.438555
55.925 9.147242
55.930 8.937364
55.935 9.179033
55.940 9.129635
55.945 9.043457
55.950 9.371977
55.955 9.421033
55.960 9.582115
55.965 9.655447
55.970 9.338702
55.975 9.265333
55.980 9.110403
55.985 8.839799
55.990 8.549463
55.995 8.363712
56.000 8.684057
56.005 9.476942
56.010 9.963754
56.015 10.204968
56.020 10.304559
56.025 10.68752
56.030 10.822546
56.035 10.937959
56.040 10.47783
56.045 10.256172
56.050 9.877689
56.055 10.143914
56.060 10.198235
56.065 10.190291
56.070 10.204366
56.075 10.413721
56.080 10.449574
56.085 10.431171
56.090 10.198773
56.095 10.101694
56.100 9.635206
56.105 9.209813
56.110 8.709576
56.115 8.951806
56.120 8.975561
56.125 8.34881
56.130 8.163823
56.135 8.413145
56.140 8.646952
56.145 8.917666
56.150 8.87376
56.155 9.070127
56.160 10.324392
56.165 10.319206
56.170 10.01576
56.175 9.985394
56.180 10.413651
56.185 10.603516
56.190 10.162419
56.195 9.413828
56.200 9.40451
56.205 9.423008
56.210 9.075658
56.215 8.429693
56.220 8.335108
56.225 8.456722
56.230 8.934304
56.235 9.302794
56.240 9.567761
56.245 9.883015
56.250 10.120712
56.255 10.084881
56.260 9.941559
56.265 10.258622
56.270 9.822315
56.275 9.990473
56.280 9.58822
56.285 9.353383
56.290 9.127559
56.295 9.231749
56.300 9.114157
56.305 9.400026
56.310 9.3083
56.315 9.801284
56.320 10.354579
56.325 10.818323
56.330 10.922278
56.335 10.649459
56.340 10.727689
56.345 10.727096
56.350 11.14645
56.355 10.815968
56.360 10.95894
56.365 10.567891
56.370 10.65653
56.375 10.720975
56.380 10.681857
56.385 10.808735
56.390 10.911648
56.395 10.847212
56.400 10.999521
56.405 10.642426
56.410 10.429337
56.415 9.935396
56.420 9.284492
56.425 9.495706
56.430 9.461251
56.435 9.642799
56.440 9.713445
56.445 9.993741
56.450 10.245751
56.455 10.424773
56.460 10.536532
56.465 10.568303
56.470 10.516528
56.475 10.357721
56.480 10.576088
56.485 10.85621
56.490 10.877164
56.495 10.47924
56.500 10.08019
56.505 10.171307
56.510 10.377928
56.515 10.188345
56.520 10.08107
56.525 10.738869
56.530 10.507469
56.535 10.972267
56.540 11.084812
56.545 10.771097
56.550 10.484364
56.555 10.525094
56.560 9.889328
56.565 10.457645
56.570 10.270769
56.575 10.45415
56.580 10.864792
56.585 11.449237
56.590 11.432512
56.595 11.507453
56.600 11.383713
56.605 11.470957
56.610 11.56918
56.615 11.396632
56.620 10.861849
56.625 9.907376
56.630 9.985263
56.635 9.947632
56.640 10.09611
56.645 9.937259
56.650 10.097949
56.655 10.190819
56.660 10.40693
56.665 10.342397
56.670 9.875735
56.675 9.142174
56.680 9.346294
56.685 9.681652
56.690 10.028609
56.695 10.423251
56.700 10.257798
56.705 10.782239
56.710 11.672737
56.715 11.519902
56.720 11.303004
56.725 11.178988
56.730 11.205606
56.735 11.657939
56.740 11.254987
56.745 10.336048
56.750 10.321347
56.755 10.011589
56.760 9.969332
56.765 9.946863
56.770 9.745754
56.775 10.046807
56.780 10.189118
56.785 9.926806
56.790 10.213957
56.795 10.195818
56.800 9.694346
56.805 9.281277
56.810 8.83778
56.815 9.214373
56.820 9.424404
56.825 9.146031
56.830 9.300876
56.835 9.475048
56.840 9.984602
56.845 10.048551
56.850 9.8187
56.855 10.159873
56.860 10.634808
56.865 10.944418
56.870 11.016316
56.875 10.700703
56.880 10.75306
56.885 10.604466
56.890 9.773447
56.895 9.429067
56.900 9.018286
56.905 9.092103
56.910 9.252395
56.915 9.285501
56.920 9.220639
56.925 9.696635
56.930 9.84466
56.935 9.690556
56.940 9.769496
56.945 9.546552
56.950 9.869514
56.955 10.529542
56.960 10.467752
56.965 10.057273
56.970 10.185876
56.975 10.628358
56.980 10.791349
56.985 10.396128
56.990 9.995449
56.995 9.762775
57.000 10.062057
57.005 9.792379
57.010 9.225926
57.015 9.421792
57.020 9.460823
57.025 9.690068
57.030 9.933434
57.035 9.915874
57.040 10.122419
57.045 10.144034
57.050 10.213012
57.055 9.92785
57.060 9.619773
57.065 9.50812
57.070 9.23761
57.075 9.059738
57.080 9.037462
57.085 8.759024
57.090 8.569453
57.095 8.798714
57.100 8.906629
57.105 9.498122
57.110 9.666116
57.115 9.142307
57.120 9.111872
57.125 9.012088
57.130 9.05196
57.135 8.856728
57.140 8.561814
57.145 8.255476
57.150 8.872437
57.155 8.923918
57.160 9.043437
57.165 9.283676
57.170 9.509453
57.175 9.669462
57.180 9.834346
57.185 9.539412
57.190 9.685982
57.195 9.856957
57.200 9.705679
57.205 9.593094
57.210 9.422221
57.215 9.22652
57.220 9.474521
57.225 9.601751
57.230 9.250039
57.235 9.073786
57.240 9.04189
57.245 9.450432
57.250 9.604352
57.255 9.370054
57.260 9.273952
57.265 9.430575
57.270 9.452743
57.275 9.199834
57.280 9.074888
57.285 9.270565
57.290 9.067941
57.295 8.987488
57.300 8.945815
57.305 9.26741
57.310 9.609776
57.315 9.691989
57.320 9.492632
57.325 10.021963
57.330 10.284189
57.335 10.435554
57.340 10.361068
57.345 9.988884
57.350 9.435337
57.355 9.488408
57.360 9.274224
57.365 9.311529
57.370 9.144295
57.375 8.716873
57.380 8.864506
57.385 9.557409
57.390 9.654284
57.395 9.479483
57.400 9.200998
57.405 9.562008
57.410 10.475477
57.415 10.685932
57.420 10.395578
57.425 10.172957
57.430 10.437869
57.435 11.009369
57.440 10.859831
57.445 10.317678
57.450 9.999007
57.455 10.359732
57.460 10.470592
57.465 10.274158
57.470 9.577048
57.475 9.197906
57.480 9.137848
57.485 9.512421
57.490 9.496448
57.495 9.510405
57.500 9.58262
57.505 9.471204
57.510 9.184574
57.515 9.019816
57.520 8.662391
57.525 8.382138
57.530 8.147714
57.535 8.414303
57.540 8.777154
57.545 9.055134
57.550 9.1691
57.555 8.871876
57.560 8.830583
57.565 9.081773
57.570 8.751621
57.575 9.030687
57.580 9.170163
57.585 9.325119
57.590 9.37039
57.595 9.384699
57.600 9.116378
57.605 9.339735
57.610 9.227086
57.615 9.392051
57.620 9.471786
57.625 9.768262
57.630 10.020452
57.635 10.01519
57.640 9.935265
57.645 9.527229
57.650 9.249173
57.655 9.066854
57.660 8.953254
57.665 8.942931
57.670 9.067463
57.675 9.017728
57.680 9.30534
57.685 9.475689
57.690 9.399746
57.695 9.445373
57.700 9.185267
57.705 9.032796
57.710 8.849729
57.715 8.600489
57.720 8.48694
57.725 8.858973
57.730 8.848046
57.735 8.957011
57.740 9.312037
57.745 9.42729
57.750 9.62023
57.755 9.900382
57.760 9.492641
57.765 9.737362
57.770 9.778689
57.775 9.525648
57.780 9.616802
57.785 9.498978
57.790 9.48582
57.795 9.772813
57.800 9.393357
57.805 9.375887
57.810 9.525681
57.815 10.107978
57.820 9.963311
57.825 9.964231
57.830 9.786361
57.835 10.057627
57.840 10.108946
57.845 9.935968
57.850 9.564353
57.855 9.926491
57.860 9.913652
57.865 9.917118
57.870 10.262472
57.875 10.40953
57.880 10.288293
57.885 10.342023
57.890 10.599405
57.895 10.947567
57.900 11.016401
57.905 10.667293
57.910 10.45001
57.915 10.720184
57.920 10.419211
57.925 9.766646
57.930 9.595389
57.935 9.345906
57.940 8.911733
57.945 8.783036
57.950 8.882507
57.955 9.243421
57.960 9.480681
57.965 9.784973
57.970 10.256241
57.975 10.897647
57.980 11.367027
57.985 11.151906
57.990 10.662612
57.995 10.328735
58.000 9.890445
58.005 9.369065
58.010 9.045557
58.015 8.59634
58.020 8.801075
58.025 9.379712
58.030 9.686937
58.035 10.077795
58.040 10.454713
58.045 10.570019
58.050 10.597683
58.055 10.628826
58.060 10.266424
58.065 10.083748
58.070 10.221271
58.075 10.240984
58.080 10.305
58.085 10.419218
58.090 10.169471
58.095 9.991506
58.100 9.764672
58.105 9.635507
58.110 9.471333
58.115 9.400311
58.120 9.153814
58.125 9.583545
58.130 9.652729
58.135 9.533984
58.140 9.482127
58.145 9.49267
58.150 9.598324
58.155 9.596596
58.160 9.601563
58.165 10.30361
58.170 10.622485
58.175 10.709649
58.180 10.641025
58.185 10.650117
58.190 10.868512
58.195 10.558234
58.200 10.008892
58.205 9.823778
58.210 9.905035
58.215 9.860121
58.220 9.566511
58.225 9.448413
58.230 9.64371
58.235 9.84742
58.240 9.789728
58.245 9.792367
58.250 10.22443
58.255 10.878919
58.260 10.956842
58.265 11.008241
58.270 11.274111
58.275 11.445675
58.280 11.27825
58.285 11.094677
58.290 10.603577
58.295 10.443583
58.300 10.13673
58.305 9.982733
58.310 10.088582
58.315 9.852694
58.320 9.749751
58.325 10.071918
58.330 10.188313
58.335 10.01707
58.340 10.047847
58.345 9.994164
58.350 10.473698
58.355 10.717949
58.360 10.663594
58.365 10.779932
58.370 11.012102
58.375 10.770318
58.380 10.844451
58.385 10.733283
58.390 10.558194
58.395 10.518811
58.400 10.245566
58.405 9.96568
58.410 9.859612
58.415 9.804636
58.420 9.522756
58.425 9.399008
58.430 9.522179
58.435 9.933616
58.440 10.280209
58.445 10.312491
58.450 10.249237
58.455 10.697685
58.460 10.705984
58.465 10.996305
58.470 11.456779
58.475 11.311131
58.480 11.727553
58.485 11.543379
58.490 11.459237
58.495 11.699157
58.500 11.673519
58.505 11.351902
58.510 11.53383
58.515 11.551324
58.520 12.094136
58.525 12.403899
58.530 12.475314
58.535 12.544692
58.540 12.629115
58.545 13.025376
58.550 12.786042
58.555 12.235271
58.560 11.968468
58.565 11.8515
58.570 11.386469
58.575 11.148812
58.580 10.791044
58.585 10.929421
58.590 11.256495
58.595 11.284254
58.600 11.387066
58.605 12.07218
58.610 11.740017
58.615 11.470051
58.620 11.253589
58.625 11.093959
58.630 10.844119
58.635 10.610955
58.640 10.378608
58.645 10.524739
58.650 11.055483
58.655 11.228964
58.660 11.322401
58.665 11.296304
58.670 11.10708
58.675 10.915013
58.680 11.203484
58.685 11.173061
58.690 10.638474
58.695 10.853903
58.700 11.101533
58.705 11.269856
58.710 10.923697
58.715 10.786735
58.720 10.882245
58.725 10.744342
58.730 10.652696
58.735 10.215753
58.740 9.850834
58.745 10.056143
58.750 9.760174
58.755 9.590852
58.760 9.962711
58.765 9.619724
58.770 9.811563
58.775 10.171782
58.780 10.264138
58.785 10.491734
58.790 10.674232
58.795 10.838193
58.800 11.177367
58.805 11.016255
58.810 10.655364
58.815 10.679739
58.820 10.251126
58.825 10.395089
58.830 10.168693
58.835 9.770438
58.840 9.549394
58.845 9.280759
58.850 9.354942
58.855 9.594263
58.860 9.608525
58.865 9.744421
58.870 10.577472
58.875 11.664873
58.880 12.43368
58.885 12.300994
58.890 12.149926
58.895 11.771137
58.900 11.314075
58.905 10.771265
58.910 10.498827
58.915 10.338305
58.920 10.260435
58.925 10.04705
58.930 10.083426
58.935 10.419064
58.940 10.446906
58.945 10.205735
58.950 10.255813
58.955 10.514404
58.960 10.834824
58.965 11.073089
58.970 11.529587
58.975 11.436094
58.980 11.387506
58.985 11.182593
58.990 11.244383
58.995 11.486059
59.000 11.418817
59.005 11.149093
59.010 11.224761
59.015 11.191286
59.020 10.881288
59.025 10.53974
59.030 10.103357
59.035 10.186395
59.040 10.090593
59.045 9.834061
59.050 10.110164
59.055 10.256958
59.060 10.154929
59.065 10.534188
59.070 10.537954
59.075 10.543449
59.080 10.698633
59.085 10.719723
59.090 10.541288
59.095 10.266717
59.100 9.773628
59.105 9.411613
59.110 9.559134
59.115 9.928128
59.120 9.803246
59.125 10.017658
59.130 9.990585
59.135 9.993785
59.140 10.002935
59.145 9.850253
59.150 9.193905
59.155 9.76245
59.160 9.816887
59.165 10.074039
59.170 10.349609
59.175 10.621787
59.180 10.702819
59.185 11.363455
59.190 11.243284
59.195 11.497921
59.200 11.186587
59.205 11.091196
59.210 11.150125
59.215 10.671636
59.220 10.148856
59.225 9.760073
59.230 9.445416
59.235 9.70917
59.240 9.491136
59.245 9.031022
59.250 9.007689
59.255 8.815814
59.260 8.906881
59.265 8.831534
59.270 8.796195
59.275 8.769512
59.280 9.072153
59.285 9.056581
59.290 9.128923
59.295 9.366686
59.300 9.58079
59.305 9.299025
59.310 9.314607
59.315 9.551826
59.320 10.086783
59.325 10.050578
59.330 9.692127
59.335 9.826332
59.340 10.064989
59.345 10.154142
59.350 9.993242
59.355 9.716187
59.360 9.871024
59.365 9.769793
59.370 9.614277
59.375 9.486428
59.380 9.123919
59.385 9.453088
59.390 9.813214
59.395 9.444957
59.400 9.618615
59.405 9.942773
59.410 10.199769
59.415 10.508011
59.420 10.187455
59.425 10.012322
59.430 10.177383
59.435 10.003175
59.440 9.796395
59.445 9.713972
59.450 9.611207
59.455 9.446563
59.460 9.388638
59.465 9.411731
59.470 9.160041
59.475 9.204555
59.480 9.664624
59.485 9.693592
59.490 9.554966
59.495 9.736277
59.500 9.710717
59.505 9.763389
59.510 9.434148
59.515 9.062274
59.520 9.041551
59.525 8.987774
59.530 8.936855
59.535 9.269246
59.540 9.764814
59.545 10.059806
59.550 10.104395
59.555 10.087473
59.560 10.249313
59.565 10.400501
59.570 10.501101
59.575 9.751903
59.580 9.805472
59.585 9.819567
59.590 10.249715
59.595 10.341799
59.600 10.273145
59.605 10.123933
59.610 10.711116
59.615 10.326778
59.620 10.057991
59.625 9.597036
59.630 9.279952
59.635 8.745945
59.640 9.065464
59.645 9.17335
59.650 9.301061
59.655 9.399337
59.660 9.412512
59.665 9.534081
59.670 9.848222
59.675 9.662075
59.680 9.483312
59.685 9.554952
59.690 9.50074
59.695 9.545214
59.700 10.139016
59.705 10.065557
59.710 9.974965
59.715 10.109517
59.720 10.273588
59.725 10.559472
59.730 10.433245
59.735 10.032797
59.740 10.108319
59.745 10.143558
59.750 9.814337
59.755 9.495008
59.760 9.470732
59.765 9.606862
59.770 9.763664
59.775 10.051251
59.780 10.1468
59.785 10.222308
59.790 10.500587
59.795 10.410892
59.800 10.135955
59.805 9.792474
59.810 9.695093
59.815 10.459525
59.820 10.42016
59.825 10.346065
59.830 10.612573
59.835 10.705112
59.840 10.642413
59.845 10.07592
59.850 9.256178
59.855 9.028389
59.860 9.347831
59.865 9.220025
59.870 9.375197
59.875 10.165456
59.880 10.406866
59.885 10.316123
59.890 10.175814
59.895 9.532783
59.900 9.383888
59.905 9.322012
59.910 8.714926
59.915 8.612712
59.920 8.535121
59.925 9.033376
59.930 9.275548
59.935 9.248813
59.940 9.438806
59.945 9.080953
59.950 9.581537
59.955 10.032408
59.960 9.958608
59.965 9.907051
59.970 9.960464
59.975 9.9745
59.980 10.449132
59.985 10.293288
59.990 10.607472
59.995 10.303208
60.000 9.96594
60.005 9.866508
60.010 9.850188
60.015 9.466393
60.020 9.238817
60.025 9.085925
60.030 9.307405
60.035 10.133998
60.040 10.308469
60.045 10.496126
60.050 10.57762
60.055 10.371538
60.060 10.36234
60.065 10.504821
60.070 10.298136
60.075 9.802027
60.080 9.788334
60.085 10.373658
60.090 10.617392
60.095 10.580944
60.100 10.243644
60.105 10.126637
60.110 10.387182
60.115 10.250615
60.120 9.887444
60.125 9.749012
60.130 9.917093
60.135 10.039412
60.140 10.111632
60.145 10.014424
60.150 9.92905
60.155 10.010138
60.160 10.347603
60.165 10.075875
60.170 10.260005
60.175 10.406798
60.180 10.380261
60.185 10.585066
60.190 10.352859
60.195 9.804429
60.200 10.366422
60.205 10.80164
60.210 10.550914
60.215 10.151957
60.220 9.864017
60.225 9.910028
60.230 9.866076
60.235 9.329836
60.240 8.752185
60.245 8.780785
60.250 9.232927
60.255 9.204453
60.260 9.334159
60.265 9.567654
60.270 9.487811
60.275 9.653102
60.280 9.840569
60.285 9.423306
60.290 9.583843
60.295 9.555519
60.300 9.596265
60.305 10.153376
60.310 10.026554
60.315 10.305113
60.320 10.609406
60.325 10.66761
60.330 10.202931
60.335 10.076296
60.340 9.66047
60.345 9.681458
60.350 9.494209
60.355 9.239471
60.360 8.992702
60.365 9.383754
60.370 9.572866
60.375 9.779258
60.380 9.637157
60.385 9.38185
60.390 9.689143
60.395 10.188937
60.400 9.962069
60.405 9.74202
60.410 9.350949
60.415 9.679991
60.420 10.478028
60.425 10.639062
60.430 10.821206
60.435 10.803001
60.440 10.605096
60.445 10.936651
60.450 10.881762
60.455 10.597212
60.460 10.12131
60.465 9.71192
60.470 10.347578
60.475 10.621912
60.480 10.941348
60.485 10.644685
60.490 10.711968
60.495 10.687713
60.500 10.57541
60.505 10.110581
60.510 9.905922
60.515 9.436861
60.520 9.573366
60.525 9.457603
60.530 9.80115
60.535 9.687604
60.540 9.800426
60.545 9.958378
60.550 9.606544
60.555 9.40904
60.560 9.493802
60.565 10.018657
60.570 9.966904
60.575 9.392923
60.580 9.840257
60.585 10.150284
60.590 10.04415
60.595 9.984271
60.600 9.541758
60.605 10.140955
60.610 10.218454
60.615 9.680737
60.620 9.762821
60.625 9.690861
60.630 9.333819
60.635 9.053557
60.640 8.608539
60.645 8.708581
60.650 8.719947
60.655 8.494754
60.660 8.582022
60.665 8.776392
60.670 8.871484
60.675 8.849586
60.680 8.827592
60.685 8.856234
60.690 9.317275
60.695 9.691024
60.700 9.657067
60.705 9.790714
60.710 9.580008
60.715 9.921546
60.720 9.967384
60.725 9.543345
60.730 9.353074
60.735 9.13798
60.740 8.798501
60.745 8.873072
60.750 8.920012
60.755 9.229642
60.760 9.668497
60.765 9.764845
60.770 9.936533
60.775 10.009755
60.780 10.01467
60.785 9.64561
60.790 9.493744
60.795 8.863482
60.800 8.85317
60.805 8.664215
60.810 8.896833
60.815 9.312829
60.820 9.426738
60.825 9.64481
60.830 9.788129
60.835 9.668711
60.840 9.649552
60.845 9.819441
60.850 9.598583
60.855 9.672009
60.860 9.506384
60.865 9.750424
60.870 9.751203
60.875 10.302465
60.880 10.291502
60.885 10.770009
60.890 10.867624
60.895 10.929798
60.900 10.867166
60.905 10.940132
60.910 10.53404
60.915 10.489005
60.920 10.079244
60.925 10.492763
60.930 10.769054
60.935 10.783772
60.940 10.813684
60.945 10.969149
60.950 11.026825
60.955 10.972635
60.960 10.491862
60.965 10.476961
60.970 10.495579
60.975 10.431805
60.980 10.431402
60.985 10.192078
60.990 9.994429
60.995 9.750877
61.000 9.490178
61.005 9.154737
61.010 9.032917
61.015 9.319304
61.020 9.397604
61.025 9.423541
61.030 9.539993
61.035 9.61649
61.040 10.208371
61.045 10.49448
61.050 10.344985
61.055 10.602777
61.060 10.68716
61.065 10.679372
61.070 10.882823
61.075 10.630144
61.080 10.374829
61.085 10.002664
61.090 9.760145
61.095 9.422135
61.100 9.102636
61.105 8.905671
61.110 8.782371
61.115 8.560188
61.120 8.638806
61.125 9.065087
61.130 9.525355
61.135 9.398167
61.140 9.068364
61.145 9.445765
61.150 9.781395
61.155 9.982368
61.160 10.161491
61.165 10.251609
61.170 10.846115
61.175 11.150778
61.180 10.783291
61.185 10.825243
61.190 10.720428
61.195 9.996464
61.200 10.163076
61.205 9.901523
61.210 9.697084
61.215 9.609909
61.220 9.627968
61.225 9.704545
61.230 9.822207
61.235 9.50326
61.240 9.989614
61.245 10.576769
61.250 10.933173
61.255 10.867158
61.260 10.786821
61.265 10.398733
61.270 10.285874
61.275 9.625976
61.280 9.132697
61.285 9.113024
61.290 9.295643
61.295 9.468283
61.300 10.091497
61.305 10.416533
61.310 10.460818
61.315 10.184704
61.320 9.881246
61.325 9.795554
61.330 9.233853
61.335 8.971126
61.340 8.821022
61.345 9.145302
61.350 9.456796
61.355 9.484549
61.360 9.432074
61.365 10.025376
61.370 10.104569
61.375 9.801625
61.380 9.713367
61.385 9.313546
61.390 8.985137
61.395 8.748193
61.400 8.372265
61.405 8.529011
61.410 8.723146
61.415 8.657908
61.420 9.067062
61.425 9.501892
61.430 9.713511
61.435 9.713938
61.440 9.809056
61.445 10.256816
61.450 10.36503
61.455 10.342326
61.460 10.528892
61.465 10.788189
61.470 11.246663
61.475 10.703675
61.480 10.364566
61.485 10.273594
61.490 10.508585
61.495 9.985647
61.500 9.8015
61.505 9.482206
61.510 9.219764
61.515 8.826266
61.520 8.681647
61.525 8.652995
61.530 8.620937
61.535 8.376591
61.540 8.420137
61.545 8.948483
61.550 9.489697
61.555 9.889685
61.560 9.95085
61.565 10.227024
61.570 10.547503
61.575 10.496901
61.580 10.341751
61.585 10.069875
61.590 9.832485
61.595 9.696799
61.600 9.457077
61.605 9.308558
61.610 9.127034
61.615 9.207418
61.620 9.364751
61.625 9.506686
61.630 9.976085
61.635 9.908503
61.640 9.815384
61.645 10.079705
61.650 10.286555
61.655 10.392449
61.660 10.211967
61.665 10.061091
61.670 10.274816
61.675 10.761548
61.680 10.729508
61.685 10.520743
61.690 10.421367
61.695 10.209936
61.700 10.087662
61.705 10.082958
61.710 9.381921
61.715 9.424129
61.720 9.049243
61.725 8.619532
61.730 8.812751
61.735 8.621225
61.740 8.724831
61.745 9.052591
61.750 9.157166
61.755 9.821916
61.760 10.524864
61.765 10.591879
61.770 10.639107
61.775 10.496793
61.780 10.325909
61.785 10.069085
61.790 9.720609
61.795 9.536242
61.800 9.458763
61.805 9.455635
61.810 9.359413
61.815 9.674031
61.820 9.76825
61.825 9.704262
61.830 9.519013
61.835 9.486038
61.840 9.657878
61.845 9.642655
61.850 9.106494
61.855 8.846226
61.860 9.115372
61.865 9.112714
61.870 9.295676
61.875 9.479661
61.880 10.008139
61.885 10.785568
61.890 10.967546
61.895 10.672619
61.900 10.643308
61.905 10.630581
61.910 10.448964
61.915 9.96976
61.920 9.469643
61.925 9.060191
61.930 9.142356
61.935 9.142819
61.940 8.846387
61.945 8.884858
61.950 9.050886
61.955 9.190861
61.960 9.817266
61.965 9.772666
61.970 9.847077
61.975 10.195526
61.980 10.337334
61.985 10.530053
61.990 10.569528
61.995 10.668824
62.000 11.022881
62.005 10.874763
62.010 10.588246
62.015 10.184852
62.020 9.962871
62.025 10.075197
62.030 10.207047
62.035 9.863754
62.040 9.708062
62.045 9.865376
62.050 10.14787
62.055 10.100399
62.060 9.833741
62.065 9.355326
62.070 9.499372
62.075 9.945762
62.080 10.06904
62.085 10.210548
62.090 10.146048
62.095 10.297928
62.100 9.961158
62.105 9.698386
62.110 9.670341
62.115 9.738934
62.120 9.826253
62.125 10.284536
62.130 10.225842
62.135 10.855624
62.140 11.350564
62.145 11.47087
62.150 11.361947
62.155 11.407168
62.160 11.273019
62.165 11.658887
62.170 12.004729
62.175 12.160975
62.180 12.27103
62.185 12.579747
62.190 12.399069
62.195 11.948719
62.200 11.565688
62.205 11.223193
62.210 10.735608
62.215 10.610607
62.220 10.247787
62.225 10.093295
62.230 10.256015
62.235 10.370982
62.240 10.497915
62.245 10.214662
62.250 9.43434
62.255 9.350946
62.260 9.731938
62.265 9.522276
62.270 9.313598
62.275 9.427134
62.280 9.65906
62.285 9.827813
62.290 9.762901
62.295 9.839531
62.300 10.27459
62.305 10.357789
62.310 9.959017
62.315 10.210813
62.320 10.262213
62.325 10.208504
62.330 10.196936
62.335 9.707845
62.340 9.667994
62.345 9.82682
62.350 9.678816
62.355 9.805477
62.360 9.700429
62.365 9.366985
62.370 9.591286
62.375 9.988731
62.380 10.004335
62.385 9.882565
62.390 9.954313
62.395 10.008767
62.400 10.111983
62.405 9.93119
62.410 10.127997
62.415 10.659739
62.420 11.166431
62.425 11.084107
62.430 10.858329
62.435 10.765245
62.440 10.819594
62.445 10.313762
62.450 9.603171
62.455 9.512706
62.460 9.829242
62.465 10.607462
62.470 10.829827
62.475 10.752924
62.480 10.621364
62.485 10.389232
62.490 10.091945
62.495 9.991895
62.500 10.00165
62.505 9.985948
62.510 9.944169
62.515 10.120909
62.520 10.447508
62.525 10.54318
62.530 10.474509
62.535 10.486712
62.540 10.533871
62.545 10.515647
62.550 10.581643
62.555 10.681865
62.560 10.974008
62.565 10.925073
62.570 10.573676
62.575 10.618256
62.580 10.870746
62.585 10.897733
62.590 11.00722
62.595 11.202323
62.600 11.211033
62.605 11.227738
62.610 11.320457
62.615 11.037902
62.620 10.662313
62.625 10.153607
62.630 10.284106
62.635 10.237158
62.640 10.119666
62.645 10.406172
62.650 11.032834
62.655 11.407715
62.660 11.782087
62.665 11.662668
62.670 12.060705
62.675 12.297632
62.680 12.259555
62.685 12.217441
62.690 12.400145
62.695 12.318666
62.700 11.764664
62.705 11.578717
62.710 11.501107
62.715 11.069225
62.720 10.662572
62.725 10.41096
62.730 10.324769
62.735 10.475722
62.740 10.595101
62.745 10.444248
62.750 10.539061
62.755 11.182663
62.760 11.734698
62.765 11.923633
62.770 11.749485
62.775 11.833912
62.780 12.150235
62.785 12.322729
62.790 12.301717
62.795 12.220072
62.800 12.250141
62.805 12.670284
62.810 12.591106
62.815 12.271109
62.820 11.917565
62.825 11.526204
62.830 11.421687
62.835 10.997645
62.840 10.650574
62.845 10.575722
62.850 10.735722
62.855 11.044209
62.860 11.12155
62.865 10.925553
62.870 11.567375
62.875 12.051844
62.880 12.043272
62.885 12.076157
62.890 11.688879
62.895 11.370499
62.900 11.674543
62.905 11.376286
62.910 11.125339
62.915 10.819656
62.920 10.771853
62.925 10.650908
62.930 10.566994
62.935 10.358899
62.940 10.277669
62.945 10.243797
62.950 10.492116
62.955 10.540709
62.960 10.732765
62.965 10.654486
62.970 10.414835
62.975 10.390794
62.980 10.463481
62.985 10.436643
62.990 10.51965
62.995 10.693488
63.000 11.026116
63.005 11.469289
63.010 10.927258
63.015 10.74545
63.020 10.559594
63.025 10.172855
63.030 10.205101
63.035 9.543251
63.040 9.148808
63.045 9.651074
63.050 9.82378
63.055 10.112274
63.060 10.636364
63.065 10.680079
63.070 11.028567
63.075 11.022886
63.080 10.99663
63.085 10.955719
63.090 10.760321
63.095 10.126449
63.100 10.097462
63.105 10.246688
63.110 10.361944
63.115 10.47381
63.120 10.564154
63.125 10.337217
63.130 10.586991
63.135 10.675777
63.140 10.527328
63.145 10.599652
63.150 10.265918
63.155 10.231253
63.160 10.344255
63.165 10.330337
63.170 9.739669
63.175 10.003472
63.180 9.961924
63.185 9.959836
63.190 9.741207
63.195 9.84599
63.200 10.058077
63.205 10.465821
63.210 10.6254
63.215 10.473679
63.220 10.397511
63.225 10.551674
63.230 10.431729
63.235 10.313126
63.240 9.922128
63.245 9.345526
63.250 9.448514
63.255 9.814786
63.260 10.047858
63.265 10.423561
63.270 10.323448
63.275 10.674749
63.280 11.157319
63.285 11.753654
63.290 11.713798
63.295 11.55806
63.300 11.105036
63.305 11.153306
63.310 11.266638
63.315 10.760701
63.320 10.397653
63.325 10.227198
63.330 10.180537
63.335 10.649801
63.340 10.8329
63.345 10.971983
63.350 11.489406
63.355 11.763675
63.360 12.312067
63.365 12.331711
63.370 12.250913
63.375 12.254696
63.380 12.277715
63.385 11.799195
63.390 11.491817
63.395 11.375792
63.400 11.748929
63.405 11.516278
63.410 11.220911
63.415 10.753713
63.420 11.173694
63.425 11.265287
63.430 11.840451
63.435 12.026275
63.440 12.391824
63.445 12.361599
63.450 12.803679
63.455 13.505421
63.460 13.726079
63.465 13.374322
63.470 12.74194
63.475 12.772759
63.480 12.677341
63.485 12.614098
63.490 12.066596
63.495 11.280965
63.500 11.364452
63.505 11.440892
63.510 11.143349
63.515 11.49504
63.520 11.302069
63.525 10.805998
63.530 10.539565
63.535 10.058518
63.540 10.207099
63.545 10.18566
63.550 9.865026
63.555 9.791271
63.560 9.518516
63.565 9.806069
63.570 9.619577
63.575 9.40132
63.580 9.808692
63.585 9.912327
63.590 10.046545
63.595 10.155571
63.600 10.118348
63.605 10.174211
63.610 9.938277
63.615 9.403821
63.620 9.359307
63.625 9.452208
63.630 9.753556
63.635 9.91767
63.640 10.371779
63.645 10.706713
63.650 11.010502
63.655 10.89035
63.660 10.844538
63.665 11.217763
63.670 11.217391
63.675 10.949059
63.680 11.169308
63.685 11.128267
63.690 11.153604
63.695 11.224991
63.700 10.586906
63.705 10.083385
63.710 9.951345
63.715 9.693446
63.720 9.543283
63.725 9.287082
63.730 9.207455
63.735 9.657619
63.740 10.15812
63.745 10.154556
63.750 10.311109
63.755 10.675591
63.760 10.610482
63.765 10.897832
63.770 11.268559
63.775 11.480581
63.780 11.451264
63.785 11.263966
63.790 11.069523
63.795 11.423755
63.800 11.497332
63.805 11.358582
63.810 10.910145
63.815 10.978622
63.820 11.050692
63.825 10.879142
63.830 10.986267
63.835 10.830258
63.840 10.320869
63.845 10.543231
63.850 10.6167
63.855 10.74369
63.860 10.904549
63.865 10.828414
63.870 10.509986
63.875 10.548815
63.880 10.415263
63.885 10.310264
63.890 10.521401
63.895 10.454962
63.900 10.680856
63.905 11.342599
63.910 11.690583
63.915 11.495223
63.920 11.6457
63.925 11.625769
63.930 11.614853
63.935 11.534223
63.940 10.954484
63.945 10.901522
63.950 11.084253
63.955 11.250741
63.960 11.825071
63.965 11.840907
63.970 11.975327
63.975 12.700677
63.980 13.211432
63.985 13.550302
63.990 13.720376
63.995 13.647128
64.000 14.317439
64.005 14.353411
64.010 14.166973
64.015 13.657707
64.020 13.834822
64.025 13.234108
64.030 12.859463
64.035 12.353059
64.040 12.075882
64.045 12.141117
64.050 12.708651
64.055 12.624672
64.060 12.615695
64.065 12.493026
64.070 12.641443
64.075 12.514837
64.080 12.37861
64.085 12.308649
64.090 12.475926
64.095 12.702051
64.100 12.92168
64.105 12.604692
64.110 13.017482
64.115 13.2516
64.120 13.228102
64.125 13.408578
64.130 13.724007
64.135 13.479821
64.140 13.59864
64.145 13.233185
64.150 12.269134
64.155 11.839686
64.160 11.243375
64.165 10.843648
64.170 11.053171
64.175 10.92384
64.180 11.247597
64.185 11.471404
64.190 11.254573
64.195 11.261282
64.200 11.368736
64.205 11.193698
64.210 11.192709
64.215 11.146018
64.220 11.015041
64.225 11.38048
64.230 11.806594
64.235 11.751781
64.240 11.848589
64.245 12.20663
64.250 12.151228
64.255 12.8207
64.260 12.897133
64.265 12.76204
64.270 12.563644
64.275 12.72509
64.280 12.456273
64.285 12.315147
64.290 12.41885
64.295 12.039574
64.300 11.938373
64.305 12.222419
64.310 11.884038
64.315 12.334254
64.320 12.643418
64.325 12.175021
64.330 12.42932
64.335 13.013712
64.340 12.95071
64.345 13.249634
64.350 13.089539
64.355 13.104261
64.360 13.317772
64.365 12.869618
64.370 12.26773
64.375 12.460199
64.380 12.581044
64.385 12.079895
64.390 11.731182
64.395 11.495028
64.400 11.823916
64.405 12.280603
64.410 12.18419
64.415 11.86442
64.420 11.909363
64.425 11.953097
64.430 11.948083
64.435 11.667022
64.440 11.22451
64.445 10.781655
64.450 10.893887
64.455 11.123591
64.460 11.482254
64.465 11.405159
64.470 10.924821
64.475 10.904042
64.480 11.182014
64.485 10.863626
64.490 11.159646
64.495 11.127281
64.500 11.798863
64.505 12.601645
64.510 12.363935
64.515 12.27849
64.520 12.409667
64.525 11.826282
64.530 11.75762
64.535 11.861893
64.540 12.096803
64.545 12.452031
64.550 12.747808
64.555 12.821157
64.560 12.732269
64.565 12.649114
64.570 11.809735
64.575 11.735443
64.580 12.137968
64.585 12.009213
64.590 11.992983
64.595 11.850752
64.600 11.841169
64.605 12.07146
64.610 11.691939
64.615 11.436372
64.620 11.489601
64.625 11.760294
64.630 12.118126
64.635 12.151257
64.640 11.986309
64.645 11.632181
64.650 11.532868
64.655 11.639709
64.660 12.034828
64.665 12.08643
64.670 12.113553
64.675 12.464373
64.680 12.649473
64.685 12.931514
64.690 12.635451
64.695 11.721924
64.700 11.346112
64.705 11.301584
64.710 11.384681
64.715 11.596893
64.720 11.673563
64.725 11.777923
64.730 12.083776
64.735 12.334422
64.740 12.57099
64.745 12.222993
64.750 12.138213
64.755 12.034488
64.760 12.26747
64.765 12.382865
64.770 12.294587
64.775 12.497796
64.780 13.050985
64.785 12.941334
64.790 12.777344
64.795 12.340694
64.800 12.400389
64.805 12.704549
64.810 12.225163
64.815 11.829244
64.820 12.336757
64.825 12.262864
64.830 12.7519
64.835 12.682693
64.840 13.276848
64.845 14.126745
64.850 14.662033
64.855 14.216555
64.860 14.41466
64.865 14.379031
64.870 14.420527
64.875 13.757146
64.880 13.100006
64.885 12.667839
64.890 13.138183
64.895 13.174039
64.900 13.372748
64.905 13.590491
64.910 13.987803
64.915 14.368621
64.920 15.771341
64.925 16.470547
64.930 16.382256
64.935 16.750374
64.940 16.438751
64.945 16.286674
64.950 16.971916
64.955 16.308226
64.960 15.822943
64.965 16.080551
64.970 15.597871
64.975 15.59969
64.980 15.631915
64.985 15.201783
64.990 15.787434
64.995 16.184208
65.000 16.304144
65.005 16.814257
65.010 17.313499
65.015 17.016253
65.020 16.399521
65.025 15.284635
65.030 14.788231
65.035 14.81152
65.040 15.076031
65.045 15.07569
65.050 15.149974
65.055 15.475224
65.060 15.819658
65.065 15.756621
65.070 15.779542
65.075 15.683741
65.080 15.790787
65.085 15.914116
65.090 16.218983
65.095 16.532919
65.100 16.479975
65.105 16.161581
65.110 16.286489
65.115 16.220005
65.120 15.841044
65.125 15.02145
65.130 14.785797
65.135 14.935465
65.140 14.33517
65.145 13.573127
65.150 13.528677
65.155 13.682652
65.160 14.455516
65.165 14.52771
65.170 14.50518
65.175 14.889311
65.180 15.3021
65.185 15.02889
65.190 15.064631
65.195 14.535288
65.200 14.633582
65.205 14.559212
65.210 14.147148
65.215 13.909018
65.220 13.932927
65.225 13.736392
65.230 13.58956
65.235 13.259153
65.240 13.328395
65.245 13.320678
65.250 13.302221
65.255 13.243611
65.260 13.044566
65.265 12.841411
65.270 13.149128
65.275 12.995995
65.280 12.748362
65.285 12.480298
65.290 12.291337
65.295 12.512175
65.300 12.345732
65.305 11.828156
65.310 11.541991
65.315 11.748446
65.320 11.466409
65.325 11.410899
65.330 11.408623
65.335 11.538525
65.340 11.607593
65.345 11.93306
65.350 11.791977
65.355 11.870564
65.360 11.419077
65.365 11.080624
65.370 10.808508
65.375 10.59387
65.380 10.361794
65.385 10.54915
65.390 10.51595
65.395 10.504604
65.400 10.194087
65.405 9.950335
65.410 9.68289
65.415 9.995937
65.420 10.072918
65.425 10.493922
65.430 10.953108
65.435 11.68464
65.440 11.698595
65.445 12.155085
65.450 12.57151
65.455 12.812072
65.460 12.907163
65.465 12.558171
65.470 11.932105
65.475 12.246306
65.480 12.215736
65.485 11.581566
65.490 10.98171
65.495 11.256877
65.500 11.714868
65.505 12.098758
65.510 12.603415
65.515 12.39354
65.520 12.182307
65.525 12.262786
65.530 12.203695
65.535 11.737962
65.540 11.423887
65.545 10.75504
65.550 10.311978
65.555 10.111937
65.560 10.255813
65.565 10.133442
65.570 10.7544
65.575 11.201812
65.580 11.750557
65.585 11.940588
65.590 11.92966
65.595 12.085236
65.600 12.275282
65.605 11.895726
65.610 11.839673
65.615 11.898446
65.620 12.30703
65.625 12.353823
65.630 11.728495
65.635 11.479369
65.640 11.715255
65.645 11.671631
65.650 11.491603
65.655 11.150918
65.660 11.718646
65.665 11.914332
65.670 12.207796
65.675 12.295501
65.680 11.806951
65.685 11.824573
65.690 11.628703
65.695 10.905653
65.700 10.935126
65.705 10.253543
65.710 10.139551
65.715 10.211867
65.720 10.098561
65.725 10.584331
65.730 11.044442
65.735 11.222198
65.740 11.544297
65.745 11.627976
65.750 11.427129
65.755 11.298392
65.760 11.206752
65.765 11.289261
65.770 11.486754
65.775 11.550756
65.780 11.091958
65.785 11.394326
65.790 11.752695
65.795 12.111337
65.800 12.226593
65.805 12.016289
65.810 12.01796
65.815 12.472299
65.820 13.236335
65.825 13.115942
65.830 12.632399
65.835 12.344335
65.840 12.596436
65.845 12.787098
65.850 12.500564
65.855 12.431778
65.860 13.092433
65.865 13.418581
65.870 13.268797
65.875 13.099634
65.880 12.83483
65.885 13.097664
65.890 12.587665
65.895 12.534474
65.900 12.343687
65.905 12.403325
65.910 12.221671
65.915 12.472703
65.920 12.816729
65.925 12.934612
65.930 12.165424
65.935 12.697867
65.940 12.685182
65.945 12.875016
65.950 12.642283
65.955 12.284657
65.960 12.787787
65.965 13.217274
65.970 13.569086
65.975 14.102015
65.980 14.196097
65.985 14.154817
65.990 14.320325
65.995 14.211974
66.000 14.393802
66.005 14.109668
66.010 13.693491
66.015 13.798094
66.020 14.097682
66.025 13.765956
66.030 13.402652
66.035 13.156663
66.040 13.027923
66.045 13.557861
66.050 13.446452
66.055 13.295391
66.060 13.419281
66.065 14.153838
66.070 14.80861
66.075 14.812201
66.080 15.0872
66.085 15.149244
66.090 14.970051
66.095 14.678808
66.100 13.9574
66.105 13.885393
66.110 13.755748
66.115 13.329723
66.120 13.51583
66.125 13.591779
66.130 13.70456
66.135 13.479619
66.140 12.957462
66.145 12.555848
66.150 12.527032
66.155 12.229077
66.160 12.669028
66.165 12.898973
66.170 12.667562
66.175 13.110394
66.180 13.687601
66.185 13.710966
66.190 13.677653
66.195 13.323138
66.200 13.646761
66.205 13.594438
66.210 13.595247
66.215 13.249583
66.220 13.420751
66.225 13.481675
66.230 13.593768
66.235 13.573035
66.240 13.846833
66.245 13.971676
66.250 14.045119
66.255 13.922295
66.260 14.319593
66.265 14.137373
66.270 13.825661
66.275 13.522445
66.280 13.156901
66.285 12.784939
66.290 12.318865
66.295 11.58326
66.300 11.398015
66.305 11.152147
66.310 11.227914
66.315 11.611881
66.320 12.063328
66.325 12.316222
66.330 12.629956
66.335 12.897875
66.340 13.413903
66.345 13.184477
66.350 12.840524
66.355 12.624476
66.360 12.506457
66.365 12.206631
66.370 11.942402
66.375 11.591844
66.380 11.842705
66.385 11.539095
66.390 11.0442
66.395 10.955672
66.400 10.977282
66.405 10.740044
66.410 10.672611
66.415 10.558894
66.420 10.581646
66.425 10.72079
66.430 10.743591
66.435 10.849083
66.440 11.165082
66.445 11.390589
66.450 10.979825
66.455 11.447437
66.460 12.072248
66.465 12.287482
66.470 11.967731
66.475 11.370426
66.480 11.118813
66.485 11.324648
66.490 10.944872
66.495 10.313535
66.500 9.757553
66.505 9.859154
66.510 10.23037
66.515 10.193044
66.520 10.314249
66.525 10.549331
66.530 10.794718
66.535 10.991786
66.540 10.92811
66.545 11.006995
66.550 11.276321
66.555 11.101496
66.560 11.099395
66.565 11.06143
66.570 11.147101
66.575 10.855004
66.580 10.575532
66.585 10.212236
66.590 10.011222
66.595 9.765537
66.600 9.653268
66.605 9.852641
66.610 9.859699
66.615 9.905672
66.620 9.923415
66.625 10.341893
66.630 10.270784
66.635 10.106711
66.640 10.231559
66.645 10.695907
66.650 10.445561
66.655 10.09905
66.660 9.432025
66.665 9.26598
66.670 9.269787
66.675 9.236576
66.680 9.15698
66.685 9.257538
66.690 9.522481
66.695 9.537359
66.700 9.465072
66.705 9.473306
66.710 9.343691
66.715 9.22016
66.720 9.448261
66.725 9.712361
66.730 9.647299
66.735 9.731106
66.740 9.93605
66.745 9.814257
66.750 9.795444
66.755 9.735746
66.760 9.905764
66.765 10.164506
66.770 10.283084
66.775 10.12035
66.780 10.350897
66.785 10.392161
66.790 9.943447
66.795 9.861868
66.800 9.85879
66.805 9.839869
66.810 9.613938
66.815 9.351894
66.820 9.050871
66.825 9.410764
66.830 9.662922
66.835 9.248919
66.840 9.547546
66.845 9.678403
66.850 9.697696
66.855 10.176221
66.860 9.677113
66.865 9.315149
66.870 9.808439
66.875 9.996365
66.880 10.136949
66.885 9.697281
66.890 9.692376
66.895 10.37344
66.900 10.470941
66.905 10.220873
66.910 9.698948
66.915 9.737439
66.920 10.086138
66.925 9.83684
66.930 9.436229
66.935 9.558619
66.940 9.656725
66.945 9.80108
66.950 10.220713
66.955 10.394279
66.960 10.397657
66.965 10.390163
66.970 10.293256
66.975 10.034425
66.980 10.057805
66.985 9.790215
66.990 10.051312
66.995 10.220187
67.000 10.25937
67.005 10.016303
67.010 10.495726
67.015 10.394838
67.020 10.099369
67.025 9.564134
67.030 9.540847
67.035 9.529485
67.040 9.617295
67.045 9.419857
67.050 9.146562
67.055 9.065983
67.060 9.182932
67.065 9.556926
67.070 9.74516
67.075 9.893348
67.080 10.08212
67.085 9.997682
67.090 10.108515
67.095 10.00429
67.100 9.78235
67.105 10.050064
67.110 10.322083
67.115 10.446821
67.120 11.183287
67.125 11.01048
67.130 11.115049
67.135 10.683241
67.140 10.463284
67.145 10.128219
67.150 9.700162
67.155 9.754527
67.160 10.131265
67.165 10.00909
67.170 10.417377
67.175 10.62958
67.180 10.944676
67.185 10.931827
67.190 10.52056
67.195 10.398118
67.200 10.213981
67.205 10.163041
67.210 10.026485
67.215 10.152857
67.220 10.378755
67.225 10.611346
67.230 10.749032
67.235 10.961887
67.240 10.934955
67.245 10.575803
67.250 10.304068
67.255 9.929538
67.260 9.85272
67.265 9.790287
67.270 9.898121
67.275 9.550847
67.280 9.470832
67.285 9.703708
67.290 10.075644
67.295 10.057581
67.300 10.041218
67.305 9.989815
67.310 10.196092
67.315 10.308222
67.320 10.151403
67.325 10.507996
67.330 10.407091
67.335 10.568666
67.340 10.53
67.345 10.528581
67.350 10.328732
67.355 10.009693
67.360 9.383825
67.365 9.350966
67.370 9.394045
67.375 9.535831
67.380 9.889665
67.385 10.1759
67.390 10.556528
67.395 10.666592
67.400 10.826151
67.405 10.812885
67.410 10.85774
67.415 11.210568
67.420 11.363076
67.425 10.846279
67.430 11.18911
67.435 11.05166
67.440 10.957781
67.445 10.847685
67.450 10.448685
67.455 10.736002
67.460 10.740713
67.465 10.292422
67.470 10.21803
67.475 10.061681
67.480 9.739575
67.485 9.6396
67.490 9.530647
67.495 9.738934
67.500 10.021984
67.505 10.364145
67.510 10.766281
67.515 10.891986
67.520 10.501381
67.525 10.212206
67.530 10.222719
67.535 10.011471
67.540 9.628402
67.545 9.410151
67.550 9.771333
67.555 10.380303
67.560 10.551167
67.565 10.762486
67.570 10.648993
67.575 10.727073
67.580 10.815138
67.585 10.436256
67.590 10.308033
67.595 10.500742
67.600 10.35771
67.605 10.389761
67.610 10.195307
67.615 9.731528
67.620 10.051872
67.625 10.375353
67.630 10.040507
67.635 10.285052
67.640 10.607595
67.645 11.384531
67.650 11.685867
67.655 11.756835
67.660 11.819861
67.665 12.302522
67.670 11.93321
67.675 11.722818
67.680 11.201828
67.685 11.377678
67.690 11.061502
67.695 10.6662
67.700 10.044537
67.705 10.01778
67.710 10.033001
67.715 9.979139
67.720 9.607856
67.725 9.710786
67.730 9.810278
67.735 10.519944
67.740 10.636692
67.745 10.907187
67.750 11.195892
67.755 11.709431
67.760 11.521575
67.765 11.656352
67.770 11.79759
67.775 11.686419
67.780 11.078027
67.785 10.801847
67.790 10.953564
67.795 11.397898
67.800 11.652439
67.805 11.627297
67.810 12.076028
67.815 12.46619
67.820 12.728375
67.825 12.415332
67.830 12.298043
67.835 12.263937
67.840 12.205546
67.845 12.338754
67.850 12.728646
67.855 12.810856
67.860 12.904854
67.865 12.985662
67.870 12.721883
67.875 12.879576
67.880 12.5399
67.885 12.045492
67.890 11.812909
67.895 11.360741
67.900 10.852617
67.905 11.037293
67.910 10.831287
67.915 10.524631
67.920 10.348844
67.925 10.039783
67.930 10.259175
67.935 10.558421
67.940 10.262204
67.945 10.161159
67.950 10.198312
67.955 10.309606
67.960 10.481599
67.965 10.590826
67.970 10.547949
67.975 10.686012
67.980 10.911297
67.985 11.117042
67.990 11.555511
67.995 11.334735
68.000 10.575042
68.005 10.116922
68.010 10.079045
68.015 10.039994
68.020 10.127294
68.025 9.967333
68.030 9.930138
68.035 10.320707
68.040 10.390862
68.045 10.415155
68.050 10.538053
68.055 10.069101
68.060 9.989451
68.065 10.102181
68.070 10.742126
68.075 10.738012
68.080 10.553926
68.085 10.11352
68.090 10.429164
68.095 10.551766
68.100 10.40181
68.105 10.003224
68.110 9.89399
68.115 10.354748
68.120 10.707614
68.125 10.341576
68.130 10.005884
68.135 9.995226
68.140 9.692902
68.145 9.661797
68.150 9.474523
68.155 9.483828
68.160 9.752269
68.165 10.01261
68.170 10.137959
68.175 10.54329
68.180 10.739041
68.185 10.816533
68.190 10.738929
68.195 10.83229
68.200 11.126122
68.205 10.865936
68.210 10.283191
68.215 9.816656
68.220 10.118572
68.225 10.512303
68.230 10.414076
68.235 10.234225
68.240 10.38026
68.245 10.747444
68.250 10.934541
68.255 10.372616
68.260 10.230925
68.265 10.297806
68.270 10.349149
68.275 10.374704
68.280 10.110364
68.285 9.883246
68.290 9.503319
68.295 9.452836
68.300 9.372384
68.305 9.371384
68.310 9.370978
68.315 9.852233
68.320 10.10165
68.325 10.214594
68.330 10.451445
68.335 10.707193
68.340 10.770242
68.345 10.772298
68.350 10.768668
68.355 10.641791
68.360 10.781657
68.365 10.550671
68.370 10.327626
68.375 10.667227
68.380 10.916229
68.385 11.029989
68.390 11.063731
68.395 11.044578
68.400 11.093666
68.405 11.264902
68.410 11.060922
68.415 10.76164
68.420 10.522967
68.425 10.801775
68.430 10.270115
68.435 9.795515
68.440 9.065989
68.445 8.570163
68.450 8.611908
68.455 8.418702
68.460 7.983457
68.465 8.517279
68.470 8.788117
68.475 9.214971
68.480 9.116207
68.485 9.143114
68.490 9.352346
68.495 9.724067
68.500 9.415607
68.505 9.572717
68.510 9.829136
68.515 9.717386
68.520 9.657146
68.525 9.744667
68.530 10.056284
68.535 9.995837
68.540 9.86564
68.545 10.021708
68.550 10.315031
68.555 10.566386
68.560 10.457884
68.565 10.144581
68.570 10.339019
68.575 10.281301
68.580 10.3289
68.585 10.67561
68.590 11.208852
68.595 11.164446
68.600 11.049746
68.605 11.369123
68.610 11.357321
68.615 11.122564
68.620 10.62242
68.625 10.049746
68.630 10.392658
68.635 10.883366
68.640 10.618798
68.645 10.984715
68.650 11.11627
68.655 11.049134
68.660 11.067592
68.665 10.624804
68.670 10.235463
68.675 10.003257
68.680 9.633296
68.685 9.540799
68.690 9.740854
68.695 9.875848
68.700 9.983032
68.705 10.018682
68.710 10.495139
68.715 10.373227
68.720 10.406098
68.725 10.477449
68.730 10.246762
68.735 10.182044
68.740 10.334863
68.745 10.03172
68.750 10.288494
68.755 10.150248
68.760 9.865389
68.765 10.183819
68.770 10.355278
68.775 10.298191
68.780 10.54896
68.785 10.303624
68.790 10.505263
68.795 10.497201
68.800 10.352176
68.805 10.174928
68.810 10.032261
68.815 9.925108
68.820 10.176851
68.825 10.035209
68.830 10.584385
68.835 10.293048
68.840 10.554158
68.845 10.445522
68.850 10.411108
68.855 10.549214
68.860 10.730505
68.865 10.198473
68.870 10.688151
68.875 10.768826
68.880 11.029752
68.885 11.267653
68.890 11.352989
68.895 11.381753
68.900 11.26578
68.905 10.987672
68.910 11.078384
68.915 11.225543
68.920 11.019879
68.925 11.342968
68.930 11.557305
68.935 11.928054
68.940 12.229605
68.945 12.475004
68.950 12.522034
68.955 12.50462
68.960 12.053726
68.965 11.843325
68.970 11.700841
68.975 11.198758
68.980 11.150029
68.985 11.234916
68.990 11.031189
68.995 11.326356
69.000 11.624379
69.005 12.550483
69.010 13.031883
69.015 12.915597
69.020 12.732903
69.025 12.955246
69.030 13.089755
69.035 13.367949
69.040 13.359244
69.045 13.061462
69.050 13.162711
69.055 13.145067
69.060 13.331542
69.065 13.16858
69.070 13.092004
69.075 13.126568
69.080 13.353741
69.085 13.275446
69.090 13.554515
69.095 13.232711
69.100 13.411828
69.105 13.234768
69.110 12.953964
69.115 12.571551
69.120 12.152639
69.125 12.023623
69.130 12.439041
69.135 12.293427
69.140 11.901402
69.145 11.381075
69.150 11.734082
69.155 12.219511
69.160 12.203155
69.165 11.760283
69.170 11.785621
69.175 12.102506
69.180 12.45481
69.185 12.495034
69.190 12.409216
69.195 12.223104
69.200 12.218983
69.205 12.519603
69.210 13.139509
69.215 13.777219
69.220 13.775716
69.225 13.797857
69.230 13.997601
69.235 14.14063
69.240 14.329253
69.245 13.681987
69.250 13.106895
69.255 13.242532
69.260 13.343904
69.265 13.09124
69.270 12.787687
69.275 12.236281
69.280 11.901516
69.285 11.821793
69.290 11.953001
69.295 12.116737
69.300 12.781593
69.305 12.890898
69.310 13.259417
69.315 13.297746
69.320 13.314602
69.325 13.226723
69.330 12.913185
69.335 12.729961
69.340 12.801735
69.345 12.980492
69.350 13.542901
69.355 13.591373
69.360 13.559736
69.365 13.647229
69.370 13.367785
69.375 13.084208
69.380 12.839591
69.385 12.470714
69.390 12.32448
69.395 12.391079
69.400 12.367137
69.405 12.5006
69.410 12.345722
69.415 12.562962
69.420 13.084356
69.425 12.761365
69.430 12.475798
69.435 12.54996
69.440 12.699225
69.445 12.871156
69.450 12.758551
69.455 12.550864
69.460 12.509439
69.465 12.568422
69.470 12.164461
69.475 11.927385
69.480 11.96175
69.485 12.386691
69.490 12.659236
69.495 12.510434
69.500 11.860032
69.505 11.983014
69.510 12.173852
69.515 11.79056
69.520 11.003615
69.525 10.804672
69.530 10.916434
69.535 11.354794
69.540 11.547917
69.545 11.608136
69.550 11.930102
69.555 11.883206
69.560 11.648796
69.565 11.841705
69.570 12.133942
69.575 11.924403
69.580 11.976388
69.585 11.40416
69.590 11.662392
69.595 11.993268
69.600 11.655336
69.605 11.306536
69.610 11.239042
69.615 10.855999
69.620 11.012079
69.625 10.690946
69.630 10.461922
69.635 10.734255
69.640 10.386454
69.645 10.342424
69.650 10.661802
69.655 10.798795
69.660 11.092829
69.665 10.888354
69.670 10.875009
69.675 11.230773
69.680 11.471555
69.685 11.596693
69.690 11.146247
69.695 10.582545
69.700 10.758507
69.705 10.680223
69.710 10.150505
69.715 9.948524
69.720 9.746625
69.725 10.183584
69.730 10.715537
69.735 11.199103
69.740 10.907666
69.745 11.023639
69.750 10.870553
69.755 10.577592
69.760 10.178734
69.765 9.49652
69.770 9.409
69.775 9.589928
69.780 9.618879
69.785 9.63686
69.790 9.875837
69.795 10.27691
69.800 10.202999
69.805 10.165371
69.810 10.596717
69.815 10.866755
69.820 10.803764
69.825 10.810982
69.830 11.569868
69.835 11.893609
69.840 11.995267
69.845 11.966171
69.850 11.489797
69.855 11.519362
69.860 10.950938
69.865 10.088147
69.870 10.058458
69.875 10.016685
69.880 9.82996
69.885 10.551394
69.890 10.744186
69.895 11.311887
69.900 11.633543
69.905 11.555777
69.910 11.351842
69.915 11.507329
69.920 11.184833
69.925 10.929617
69.930 10.656492
69.935 10.698694
69.940 10.881425
69.945 10.473691
69.950 10.23386
69.955 10.323454
69.960 10.065543
69.965 9.662374
69.970 9.052943
69.975 8.778928
69.980 9.046663
69.985 9.251573
69.990 9.355846
69.995 9.772918
70.000 9.954959
70.005 10.082047
70.010 9.894217
70.015 9.911725
70.020 9.988838
70.025 10.170001
70.030 10.554592
70.035 10.879222
70.040 11.573304
70.045 12.004384
70.050 11.718853
70.055 11.275006
70.060 10.554228
70.065 9.768452
70.070 9.285253
70.075 9.056587
70.080 8.876306
70.085 8.997859
70.090 9.174445
70.095 9.154176
70.100 9.690578
70.105 9.980194
70.110 9.848499
70.115 9.733113
70.120 9.894751
70.125 10.1685
70.130 10.4631
70.135 10.39456
70.140 10.100686
70.145 10.324842
70.150 10.612273
70.155 10.299573
70.160 10.228145
70.165 10.22574
70.170 10.750289
70.175 10.849132
70.180 10.751519
70.185 11.094183
70.190 11.212658
70.195 11.429457
70.200 11.729959
70.205 11.087109
70.210 11.094557
70.215 10.988362
70.220 11.077338
70.225 11.573964
70.230 11.375311
70.235 11.233669
70.240 11.836354
70.245 11.866844
70.250 11.987988
70.255 11.555774
70.260 11.355835
70.265 11.58606
70.270 11.170783
70.275 11.146882
70.280 11.135274
70.285 11.063849
70.290 11.15297
70.295 11.290683
70.300 11.270556
70.305 11.401949
70.310 11.661829
70.315 12.000878
70.320 11.864964
70.325 11.587376
70.330 11.364926
70.335 11.376192
70.340 11.027049
70.345 10.4143
70.350 9.9109
70.355 10.001479
70.360 10.349202
70.365 10.483519
70.370 10.585988
70.375 11.179603
70.380 11.279233
70.385 11.808973
70.390 11.879454
70.395 11.939847
70.400 12.0841
70.405 11.918422
70.410 11.565928
70.415 11.626256
70.420 11.135764
70.425 10.955101
70.430 10.530137
70.435 10.038772
70.440 10.05806
70.445 9.893508
70.450 9.740521
70.455 9.807345
70.460 10.063947
70.465 10.182091
70.470 10.298404
70.475 10.661653
70.480 11.092287
70.485 11.703616
70.490 11.825562
70.495 11.434711
70.500 11.661019
70.505 12.044513
70.510 11.879979
70.515 12.145898
70.520 12.262523
70.525 12.10289
70.530 12.047467
70.535 11.82785
70.540 11.733824
70.545 11.49975
70.550 10.530016
70.555 10.314401
70.560 10.3408
70.565 10.448717
70.570 10.362873
70.575 10.205036
70.580 10.419724
70.585 10.614219
70.590 10.416832
70.595 10.324901
70.600 10.230901
70.605 10.228768
70.610 10.352345
70.615 10.654067
70.620 10.927139
70.625 11.355543
70.630 11.311679
70.635 11.373404
70.640 11.15471
70.645 10.943446
70.650 10.16186
70.655 9.710681
70.660 9.706484
70.665 9.737234
70.670 10.059399
70.675 10.29702
70.680 10.009546
70.685 10.386043
70.690 10.461708
70.695 10.343059
70.700 10.233209
70.705 9.748909
70.710 9.558783
70.715 9.772373
70.720 9.709158
70.725 9.815186
70.730 9.936553
70.735 9.875084
70.740 9.586041
70.745 9.244115
70.750 9.404561
70.755 9.609055
70.760 9.753504
70.765 9.870028
70.770 10.179091
70.775 10.799842
70.780 11.249335
70.785 10.764059
70.790 10.671125
70.795 10.563355
70.800 10.525873
70.805 10.488179
70.810 10.40486
70.815 9.865848
70.820 9.611628
70.825 9.288068
70.830 9.167072
70.835 8.7318
70.840 8.454376
70.845 8.369707
70.850 8.525875
70.855 8.908049
70.860 8.741957
70.865 8.853114
70.870 9.024186
70.875 9.148158
70.880 9.172936
70.885 9.517721
70.890 9.385024
70.895 9.620249
70.900 9.631302
70.905 9.55619
70.910 9.461977
70.915 9.543243
70.920 9.561235
70.925 9.674747
70.930 9.432383
70.935 9.38945
70.940 9.679223
70.945 10.07283
70.950 10.213242
70.955 10.725142
70.960 10.718256
70.965 10.874447
70.970 11.208899
70.975 11.083738
70.980 11.131161
70.985 10.661156
70.990 10.323611
70.995 10.531369
71.000 10.291905
71.005 9.790737
71.010 9.777774
71.015 9.750328
71.020 9.778207
71.025 9.728173
71.030 9.415766
71.035 9.452119
71.040 9.645123
71.045 9.378013
71.050 9.646994
71.055 9.480266
71.060 9.657374
71.065 9.699598
71.070 9.883742
71.075 10.074171
71.080 10.039411
71.085 10.360669
71.090 10.387729
71.095 10.15638
71.100 10.565971
71.105 10.229996
71.110 9.97068
71.115 9.898098
71.120 9.39833
71.125 9.509694
71.130 9.60179
71.135 9.629143
71.140 9.76284
71.145 9.684267
71.150 9.596247
71.155 9.722335
71.160 9.509797
71.165 9.446734
71.170 9.571895
71.175 9.528869
71.180 9.562171
71.185 9.532384
71.190 9.09203
71.195 9.23661
71.200 9.35008
71.205 9.561042
71.210 9.950372
71.215 9.905649
71.220 10.314512
71.225 10.532275
71.230 10.929468
71.235 10.760984
71.240 10.173903
71.245 9.805155
71.250 9.9684
71.255 9.709324
71.260 9.816369
71.265 9.539571
71.270 9.738509
71.275 9.718627
71.280 9.590803
71.285 9.284535
71.290 9.279735
71.295 9.207774
71.300 9.088995
71.305 8.843719
71.310 8.849586
71.315 8.963353
71.320 8.999716
71.325 9.382121
71.330 9.579726
71.335 9.680699
71.340 10.363626
71.345 10.781084
71.350 10.906733
71.355 10.708371
71.360 10.491525
71.365 10.293373
71.370 10.528974
71.375 10.566341
71.380 10.527616
71.385 10.704329
71.390 11.018465
71.395 11.128996
71.400 11.347801
71.405 11.038833
71.410 10.586093
71.415 10.494274
71.420 10.308385
71.425 10.084056
71.430 9.725681
71.435 9.220593
71.440 9.168797
71.445 9.320344
71.450 9.538997
71.455 9.739835
71.460 9.982801
71.465 10.330177
71.470 10.664987
71.475 10.770728
71.480 10.484274
71.485 10.822105
71.490 10.687573
71.495 10.797791
71.500 11.074311
71.505 10.941803
71.510 11.120498
71.515 11.105433
71.520 10.960867
71.525 10.92957
71.530 10.702895
71.535 10.474173
71.540 10.21989
71.545 9.871422
71.550 10.190314
71.555 10.277783
71.560 10.315326
71.565 10.143345
71.570 9.987998
71.575 10.329726
71.580 10.424701
71.585 10.274745
71.590 10.166924
71.595 10.330416
71.600 10.778801
71.605 10.590251
71.610 10.617967
71.615 10.365405
71.620 10.326863
71.625 10.176739
71.630 9.878231
71.635 9.649219
71.640 9.998264
71.645 9.912191
71.650 9.808217
71.655 9.700845
71.660 9.363463
71.665 9.742207
71.670 9.922878
71.675 9.949541
71.680 10.210984
71.685 10.134244
71.690 10.098286
71.695 10.384533
71.700 10.031032
71.705 9.600467
71.710 9.414762
71.715 9.488666
71.720 9.654484
71.725 9.795644
71.730 9.882541
71.735 9.561361
71.740 9.404411
71.745 9.814199
71.750 10.009949
71.755 10.284422
71.760 10.289947
71.765 10.724322
71.770 10.907708
71.775 10.834177
71.780 10.313047
71.785 10.026655
71.790 9.992897
71.795 9.866197
71.800 9.241068
71.805 9.223359
71.810 9.257371
71.815 9.24828
71.820 8.933834
71.825 8.712485
71.830 8.988201
71.835 9.494621
71.840 10.115383
71.845 10.474676
71.850 10.891877
71.855 11.008577
71.860 10.943561
71.865 10.855186
71.870 10.632629
71.875 10.98191
71.880 10.498637
71.885 10.267062
71.890 10.077888
71.895 10.122059
71.900 10.096743
71.905 9.735003
71.910 9.388422
71.915 9.81666
71.920 10.417204
71.925 10.318151
71.930 9.912047
71.935 10.238564
71.940 10.463101
71.945 9.956798
71.950 9.686136
71.955 9.33363
71.960 9.878912
71.965 10.390982
71.970 9.944036
71.975 10.151848
71.980 10.059797
71.985 10.062677
71.990 10.268389
71.995 10.074392
72.000 10.007264
72.005 10.117533
72.010 9.567433
72.015 9.23706
72.020 8.860581
72.025 8.705323
72.030 8.50636
72.035 8.458912
72.040 8.520812
72.045 8.826332
72.050 9.468596
72.055 10.232516
72.060 10.241431
72.065 10.263562
72.070 10.045834
72.075 10.232347
72.080 10.154778
72.085 10.086777
72.090 9.909288
72.095 10.185619
72.100 10.312461
72.105 10.470107
72.110 10.731026
72.115 11.152724
72.120 11.084622
72.125 10.820102
72.130 10.510022
72.135 10.517199
72.140 10.336926
72.145 9.930771
72.150 10.216822
72.155 10.229272
72.160 10.503013
72.165 10.920753
72.170 11.106853
72.175 11.391238
72.180 11.12307
72.185 10.336315
72.190 10.016758
72.195 9.60546
72.200 9.572745
72.205 9.310879
72.210 9.145876
72.215 9.537088
72.220 10.047198
72.225 10.364906
72.230 10.758537
72.235 10.346187
72.240 10.571758
72.245 10.923542
72.250 11.065056
72.255 10.748169
72.260 10.195606
72.265 9.939752
72.270 10.225648
72.275 9.932502
72.280 9.490427
72.285 9.356762
72.290 9.59748
72.295 9.494433
72.300 9.742631
72.305 10.121686
72.310 10.315343
72.315 10.475131
72.320 10.323524
72.325 10.471428
72.330 10.862829
72.335 10.674193
72.340 10.280352
72.345 9.780646
72.350 9.952018
72.355 9.981774
72.360 10.09471
72.365 9.721236
72.370 9.946948
72.375 10.387895
72.380 10.30251
72.385 9.817598
72.390 9.910412
72.395 9.82249
72.400 9.702208
72.405 9.288795
72.410 9.131189
72.415 9.113396
72.420 8.997204
72.425 8.804791
72.430 8.807318
72.435 8.969312
72.440 9.250388
72.445 9.409729
72.450 9.820536
72.455 9.745316
72.460 9.767886
72.465 9.902809
72.470 9.522849
72.475 9.213251
72.480 8.915301
72.485 8.677015
72.490 8.739938
72.495 8.475189
72.500 8.342607
72.505 8.555463
72.510 8.84773
72.515 9.264195
72.520 9.334706
72.525 9.432684
72.530 9.681367
72.535 9.567772
72.540 9.080532
72.545 9.26363
72.550 9.36445
72.555 9.695266
72.560 9.579159
72.565 9.413133
72.570 9.6488
72.575 9.662467
72.580 9.267677
72.585 9.18219
72.590 8.777271
72.595 9.152411
72.600 9.757177
72.605 9.942567
72.610 10.039488
72.615 9.958803
72.620 10.001881
72.625 9.790213
72.630 9.453755
72.635 8.945986
72.640 9.013739
72.645 8.902152
72.650 8.623135
72.655 9.471356
72.660 9.928813
72.665 9.977071
72.670 10.230576
72.675 10.479529
72.680 10.353155
72.685 10.161
72.690 9.548399
72.695 9.47399
72.700 9.436522
72.705 8.65831
72.710 8.959627
72.715 9.504839
72.720 9.710995
72.725 9.447926
72.730 9.270522
72.735 9.750475
72.740 9.779133
72.745 9.676126
72.750 9.492869
72.755 9.692183
72.760 10.071172
72.765 10.164128
72.770 10.041149
72.775 10.243044
72.780 9.825281
72.785 9.244997
72.790 9.071325
72.795 8.752699
72.800 8.742038
72.805 8.933239
72.810 9.00686
72.815 9.651166
72.820 9.872185
72.825 9.975827
72.830 10.171753
72.835 10.224016
72.840 10.086083
72.845 9.842744
72.850 9.893501
72.855 10.132434
72.860 9.91417
72.865 9.421225
72.870 9.142609
72.875 9.123097
72.880 9.239866
72.885 9.096173
72.890 8.925202
72.895 9.038916
72.900 9.448172
72.905 9.070779
72.910 8.838608
72.915 9.026472
72.920 9.329085
72.925 9.330678
72.930 9.511387
72.935 9.617328
72.940 9.652234
72.945 10.252428
72.950 10.275869
72.955 9.999108
72.960 10.121495
72.965 9.853242
72.970 10.199769
72.975 10.536605
72.980 10.099304
72.985 10.005836
72.990 9.836821
72.995 9.838299
73.000 9.845047
