!@!!GADDS PLOTSO FILE: Chi integration type
!@!!Title/SampleName: map-6a
!@!!Comment: ?
!@!!User: Bruker Instrument Administrator
!@!!Site: University of Illinois Chicago
!@!!Frame: map-6a_01_000.gfrm
!@!!Wavelengths    1.54184   1.54056   1.54439
!@!!Frame angles: 2Theta: 63.000 Omega: 50.000 Phi: 0.000 Chi: 90.000
!@!!Integration range: 2Theta: 53.000 to 73.000  Gamma: -105.000 to -75.000
!@!!Integration method: bin normalized
!@!N
!@!SS
!@!M
!@!L 0.0 0.0 0.0 0.0
!@!XDegrees
!@!YCounts
53.000 8.605417
53.005 9.122386
53.010 9.065153
53.015 9.02605
53.020 8.772649
53.025 8.677672
53.030 8.957098
53.035 8.376003
53.040 7.854203
53.045 7.894803
53.050 7.828503
53.055 7.711169
53.060 8.055545
53.065 7.941647
53.070 8.04882
53.075 8.35128
53.080 8.171732
53.085 8.648792
53.090 9.351789
53.095 9.133813
53.100 9.664989
53.105 9.537786
53.110 9.515691
53.115 9.816477
53.120 9.23041
53.125 8.909975
53.130 8.791862
53.135 8.572703
53.140 8.568956
53.145 8.900893
53.150 8.650641
53.155 8.315039
53.160 8.156482
53.165 8.198909
53.170 8.142511
53.175 7.827769
53.180 7.678477
53.185 8.357244
53.190 9.115824
53.195 9.174501
53.200 9.265224
53.205 9.516815
53.210 9.537845
53.215 8.987539
53.220 8.681202
53.225 8.603339
53.230 8.855529
53.235 9.032968
53.240 8.980998
53.245 9.330651
53.250 9.185678
53.255 8.733235
53.260 8.309482
53.265 7.993025
53.270 8.11221
53.275 8.200938
53.280 8.042461
53.285 8.232212
53.290 8.424285
53.295 8.754013
53.300 8.457451
53.305 8.402137
53.310 8.198382
53.315 8.385349
53.320 8.096049
53.325 7.87935
53.330 7.521261
53.335 7.654722
53.340 7.712953
53.345 7.841868
53.350 8.066388
53.355 8.764154
53.360 9.390756
53.365 10.213288
53.370 10.178114
53.375 10.301572
53.380 10.713133
53.385 10.366629
53.390 10.321753
53.395 9.685911
53.400 9.141191
53.405 9.322186
53.410 9.315776
53.415 9.264519
53.420 9.136086
53.425 9.008045
53.430 8.996441
53.435 8.8923
53.440 8.290361
53.445 7.940305
53.450 7.932753
53.455 7.811583
53.460 8.217608
53.465 8.219297
53.470 8.660596
53.475 9.170718
53.480 9.036625
53.485 8.872013
53.490 9.313745
53.495 9.454009
53.500 10.070711
53.505 9.898537
53.510 10.055335
53.515 10.520427
53.520 11.320464
53.525 11.129887
53.530 11.27301
53.535 11.438269
53.540 11.366198
53.545 11.413582
53.550 11.452554
53.555 10.727502
53.560 10.784521
53.565 10.069815
53.570 9.754482
53.575 9.600052
53.580 9.075648
53.585 8.802692
53.590 8.726887
53.595 8.18985
53.600 8.286852
53.605 8.178411
53.610 8.373136
53.615 8.349566
53.620 8.912511
53.625 9.743397
53.630 10.018834
53.635 10.0561
53.640 10.05278
53.645 9.814951
53.650 9.903467
53.655 9.010517
53.660 8.397791
53.665 8.480286
53.670 8.040705
53.675 8.108554
53.680 8.29183
53.685 8.407084
53.690 8.534607
53.695 9.063868
53.700 9.434323
53.705 9.793179
53.710 10.179346
53.715 10.357402
53.720 10.561284
53.725 10.81828
53.730 10.311344
53.735 9.757921
53.740 9.962068
53.745 9.875665
53.750 9.773547
53.755 9.574267
53.760 9.65231
53.765 9.832092
53.770 10.164003
53.775 10.041415
53.780 9.847043
53.785 9.836546
53.790 9.584668
53.795 9.57824
53.800 9.510726
53.805 9.286361
53.810 9.0301
53.815 8.842036
53.820 9.153853
53.825 9.458973
53.830 9.402611
53.835 9.7819
53.840 9.634563
53.845 10.192814
53.850 10.360387
53.855 9.809765
53.860 9.828499
53.865 9.445248
53.870 9.54427
53.875 9.747199
53.880 9.379575
53.885 9.582377
53.890 9.788763
53.895 9.945758
53.900 9.912557
53.905 9.775107
53.910 9.610557
53.915 9.546787
53.920 9.322618
53.925 8.867232
53.930 8.171803
53.935 8.139025
53.940 8.110109
53.945 8.121117
53.950 8.445087
53.955 8.6429
53.960 8.923069
53.965 9.295757
53.970 9.0543
53.975 8.780454
53.980 8.856506
53.985 8.711564
53.990 8.836341
53.995 9.301342
54.000 9.769635
54.005 10.435198
54.010 10.707132
54.015 11.059337
54.020 11.184264
54.025 11.252588
54.030 10.907986
54.035 10.462346
54.040 9.951261
54.045 9.934991
54.050 9.577243
54.055 9.459321
54.060 9.528785
54.065 9.722318
54.070 9.740572
54.075 9.689111
54.080 9.717399
54.085 9.266162
54.090 8.860896
54.095 8.785497
54.100 9.074224
54.105 9.24613
54.110 9.659973
54.115 9.700642
54.120 10.23223
54.125 10.445237
54.130 10.438661
54.135 10.580037
54.140 10.149973
54.145 9.936086
54.150 10.304792
54.155 10.344165
54.160 10.427941
54.165 10.634851
54.170 11.144111
54.175 11.541475
54.180 11.350328
54.185 10.58979
54.190 10.301948
54.195 10.232865
54.200 10.419103
54.205 10.06464
54.210 10.048844
54.215 10.748676
54.220 11.087364
54.225 11.323057
54.230 11.262193
54.235 11.245394
54.240 10.887983
54.245 10.87061
54.250 10.385366
54.255 10.302858
54.260 10.234181
54.265 9.522731
54.270 9.112754
54.275 9.291856
54.280 9.407086
54.285 9.933772
54.290 10.022024
54.295 10.038076
54.300 10.095358
54.305 10.326409
54.310 10.224292
54.315 10.074495
54.320 10.12009
54.325 10.259099
54.330 10.462647
54.335 10.511924
54.340 10.286352
54.345 10.520387
54.350 10.166594
54.355 9.530406
54.360 9.396513
54.365 9.712711
54.370 9.9192
54.375 9.301875
54.380 8.679737
54.385 8.687583
54.390 8.986696
54.395 8.970419
54.400 8.453491
54.405 8.831308
54.410 9.50666
54.415 9.967868
54.420 9.960605
54.425 9.838406
54.430 9.843603
54.435 9.91646
54.440 9.846997
54.445 9.929708
54.450 9.9923
54.455 10.447251
54.460 10.608061
54.465 11.094993
54.470 11.046953
54.475 11.319289
54.480 11.275962
54.485 10.865602
54.490 10.51013
54.495 10.165788
54.500 9.829995
54.505 9.486878
54.510 9.013577
54.515 9.479832
54.520 9.602021
54.525 10.213736
54.530 10.659573
54.535 10.802369
54.540 10.967027
54.545 11.440955
54.550 11.348204
54.555 11.385623
54.560 11.360432
54.565 11.327034
54.570 11.258268
54.575 11.363108
54.580 11.089012
54.585 10.960805
54.590 10.601736
54.595 9.701646
54.600 9.571048
54.605 9.744452
54.610 9.588274
54.615 9.414735
54.620 9.589907
54.625 10.369577
54.630 10.714927
54.635 10.659916
54.640 10.453382
54.645 10.482689
54.650 10.394486
54.655 10.07971
54.660 9.635265
54.665 9.520143
54.670 9.658941
54.675 9.582245
54.680 9.473821
54.685 9.333912
54.690 9.30047
54.695 9.380507
54.700 9.386529
54.705 9.403846
54.710 9.744369
54.715 9.598483
54.720 9.762354
54.725 10.117022
54.730 10.289152
54.735 10.436878
54.740 10.842867
54.745 11.267435
54.750 11.513652
54.755 11.574264
54.760 11.398159
54.765 11.289849
54.770 11.299508
54.775 10.868765
54.780 10.861559
54.785 10.819158
54.790 11.086633
54.795 10.873023
54.800 10.709442
54.805 10.789857
54.810 10.720317
54.815 11.132867
54.820 10.973053
54.825 10.781611
54.830 10.753396
54.835 11.107897
54.840 11.456511
54.845 11.130382
54.850 11.009563
54.855 11.214914
54.860 11.498014
54.865 11.591215
54.870 11.367162
54.875 11.444436
54.880 11.427054
54.885 11.275558
54.890 10.905921
54.895 11.423808
54.900 11.949563
54.905 11.75939
54.910 11.575239
54.915 11.61878
54.920 12.064206
54.925 12.04822
54.930 11.439361
54.935 10.967554
54.940 11.003843
54.945 11.213844
54.950 11.298915
54.955 11.189975
54.960 10.824428
54.965 10.706635
54.970 11.117321
54.975 11.018914
54.980 10.737569
54.985 10.609877
54.990 10.609381
54.995 10.647156
55.000 10.950625
55.005 10.828038
55.010 11.043139
55.015 11.598603
55.020 11.842772
55.025 11.822828
55.030 11.939709
55.035 12.075381
55.040 12.0134
55.045 11.968746
55.050 11.615127
55.055 11.562073
55.060 11.659016
55.065 12.153922
55.070 12.169447
55.075 12.296822
55.080 12.172087
55.085 12.303557
55.090 12.442043
55.095 12.18536
55.100 11.857518
55.105 11.424135
55.110 11.331925
55.115 11.715343
55.120 11.745222
55.125 11.240769
55.130 11.209918
55.135 10.999598
55.140 10.947754
55.145 10.92463
55.150 10.228828
55.155 9.955137
55.160 10.246014
55.165 10.130529
55.170 10.224639
55.175 10.350091
55.180 10.693843
55.185 11.228559
55.190 11.583177
55.195 11.629593
55.200 11.864445
55.205 12.003808
55.210 12.098248
55.215 12.183948
55.220 12.186207
55.225 11.456876
55.230 11.407437
55.235 11.684889
55.240 11.376884
55.245 10.725176
55.250 10.127995
55.255 9.775682
55.260 9.997303
55.265 10.157067
55.270 10.416726
55.275 10.979609
55.280 11.751137
55.285 11.907346
55.290 12.477437
55.295 12.435519
55.300 12.075207
55.305 11.364809
55.310 10.66501
55.315 10.64508
55.320 10.821812
55.325 10.619113
55.330 10.781089
55.335 10.861938
55.340 11.443037
55.345 11.364321
55.350 10.898356
55.355 10.781973
55.360 10.920621
55.365 10.973039
55.370 10.899053
55.375 10.677691
55.380 11.127939
55.385 11.736297
55.390 11.840103
55.395 11.814126
55.400 11.624171
55.405 12.033035
55.410 12.439888
55.415 12.463798
55.420 12.461642
55.425 12.020808
55.430 11.780933
55.435 11.518641
55.440 11.127806
55.445 10.685733
55.450 10.450403
55.455 10.421247
55.460 10.669702
55.465 11.062504
55.470 11.419019
55.475 11.465856
55.480 11.714212
55.485 11.272581
55.490 10.938293
55.495 11.024063
55.500 10.863037
55.505 10.823185
55.510 11.120815
55.515 11.450459
55.520 11.745482
55.525 12.181053
55.530 12.107704
55.535 12.169238
55.540 12.072389
55.545 11.362401
55.550 10.73377
55.555 10.698685
55.560 10.271622
55.565 10.176074
55.570 10.23615
55.575 10.225265
55.580 10.872146
55.585 11.528658
55.590 11.44454
55.595 11.875099
55.600 12.266777
55.605 12.285237
55.610 12.383185
55.615 11.699368
55.620 11.341581
55.625 11.237507
55.630 11.08373
55.635 11.066514
55.640 11.124311
55.645 11.59094
55.650 12.008688
55.655 12.29697
55.660 12.133927
55.665 11.875445
55.670 11.49473
55.675 10.883824
55.680 10.557933
55.685 10.341559
55.690 9.907954
55.695 10.029654
55.700 10.284651
55.705 10.08236
55.710 10.533145
55.715 10.653077
55.720 11.014195
55.725 11.572277
55.730 11.468318
55.735 11.160646
55.740 11.503563
55.745 11.380085
55.750 11.511473
55.755 11.560557
55.760 11.920585
55.765 12.048165
55.770 12.4701
55.775 12.952085
55.780 13.226766
55.785 12.718496
55.790 11.962505
55.795 11.487754
55.800 11.571847
55.805 11.427514
55.810 11.02054
55.815 10.763126
55.820 11.154262
55.825 11.501274
55.830 11.899863
55.835 12.006152
55.840 12.443735
55.845 12.977257
55.850 13.099472
55.855 12.927172
55.860 13.132823
55.865 13.422365
55.870 13.495575
55.875 12.927496
55.880 12.879503
55.885 13.145039
55.890 13.227937
55.895 13.188027
55.900 12.926944
55.905 12.945683
55.910 13.58853
55.915 13.482532
55.920 14.087757
55.925 14.349268
55.930 14.293218
55.935 14.476889
55.940 14.437387
55.945 14.376829
55.950 14.484273
55.955 13.724535
55.960 13.32059
55.965 12.61378
55.970 12.275532
55.975 12.104436
55.980 11.904483
55.985 12.076748
55.990 11.909708
55.995 11.99155
56.000 11.635647
56.005 11.248683
56.010 10.91041
56.015 10.266444
56.020 9.846527
56.025 9.847288
56.030 10.224092
56.035 10.929868
56.040 11.408923
56.045 11.102147
56.050 11.259734
56.055 11.579374
56.060 11.761392
56.065 11.868493
56.070 11.48671
56.075 11.821244
56.080 12.445885
56.085 12.105916
56.090 12.023313
56.095 12.071313
56.100 11.923572
56.105 11.727192
56.110 11.444292
56.115 11.741334
56.120 12.346672
56.125 12.135824
56.130 11.587945
56.135 11.503429
56.140 12.214021
56.145 11.993496
56.150 11.759984
56.155 11.89795
56.160 12.073047
56.165 12.382478
56.170 12.497746
56.175 11.829342
56.180 11.415305
56.185 11.162741
56.190 11.108795
56.195 11.136784
56.200 11.155589
56.205 10.948933
56.210 11.313887
56.215 12.060756
56.220 12.403555
56.225 12.183618
56.230 12.137005
56.235 12.096194
56.240 12.449202
56.245 12.426389
56.250 11.367547
56.255 11.211402
56.260 11.147054
56.265 11.241524
56.270 11.417954
56.275 11.449404
56.280 11.541137
56.285 12.058744
56.290 11.883866
56.295 11.590927
56.300 12.026995
56.305 12.046201
56.310 11.48741
56.315 11.402817
56.320 11.301506
56.325 11.575748
56.330 11.913625
56.335 11.306914
56.340 11.131391
56.345 11.103268
56.350 11.301076
56.355 11.872076
56.360 11.626429
56.365 11.33204
56.370 11.201127
56.375 11.242142
56.380 11.475385
56.385 11.616524
56.390 10.995411
56.395 11.237086
56.400 11.472649
56.405 12.461398
56.410 13.109707
56.415 12.917967
56.420 12.852414
56.425 12.95161
56.430 12.856028
56.435 13.279527
56.440 12.419189
56.445 11.751297
56.450 11.936375
56.455 12.107174
56.460 12.139204
56.465 11.86166
56.470 11.900643
56.475 12.383358
56.480 12.542574
56.485 12.158452
56.490 12.37774
56.495 12.616883
56.500 12.713299
56.505 12.58417
56.510 12.686073
56.515 12.723445
56.520 13.058293
56.525 12.844375
56.530 12.768678
56.535 13.073522
56.540 13.037169
56.545 13.079403
56.550 13.148321
56.555 13.08131
56.560 13.230396
56.565 13.615818
56.570 12.966822
56.575 12.816107
56.580 12.757681
56.585 12.49616
56.590 12.223731
56.595 12.025943
56.600 11.953298
56.605 12.348049
56.610 12.473105
56.615 12.516648
56.620 12.806723
56.625 12.442054
56.630 12.517752
56.635 13.064469
56.640 13.01958
56.645 12.999889
56.650 12.892237
56.655 13.141942
56.660 13.482082
56.665 12.963183
56.670 12.70514
56.675 12.613605
56.680 12.747025
56.685 13.250909
56.690 13.449486
56.695 14.00168
56.700 14.32515
56.705 14.252437
56.710 14.609698
56.715 14.167264
56.720 14.100637
56.725 13.574153
56.730 13.253267
56.735 13.769503
56.740 13.436568
56.745 13.088119
56.750 13.388895
56.755 13.27395
56.760 13.485588
56.765 13.115018
56.770 12.765857
56.775 12.966423
56.780 13.370147
56.785 13.505219
56.790 13.405036
56.795 13.943156
56.800 14.428294
56.805 14.449224
56.810 14.219769
56.815 13.706785
56.820 13.451235
56.825 13.11499
56.830 12.648865
56.835 12.341278
56.840 12.58436
56.845 13.181496
56.850 13.493697
56.855 13.879194
56.860 14.437534
56.865 14.809233
56.870 15.120604
56.875 14.936282
56.880 14.899186
56.885 14.34486
56.890 14.263536
56.895 14.115111
56.900 13.448339
56.905 12.671261
56.910 12.254183
56.915 11.867599
56.920 12.446091
56.925 12.3327
56.930 12.300648
56.935 12.937634
56.940 13.104045
56.945 13.052279
56.950 13.373033
56.955 13.142582
56.960 13.560106
56.965 13.342175
56.970 13.308925
56.975 13.378693
56.980 13.375275
56.985 13.156092
56.990 12.890314
56.995 12.550756
57.000 12.686716
57.005 12.979707
57.010 14.115017
57.015 14.340598
57.020 14.830502
57.025 14.655631
57.030 14.462912
57.035 14.238198
57.040 14.312195
57.045 13.410192
57.050 13.200148
57.055 12.821349
57.060 13.057277
57.065 13.275143
57.070 13.395997
57.075 13.051303
57.080 13.63514
57.085 13.889248
57.090 13.76189
57.095 13.347355
57.100 13.109947
57.105 13.337508
57.110 13.545088
57.115 13.290451
57.120 13.592793
57.125 13.40162
57.130 13.791426
57.135 13.829454
57.140 13.162522
57.145 12.863969
57.150 12.691126
57.155 12.440068
57.160 12.388642
57.165 12.261078
57.170 12.882044
57.175 13.587284
57.180 13.722662
57.185 13.679657
57.190 14.014189
57.195 14.889811
57.200 14.883455
57.205 14.78961
57.210 14.251503
57.215 14.154832
57.220 14.186606
57.225 14.119776
57.230 13.807945
57.235 13.508194
57.240 12.827591
57.245 12.79823
57.250 12.621778
57.255 12.82629
57.260 12.212204
57.265 12.040194
57.270 12.554154
57.275 13.243881
57.280 13.915981
57.285 14.130658
57.290 14.132432
57.295 14.40871
57.300 14.702941
57.305 14.586254
57.310 14.162758
57.315 13.916092
57.320 13.74571
57.325 13.839304
57.330 13.868072
57.335 13.839106
57.340 13.478433
57.345 13.488292
57.350 13.372962
57.355 12.85785
57.360 12.45993
57.365 12.593474
57.370 12.467971
57.375 12.557417
57.380 12.573052
57.385 13.134437
57.390 13.532183
57.395 13.794398
57.400 13.695329
57.405 13.710361
57.410 13.943624
57.415 13.502971
57.420 12.932028
57.425 12.891674
57.430 12.698853
57.435 12.880927
57.440 13.00052
57.445 12.92202
57.450 13.380238
57.455 13.514512
57.460 14.198483
57.465 14.74709
57.470 14.952062
57.475 14.816912
57.480 14.71777
57.485 14.65327
57.490 14.740555
57.495 14.909511
57.500 14.550344
57.505 14.048459
57.510 14.558478
57.515 14.610445
57.520 14.476483
57.525 14.079698
57.530 13.673342
57.535 13.820416
57.540 14.0281
57.545 14.059049
57.550 14.054658
57.555 14.333219
57.560 14.419749
57.565 14.209292
57.570 14.130486
57.575 13.700823
57.580 13.501587
57.585 13.659009
57.590 13.888705
57.595 14.05438
57.600 13.814795
57.605 14.253295
57.610 14.504731
57.615 14.105486
57.620 14.059442
57.625 14.095583
57.630 14.526675
57.635 14.89395
57.640 14.826597
57.645 15.225932
57.650 15.29928
57.655 15.098583
57.660 14.288127
57.665 13.197784
57.670 12.943905
57.675 12.750529
57.680 12.597197
57.685 12.573967
57.690 12.872398
57.695 13.435127
57.700 13.771985
57.705 14.689214
57.710 14.974509
57.715 15.542636
57.720 15.912458
57.725 15.833905
57.730 15.550195
57.735 15.036662
57.740 14.509496
57.745 14.185658
57.750 13.372316
57.755 13.201931
57.760 13.684769
57.765 14.453341
57.770 15.063647
57.775 14.743852
57.780 15.094262
57.785 15.068851
57.790 15.152858
57.795 14.871444
57.800 14.846926
57.805 14.887087
57.810 15.329123
57.815 14.952761
57.820 15.165978
57.825 15.073766
57.830 15.110209
57.835 15.175475
57.840 14.843626
57.845 14.794659
57.850 14.967434
57.855 15.254874
57.860 15.189072
57.865 15.322816
57.870 15.520964
57.875 16.017033
57.880 15.855801
57.885 16.0923
57.890 15.884704
57.895 16.183357
57.900 15.925016
57.905 15.27577
57.910 14.70181
57.915 14.838309
57.920 15.175877
57.925 15.589884
57.930 15.572798
57.935 16.17911
57.940 17.063894
57.945 17.085217
57.950 16.639524
57.955 16.376333
57.960 16.094133
57.965 15.652183
57.970 15.083931
57.975 15.142348
57.980 15.581505
57.985 15.793444
57.990 15.350747
57.995 14.725884
58.000 14.739293
58.005 14.704614
58.010 14.439503
58.015 15.083957
58.020 15.031057
58.025 14.998898
58.030 15.353878
58.035 15.966248
58.040 16.586605
58.045 16.408361
58.050 16.054041
58.055 16.007435
58.060 16.294704
58.065 16.220545
58.070 15.800813
58.075 15.31872
58.080 15.150834
58.085 14.758156
58.090 14.347487
58.095 14.550097
58.100 14.566525
58.105 14.607869
58.110 14.588288
58.115 15.538705
58.120 16.646675
58.125 17.171658
58.130 17.581306
58.135 17.892731
58.140 18.251408
58.145 18.426538
58.150 17.530323
58.155 16.848909
58.160 16.733438
58.165 16.789936
58.170 17.030111
58.175 16.453243
58.180 16.180723
58.185 16.253361
58.190 16.546247
58.195 17.146921
58.200 17.346031
58.205 17.331944
58.210 17.289652
58.215 17.36948
58.220 17.545565
58.225 17.111374
58.230 16.559448
58.235 15.641105
58.240 15.627591
58.245 15.994047
58.250 16.003077
58.255 16.19095
58.260 16.395498
58.265 16.488598
58.270 17.169437
58.275 17.279383
58.280 17.258675
58.285 17.191957
58.290 17.433445
58.295 17.998415
58.300 17.811691
58.305 17.599361
58.310 17.608719
58.315 18.180489
58.320 18.513458
58.325 18.365402
58.330 18.033907
58.335 18.652636
58.340 19.080959
58.345 19.202923
58.350 18.761486
58.355 19.148359
58.360 19.526354
58.365 19.802002
58.370 19.98481
58.375 19.907236
58.380 19.937721
58.385 20.661745
58.390 20.480532
58.395 20.184225
58.400 20.034136
58.405 19.760674
58.410 20.120213
58.415 20.354902
58.420 20.085293
58.425 20.688351
58.430 20.780708
58.435 20.810884
58.440 20.797281
58.445 21.058947
58.450 21.435808
58.455 22.285088
58.460 22.543785
58.465 23.239124
58.470 24.111483
58.475 24.411238
58.480 25.232672
58.485 25.716499
58.490 25.918829
58.495 26.669401
58.500 26.893208
58.505 27.202663
58.510 27.469566
58.515 27.515133
58.520 28.182344
58.525 28.30921
58.530 28.955812
58.535 28.978302
58.540 29.376585
58.545 29.833946
58.550 29.105371
58.555 30.022711
58.560 30.752087
58.565 30.993883
58.570 32.146141
58.575 32.836708
58.580 32.82608
58.585 32.956993
58.590 32.873077
58.595 33.86404
58.600 34.442944
58.605 34.095055
58.610 33.938118
58.615 34.902542
58.620 36.399456
58.625 36.817551
58.630 36.662697
58.635 36.40073
58.640 36.616329
58.645 36.646198
58.650 36.836357
58.655 36.324749
58.660 36.118164
58.665 36.430496
58.670 36.816425
58.675 37.846241
58.680 38.470684
58.685 37.83588
58.690 37.573601
58.695 37.359215
58.700 35.915951
58.705 34.487411
58.710 33.429558
58.715 33.418198
58.720 33.691452
58.725 33.445812
58.730 33.457138
58.735 34.298038
58.740 35.221519
58.745 35.397091
58.750 34.732296
58.755 34.314232
58.760 33.713734
58.765 33.270805
58.770 33.234467
58.775 32.206203
58.780 31.673618
58.785 30.872873
58.790 30.421803
58.795 30.307465
58.800 29.030537
58.805 28.020933
58.810 27.918585
58.815 28.181423
58.820 28.805733
58.825 29.069218
58.830 28.59688
58.835 29.045849
58.840 28.925718
58.845 27.807758
58.850 26.519722
58.855 25.753424
58.860 25.699329
58.865 25.841616
58.870 25.501863
58.875 25.808186
58.880 25.732027
58.885 25.092436
58.890 24.246813
58.895 22.941704
58.900 22.714569
58.905 22.424744
58.910 21.831612
58.915 21.475836
58.920 20.925646
58.925 21.910542
58.930 21.989941
58.935 21.154205
58.940 19.691206
58.945 18.647684
58.950 19.096392
58.955 18.945951
58.960 18.268635
58.965 18.579254
58.970 18.519276
58.975 19.155235
58.980 19.804668
58.985 20.250664
58.990 20.444954
58.995 20.238752
59.000 19.846302
59.005 19.865236
59.010 19.709558
59.015 19.132498
59.020 18.617247
59.025 18.167816
59.030 18.303022
59.035 18.531544
59.040 18.638016
59.045 18.253618
59.050 18.336325
59.055 18.322727
59.060 19.092316
59.065 18.845434
59.070 18.393459
59.075 17.73237
59.080 17.328093
59.085 16.826639
59.090 16.558195
59.095 16.164555
59.100 16.370705
59.105 16.579594
59.110 16.442165
59.115 16.221577
59.120 16.015055
59.125 16.357351
59.130 15.8937
59.135 15.439355
59.140 15.196589
59.145 15.815289
59.150 15.705406
59.155 15.876519
59.160 15.504483
59.165 15.383297
59.170 16.170227
59.175 16.46031
59.180 16.535316
59.185 17.028011
59.190 17.283487
59.195 17.655397
59.200 17.551287
59.205 16.682487
59.210 16.274609
59.215 15.687374
59.220 15.430691
59.225 14.692103
59.230 14.175046
59.235 14.141383
59.240 14.312434
59.245 14.614217
59.250 14.963788
59.255 15.53059
59.260 16.251808
59.265 16.460373
59.270 16.686768
59.275 16.466301
59.280 16.18899
59.285 15.574998
59.290 15.122022
59.295 14.441026
59.300 14.786876
59.305 14.791704
59.310 14.971625
59.315 15.359852
59.320 16.093702
59.325 16.210228
59.330 17.276531
59.335 16.724117
59.340 16.420761
59.345 15.928945
59.350 15.154314
59.355 14.893651
59.360 14.159201
59.365 13.131413
59.370 12.904342
59.375 12.863896
59.380 13.186477
59.385 13.842377
59.390 14.221219
59.395 14.354151
59.400 14.832229
59.405 15.49209
59.410 16.171087
59.415 16.39546
59.420 16.575106
59.425 16.560287
59.430 16.766527
59.435 16.478941
59.440 15.929461
59.445 15.349086
59.450 15.183003
59.455 15.148738
59.460 15.214247
59.465 15.20765
59.470 15.188134
59.475 15.528517
59.480 15.934208
59.485 16.420568
59.490 16.164356
59.495 16.265068
59.500 16.116463
59.505 16.456369
59.510 16.504974
59.515 15.930416
59.520 15.735122
59.525 15.484863
59.530 15.083381
59.535 15.043591
59.540 14.386887
59.545 14.035912
59.550 14.023915
59.555 13.518207
59.560 13.148568
59.565 13.228829
59.570 13.197982
59.575 13.311034
59.580 13.617311
59.585 14.116808
59.590 14.896448
59.595 15.351568
59.600 14.966512
59.605 14.936492
59.610 14.965417
59.615 14.915738
59.620 14.29656
59.625 13.811205
59.630 13.542452
59.635 14.20685
59.640 14.251167
59.645 14.36986
59.650 14.230545
59.655 14.204916
59.660 14.19369
59.665 14.129302
59.670 13.741815
59.675 14.017766
59.680 14.07924
59.685 14.139359
59.690 14.741131
59.695 15.080374
59.700 14.968877
59.705 14.725429
59.710 15.075619
59.715 15.524137
59.720 16.138992
59.725 16.144159
59.730 16.234982
59.735 16.571121
59.740 17.126238
59.745 16.755728
59.750 16.01972
59.755 15.652036
59.760 15.159374
59.765 14.909174
59.770 14.857156
59.775 14.559373
59.780 14.730777
59.785 14.842846
59.790 14.720892
59.795 15.122732
59.800 15.520567
59.805 15.704217
59.810 15.727868
59.815 15.333335
59.820 15.41239
59.825 15.714566
59.830 14.95855
59.835 14.432991
59.840 13.775697
59.845 13.711049
59.850 13.968234
59.855 13.975735
59.860 13.949871
59.865 14.228549
59.870 14.222952
59.875 14.646397
59.880 15.163618
59.885 15.269231
59.890 15.807638
59.895 16.020035
59.900 16.372293
59.905 17.000719
59.910 16.741385
59.915 16.405983
59.920 16.55574
59.925 15.976563
59.930 15.943004
59.935 15.910603
59.940 15.490541
59.945 15.931725
59.950 16.08959
59.955 15.70661
59.960 15.463657
59.965 15.165522
59.970 14.858128
59.975 15.243939
59.980 15.01912
59.985 14.859628
59.990 15.118263
59.995 15.658604
60.000 15.278848
60.005 15.436899
60.010 15.785375
60.015 15.669715
60.020 15.375728
60.025 15.360571
60.030 14.61978
60.035 14.946995
60.040 14.950939
60.045 14.487802
60.050 14.848146
60.055 15.152676
60.060 15.380934
60.065 15.786086
60.070 16.047142
60.075 16.17794
60.080 16.069916
60.085 15.680969
60.090 15.360938
60.095 15.508912
60.100 15.475991
60.105 15.044988
60.110 14.77517
60.115 15.012358
60.120 15.591551
60.125 16.164013
60.130 15.948057
60.135 16.132185
60.140 16.584719
60.145 16.436018
60.150 15.699173
60.155 14.888811
60.160 14.073135
60.165 13.525237
60.170 13.289471
60.175 12.860437
60.180 13.073517
60.185 13.602595
60.190 13.98811
60.195 14.391981
60.200 14.80792
60.205 14.686729
60.210 14.581104
60.215 15.175542
60.220 15.02398
60.225 14.884972
60.230 15.029259
60.235 15.089344
60.240 15.255738
60.245 15.234447
60.250 14.859706
60.255 14.995073
60.260 15.195338
60.265 15.001743
60.270 15.280971
60.275 15.716505
60.280 16.261585
60.285 16.645575
60.290 16.702415
60.295 16.620369
60.300 16.453623
60.305 16.08897
60.310 15.674136
60.315 15.193592
60.320 14.99386
60.325 14.67636
60.330 14.556512
60.335 14.598794
60.340 14.832207
60.345 14.832811
60.350 14.88411
60.355 15.104387
60.360 15.089054
60.365 15.567129
60.370 16.042559
60.375 15.495928
60.380 15.47859
60.385 15.323105
60.390 15.062216
60.395 15.473777
60.400 14.772956
60.405 14.411008
60.410 14.619121
60.415 14.716513
60.420 14.746671
60.425 14.757953
60.430 14.902426
60.435 14.826136
60.440 14.760155
60.445 14.830488
60.450 14.918186
60.455 15.029046
60.460 14.524021
60.465 14.22929
60.470 14.550473
60.475 14.692871
60.480 14.704274
60.485 14.992063
60.490 14.882741
60.495 15.569252
60.500 16.059156
60.505 15.970973
60.510 16.144629
60.515 16.388615
60.520 16.162695
60.525 15.852407
60.530 15.562306
60.535 15.600859
60.540 15.592044
60.545 15.526598
60.550 14.920279
60.555 14.841973
60.560 15.413968
60.565 15.36956
60.570 14.537004
60.575 14.375065
60.580 14.434428
60.585 15.098444
60.590 15.652782
60.595 16.059954
60.600 16.388189
60.605 16.877659
60.610 16.989868
60.615 16.600765
60.620 16.36858
60.625 15.74133
60.630 15.530589
60.635 15.756531
60.640 15.475386
60.645 15.227172
60.650 14.714103
60.655 14.560734
60.660 14.388485
60.665 13.89952
60.670 13.535671
60.675 13.714316
60.680 13.704708
60.685 14.208263
60.690 14.84284
60.695 15.098429
60.700 15.307252
60.705 15.543492
60.710 15.494922
60.715 15.625223
60.720 15.403089
60.725 14.645909
60.730 14.518297
60.735 14.462972
60.740 14.423233
60.745 14.652968
60.750 15.018277
60.755 15.50381
60.760 16.042425
60.765 15.967047
60.770 15.931138
60.775 15.743656
60.780 16.655588
60.785 17.315699
60.790 17.223135
60.795 17.29952
60.800 17.263113
60.805 17.017824
60.810 16.867052
60.815 15.922194
60.820 14.819659
60.825 14.572895
60.830 14.330066
60.835 14.867058
60.840 15.246509
60.845 15.0853
60.850 15.515696
60.855 15.728722
60.860 16.098349
60.865 15.981783
60.870 16.006771
60.875 16.087736
60.880 16.14003
60.885 15.824542
60.890 15.609511
60.895 15.445578
60.900 15.671057
60.905 15.426262
60.910 15.373746
60.915 15.249316
60.920 15.247087
60.925 15.367764
60.930 14.643889
60.935 14.22765
60.940 13.877253
60.945 14.229296
60.950 14.366824
60.955 14.451206
60.960 14.833046
60.965 14.976456
60.970 14.58361
60.975 14.47392
60.980 13.838506
60.985 13.674829
60.990 13.812442
60.995 13.292583
61.000 13.784176
61.005 14.08603
61.010 14.116191
61.015 14.34441
61.020 14.264442
61.025 14.410436
61.030 14.963259
61.035 14.972621
61.040 15.321
61.045 15.51193
61.050 15.806461
61.055 16.440454
61.060 16.551836
61.065 16.453598
61.070 16.402521
61.075 16.221621
61.080 16.135427
61.085 15.432261
61.090 14.527836
61.095 13.945101
61.100 14.020939
61.105 14.578722
61.110 14.498533
61.115 14.728527
61.120 15.237356
61.125 15.926353
61.130 15.993149
61.135 15.738317
61.140 15.589551
61.145 15.832233
61.150 15.695613
61.155 15.645761
61.160 16.120546
61.165 16.702038
61.170 16.838882
61.175 16.770348
61.180 16.877308
61.185 16.600748
61.190 16.420614
61.195 16.611185
61.200 16.128393
61.205 15.976752
61.210 15.709504
61.215 15.891025
61.220 16.590309
61.225 17.252546
61.230 17.022129
61.235 17.179611
61.240 17.207432
61.245 17.319635
61.250 17.155153
61.255 16.961748
61.260 16.448154
61.265 15.880551
61.270 15.993443
61.275 16.172571
61.280 16.612648
61.285 16.47485
61.290 16.123825
61.295 16.265379
61.300 16.577351
61.305 16.386597
61.310 16.10536
61.315 15.876394
61.320 15.652654
61.325 15.670836
61.330 15.735774
61.335 15.85405
61.340 15.917953
61.345 15.572464
61.350 15.350986
61.355 15.414334
61.360 15.484035
61.365 15.306705
61.370 14.866343
61.375 14.80572
61.380 14.700995
61.385 14.622055
61.390 14.788666
61.395 15.051596
61.400 14.99708
61.405 15.173498
61.410 15.615684
61.415 16.43417
61.420 16.657145
61.425 16.47477
61.430 16.161621
61.435 16.489048
61.440 17.309624
61.445 17.107599
61.450 16.180613
61.455 15.77022
61.460 15.385691
61.465 15.277679
61.470 15.040278
61.475 14.522116
61.480 14.274426
61.485 14.729688
61.490 15.012852
61.495 15.459746
61.500 15.846259
61.505 15.74776
61.510 15.222335
61.515 15.548985
61.520 15.838965
61.525 16.755373
61.530 16.952347
61.535 17.101021
61.540 16.872982
61.545 17.281281
61.550 17.458473
61.555 17.509331
61.560 17.002464
61.565 16.991505
61.570 17.052168
61.575 17.294651
61.580 16.942608
61.585 17.012787
61.590 16.636917
61.595 16.431459
61.600 15.972036
61.605 15.489825
61.610 15.377012
61.615 15.464476
61.620 15.117391
61.625 14.961843
61.630 15.237756
61.635 15.749175
61.640 16.117863
61.645 16.197323
61.650 17.014406
61.655 17.264894
61.660 17.40016
61.665 17.319374
61.670 16.973541
61.675 17.082516
61.680 17.488871
61.685 16.857773
61.690 16.867954
61.695 17.206743
61.700 17.26432
61.705 16.714104
61.710 16.538456
61.715 16.01535
61.720 15.738192
61.725 15.854026
61.730 16.084278
61.735 16.636332
61.740 16.99346
61.745 17.161861
61.750 17.246084
61.755 17.858778
61.760 17.758226
61.765 16.768152
61.770 16.78191
61.775 17.032133
61.780 16.315302
61.785 15.92195
61.790 15.397287
61.795 15.471706
61.800 15.553783
61.805 14.988791
61.810 15.080917
61.815 15.140836
61.820 15.513827
61.825 15.556141
61.830 15.153101
61.835 14.850938
61.840 15.023046
61.845 15.093009
61.850 15.307904
61.855 15.61165
61.860 16.518145
61.865 17.286516
61.870 17.545383
61.875 17.766811
61.880 17.49468
61.885 18.269331
61.890 18.328251
61.895 17.773188
61.900 17.831348
61.905 17.797729
61.910 17.595474
61.915 17.968277
61.920 17.476061
61.925 17.134809
61.930 16.972153
61.935 16.747452
61.940 17.031633
61.945 16.651945
61.950 16.379595
61.955 16.140709
61.960 16.248388
61.965 15.871009
61.970 16.123062
61.975 16.107779
61.980 16.25622
61.985 16.198099
61.990 16.349998
61.995 16.185061
62.000 16.445681
62.005 16.188919
62.010 16.050594
62.015 16.159872
62.020 16.292439
62.025 15.783579
62.030 15.234073
62.035 14.933911
62.040 14.36361
62.045 14.703313
62.050 14.918506
62.055 14.875607
62.060 15.676181
62.065 16.361967
62.070 16.766228
62.075 17.489273
62.080 17.023453
62.085 16.910082
62.090 16.756227
62.095 16.79454
62.100 16.814726
62.105 16.663044
62.110 16.230667
62.115 16.394712
62.120 16.370829
62.125 16.553564
62.130 16.383995
62.135 16.492212
62.140 16.665474
62.145 17.33127
62.150 17.344332
62.155 16.828079
62.160 17.044298
62.165 17.076941
62.170 17.382961
62.175 17.65999
62.180 16.895666
62.185 16.994354
62.190 17.309738
62.195 16.890486
62.200 16.59049
62.205 16.484365
62.210 16.59877
62.215 17.410851
62.220 17.518934
62.225 17.715315
62.230 18.172018
62.235 18.328964
62.240 17.733847
62.245 16.897547
62.250 16.267296
62.255 16.14673
62.260 15.848331
62.265 15.422101
62.270 15.108135
62.275 14.860613
62.280 15.276772
62.285 15.572347
62.290 15.904922
62.295 15.925515
62.300 16.520473
62.305 16.763699
62.310 16.939383
62.315 16.212992
62.320 16.128864
62.325 15.96913
62.330 16.218918
62.335 15.914286
62.340 15.876278
62.345 16.049339
62.350 16.421566
62.355 16.119989
62.360 16.278734
62.365 15.898355
62.370 15.869888
62.375 15.996027
62.380 16.54413
62.385 16.600773
62.390 16.401493
62.395 16.706276
62.400 17.120193
62.405 17.509138
62.410 17.502043
62.415 17.161549
62.420 17.247444
62.425 17.053839
62.430 16.842878
62.435 16.672377
62.440 16.379454
62.445 16.556761
62.450 17.140081
62.455 17.312332
62.460 17.525156
62.465 17.00691
62.470 16.920425
62.475 17.209705
62.480 16.587622
62.485 15.50034
62.490 15.927585
62.495 16.153273
62.500 16.598543
62.505 16.322468
62.510 15.644636
62.515 15.88185
62.520 15.995839
62.525 15.323853
62.530 15.100922
62.535 14.635
62.540 14.446003
62.545 14.741208
62.550 14.829202
62.555 15.157063
62.560 15.643149
62.565 16.054188
62.570 16.035553
62.575 15.935789
62.580 15.763535
62.585 15.388092
62.590 14.923175
62.595 14.334247
62.600 14.193753
62.605 14.200996
62.610 14.519214
62.615 14.857466
62.620 15.834059
62.625 16.450949
62.630 17.124802
62.635 17.463932
62.640 17.909252
62.645 18.337147
62.650 18.103029
62.655 17.669884
62.660 17.399952
62.665 16.855341
62.670 16.896938
62.675 17.147455
62.680 17.017744
62.685 17.055416
62.690 16.775923
62.695 17.037279
62.700 16.839705
62.705 16.630449
62.710 16.822422
62.715 16.852053
62.720 17.149338
62.725 17.264521
62.730 17.391752
62.735 17.754101
62.740 17.819817
62.745 16.848864
62.750 16.574221
62.755 16.502464
62.760 16.957668
62.765 17.322321
62.770 17.096077
62.775 16.99472
62.780 17.207005
62.785 17.555161
62.790 17.398844
62.795 17.162857
62.800 17.024603
62.805 16.964436
62.810 17.497786
62.815 17.902306
62.820 17.464821
62.825 17.714483
62.830 17.525806
62.835 16.959919
62.840 16.90309
62.845 16.591309
62.850 16.658463
62.855 17.110319
62.860 17.07402
62.865 17.203859
62.870 17.483908
62.875 17.752693
62.880 17.095806
62.885 16.841827
62.890 16.465275
62.895 16.5399
62.900 16.007875
62.905 15.912511
62.910 16.091799
62.915 16.348408
62.920 16.291126
62.925 16.045797
62.930 15.50699
62.935 15.460747
62.940 15.008809
62.945 14.432351
62.950 14.774088
62.955 15.059151
62.960 15.282075
62.965 15.539259
62.970 16.005083
62.975 16.9659
62.980 17.357191
62.985 16.937937
62.990 17.128572
62.995 17.659063
63.000 18.689894
63.005 18.687241
63.010 18.362415
63.015 18.237968
63.020 18.345877
63.025 18.386501
63.030 18.007318
63.035 16.824842
63.040 16.706203
63.045 16.506868
63.050 16.351698
63.055 15.918603
63.060 15.176622
63.065 15.257679
63.070 15.719545
63.075 16.149277
63.080 16.534063
63.085 16.752987
63.090 16.954027
63.095 17.206009
63.100 16.906847
63.105 17.227364
63.110 16.729939
63.115 16.770878
63.120 17.042522
63.125 17.566191
63.130 17.590298
63.135 17.786638
63.140 17.083248
63.145 17.635122
63.150 17.730597
63.155 17.365311
63.160 17.165033
63.165 17.013353
63.170 16.706018
63.175 16.665827
63.180 16.614243
63.185 16.771832
63.190 17.243704
63.195 16.771866
63.200 16.961767
63.205 16.980211
63.210 16.921764
63.215 16.22636
63.220 15.838572
63.225 15.820145
63.230 15.928012
63.235 15.820571
63.240 15.64472
63.245 16.182484
63.250 16.644545
63.255 16.815952
63.260 16.832947
63.265 17.238907
63.270 17.224955
63.275 17.893778
63.280 17.833483
63.285 17.784201
63.290 17.56905
63.295 17.403986
63.300 17.422714
63.305 18.014166
63.310 18.148621
63.315 18.522762
63.320 18.208138
63.325 17.814899
63.330 18.020327
63.335 17.863108
63.340 17.432882
63.345 16.750687
63.350 16.648746
63.355 17.416357
63.360 17.565813
63.365 17.528469
63.370 17.520243
63.375 17.341866
63.380 17.54001
63.385 16.725754
63.390 16.330109
63.395 16.079529
63.400 15.172661
63.405 15.143116
63.410 15.660446
63.415 15.852839
63.420 16.646496
63.425 16.582932
63.430 17.327827
63.435 18.383549
63.440 19.044882
63.445 18.569841
63.450 18.280851
63.455 17.915617
63.460 17.8139
63.465 17.30901
63.470 17.092672
63.475 17.034031
63.480 17.518549
63.485 17.995331
63.490 17.871771
63.495 18.274141
63.500 18.88851
63.505 19.22957
63.510 19.233492
63.515 19.231768
63.520 19.186323
63.525 18.972857
63.530 18.522543
63.535 18.077309
63.540 17.120256
63.545 16.576315
63.550 15.984533
63.555 15.560455
63.560 15.269161
63.565 15.292007
63.570 14.814949
63.575 14.725027
63.580 14.869931
63.585 14.941014
63.590 14.93884
63.595 15.705172
63.600 15.690376
63.605 15.753403
63.610 16.240261
63.615 16.509422
63.620 16.993732
63.625 17.520771
63.630 17.704767
63.635 18.154202
63.640 18.864372
63.645 18.867958
63.650 18.382746
63.655 18.041039
63.660 18.109816
63.665 18.294455
63.670 18.947151
63.675 18.858723
63.680 18.570587
63.685 19.008247
63.690 19.377766
63.695 19.03878
63.700 19.043734
63.705 18.016129
63.710 17.810474
63.715 18.118717
63.720 18.05372
63.725 17.769213
63.730 17.816206
63.735 17.271948
63.740 17.099411
63.745 17.433523
63.750 16.876999
63.755 16.755259
63.760 16.517313
63.765 16.317455
63.770 16.655289
63.775 16.935963
63.780 16.635515
63.785 16.579231
63.790 16.177763
63.795 16.174887
63.800 16.595457
63.805 16.9174
63.810 16.686289
63.815 16.705294
63.820 16.623672
63.825 16.772711
63.830 16.962603
63.835 16.580027
63.840 16.816324
63.845 17.739286
63.850 17.973551
63.855 18.469824
63.860 18.840624
63.865 19.174877
63.870 19.620541
63.875 19.65313
63.880 19.15436
63.885 19.575787
63.890 19.688768
63.895 19.829426
63.900 19.732567
63.905 18.894552
63.910 18.705011
63.915 18.963198
63.920 18.673647
63.925 18.809015
63.930 18.842434
63.935 18.92543
63.940 19.656176
63.945 19.413864
63.950 19.545553
63.955 19.515448
63.960 19.322634
63.965 19.60693
63.970 20.132067
63.975 20.086559
63.980 20.110783
63.985 19.697439
63.990 19.922344
63.995 20.744658
64.000 20.451897
64.005 20.123554
64.010 20.062044
64.015 20.789791
64.020 22.148832
64.025 22.631493
64.030 22.783419
64.035 22.999105
64.040 23.450235
64.045 23.649899
64.050 23.582005
64.055 22.513414
64.060 22.543818
64.065 22.314295
64.070 22.15369
64.075 22.093218
64.080 22.260405
64.085 22.841482
64.090 23.430651
64.095 23.566654
64.100 24.170187
64.105 24.288298
64.110 23.465313
64.115 23.597334
64.120 24.166008
64.125 24.438753
64.130 24.451237
64.135 24.892462
64.140 26.264339
64.145 27.232836
64.150 27.316425
64.155 27.197554
64.160 27.040758
64.165 27.435469
64.170 28.304104
64.175 28.332872
64.180 29.54381
64.185 30.735258
64.190 30.964138
64.195 31.913277
64.200 32.276695
64.205 31.81126
64.210 31.640102
64.215 31.182161
64.220 31.232395
64.225 31.868391
64.230 32.786839
64.235 33.61441
64.240 35.038116
64.245 36.271988
64.250 36.518112
64.255 36.49823
64.260 38.080475
64.265 38.613033
64.270 38.313202
64.275 38.148846
64.280 37.673508
64.285 38.004936
64.290 39.500717
64.295 39.712532
64.300 40.074039
64.305 40.304821
64.310 40.519867
64.315 41.77832
64.320 42.952152
64.325 43.864952
64.330 44.389473
64.335 44.734909
64.340 45.476196
64.345 46.380516
64.350 47.108635
64.355 47.497108
64.360 47.828342
64.365 47.344315
64.370 46.838322
64.375 46.752537
64.380 46.909592
64.385 47.219322
64.390 47.404194
64.395 48.063755
64.400 49.843014
64.405 50.978516
64.410 52.193413
64.415 52.678165
64.420 52.831764
64.425 52.353649
64.430 52.167744
64.435 51.265972
64.440 50.518742
64.445 50.25388
64.450 48.939339
64.455 48.559353
64.460 48.794422
64.465 47.707874
64.470 47.828651
64.475 47.836784
64.480 47.555958
64.485 48.392506
64.490 48.623241
64.495 48.576431
64.500 47.98518
64.505 47.729534
64.510 48.205593
64.515 47.44743
64.520 47.158886
64.525 46.327759
64.530 45.53223
64.535 45.424263
64.540 45.114529
64.545 44.603764
64.550 44.451111
64.555 43.899372
64.560 43.967377
64.565 43.891441
64.570 43.487324
64.575 42.628994
64.580 41.880356
64.585 41.354931
64.590 40.316147
64.595 39.456802
64.600 39.081707
64.605 38.193089
64.610 37.918781
64.615 37.323143
64.620 36.558159
64.625 35.773838
64.630 35.361206
64.635 34.124596
64.640 33.407711
64.645 32.419792
64.650 31.83107
64.655 31.38439
64.660 31.337635
64.665 30.926342
64.670 31.318033
64.675 31.606323
64.680 31.425716
64.685 31.265606
64.690 30.876987
64.695 30.790398
64.700 30.553905
64.705 29.559263
64.710 28.742819
64.715 28.497047
64.720 27.825167
64.725 27.802206
64.730 27.559572
64.735 27.235384
64.740 26.603928
64.745 25.910479
64.750 25.637947
64.755 25.217491
64.760 24.870367
64.765 24.7507
64.770 24.728441
64.775 24.578142
64.780 24.369242
64.785 24.202242
64.790 24.432636
64.795 24.435736
64.800 23.91268
64.805 23.981092
64.810 23.878038
64.815 23.551235
64.820 23.388725
64.825 23.177851
64.830 22.573299
64.835 23.217796
64.840 22.999432
64.845 23.049509
64.850 22.562561
64.855 22.568113
64.860 22.682215
64.865 23.273975
64.870 22.722551
64.875 23.414124
64.880 24.236166
64.885 24.847506
64.890 24.226038
64.895 23.935476
64.900 24.144993
64.905 24.710518
64.910 24.106184
64.915 24.201841
64.920 24.177006
64.925 24.753963
64.930 25.184492
64.935 24.813461
64.940 24.901682
64.945 25.12401
64.950 25.037209
64.955 26.039854
64.960 26.618065
64.965 26.336473
64.970 26.692375
64.975 27.325314
64.980 28.151243
64.985 29.185043
64.990 29.352758
64.995 29.612528
65.000 30.435907
65.005 30.563972
65.010 30.375584
65.015 30.089958
65.020 30.61055
65.025 30.672098
65.030 31.014664
65.035 30.679335
65.040 30.98292
65.045 30.912455
65.050 31.48193
65.055 31.654387
65.060 31.872828
65.065 32.240059
65.070 33.458813
65.075 33.605045
65.080 33.541996
65.085 33.049984
65.090 32.783871
65.095 33.366909
65.100 32.880047
65.105 32.39983
65.110 32.107948
65.115 32.517178
65.120 33.331734
65.125 34.883488
65.130 36.007931
65.135 36.084251
65.140 36.070614
65.145 36.927319
65.150 37.855373
65.155 38.014973
65.160 37.381046
65.165 36.615829
65.170 37.442444
65.175 38.521675
65.180 38.546822
65.185 37.649464
65.190 37.095398
65.195 37.414268
65.200 38.586197
65.205 38.58046
65.210 38.328362
65.215 39.225018
65.220 40.244244
65.225 40.356651
65.230 40.066547
65.235 39.68272
65.240 40.208187
65.245 40.183624
65.250 40.014179
65.255 39.687267
65.260 40.310982
65.265 40.165363
65.270 39.364838
65.275 38.879269
65.280 39.05584
65.285 39.058151
65.290 38.720936
65.295 38.275902
65.300 38.391354
65.305 39.002598
65.310 38.787312
65.315 38.249092
65.320 38.100651
65.325 38.356358
65.330 38.140438
65.335 38.118656
65.340 38.484798
65.345 39.216503
65.350 40.102894
65.355 40.049179
65.360 40.543861
65.365 41.048618
65.370 42.209888
65.375 41.452625
65.380 41.173859
65.385 40.737881
65.390 40.657764
65.395 39.926456
65.400 39.757164
65.405 39.1418
65.410 39.688591
65.415 39.143322
65.420 38.925522
65.425 38.245003
65.430 38.053337
65.435 37.809994
65.440 37.757954
65.445 37.639702
65.450 38.044785
65.455 38.155098
65.460 38.447136
65.465 38.608292
65.470 37.940765
65.475 36.984631
65.480 36.390907
65.485 36.010811
65.490 36.142101
65.495 36.908695
65.500 37.712666
65.505 38.398109
65.510 38.554867
65.515 38.276001
65.520 38.328915
65.525 38.87487
65.530 38.273178
65.535 37.440323
65.540 37.489964
65.545 38.065392
65.550 37.966221
65.555 37.917183
65.560 36.923824
65.565 36.721764
65.570 36.62598
65.575 36.520218
65.580 36.783009
65.585 37.26202
65.590 37.528572
65.595 37.978233
65.600 38.547909
65.605 37.857906
65.610 38.146297
65.615 37.677822
65.620 37.622612
65.625 37.089493
65.630 36.53603
65.635 36.745266
65.640 37.262142
65.645 36.505363
65.650 35.99855
65.655 35.381008
65.660 35.372845
65.665 35.313305
65.670 34.934082
65.675 35.105442
65.680 35.274017
65.685 35.229008
65.690 35.343948
65.695 34.913399
65.700 34.7631
65.705 34.642639
65.710 34.248589
65.715 34.095684
65.720 34.047825
65.725 33.963955
65.730 33.931995
65.735 33.126663
65.740 31.816799
65.745 30.985687
65.750 30.931492
65.755 31.135529
65.760 30.830528
65.765 30.714956
65.770 30.717415
65.775 31.531492
65.780 31.303106
65.785 30.536579
65.790 29.972164
65.795 29.555983
65.800 28.965979
65.805 28.860435
65.810 28.924721
65.815 29.167681
65.820 28.240271
65.825 27.828619
65.830 27.734451
65.835 27.784241
65.840 27.409491
65.845 26.943644
65.850 27.263472
65.855 27.208982
65.860 26.521994
65.865 26.513586
65.870 26.611231
65.875 27.033737
65.880 27.033131
65.885 26.507845
65.890 26.358809
65.895 26.753115
65.900 26.672726
65.905 26.659458
65.910 26.449196
65.915 26.039597
65.920 26.047127
65.925 26.172112
65.930 25.942278
65.935 25.896885
65.940 25.349644
65.945 24.407486
65.950 24.401415
65.955 24.209887
65.960 24.458536
65.965 24.127998
65.970 23.132645
65.975 22.501158
65.980 22.425364
65.985 22.653425
65.990 23.063913
65.995 22.346247
66.000 22.37846
66.005 22.759712
66.010 23.157499
66.015 23.268265
66.020 22.565632
66.025 21.689489
66.030 21.316908
66.035 20.661213
66.040 20.358063
66.045 20.173956
66.050 19.723621
66.055 19.974737
66.060 20.32761
66.065 20.058575
66.070 20.8337
66.075 20.830029
66.080 20.776907
66.085 20.801672
66.090 20.277624
66.095 20.174473
66.100 20.448502
66.105 19.631908
66.110 18.929209
66.115 18.762827
66.120 18.808903
66.125 19.006029
66.130 18.897812
66.135 18.726816
66.140 18.640646
66.145 18.783834
66.150 18.944923
66.155 18.907379
66.160 19.110977
66.165 19.058813
66.170 18.773006
66.175 19.09189
66.180 19.544113
66.185 19.592995
66.190 19.539133
66.195 18.873425
66.200 19.044739
66.205 18.841572
66.210 18.572113
66.215 18.232262
66.220 18.220453
66.225 17.919895
66.230 18.296701
66.235 18.597588
66.240 18.883289
66.245 19.128223
66.250 19.10239
66.255 19.198931
66.260 19.317183
66.265 18.967215
66.270 18.605284
66.275 18.371349
66.280 17.651323
66.285 17.18392
66.290 17.022778
66.295 16.520189
66.300 16.456018
66.305 16.266172
66.310 16.515297
66.315 16.663162
66.320 17.175007
66.325 17.340887
66.330 17.954828
66.335 18.343611
66.340 18.859676
66.345 19.424257
66.350 19.510094
66.355 19.28266
66.360 19.037342
66.365 18.791945
66.370 17.90274
66.375 17.581366
66.380 17.168243
66.385 16.884277
66.390 16.591471
66.395 16.337185
66.400 16.379007
66.405 17.220142
66.410 17.141985
66.415 17.431179
66.420 17.830809
66.425 18.003645
66.430 18.324116
66.435 17.688089
66.440 17.347685
66.445 17.049379
66.450 16.786995
66.455 17.134941
66.460 17.202297
66.465 17.407402
66.470 17.637678
66.475 17.610292
66.480 17.489355
66.485 17.294523
66.490 16.945688
66.495 16.956057
66.500 16.406401
66.505 16.713402
66.510 17.02861
66.515 17.285049
66.520 17.313667
66.525 17.37343
66.530 17.12322
66.535 17.686087
66.540 17.84906
66.545 18.234013
66.550 18.590651
66.555 18.722578
66.560 19.069471
66.565 19.930864
66.570 19.878044
66.575 19.490757
66.580 18.806253
66.585 18.13789
66.590 18.504765
66.595 17.924404
66.600 17.145885
66.605 16.580866
66.610 17.120659
66.615 17.418062
66.620 17.692568
66.625 17.596827
66.630 18.429174
66.635 18.493353
66.640 18.480106
66.645 18.294926
66.650 18.487597
66.655 18.774395
66.660 18.391493
66.665 17.900801
66.670 17.707714
66.675 17.675541
66.680 17.608126
66.685 16.894056
66.690 16.444481
66.695 16.307323
66.700 16.684252
66.705 17.03009
66.710 17.084578
66.715 17.155714
66.720 18.122812
66.725 18.541046
66.730 18.668215
66.735 18.949402
66.740 19.293022
66.745 19.270275
66.750 19.25503
66.755 19.062765
66.760 18.714535
66.765 18.665121
66.770 17.828131
66.775 17.544119
66.780 17.606848
66.785 17.521324
66.790 17.692932
66.795 17.912527
66.800 17.929371
66.805 18.077295
66.810 18.091558
66.815 17.938274
66.820 18.08884
66.825 17.916191
66.830 18.248838
66.835 18.035763
66.840 18.094078
66.845 18.631653
66.850 18.652359
66.855 18.094555
66.860 18.017593
66.865 17.942997
66.870 17.358686
66.875 17.815123
66.880 17.346111
66.885 17.469847
66.890 17.841017
66.895 17.689096
66.900 17.800135
66.905 19.130774
66.910 18.652571
66.915 18.523642
66.920 18.710909
66.925 18.42804
66.930 18.492361
66.935 18.388245
66.940 18.696585
66.945 18.979935
66.950 18.760424
66.955 18.521315
66.960 18.313467
66.965 18.655382
66.970 18.845058
66.975 18.231071
66.980 18.145302
66.985 18.419157
66.990 18.018129
66.995 18.09127
67.000 18.261137
67.005 18.129444
67.010 17.236151
67.015 16.589508
67.020 16.352852
67.025 16.803253
67.030 16.559034
67.035 16.341383
67.040 16.180532
67.045 17.035273
67.050 18.207346
67.055 18.395899
67.060 18.253809
67.065 18.326521
67.070 17.883728
67.075 18.019058
67.080 17.813629
67.085 17.238111
67.090 16.745642
67.095 16.314659
67.100 16.402231
67.105 16.440777
67.110 16.29217
67.115 16.458132
67.120 17.144663
67.125 17.478853
67.130 17.951488
67.135 17.875366
67.140 17.595757
67.145 17.956514
67.150 18.090641
67.155 18.037203
67.160 18.429377
67.165 18.523756
67.170 18.970198
67.175 19.886333
67.180 20.105852
67.185 20.167347
67.190 20.228924
67.195 19.904884
67.200 19.475346
67.205 19.362024
67.210 19.038347
67.215 18.692764
67.220 18.223772
67.225 17.803354
67.230 17.834175
67.235 18.157434
67.240 17.800409
67.245 17.208778
67.250 17.32106
67.255 17.472824
67.260 17.538284
67.265 17.654364
67.270 17.279861
67.275 17.664597
67.280 18.068052
67.285 18.493553
67.290 18.619776
67.295 18.403894
67.300 18.427238
67.305 18.264484
67.310 18.296461
67.315 18.815365
67.320 17.919657
67.325 17.924124
67.330 17.79244
67.335 17.245499
67.340 17.482096
67.345 17.591595
67.350 17.45607
67.355 17.522297
67.360 16.849895
67.365 16.900963
67.370 16.995228
67.375 16.916512
67.380 16.800381
67.385 16.479761
67.390 16.46501
67.395 16.599903
67.400 17.364189
67.405 18.001434
67.410 18.059137
67.415 17.644293
67.420 17.733366
67.425 17.799076
67.430 17.845581
67.435 17.680134
67.440 18.079298
67.445 18.217484
67.450 17.807022
67.455 17.891138
67.460 18.501562
67.465 18.870598
67.470 18.417524
67.475 17.853582
67.480 17.724686
67.485 18.033661
67.490 17.691139
67.495 17.080517
67.500 16.747053
67.505 16.94479
67.510 17.560781
67.515 18.359531
67.520 18.9744
67.525 19.14506
67.530 19.260651
67.535 19.676167
67.540 20.073118
67.545 19.560463
67.550 18.708336
67.555 18.174162
67.560 18.437651
67.565 18.53694
67.570 18.39382
67.575 17.568312
67.580 17.102741
67.585 17.15848
67.590 17.738598
67.595 18.23246
67.600 18.164614
67.605 18.185347
67.610 18.991043
67.615 19.390299
67.620 19.864672
67.625 19.969833
67.630 19.474249
67.635 19.424538
67.640 19.235987
67.645 19.088581
67.650 19.609198
67.655 19.724134
67.660 19.544996
67.665 20.04652
67.670 19.872726
67.675 19.89666
67.680 19.696373
67.685 19.165298
67.690 18.588966
67.695 17.733744
67.700 17.434175
67.705 17.84223
67.710 17.680178
67.715 17.996391
67.720 18.755152
67.725 19.736528
67.730 19.78887
67.735 19.114027
67.740 19.138634
67.745 19.125692
67.750 18.602163
67.755 17.365047
67.760 16.339176
67.765 16.77223
67.770 16.769373
67.775 16.374388
67.780 16.257851
67.785 15.81778
67.790 16.073627
67.795 15.935351
67.800 16.48793
67.805 16.479242
67.810 16.435593
67.815 17.148527
67.820 17.718224
67.825 17.374359
67.830 17.605881
67.835 17.221186
67.840 18.075527
67.845 18.435108
67.850 18.531075
67.855 18.946915
67.860 18.753113
67.865 18.492605
67.870 19.097786
67.875 18.839499
67.880 18.531763
67.885 17.983328
67.890 18.112644
67.895 18.853031
67.900 19.718208
67.905 19.358278
67.910 19.392849
67.915 19.066145
67.920 19.053562
67.925 19.436987
67.930 19.727642
67.935 19.677942
67.940 20.052593
67.945 19.583572
67.950 19.531551
67.955 19.422224
67.960 19.533569
67.965 19.076988
67.970 18.782866
67.975 18.85384
67.980 20.031294
67.985 20.638166
67.990 20.632185
67.995 20.036613
68.000 19.942354
68.005 19.737034
68.010 19.508852
68.015 19.00206
68.020 19.426344
68.025 20.056452
68.030 20.150934
68.035 20.206732
68.040 19.988609
68.045 19.883152
68.050 19.96596
68.055 19.782812
68.060 19.451715
68.065 19.507704
68.070 20.197241
68.075 20.533995
68.080 20.052216
68.085 19.966255
68.090 19.714317
68.095 19.998737
68.100 20.013763
68.105 19.370546
68.110 19.706053
68.115 20.522884
68.120 20.091963
68.125 20.318823
68.130 20.398062
68.135 20.397366
68.140 20.629108
68.145 20.899639
68.150 21.199322
68.155 21.36491
68.160 21.164438
68.165 21.019239
68.170 20.873226
68.175 21.110386
68.180 20.452709
68.185 20.575146
68.190 20.561857
68.195 20.85277
68.200 21.570536
68.205 21.816301
68.210 21.515032
68.215 21.623596
68.220 21.210251
68.225 21.170443
68.230 20.983194
68.235 20.912518
68.240 21.217178
68.245 21.8111
68.250 22.031136
68.255 22.662825
68.260 22.994556
68.265 22.981314
68.270 22.887108
68.275 22.362883
68.280 22.418062
68.285 22.576536
68.290 22.580296
68.295 23.319862
68.300 23.890423
68.305 24.80773
68.310 25.332972
68.315 26.223768
68.320 26.313637
68.325 26.629005
68.330 26.957663
68.335 26.594511
68.340 26.370827
68.345 27.285721
68.350 27.909348
68.355 28.752117
68.360 28.926031
68.365 28.819126
68.370 29.884991
68.375 30.142855
68.380 30.121967
68.385 29.973032
68.390 29.585209
68.395 30.102861
68.400 30.053461
68.405 29.908224
68.410 30.98254
68.415 30.823996
68.420 31.13681
68.425 31.43944
68.430 31.122101
68.435 31.349977
68.440 30.886442
68.445 29.513542
68.450 29.454172
68.455 28.658136
68.460 29.139442
68.465 30.078239
68.470 30.05607
68.475 30.53562
68.480 31.161989
68.485 31.522875
68.490 32.205349
68.495 31.925117
68.500 31.772589
68.505 31.848154
68.510 31.488064
68.515 31.420097
68.520 31.512798
68.525 31.174309
68.530 31.326307
68.535 31.998575
68.540 31.962185
68.545 32.579632
68.550 32.31654
68.555 32.240566
68.560 32.805927
68.565 32.696312
68.570 33.085777
68.575 33.580425
68.580 33.750755
68.585 34.921635
68.590 36.029606
68.595 36.703522
68.600 36.542896
68.605 35.972252
68.610 35.518356
68.615 36.293034
68.620 35.615234
68.625 35.453758
68.630 35.0186
68.635 34.830627
68.640 35.043549
68.645 35.338268
68.650 34.109211
68.655 34.530815
68.660 34.590103
68.665 34.702293
68.670 35.069057
68.675 35.092602
68.680 35.059277
68.685 35.767174
68.690 35.758904
68.695 35.113388
68.700 35.049046
68.705 34.998547
68.710 34.744904
68.715 33.951099
68.720 33.498161
68.725 33.301018
68.730 33.379475
68.735 33.532417
68.740 32.886906
68.745 32.902409
68.750 33.994835
68.755 34.555233
68.760 34.793293
68.765 35.028553
68.770 35.054302
68.775 35.622711
68.780 35.430553
68.785 35.197216
68.790 34.67429
68.795 34.210987
68.800 33.384449
68.805 32.757599
68.810 32.761204
68.815 32.687756
68.820 32.477669
68.825 32.37117
68.830 32.447857
68.835 33.650078
68.840 34.054142
68.845 34.085518
68.850 34.580574
68.855 34.725407
68.860 35.451561
68.865 35.06675
68.870 34.068077
68.875 32.752739
68.880 32.285843
68.885 31.725412
68.890 31.329754
68.895 31.102608
68.900 31.847389
68.905 32.18782
68.910 32.559948
68.915 32.673729
68.920 32.77816
68.925 32.198322
68.930 31.526356
68.935 30.44273
68.940 30.188396
68.945 30.095081
68.950 29.94566
68.955 29.553963
68.960 30.100899
68.965 30.020483
68.970 29.883751
68.975 29.499165
68.980 29.488539
68.985 29.193838
68.990 28.844736
68.995 28.357981
69.000 28.071753
69.005 27.685053
69.010 27.778688
69.015 27.956963
69.020 27.473513
69.025 26.998789
69.030 26.373493
69.035 26.412373
69.040 27.243774
69.045 27.280247
69.050 27.269728
69.055 27.359488
69.060 27.750195
69.065 28.05409
69.070 26.868258
69.075 25.883833
69.080 25.008266
69.085 25.038982
69.090 25.464083
69.095 25.506647
69.100 25.509375
69.105 26.552856
69.110 27.458044
69.115 27.92697
69.120 27.758804
69.125 27.243231
69.130 27.207479
69.135 26.791521
69.140 25.562513
69.145 25.059795
69.150 24.129711
69.155 23.942661
69.160 23.66781
69.165 23.360615
69.170 23.098322
69.175 23.210144
69.180 22.707905
69.185 23.314493
69.190 23.507174
69.195 23.658222
69.200 23.830217
69.205 23.621731
69.210 23.982292
69.215 23.914072
69.220 23.720728
69.225 23.049065
69.230 22.674738
69.235 23.14702
69.240 22.923918
69.245 22.419437
69.250 21.559526
69.255 21.258532
69.260 21.388861
69.265 21.335869
69.270 20.58959
69.275 20.416451
69.280 20.068472
69.285 20.505615
69.290 20.151993
69.295 20.158886
69.300 19.92835
69.305 20.418888
69.310 20.068642
69.315 20.222313
69.320 20.221182
69.325 19.854115
69.330 20.182039
69.335 20.169998
69.340 19.999193
69.345 20.188503
69.350 20.443007
69.355 20.763483
69.360 20.427401
69.365 19.920383
69.370 19.762426
69.375 19.872923
69.380 19.481588
69.385 19.128736
69.390 18.84334
69.395 19.283813
69.400 19.168621
69.405 18.702173
69.410 18.892485
69.415 19.157431
69.420 18.762342
69.425 18.532162
69.430 18.631107
69.435 19.036495
69.440 18.842119
69.445 18.684097
69.450 19.041735
69.455 19.120531
69.460 19.389593
69.465 19.097631
69.470 19.011965
69.475 19.375078
69.480 18.982586
69.485 18.335997
69.490 18.552496
69.495 18.792477
69.500 18.713032
69.505 18.376593
69.510 18.357845
69.515 18.613562
69.520 18.786396
69.525 18.376366
69.530 17.934601
69.535 18.259945
69.540 18.353378
69.545 18.16235
69.550 17.975239
69.555 17.646914
69.560 17.996664
69.565 17.397791
69.570 16.914776
69.575 17.128042
69.580 17.064594
69.585 17.146881
69.590 17.763968
69.595 17.711452
69.600 18.077309
69.605 18.573673
69.610 18.554871
69.615 18.943176
69.620 19.355034
69.625 19.195457
69.630 19.514221
69.635 19.438057
69.640 19.170116
69.645 18.542921
69.650 18.59778
69.655 18.363523
69.660 17.903202
69.665 18.037127
69.670 17.966835
69.675 18.012819
69.680 18.557056
69.685 18.33683
69.690 18.37191
69.695 18.165625
69.700 18.29435
69.705 18.396336
69.710 18.352758
69.715 18.435715
69.720 18.572792
69.725 18.964396
69.730 19.347927
69.735 18.838078
69.740 19.353603
69.745 19.497187
69.750 18.777134
69.755 18.929232
69.760 18.927181
69.765 18.221153
69.770 18.164522
69.775 17.756794
69.780 17.893362
69.785 18.401056
69.790 18.304457
69.795 18.541599
69.800 18.647486
69.805 18.562971
69.810 18.655188
69.815 18.478456
69.820 18.343655
69.825 17.779346
69.830 18.061045
69.835 18.510622
69.840 18.768448
69.845 18.730618
69.850 18.713268
69.855 18.291025
69.860 18.207209
69.865 17.796667
69.870 18.38225
69.875 18.693329
69.880 18.335627
69.885 18.153961
69.890 18.324343
69.895 18.121914
69.900 17.693157
69.905 17.235878
69.910 16.673151
69.915 16.511255
69.920 16.674931
69.925 16.963387
69.930 17.525242
69.935 17.405336
69.940 17.315643
69.945 17.287291
69.950 17.241003
69.955 17.605501
69.960 17.671202
69.965 17.116497
69.970 17.288227
69.975 17.27401
69.980 17.40221
69.985 17.637613
69.990 16.584112
69.995 16.511824
70.000 16.869019
70.005 17.167725
70.010 16.821899
70.015 17.037725
70.020 17.079037
70.025 17.793507
70.030 17.833118
70.035 17.455307
70.040 17.06102
70.045 16.503054
70.050 16.130907
70.055 16.203434
70.060 16.067825
70.065 16.672937
70.070 17.705814
70.075 18.490818
70.080 18.928028
70.085 18.733875
70.090 18.984364
70.095 18.707897
70.100 17.916464
70.105 17.649929
70.110 17.64728
70.115 18.001955
70.120 17.807461
70.125 17.765289
70.130 18.182209
70.135 18.430006
70.140 18.914394
70.145 19.264381
70.150 19.34354
70.155 19.528696
70.160 19.295603
70.165 18.414547
70.170 17.948206
70.175 16.839458
70.180 16.478437
70.185 16.34621
70.190 16.292435
70.195 16.260151
70.200 16.636181
70.205 17.108002
70.210 17.857483
70.215 17.879618
70.220 18.139099
70.225 18.457989
70.230 18.38802
70.235 18.365715
70.240 17.997
70.245 17.530396
70.250 17.378887
70.255 17.23951
70.260 17.026842
70.265 17.570633
70.270 17.579702
70.275 18.216253
70.280 18.129704
70.285 18.574684
70.290 18.607452
70.295 19.069401
70.300 19.187428
70.305 19.254293
70.310 18.88102
70.315 18.929354
70.320 18.957279
70.325 18.803894
70.330 18.45697
70.335 17.681971
70.340 17.963961
70.345 18.339037
70.350 18.521397
70.355 18.105495
70.360 18.53842
70.365 18.816917
70.370 19.0748
70.375 18.501181
70.380 17.803846
70.385 17.655739
70.390 17.359118
70.395 17.38829
70.400 17.539335
70.405 17.630514
70.410 17.073519
70.415 16.927919
70.420 16.580839
70.425 16.858105
70.430 16.380863
70.435 16.282648
70.440 16.67915
70.445 17.955099
70.450 18.5411
70.455 18.952868
70.460 19.349466
70.465 19.193373
70.470 18.825308
70.475 18.527361
70.480 17.602728
70.485 17.047222
70.490 17.448484
70.495 17.359598
70.500 17.339367
70.505 17.932673
70.510 18.909542
70.515 19.529799
70.520 19.588455
70.525 19.657675
70.530 19.451721
70.535 19.414423
70.540 19.08424
70.545 18.257217
70.550 18.355598
70.555 18.296877
70.560 17.862001
70.565 17.940243
70.570 17.865479
70.575 17.885485
70.580 17.896694
70.585 17.773809
70.590 17.56341
70.595 17.683502
70.600 18.022352
70.605 18.103569
70.610 18.130194
70.615 18.087904
70.620 18.022703
70.625 18.045916
70.630 17.984869
70.635 17.651167
70.640 17.305191
70.645 17.249109
70.650 17.061075
70.655 17.222403
70.660 17.326042
70.665 17.059301
70.670 17.976711
70.675 18.011444
70.680 18.214575
70.685 17.974712
70.690 18.451267
70.695 19.464109
70.700 19.70636
70.705 19.514645
70.710 19.767082
70.715 19.578806
70.720 19.743235
70.725 19.276148
70.730 18.749876
70.735 18.49712
70.740 17.980145
70.745 18.084454
70.750 18.60734
70.755 18.31846
70.760 18.353712
70.765 17.797897
70.770 17.845919
70.775 18.085686
70.780 17.930426
70.785 17.919491
70.790 18.16877
70.795 17.15027
70.800 17.198687
70.805 16.429703
70.810 15.909654
70.815 15.944336
70.820 16.280857
70.825 16.281921
70.830 16.495173
70.835 16.619463
70.840 17.139194
70.845 17.63702
70.850 17.345343
70.855 16.71347
70.860 16.674351
70.865 17.013067
70.870 16.78513
70.875 16.626642
70.880 16.12923
70.885 16.189075
70.890 16.630198
70.895 17.096937
70.900 17.085276
70.905 17.478647
70.910 17.28603
70.915 17.424356
70.920 17.225689
70.925 16.680744
70.930 16.464869
70.935 16.882605
70.940 16.863077
70.945 17.180449
70.950 17.084454
70.955 17.275448
70.960 17.114021
70.965 16.526274
70.970 16.555237
70.975 16.568098
70.980 16.499922
70.985 17.000341
70.990 17.574434
70.995 17.499472
71.000 17.366777
71.005 17.148943
71.010 16.894247
71.015 17.043503
71.020 16.421024
71.025 16.043449
71.030 16.435808
71.035 16.832935
71.040 17.045443
71.045 17.27478
71.050 17.434427
71.055 17.658138
71.060 17.76874
71.065 17.381737
71.070 17.176987
71.075 17.160328
71.080 16.512987
71.085 16.288996
71.090 15.572675
71.095 15.724611
71.100 16.610914
71.105 16.784859
71.110 16.717543
71.115 16.98353
71.120 17.02359
71.125 17.677315
71.130 17.858158
71.135 17.764826
71.140 18.107752
71.145 18.472256
71.150 18.52952
71.155 18.613529
71.160 18.264791
71.165 18.402914
71.170 18.202711
71.175 17.913313
71.180 17.988649
71.185 18.661678
71.190 19.387608
71.195 19.451637
71.200 19.233582
71.205 19.288754
71.210 19.210503
71.215 18.503096
71.220 17.617445
71.225 17.195772
71.230 17.754673
71.235 17.493814
71.240 17.34585
71.245 17.415991
71.250 17.869118
71.255 17.755339
71.260 17.072113
71.265 16.988094
71.270 16.894417
71.275 16.714504
71.280 16.43648
71.285 16.420586
71.290 16.867109
71.295 17.063017
71.300 16.575418
71.305 17.078951
71.310 17.565393
71.315 17.619917
71.320 17.745724
71.325 17.776936
71.330 18.292496
71.335 18.622152
71.340 18.640751
71.345 18.626156
71.350 18.628038
71.355 18.385691
71.360 17.709894
71.365 17.11554
71.370 17.086468
71.375 17.151384
71.380 17.024202
71.385 17.258072
71.390 17.674238
71.395 18.084085
71.400 18.662718
71.405 18.684229
71.410 18.371832
71.415 18.538658
71.420 18.252504
71.425 18.033937
71.430 18.104195
71.435 17.801062
71.440 17.780481
71.445 17.611094
71.450 17.563873
71.455 17.73173
71.460 17.830084
71.465 17.190914
71.470 17.308636
71.475 16.733486
71.480 17.08025
71.485 16.86475
71.490 16.413303
71.495 16.628431
71.500 17.156073
71.505 16.935318
71.510 17.45187
71.515 17.932451
71.520 18.413626
71.525 18.562943
71.530 18.261299
71.535 18.317158
71.540 18.74572
71.545 18.183048
71.550 18.33243
71.555 18.463104
71.560 18.966394
71.565 19.242092
71.570 18.537119
71.575 18.351099
71.580 18.443075
71.585 18.273804
71.590 17.886101
71.595 17.641287
71.600 17.502222
71.605 17.791788
71.610 18.029961
71.615 17.7099
71.620 17.077168
71.625 17.309233
71.630 17.315466
71.635 17.620602
71.640 17.762194
71.645 17.223501
71.650 17.125032
71.655 17.584942
71.660 17.549236
71.665 17.508345
71.670 17.383829
71.675 18.077547
71.680 18.682625
71.685 18.823755
71.690 18.882345
71.695 18.889767
71.700 18.806732
71.705 19.047344
71.710 18.173796
71.715 18.10693
71.720 17.214106
71.725 16.468351
71.730 16.319525
71.735 15.708133
71.740 15.108927
71.745 15.190379
71.750 15.251772
71.755 15.753904
71.760 15.923391
71.765 16.11075
71.770 16.547415
71.775 16.912277
71.780 16.891848
71.785 17.812675
71.790 17.998959
71.795 18.599209
71.800 18.936731
71.805 19.26615
71.810 19.75149
71.815 19.865486
71.820 19.487267
71.825 19.045294
71.830 18.87583
71.835 18.992569
71.840 18.413586
71.845 18.054052
71.850 18.665224
71.855 19.078899
71.860 18.849995
71.865 18.144892
71.870 18.294205
71.875 18.319834
71.880 17.782598
71.885 16.738279
71.890 16.559425
71.895 17.052011
71.900 17.095512
71.905 16.641731
71.910 17.053602
71.915 17.613491
71.920 17.509367
71.925 17.391542
71.930 17.49588
71.935 17.289194
71.940 17.009754
71.945 16.810911
71.950 17.235939
71.955 17.386902
71.960 17.425644
71.965 17.599861
71.970 17.957232
71.975 18.200436
71.980 18.134975
71.985 18.194393
71.990 18.308714
71.995 18.48291
72.000 18.671532
72.005 18.339895
72.010 18.153538
72.015 17.902605
72.020 17.842987
72.025 18.674355
72.030 18.53241
72.035 18.08642
72.040 18.469629
72.045 18.216637
72.050 17.506899
72.055 17.595665
72.060 17.206594
72.065 16.979832
72.070 16.773258
72.075 16.766306
72.080 17.562551
72.085 17.886208
72.090 17.033476
72.095 17.019634
72.100 16.930689
72.105 17.643568
72.110 17.818756
72.115 17.864239
72.120 18.684929
72.125 18.941154
72.130 18.58272
72.135 18.038074
72.140 18.139034
72.145 18.112265
72.150 17.955521
72.155 16.975744
72.160 17.125259
72.165 17.677275
72.170 18.349052
72.175 17.519798
72.180 17.279259
72.185 17.691973
72.190 18.509289
72.195 18.889969
72.200 18.887568
72.205 18.396896
72.210 18.659048
72.215 18.334061
72.220 17.589495
72.225 17.103329
72.230 17.417805
72.235 17.866617
72.240 18.318626
72.245 19.001074
72.250 19.770859
72.255 20.296719
72.260 20.103554
72.265 19.621292
72.270 18.801235
72.275 18.608244
72.280 17.951881
72.285 17.876812
72.290 17.617792
72.295 18.14303
72.300 18.927666
72.305 19.386316
72.310 19.270359
72.315 19.596689
72.320 19.015829
72.325 19.036982
72.330 18.372692
72.335 17.989204
72.340 18.281237
72.345 18.688467
72.350 18.009451
72.355 17.985083
72.360 18.17424
72.365 18.8564
72.370 19.464052
72.375 19.687105
72.380 19.454453
72.385 19.524799
72.390 19.49164
72.395 18.8533
72.400 17.820425
72.405 16.95546
72.410 17.035135
72.415 16.989101
72.420 17.573078
72.425 17.009565
72.430 17.105938
72.435 17.146107
72.440 17.180931
72.445 16.641294
72.450 16.512184
72.455 16.515272
72.460 16.803036
72.465 16.958498
72.470 17.149961
72.475 17.162195
72.480 17.491899
72.485 16.797403
72.490 16.644081
72.495 16.611263
72.500 16.246973
72.505 15.80313
72.510 15.777355
72.515 15.882228
72.520 16.48671
72.525 16.490795
72.530 16.559864
72.535 17.158585
72.540 17.770226
72.545 17.368532
72.550 17.712927
72.555 18.422075
72.560 18.685694
72.565 18.957376
72.570 18.045645
72.575 17.854652
72.580 17.953499
72.585 17.887606
72.590 17.831074
72.595 17.908401
72.600 18.061031
72.605 17.981625
72.610 18.246288
72.615 18.269897
72.620 17.662525
72.625 17.095608
72.630 16.458918
72.635 16.353752
72.640 16.440704
72.645 15.361234
72.650 14.45728
72.655 14.480271
72.660 14.43805
72.665 14.573619
72.670 14.557572
72.675 14.595251
72.680 15.123875
72.685 15.157235
72.690 15.355383
72.695 15.91684
72.700 16.349974
72.705 16.427664
72.710 16.240932
72.715 16.699833
72.720 16.882797
72.725 17.060007
72.730 16.647547
72.735 16.450668
72.740 16.701235
72.745 16.677902
72.750 16.80302
72.755 17.526217
72.760 17.359253
72.765 17.831968
72.770 17.380024
72.775 17.677893
72.780 17.844225
72.785 17.491787
72.790 16.927502
72.795 16.407709
72.800 16.368734
72.805 16.319036
72.810 15.851249
72.815 15.802379
72.820 15.545888
72.825 15.727041
72.830 16.027338
72.835 15.930089
72.840 16.407116
72.845 17.387697
72.850 17.566513
72.855 17.513529
72.860 17.523882
72.865 17.58489
72.870 17.874165
72.875 17.309622
72.880 16.733564
72.885 16.176682
72.890 16.517776
72.895 16.578833
72.900 15.986832
72.905 15.389382
72.910 15.162793
72.915 15.471067
72.920 15.831449
72.925 15.403699
72.930 15.245086
72.935 15.45515
72.940 16.054457
72.945 16.100826
72.950 16.495829
72.955 16.984797
72.960 17.222202
72.965 16.98164
72.970 17.048695
72.975 16.691744
72.980 16.133631
72.985 15.263918
72.990 15.636899
72.995 15.533325
73.000 15.645654
