!@!!GADDS PLOTSO FILE: Chi integration type
!@!!Title/SampleName: map-8b
!@!!Comment: ?
!@!!User: Bruker Instrument Administrator
!@!!Site: University of Illinois Chicago
!@!!Frame: map-8b_01_000.gfrm
!@!!Wavelengths    1.54184   1.54056   1.54439
!@!!Frame angles: 2Theta: 63.000 Omega: 50.000 Phi: 0.000 Chi: 90.000
!@!!Integration range: 2Theta: 53.000 to 73.000  Gamma: -105.000 to -75.000
!@!!Integration method: bin normalized
!@!N
!@!SS
!@!M
!@!L 0.0 0.0 0.0 0.0
!@!XDegrees
!@!YCounts
53.000 8.409523
53.005 8.140087
53.010 8.867589
53.015 9.211513
53.020 9.273151
53.025 9.017259
53.030 8.764457
53.035 8.680599
53.040 8.466962
53.045 8.247953
53.050 8.661819
53.055 9.319696
53.060 9.64028
53.065 9.734157
53.070 9.918512
53.075 10.095368
53.080 9.648046
53.085 9.196528
53.090 8.464021
53.095 8.049665
53.100 8.011583
53.105 8.217417
53.110 7.833824
53.115 7.831455
53.120 8.069577
53.125 8.659861
53.130 8.899936
53.135 8.829493
53.140 8.979932
53.145 9.430422
53.150 10.06276
53.155 10.064771
53.160 10.065133
53.165 10.26867
53.170 10.319351
53.175 10.659761
53.180 10.367794
53.185 9.797986
53.190 9.553747
53.195 9.291419
53.200 8.957391
53.205 8.618419
53.210 8.71471
53.215 8.891427
53.220 9.157266
53.225 9.174271
53.230 8.966291
53.235 9.035157
53.240 9.152155
53.245 8.99708
53.250 8.932981
53.255 9.127405
53.260 8.995959
53.265 9.251808
53.270 9.368834
53.275 9.286555
53.280 9.047181
53.285 9.029714
53.290 9.13506
53.295 9.132864
53.300 9.330444
53.305 9.259706
53.310 9.31065
53.315 9.322433
53.320 9.075509
53.325 8.996413
53.330 8.984393
53.335 9.056045
53.340 9.246381
53.345 9.336392
53.350 9.465961
53.355 9.76113
53.360 9.786036
53.365 9.579616
53.370 9.46804
53.375 9.093677
53.380 9.474186
53.385 9.437047
53.390 9.16908
53.395 9.06197
53.400 9.120366
53.405 9.275706
53.410 9.420029
53.415 8.75808
53.420 9.015404
53.425 9.342073
53.430 9.904493
53.435 9.695606
53.440 9.244472
53.445 9.330119
53.450 9.829392
53.455 10.784694
53.460 11.101596
53.465 11.245009
53.470 11.357689
53.475 11.443283
53.480 11.235176
53.485 10.706489
53.490 9.874998
53.495 9.211946
53.500 9.273617
53.505 9.518474
53.510 9.656305
53.515 9.974611
53.520 10.352246
53.525 10.568763
53.530 10.997825
53.535 11.194876
53.540 11.178747
53.545 11.221985
53.550 10.955084
53.555 10.672945
53.560 10.495408
53.565 9.846494
53.570 9.356202
53.575 9.332133
53.580 9.529119
53.585 9.473445
53.590 9.286642
53.595 9.777985
53.600 10.031708
53.605 10.401698
53.610 10.37356
53.615 10.212072
53.620 10.152986
53.625 10.117231
53.630 9.398549
53.635 9.320023
53.640 8.872153
53.645 9.127604
53.650 9.231799
53.655 9.290125
53.660 9.294199
53.665 9.713784
53.670 9.960513
53.675 9.77003
53.680 9.587029
53.685 9.631705
53.690 9.430365
53.695 9.43096
53.700 9.185774
53.705 9.519238
53.710 9.569613
53.715 9.158766
53.720 9.005715
53.725 9.422008
53.730 9.422338
53.735 9.418881
53.740 9.531538
53.745 10.337202
53.750 10.761687
53.755 10.734508
53.760 10.346845
53.765 10.28871
53.770 10.206823
53.775 9.979623
53.780 9.734015
53.785 9.68204
53.790 10.117756
53.795 10.221588
53.800 10.326958
53.805 10.33367
53.810 9.71451
53.815 9.608291
53.820 9.790915
53.825 9.520315
53.830 9.813986
53.835 9.803024
53.840 9.725139
53.845 10.113785
53.850 9.796512
53.855 9.984637
53.860 9.707755
53.865 9.599393
53.870 9.59903
53.875 9.862759
53.880 9.765047
53.885 9.733273
53.890 9.726634
53.895 10.134667
53.900 10.582353
53.905 10.665818
53.910 10.464643
53.915 10.632007
53.920 10.574734
53.925 10.00741
53.930 9.746974
53.935 9.308592
53.940 9.299644
53.945 9.153005
53.950 9.229937
53.955 9.456905
53.960 9.610271
53.965 9.60885
53.970 9.170961
53.975 9.44978
53.980 9.861402
53.985 9.930211
53.990 10.290462
53.995 10.752546
54.000 10.683176
54.005 11.146362
54.010 11.329488
54.015 11.546697
54.020 11.672042
54.025 11.399445
54.030 11.508109
54.035 11.715755
54.040 11.454112
54.045 10.902112
54.050 10.569138
54.055 10.528834
54.060 10.027058
54.065 9.929602
54.070 9.779922
54.075 9.827822
54.080 9.869984
54.085 10.047857
54.090 10.139311
54.095 10.653188
54.100 10.996419
54.105 11.479061
54.110 12.076179
54.115 11.687428
54.120 11.44461
54.125 11.531262
54.130 11.188841
54.135 10.6222
54.140 9.83698
54.145 8.988855
54.150 8.645722
54.155 8.595802
54.160 8.683214
54.165 9.00126
54.170 9.548981
54.175 9.949529
54.180 10.735601
54.185 11.125799
54.190 11.229825
54.195 11.080045
54.200 10.809525
54.205 10.579423
54.210 10.656063
54.215 10.862395
54.220 10.795055
54.225 10.822409
54.230 10.885013
54.235 11.018874
54.240 11.167006
54.245 11.04684
54.250 11.126273
54.255 11.147371
54.260 10.972619
54.265 11.201932
54.270 11.78971
54.275 11.819715
54.280 12.159301
54.285 12.037457
54.290 12.099567
54.295 12.129072
54.300 11.459948
54.305 10.87015
54.310 11.081978
54.315 10.942937
54.320 11.230873
54.325 11.229862
54.330 11.38955
54.335 11.660512
54.340 11.374913
54.345 10.993256
54.350 11.026452
54.355 10.700159
54.360 10.70796
54.365 10.621782
54.370 10.353794
54.375 10.389
54.380 10.348728
54.385 10.069706
54.390 10.148269
54.395 10.344209
54.400 10.782242
54.405 11.048052
54.410 11.272168
54.415 11.569696
54.420 11.929465
54.425 11.596444
54.430 11.131117
54.435 10.770422
54.440 10.514877
54.445 10.28346
54.450 9.651972
54.455 9.324972
54.460 9.444797
54.465 9.793973
54.470 10.388227
54.475 10.613093
54.480 10.33882
54.485 10.794053
54.490 11.269296
54.495 11.184084
54.500 10.748901
54.505 10.299398
54.510 10.285288
54.515 10.538768
54.520 10.349594
54.525 10.3788
54.530 10.514236
54.535 10.496264
54.540 10.107988
54.545 10.13764
54.550 10.194486
54.555 10.11957
54.560 9.412695
54.565 9.530339
54.570 9.882053
54.575 10.430528
54.580 10.867188
54.585 10.950057
54.590 11.070204
54.595 11.348023
54.600 11.117948
54.605 10.965254
54.610 10.817139
54.615 10.654278
54.620 10.339427
54.625 10.244364
54.630 10.210687
54.635 10.471297
54.640 10.433402
54.645 10.248401
54.650 10.323926
54.655 10.80059
54.660 10.837751
54.665 11.033295
54.670 11.192487
54.675 11.255291
54.680 11.093308
54.685 10.955579
54.690 10.720296
54.695 11.08349
54.700 11.070298
54.705 10.599494
54.710 10.847371
54.715 11.181413
54.720 11.125614
54.725 11.231846
54.730 10.890034
54.735 10.309805
54.740 10.359635
54.745 10.392612
54.750 10.667582
54.755 10.7207
54.760 10.935988
54.765 11.241168
54.770 11.536333
54.775 11.660111
54.780 11.351777
54.785 11.601954
54.790 12.046532
54.795 11.851374
54.800 12.025132
54.805 12.105094
54.810 12.135892
54.815 11.984159
54.820 11.419316
54.825 10.972525
54.830 10.976691
54.835 11.49478
54.840 11.67349
54.845 12.257803
54.850 12.761292
54.855 12.467876
54.860 12.595484
54.865 12.574425
54.870 12.254328
54.875 12.114261
54.880 11.459981
54.885 11.325891
54.890 11.506642
54.895 11.097892
54.900 10.877398
54.905 10.827983
54.910 10.933052
54.915 11.365743
54.920 11.819836
54.925 11.824214
54.930 12.005023
54.935 12.449099
54.940 12.293157
54.945 11.76949
54.950 11.404071
54.955 11.035554
54.960 11.305922
54.965 11.079551
54.970 10.322031
54.975 10.188865
54.980 10.575873
54.985 10.016424
54.990 10.074795
54.995 9.86557
55.000 9.93722
55.005 10.516129
55.010 10.200541
55.015 9.644279
55.020 10.037413
55.025 9.863299
55.030 10.304046
55.035 10.276921
55.040 10.550844
55.045 10.699989
55.050 11.081434
55.055 11.060375
55.060 11.464944
55.065 11.585098
55.070 12.181018
55.075 12.053576
55.080 12.63544
55.085 12.685491
55.090 12.858502
55.095 12.48409
55.100 12.379381
55.105 11.774485
55.110 11.971444
55.115 11.400318
55.120 11.25975
55.125 11.087069
55.130 11.061707
55.135 11.180297
55.140 11.193105
55.145 11.194806
55.150 11.545697
55.155 12.341413
55.160 13.114842
55.165 13.348033
55.170 13.01174
55.175 13.422676
55.180 14.125129
55.185 14.102607
55.190 13.50375
55.195 12.541508
55.200 12.429571
55.205 12.201082
55.210 11.805351
55.215 11.582591
55.220 11.354349
55.225 10.933683
55.230 11.07264
55.235 11.153238
55.240 11.38039
55.245 11.263587
55.250 10.726127
55.255 11.237115
55.260 11.993068
55.265 11.959216
55.270 12.208712
55.275 12.499315
55.280 12.639512
55.285 12.809258
55.290 11.853912
55.295 11.604823
55.300 11.450953
55.305 10.288376
55.310 10.163452
55.315 10.176908
55.320 10.277517
55.325 10.759286
55.330 10.703369
55.335 10.85461
55.340 11.157575
55.345 11.428583
55.350 11.282393
55.355 11.174251
55.360 11.479523
55.365 11.348968
55.370 10.874701
55.375 10.576904
55.380 9.973913
55.385 10.208196
55.390 10.123955
55.395 9.512896
55.400 9.751174
55.405 9.978059
55.410 10.123549
55.415 10.248645
55.420 10.531479
55.425 11.256405
55.430 11.800266
55.435 12.356072
55.440 12.942822
55.445 13.430206
55.450 13.526342
55.455 13.64392
55.460 13.591196
55.465 13.599918
55.470 13.998091
55.475 13.984339
55.480 13.801689
55.485 13.531192
55.490 13.365784
55.495 13.636838
55.500 13.40365
55.505 12.478004
55.510 11.695224
55.515 11.599219
55.520 12.038607
55.525 11.574418
55.530 11.116962
55.535 11.271122
55.540 11.716283
55.545 12.300203
55.550 12.095846
55.555 11.557865
55.560 11.452402
55.565 11.313626
55.570 10.987432
55.575 10.900211
55.580 11.077531
55.585 12.035052
55.590 12.572506
55.595 12.441617
55.600 12.431461
55.605 12.620451
55.610 12.843265
55.615 12.325166
55.620 11.531778
55.625 10.977587
55.630 10.836336
55.635 10.666871
55.640 10.725909
55.645 10.250907
55.650 10.186286
55.655 10.62662
55.660 11.139266
55.665 11.109193
55.670 11.206773
55.675 11.327662
55.680 11.196612
55.685 10.867539
55.690 10.747555
55.695 10.667534
55.700 10.789944
55.705 11.122695
55.710 11.519351
55.715 12.246479
55.720 12.595056
55.725 12.389235
55.730 12.72486
55.735 13.387343
55.740 12.675051
55.745 12.408072
55.750 12.257058
55.755 12.285682
55.760 12.29288
55.765 11.834954
55.770 11.230893
55.775 11.554993
55.780 11.683062
55.785 12.106359
55.790 12.073573
55.795 12.400105
55.800 12.874281
55.805 13.24526
55.810 12.974823
55.815 12.481229
55.820 11.663681
55.825 11.597693
55.830 11.507944
55.835 11.002783
55.840 10.929226
55.845 11.33043
55.850 12.04089
55.855 12.659432
55.860 12.960814
55.865 13.18912
55.870 13.394697
55.875 13.163339
55.880 13.313795
55.885 13.004364
55.890 12.80012
55.895 12.311422
55.900 12.235698
55.905 12.194393
55.910 12.596204
55.915 12.55542
55.920 12.651378
55.925 13.197461
55.930 13.358774
55.935 13.776787
55.940 14.195982
55.945 14.470417
55.950 14.42201
55.955 14.474605
55.960 14.129915
55.965 13.924913
55.970 13.895498
55.975 13.195642
55.980 12.619841
55.985 12.5225
55.990 11.977448
55.995 11.78804
56.000 12.001003
56.005 12.307894
56.010 12.548515
56.015 12.47366
56.020 12.332224
56.025 12.629783
56.030 12.616657
56.035 11.932741
56.040 11.590125
56.045 11.8086
56.050 12.118439
56.055 12.587336
56.060 13.050698
56.065 13.38518
56.070 13.733902
56.075 13.878417
56.080 13.415263
56.085 13.551411
56.090 13.080247
56.095 13.039402
56.100 12.893
56.105 12.888252
56.110 12.769296
56.115 12.448518
56.120 11.980529
56.125 12.085165
56.130 11.836005
56.135 12.051567
56.140 11.628078
56.145 11.458149
56.150 11.696427
56.155 11.87006
56.160 11.462392
56.165 11.255086
56.170 11.086895
56.175 11.217633
56.180 11.052459
56.185 11.121297
56.190 11.454868
56.195 11.671792
56.200 11.674114
56.205 11.217775
56.210 10.84964
56.215 11.868165
56.220 11.731675
56.225 11.554324
56.230 12.257292
56.235 12.565531
56.240 13.466084
56.245 13.636449
56.250 13.021911
56.255 13.501108
56.260 13.424135
56.265 12.934484
56.270 12.799683
56.275 12.70222
56.280 12.544657
56.285 12.816895
56.290 12.835433
56.295 12.655479
56.300 12.762069
56.305 12.782053
56.310 13.075233
56.315 13.29537
56.320 13.015425
56.325 13.002218
56.330 13.334412
56.335 13.093513
56.340 13.27271
56.345 13.347019
56.350 13.428284
56.355 13.337911
56.360 12.894637
56.365 13.328984
56.370 13.425095
56.375 13.332973
56.380 12.937922
56.385 13.095621
56.390 13.29787
56.395 13.156005
56.400 12.453784
56.405 12.525069
56.410 12.407556
56.415 12.595169
56.420 12.219982
56.425 12.029206
56.430 12.610419
56.435 12.881925
56.440 13.217779
56.445 13.499554
56.450 13.517114
56.455 13.670751
56.460 13.609363
56.465 13.043374
56.470 12.384063
56.475 11.861259
56.480 11.441665
56.485 10.929007
56.490 11.58756
56.495 11.839611
56.500 12.333529
56.505 12.957283
56.510 12.843863
56.515 12.97009
56.520 13.508602
56.525 13.119204
56.530 12.773935
56.535 12.559936
56.540 12.525163
56.545 12.875789
56.550 12.695427
56.555 12.531516
56.560 12.770118
56.565 13.046533
56.570 13.041201
56.575 12.821396
56.580 12.506513
56.585 12.830894
56.590 12.23126
56.595 11.622092
56.600 11.386831
56.605 11.566956
56.610 12.066381
56.615 11.889194
56.620 11.711222
56.625 12.255804
56.630 12.550322
56.635 12.646255
56.640 12.089029
56.645 11.892288
56.650 12.367409
56.655 12.633418
56.660 12.699289
56.665 12.597658
56.670 12.534795
56.675 12.402184
56.680 12.351132
56.685 12.416555
56.690 12.159297
56.695 12.274146
56.700 12.65476
56.705 12.98342
56.710 13.112631
56.715 13.317903
56.720 13.108861
56.725 12.903155
56.730 12.836779
56.735 12.395081
56.740 12.974415
56.745 13.419381
56.750 13.366917
56.755 13.929736
56.760 14.408774
56.765 14.550224
56.770 14.550691
56.775 13.920267
56.780 14.037537
56.785 14.096407
56.790 14.15255
56.795 13.746882
56.800 13.630085
56.805 14.385791
56.810 14.469432
56.815 14.081423
56.820 13.821677
56.825 13.526833
56.830 13.94171
56.835 14.176396
56.840 13.880867
56.845 13.381494
56.850 13.429719
56.855 13.098981
56.860 12.858545
56.865 12.617039
56.870 12.758647
56.875 12.678682
56.880 13.022054
56.885 13.353334
56.890 13.439716
56.895 13.945702
56.900 13.915458
56.905 13.17805
56.910 12.91766
56.915 12.693873
56.920 12.4231
56.925 13.184333
56.930 13.212079
56.935 13.304176
56.940 13.803418
56.945 13.8353
56.950 14.09331
56.955 14.453455
56.960 14.233982
56.965 14.420028
56.970 14.174061
56.975 14.171523
56.980 14.342131
56.985 14.628389
56.990 14.529781
56.995 14.453633
57.000 14.028789
57.005 14.245504
57.010 14.18484
57.015 13.812421
57.020 13.711138
57.025 13.622381
57.030 13.485956
57.035 13.674494
57.040 13.294716
57.045 13.23291
57.050 13.099524
57.055 13.215332
57.060 13.040965
57.065 12.895806
57.070 12.893282
57.075 13.092258
57.080 13.386219
57.085 13.274687
57.090 12.469646
57.095 12.191031
57.100 11.922793
57.105 12.374517
57.110 12.42307
57.115 11.96011
57.120 12.214366
57.125 11.867432
57.130 12.02318
57.135 12.112789
57.140 11.690822
57.145 11.549972
57.150 11.753444
57.155 11.642687
57.160 12.208014
57.165 12.493762
57.170 12.48081
57.175 13.007847
57.180 13.310468
57.185 13.632412
57.190 13.821121
57.195 13.742214
57.200 14.074171
57.205 14.208181
57.210 13.629704
57.215 13.291653
57.220 13.310111
57.225 13.516236
57.230 13.295323
57.235 13.154637
57.240 12.974397
57.245 13.943773
57.250 14.058202
57.255 13.529008
57.260 13.345539
57.265 13.038376
57.270 13.255467
57.275 13.124997
57.280 12.694602
57.285 12.793413
57.290 13.501068
57.295 14.219725
57.300 14.643102
57.305 14.093416
57.310 13.673663
57.315 13.166191
57.320 12.886692
57.325 12.558865
57.330 12.453851
57.335 12.558874
57.340 12.8287
57.345 13.292385
57.350 13.503435
57.355 13.603702
57.360 13.749145
57.365 13.642599
57.370 13.80728
57.375 13.718421
57.380 13.704079
57.385 13.53862
57.390 13.280425
57.395 13.276328
57.400 13.691241
57.405 14.209914
57.410 14.845142
57.415 14.979863
57.420 15.370553
57.425 15.729992
57.430 15.634356
57.435 15.522456
57.440 14.768976
57.445 14.412301
57.450 14.521485
57.455 14.354683
57.460 14.20873
57.465 13.844731
57.470 13.079376
57.475 13.328678
57.480 13.194999
57.485 13.129874
57.490 13.342448
57.495 13.276082
57.500 13.411483
57.505 13.753633
57.510 13.667887
57.515 13.361553
57.520 13.473051
57.525 12.872553
57.530 13.430982
57.535 13.42332
57.540 13.238678
57.545 12.97986
57.550 13.193809
57.555 13.708658
57.560 14.493619
57.565 14.802771
57.570 15.688132
57.575 16.393265
57.580 17.236986
57.585 17.326895
57.590 17.388302
57.595 17.529909
57.600 17.621887
57.605 17.625479
57.610 17.464535
57.615 17.145943
57.620 17.283554
57.625 16.81871
57.630 16.759727
57.635 15.931943
57.640 15.145832
57.645 14.788118
57.650 14.485961
57.655 14.237731
57.660 14.754444
57.665 14.394656
57.670 14.435145
57.675 15.16411
57.680 14.891223
57.685 14.908554
57.690 13.935112
57.695 12.838921
57.700 13.135414
57.705 13.082496
57.710 13.001412
57.715 13.180749
57.720 13.248185
57.725 13.987787
57.730 14.890253
57.735 15.131396
57.740 15.621436
57.745 15.81874
57.750 16.362947
57.755 16.934797
57.760 17.284121
57.765 17.203293
57.770 16.981781
57.775 16.837679
57.780 16.224356
57.785 16.116968
57.790 15.878935
57.795 15.637651
57.800 15.830591
57.805 15.601002
57.810 15.294262
57.815 15.465976
57.820 14.94092
57.825 15.143944
57.830 15.028636
57.835 14.764449
57.840 15.259682
57.845 16.08844
57.850 16.08485
57.855 16.728785
57.860 16.692646
57.865 16.383574
57.870 15.87563
57.875 15.681077
57.880 15.662725
57.885 15.485909
57.890 15.271945
57.895 15.227242
57.900 15.84833
57.905 16.24794
57.910 16.337303
57.915 16.095503
57.920 16.381996
57.925 16.777678
57.930 16.846605
57.935 17.024458
57.940 17.70005
57.945 17.868662
57.950 17.987375
57.955 17.775614
57.960 17.109404
57.965 16.963823
57.970 17.197803
57.975 16.852455
57.980 17.078083
57.985 17.388403
57.990 17.610054
57.995 18.131298
58.000 18.122709
58.005 17.986259
58.010 17.813986
58.015 16.885635
58.020 16.6078
58.025 16.698772
58.030 16.694056
58.035 16.437248
58.040 16.241095
58.045 16.950747
58.050 17.59086
58.055 17.853138
58.060 17.579557
58.065 17.498104
58.070 17.896727
58.075 18.853859
58.080 18.660179
58.085 18.143234
58.090 18.084099
58.095 18.053968
58.100 17.835499
58.105 17.586485
58.110 16.538778
58.115 16.193714
58.120 16.336029
58.125 16.066391
58.130 16.257662
58.135 16.4452
58.140 16.49898
58.145 16.382679
58.150 16.268675
58.155 16.056293
58.160 15.927632
58.165 16.058229
58.170 15.88577
58.175 15.658502
58.180 16.178562
58.185 16.571726
58.190 17.601999
58.195 17.835651
58.200 17.515022
58.205 18.027958
58.210 18.517235
58.215 17.752506
58.220 17.945084
58.225 17.708265
58.230 17.943769
58.235 18.337343
58.240 18.44055
58.245 18.885736
58.250 19.417973
58.255 19.380882
58.260 19.319246
58.265 19.205391
58.270 19.49696
58.275 19.108196
58.280 18.861036
58.285 18.900269
58.290 19.143368
58.295 19.459377
58.300 19.966316
58.305 20.398888
58.310 20.70039
58.315 20.465963
58.320 20.737518
58.325 20.482
58.330 20.640169
58.335 20.384394
58.340 20.063761
58.345 20.17581
58.350 20.691004
58.355 21.566244
58.360 22.185829
58.365 22.2871
58.370 22.517246
58.375 22.965096
58.380 22.579174
58.385 23.25375
58.390 23.14604
58.395 23.574396
58.400 23.863472
58.405 24.083059
58.410 24.298792
58.415 25.323908
58.420 25.332888
58.425 25.473253
58.430 25.813475
58.435 26.004972
58.440 26.060947
58.445 25.921513
58.450 26.240559
58.455 26.679966
58.460 26.875814
58.465 27.343328
58.470 28.318102
58.475 28.948809
58.480 29.135609
58.485 29.096474
58.490 29.672375
58.495 30.367357
58.500 30.120178
58.505 29.935261
58.510 30.680418
58.515 31.096575
58.520 32.132671
58.525 32.234287
58.530 31.954102
58.535 32.688301
58.540 33.214073
58.545 33.204559
58.550 34.095722
58.555 34.350307
58.560 34.296982
58.565 33.98103
58.570 33.63446
58.575 33.323994
58.580 34.036098
58.585 33.719837
58.590 33.596615
58.595 34.325497
58.600 35.04409
58.605 35.161457
58.610 35.811043
58.615 35.465458
58.620 35.130936
58.625 34.836456
58.630 34.949814
58.635 35.390049
58.640 35.671349
58.645 34.692848
58.650 33.807442
58.655 33.782852
58.660 34.235161
58.665 33.877396
58.670 33.021664
58.675 32.209663
58.680 31.735928
58.685 32.006554
58.690 31.785812
58.695 31.362188
58.700 31.02739
58.705 31.79138
58.710 32.036514
58.715 32.744007
58.720 32.484135
58.725 32.626064
58.730 32.349148
58.735 32.014423
58.740 32.14481
58.745 31.421762
58.750 31.539793
58.755 32.015373
58.760 31.421656
58.765 30.170984
58.770 28.630688
58.775 27.27677
58.780 26.668392
58.785 25.4618
58.790 24.471222
58.795 24.534088
58.800 24.448357
58.805 25.264559
58.810 26.36577
58.815 26.655626
58.820 26.570099
58.825 27.251392
58.830 26.990631
58.835 27.09667
58.840 26.067165
58.845 24.330963
58.850 23.759905
58.855 23.673721
58.860 22.406588
58.865 22.058943
58.870 21.825029
58.875 22.102299
58.880 21.960894
58.885 21.803925
58.890 21.707092
58.895 21.873472
58.900 22.057318
58.905 21.203499
58.910 20.982006
58.915 21.659773
58.920 21.715946
58.925 21.606277
58.930 21.098707
58.935 20.593657
58.940 21.077192
58.945 20.685143
58.950 20.144585
58.955 20.22978
58.960 20.385136
58.965 20.276524
58.970 20.204517
58.975 20.078039
58.980 20.269638
58.985 20.058514
58.990 19.481937
58.995 18.769714
59.000 19.052181
59.005 19.213816
59.010 18.777395
59.015 17.969561
59.020 17.703672
59.025 17.975586
59.030 18.426628
59.035 17.937696
59.040 17.687738
59.045 18.487892
59.050 18.9548
59.055 19.003702
59.060 18.874163
59.065 18.630569
59.070 18.551592
59.075 18.346622
59.080 17.606062
59.085 17.262117
59.090 16.602438
59.095 16.150551
59.100 16.420177
59.105 16.726433
59.110 16.771976
59.115 16.642876
59.120 16.946854
59.125 17.492422
59.130 17.829391
59.135 17.204517
59.140 16.537903
59.145 16.851625
59.150 17.004347
59.155 16.9916
59.160 16.921865
59.165 16.98876
59.170 17.567999
59.175 17.82856
59.180 17.197447
59.185 16.595102
59.190 16.371649
59.195 16.308056
59.200 15.973586
59.205 15.502629
59.210 15.166578
59.215 14.97614
59.220 15.346435
59.225 15.043027
59.230 15.319642
59.235 16.178955
59.240 16.759626
59.245 16.94137
59.250 17.01586
59.255 16.507763
59.260 16.478813
59.265 15.563388
59.270 15.089213
59.275 15.067071
59.280 15.400262
59.285 15.667733
59.290 16.88353
59.295 17.626495
59.300 18.139334
59.305 18.243055
59.310 18.05386
59.315 17.990234
59.320 17.997637
59.325 17.443544
59.330 17.506468
59.335 17.391367
59.340 17.086016
59.345 17.086145
59.350 16.221535
59.355 16.234493
59.360 16.516565
59.365 16.58779
59.370 16.275331
59.375 16.489204
59.380 16.333725
59.385 16.602591
59.390 15.875134
59.395 15.300961
59.400 14.622239
59.405 14.640044
59.410 14.813238
59.415 14.832923
59.420 15.062483
59.425 15.141772
59.430 15.445528
59.435 15.793861
59.440 15.739721
59.445 15.304354
59.450 14.983738
59.455 15.305502
59.460 15.853496
59.465 15.226136
59.470 15.241488
59.475 14.972712
59.480 14.878256
59.485 15.186495
59.490 15.170421
59.495 15.136092
59.500 15.35567
59.505 15.259335
59.510 15.533932
59.515 15.848459
59.520 15.746232
59.525 15.465147
59.530 15.206044
59.535 14.965544
59.540 14.98904
59.545 15.385172
59.550 15.990715
59.555 16.209248
59.560 16.54735
59.565 17.320978
59.570 17.35198
59.575 17.101877
59.580 16.442122
59.585 16.096348
59.590 16.129728
59.595 15.430017
59.600 14.894216
59.605 15.260095
59.610 15.229158
59.615 15.506072
59.620 15.032972
59.625 15.192246
59.630 15.899107
59.635 16.002968
59.640 15.864867
59.645 16.503586
59.650 16.845451
59.655 17.081535
59.660 16.945305
59.665 16.383856
59.670 16.066446
59.675 16.001167
59.680 15.437677
59.685 15.306896
59.690 15.222984
59.695 14.859172
59.700 15.470083
59.705 15.693652
59.710 15.678292
59.715 15.736354
59.720 15.608534
59.725 15.704145
59.730 15.867732
59.735 15.665353
59.740 15.906136
59.745 15.480166
59.750 14.814445
59.755 14.302662
59.760 14.38078
59.765 14.50866
59.770 13.836444
59.775 14.066216
59.780 14.769594
59.785 14.879947
59.790 15.522986
59.795 15.400333
59.800 15.40157
59.805 15.594895
59.810 15.270033
59.815 15.181462
59.820 15.362216
59.825 15.276709
59.830 15.143746
59.835 14.941187
59.840 15.236897
59.845 15.027903
59.850 15.04979
59.855 15.127501
59.860 15.090796
59.865 15.081646
59.870 15.199794
59.875 14.943974
59.880 15.082812
59.885 14.860596
59.890 15.001173
59.895 14.924079
59.900 15.172802
59.905 15.061363
59.910 15.098332
59.915 15.208838
59.920 15.438625
59.925 15.428733
59.930 15.237859
59.935 15.324366
59.940 15.254819
59.945 15.035653
59.950 14.767238
59.955 14.720503
59.960 14.212197
59.965 14.343425
59.970 14.507716
59.975 14.964453
59.980 15.27311
59.985 15.647
59.990 15.689384
59.995 15.894335
60.000 16.190954
60.005 15.976564
60.010 15.948063
60.015 15.960792
60.020 15.79888
60.025 15.587544
60.030 15.215656
60.035 14.425987
60.040 14.116957
60.045 14.212941
60.050 13.715483
60.055 13.844441
60.060 14.33657
60.065 14.372142
60.070 15.207585
60.075 16.065655
60.080 15.887626
60.085 16.137363
60.090 16.255033
60.095 16.374701
60.100 17.321905
60.105 17.175173
60.110 16.331001
60.115 16.141882
60.120 16.007078
60.125 16.090387
60.130 15.877728
60.135 15.468741
60.140 15.458715
60.145 15.763761
60.150 16.037306
60.155 16.341654
60.160 15.701793
60.165 15.683957
60.170 15.505549
60.175 15.158463
60.180 15.12149
60.185 14.59422
60.190 14.886155
60.195 15.358095
60.200 15.395722
60.205 15.443461
60.210 15.548167
60.215 15.233926
60.220 15.707839
60.225 15.234895
60.230 15.325725
60.235 15.58112
60.240 15.255507
60.245 15.569946
60.250 15.987471
60.255 15.289758
60.260 15.714258
60.265 15.461468
60.270 15.029932
60.275 15.535923
60.280 15.699826
60.285 15.91496
60.290 17.267897
60.295 17.014286
60.300 17.093355
60.305 17.1157
60.310 17.139433
60.315 17.295166
60.320 17.473738
60.325 16.763664
60.330 16.519899
60.335 16.747469
60.340 17.182779
60.345 16.981689
60.350 16.649973
60.355 16.160778
60.360 16.138285
60.365 16.291788
60.370 15.908741
60.375 15.622685
60.380 15.407519
60.385 15.606321
60.390 15.622703
60.395 15.851474
60.400 15.479908
60.405 15.50636
60.410 15.467055
60.415 15.670849
60.420 15.3814
60.425 15.187091
60.430 15.228219
60.435 15.638224
60.440 15.854568
60.445 15.952561
60.450 15.763341
60.455 15.538177
60.460 15.342529
60.465 15.318086
60.470 15.271041
60.475 15.493637
60.480 15.353582
60.485 15.28836
60.490 15.545725
60.495 15.807919
60.500 15.140306
60.505 15.115159
60.510 15.073831
60.515 15.507983
60.520 15.579591
60.525 15.730562
60.530 15.706135
60.535 16.418394
60.540 16.87385
60.545 17.158398
60.550 17.053898
60.555 16.643629
60.560 16.334427
60.565 16.657593
60.570 16.036949
60.575 15.664137
60.580 15.136713
60.585 14.830194
60.590 15.516432
60.595 16.150934
60.600 16.853302
60.605 17.679838
60.610 18.006561
60.615 17.872175
60.620 18.02566
60.625 17.709364
60.630 17.217886
60.635 16.428429
60.640 15.92057
60.645 15.580618
60.650 15.136131
60.655 14.930677
60.660 15.064773
60.665 14.432869
60.670 14.466297
60.675 14.104537
60.680 14.138391
60.685 15.009798
60.690 15.014243
60.695 14.951546
60.700 15.505809
60.705 15.642846
60.710 16.255884
60.715 16.107891
60.720 16.132153
60.725 16.902327
60.730 17.011923
60.735 16.887314
60.740 16.991697
60.745 17.030111
60.750 17.333759
60.755 17.31526
60.760 16.866537
60.765 17.261971
60.770 17.073221
60.775 16.609503
60.780 15.698725
60.785 15.02115
60.790 14.761258
60.795 14.94669
60.800 15.005136
60.805 15.122638
60.810 15.161916
60.815 15.500679
60.820 15.433249
60.825 15.319498
60.830 15.461472
60.835 15.355192
60.840 15.253452
60.845 15.421152
60.850 16.211399
60.855 16.64212
60.860 16.703959
60.865 16.300142
60.870 16.097786
60.875 16.277916
60.880 16.260406
60.885 15.499648
60.890 15.428029
60.895 15.468299
60.900 15.482879
60.905 15.647099
60.910 15.887252
60.915 16.055965
60.920 17.088318
60.925 17.714432
60.930 17.454809
60.935 16.887405
60.940 16.940264
60.945 16.572575
60.950 16.289028
60.955 15.861677
60.960 15.22626
60.965 15.210788
60.970 15.449894
60.975 15.086026
60.980 15.247416
60.985 14.940495
60.990 14.00223
60.995 14.373582
61.000 15.071304
61.005 15.837693
61.010 15.950624
61.015 15.831354
61.020 16.172003
61.025 16.872988
61.030 16.692314
61.035 15.867643
61.040 15.34274
61.045 15.616892
61.050 15.536384
61.055 14.621943
61.060 14.16613
61.065 14.011683
61.070 14.277831
61.075 14.371187
61.080 14.340628
61.085 14.813384
61.090 15.200867
61.095 15.148603
61.100 15.182138
61.105 15.21005
61.110 15.556379
61.115 15.732356
61.120 15.930861
61.125 16.042624
61.130 15.920535
61.135 16.007931
61.140 15.993067
61.145 15.300896
61.150 14.957634
61.155 14.949584
61.160 15.232348
61.165 15.344372
61.170 15.526376
61.175 15.675748
61.180 16.238167
61.185 16.569613
61.190 17.106441
61.195 17.334467
61.200 18.284033
61.205 18.307392
61.210 18.422066
61.215 18.078512
61.220 18.059055
61.225 17.513702
61.230 17.676559
61.235 16.995951
61.240 16.730751
61.245 16.789583
61.250 16.976494
61.255 17.002031
61.260 17.399954
61.265 17.004433
61.270 17.194212
61.275 16.737734
61.280 16.34132
61.285 16.670958
61.290 16.269146
61.295 16.094198
61.300 16.285084
61.305 16.164522
61.310 16.559628
61.315 16.463692
61.320 16.327009
61.325 16.414396
61.330 16.481121
61.335 16.906771
61.340 16.440119
61.345 15.890976
61.350 15.85989
61.355 15.490129
61.360 15.377153
61.365 15.160525
61.370 15.03147
61.375 15.812613
61.380 16.534843
61.385 16.281252
61.390 16.303434
61.395 16.319735
61.400 15.699915
61.405 15.520889
61.410 15.064651
61.415 14.709565
61.420 14.923739
61.425 14.736364
61.430 14.578656
61.435 15.235322
61.440 15.164799
61.445 15.718623
61.450 15.930537
61.455 15.896945
61.460 15.945902
61.465 16.085499
61.470 16.241224
61.475 16.826433
61.480 16.994068
61.485 16.510401
61.490 16.247099
61.495 16.220261
61.500 16.106472
61.505 15.620581
61.510 14.883912
61.515 14.32763
61.520 14.479613
61.525 14.417881
61.530 14.469635
61.535 14.494567
61.540 15.140965
61.545 16.102129
61.550 16.518703
61.555 17.12372
61.560 17.089058
61.565 17.162447
61.570 17.386351
61.575 16.858818
61.580 16.619001
61.585 16.965176
61.590 16.677523
61.595 16.698658
61.600 17.158737
61.605 17.318657
61.610 17.454773
61.615 16.575201
61.620 15.984067
61.625 16.190922
61.630 16.558033
61.635 15.488626
61.640 15.009517
61.645 14.929009
61.650 15.124588
61.655 15.616565
61.660 15.970823
61.665 16.276463
61.670 16.863655
61.675 17.081327
61.680 17.610548
61.685 17.312744
61.690 16.965366
61.695 16.046509
61.700 15.946742
61.705 15.77885
61.710 15.581824
61.715 15.431442
61.720 15.677187
61.725 16.066549
61.730 16.574039
61.735 16.586397
61.740 16.524324
61.745 16.422228
61.750 15.518082
61.755 15.514445
61.760 15.001237
61.765 14.568686
61.770 14.416419
61.775 15.12767
61.780 15.279437
61.785 16.066027
61.790 16.329618
61.795 16.339886
61.800 16.809387
61.805 16.682154
61.810 16.064535
61.815 16.270618
61.820 16.333054
61.825 16.260929
61.830 16.412514
61.835 15.928445
61.840 16.060968
61.845 16.589966
61.850 16.393496
61.855 16.362673
61.860 16.846025
61.865 17.074286
61.870 17.962198
61.875 18.502672
61.880 18.724485
61.885 18.845676
61.890 18.777267
61.895 18.564695
61.900 18.618002
61.905 17.947483
61.910 17.342182
61.915 17.333767
61.920 17.407045
61.925 16.913853
61.930 16.757706
61.935 16.92116
61.940 17.269239
61.945 17.762539
61.950 17.087992
61.955 17.116402
61.960 17.394939
61.965 17.185705
61.970 17.514582
61.975 17.920578
61.980 17.249119
61.985 17.198809
61.990 16.941221
61.995 16.801392
62.000 16.956266
62.005 16.659691
62.010 16.403454
62.015 16.810316
62.020 16.73872
62.025 16.394358
62.030 16.584385
62.035 16.075123
62.040 15.831699
62.045 15.585859
62.050 15.569404
62.055 15.436528
62.060 16.098372
62.065 16.260578
62.070 16.649338
62.075 16.635206
62.080 16.712713
62.085 17.149782
62.090 17.802015
62.095 17.505865
62.100 17.693541
62.105 17.569313
62.110 17.311306
62.115 17.065481
62.120 16.555672
62.125 16.621099
62.130 16.455862
62.135 15.978096
62.140 16.298731
62.145 16.538086
62.150 16.509041
62.155 16.469027
62.160 15.889872
62.165 16.109238
62.170 16.758572
62.175 16.963829
62.180 17.09651
62.185 17.190029
62.190 17.588264
62.195 17.890127
62.200 17.859272
62.205 17.082901
62.210 17.148176
62.215 17.494829
62.220 17.731857
62.225 17.216084
62.230 16.641602
62.235 16.641804
62.240 17.224577
62.245 17.123997
62.250 16.318945
62.255 16.034988
62.260 16.513178
62.265 16.921843
62.270 16.489668
62.275 16.030075
62.280 15.532614
62.285 15.834409
62.290 15.296848
62.295 14.886051
62.300 15.033094
62.305 15.187593
62.310 15.415889
62.315 15.77598
62.320 15.770348
62.325 16.382248
62.330 16.817656
62.335 16.469137
62.340 16.533508
62.345 16.467577
62.350 16.182487
62.355 16.726189
62.360 16.359964
62.365 15.662207
62.370 16.097517
62.375 16.029758
62.380 16.103596
62.385 16.778397
62.390 16.627676
62.395 16.554541
62.400 17.285025
62.405 17.302643
62.410 17.716022
62.415 17.696932
62.420 17.159225
62.425 17.049112
62.430 17.671637
62.435 17.386648
62.440 17.207119
62.445 16.814932
62.450 17.008572
62.455 17.508778
62.460 17.259583
62.465 17.294043
62.470 17.439518
62.475 17.652107
62.480 17.409159
62.485 16.925133
62.490 16.190369
62.495 16.06271
62.500 16.068239
62.505 15.691378
62.510 15.552123
62.515 16.088581
62.520 15.700309
62.525 15.794045
62.530 15.783911
62.535 15.68729
62.540 15.711581
62.545 16.052458
62.550 15.940802
62.555 16.184872
62.560 16.439043
62.565 17.209957
62.570 17.272173
62.575 17.672571
62.580 17.660044
62.585 17.461695
62.590 17.789299
62.595 17.550959
62.600 17.567678
62.605 17.417072
62.610 17.237328
62.615 17.180716
62.620 17.890232
62.625 18.628017
62.630 18.838945
62.635 18.852049
62.640 18.8309
62.645 18.814558
62.650 18.826069
62.655 17.778622
62.660 17.254833
62.665 17.325901
62.670 17.162834
62.675 17.114925
62.680 17.185362
62.685 17.408195
62.690 17.465513
62.695 17.439863
62.700 17.339233
62.705 17.686565
62.710 18.46777
62.715 18.720253
62.720 18.486404
62.725 18.677629
62.730 18.415316
62.735 17.761206
62.740 16.882217
62.745 16.25923
62.750 15.763287
62.755 15.946412
62.760 16.36508
62.765 16.843397
62.770 17.374998
62.775 18.341749
62.780 18.513092
62.785 18.492535
62.790 18.654816
62.795 18.333872
62.800 18.35018
62.805 18.5578
62.810 17.646429
62.815 17.355932
62.820 17.565321
62.825 17.637909
62.830 18.130211
62.835 17.738867
62.840 17.701893
62.845 18.016848
62.850 17.878592
62.855 17.342932
62.860 16.828274
62.865 16.019821
62.870 15.713285
62.875 15.15366
62.880 14.735387
62.885 14.750824
62.890 14.932967
62.895 14.782454
62.900 15.545959
62.905 15.671075
62.910 16.020142
62.915 16.203442
62.920 16.734251
62.925 16.923473
62.930 16.875284
62.935 16.650471
62.940 16.901991
62.945 16.604376
62.950 16.427389
62.955 15.873484
62.960 15.938993
62.965 15.855778
62.970 16.720377
62.975 17.284601
62.980 17.626558
62.985 18.249929
62.990 18.881805
62.995 19.06661
63.000 19.073523
63.005 18.402441
63.010 17.821762
63.015 17.239689
63.020 17.217388
63.025 16.95158
63.030 16.940439
63.035 17.284994
63.040 16.909653
63.045 17.01125
63.050 17.110853
63.055 17.10882
63.060 17.347822
63.065 17.555578
63.070 17.076681
63.075 16.73455
63.080 16.387192
63.085 16.245331
63.090 16.229322
63.095 15.679397
63.100 15.568107
63.105 16.563681
63.110 17.749191
63.115 18.986847
63.120 19.460392
63.125 19.407618
63.130 19.777367
63.135 19.816641
63.140 19.44031
63.145 18.952366
63.150 18.293541
63.155 18.370537
63.160 18.263601
63.165 18.380266
63.170 18.568161
63.175 18.328785
63.180 18.064726
63.185 17.858852
63.190 17.841036
63.195 17.522381
63.200 16.964376
63.205 16.5791
63.210 16.547754
63.215 16.808731
63.220 16.795588
63.225 16.635479
63.230 17.152578
63.235 16.952915
63.240 16.990498
63.245 17.405258
63.250 17.045444
63.255 16.862183
63.260 16.998917
63.265 16.98843
63.270 17.31053
63.275 17.452953
63.280 17.245943
63.285 17.905218
63.290 18.361675
63.295 18.243876
63.300 18.235014
63.305 18.416142
63.310 18.786854
63.315 18.880598
63.320 18.626406
63.325 19.014612
63.330 18.860142
63.335 18.8097
63.340 19.242558
63.345 18.958998
63.350 18.685091
63.355 19.06126
63.360 18.948446
63.365 19.571674
63.370 19.101484
63.375 18.373846
63.380 18.48069
63.385 18.606087
63.390 17.480192
63.395 16.891142
63.400 16.340506
63.405 16.441469
63.410 16.398252
63.415 16.015877
63.420 16.521667
63.425 17.090349
63.430 17.351114
63.435 17.739597
63.440 18.006084
63.445 18.129868
63.450 18.342594
63.455 18.060896
63.460 18.403677
63.465 18.588057
63.470 18.54133
63.475 18.855598
63.480 18.766247
63.485 18.595306
63.490 18.338291
63.495 18.755724
63.500 18.732042
63.505 18.471088
63.510 18.357735
63.515 18.193253
63.520 18.006556
63.525 17.471184
63.530 16.657639
63.535 16.188656
63.540 15.949982
63.545 15.809393
63.550 16.087944
63.555 15.99386
63.560 16.313168
63.565 16.22868
63.570 16.255926
63.575 16.723927
63.580 16.860464
63.585 16.899725
63.590 17.160204
63.595 17.366884
63.600 17.433918
63.605 17.884417
63.610 17.908983
63.615 17.796398
63.620 18.128757
63.625 17.88154
63.630 17.670643
63.635 18.001879
63.640 17.306557
63.645 17.669861
63.650 17.954308
63.655 18.461481
63.660 19.326517
63.665 19.457153
63.670 19.610008
63.675 20.368235
63.680 20.509836
63.685 20.017769
63.690 19.696104
63.695 19.399923
63.700 18.998278
63.705 18.754805
63.710 18.21945
63.715 18.06834
63.720 18.159502
63.725 18.00927
63.730 18.448393
63.735 19.196589
63.740 19.699617
63.745 19.319767
63.750 19.120003
63.755 19.452986
63.760 19.148504
63.765 18.522966
63.770 18.088175
63.775 17.71875
63.780 17.762117
63.785 18.290588
63.790 18.603222
63.795 18.605358
63.800 19.503004
63.805 20.057953
63.810 20.606592
63.815 20.785759
63.820 19.891438
63.825 19.733288
63.830 19.763031
63.835 19.439102
63.840 19.879871
63.845 20.168913
63.850 20.619865
63.855 20.919283
63.860 20.878624
63.865 21.207743
63.870 20.971451
63.875 21.0334
63.880 21.030237
63.885 21.671928
63.890 21.96023
63.895 21.915434
63.900 21.882923
63.905 21.993994
63.910 21.325651
63.915 21.107719
63.920 20.884546
63.925 20.955008
63.930 21.623495
63.935 22.085453
63.940 22.202061
63.945 22.276012
63.950 22.310516
63.955 22.479794
63.960 22.430166
63.965 22.721197
63.970 23.719507
63.975 24.576525
63.980 25.019037
63.985 25.703457
63.990 26.112909
63.995 26.770342
64.000 26.384468
64.005 26.51819
64.010 26.402227
64.015 27.395132
64.020 27.706043
64.025 27.966219
64.030 28.154644
64.035 28.444231
64.040 27.679995
64.045 28.142885
64.050 28.249582
64.055 27.856947
64.060 27.672009
64.065 27.519606
64.070 27.464254
64.075 27.919754
64.080 28.063538
64.085 28.809986
64.090 29.21447
64.095 29.499815
64.100 29.84622
64.105 30.496454
64.110 30.877842
64.115 30.90395
64.120 30.905203
64.125 31.907028
64.130 32.218719
64.135 32.203411
64.140 32.048416
64.145 31.972794
64.150 32.678715
64.155 32.651413
64.160 32.878742
64.165 33.331772
64.170 34.385895
64.175 35.333904
64.180 35.381081
64.185 35.960243
64.190 36.651417
64.195 36.93269
64.200 37.884846
64.205 38.399994
64.210 38.611145
64.215 38.916203
64.220 38.759338
64.225 39.645222
64.230 40.295506
64.235 40.653931
64.240 40.454525
64.245 40.534019
64.250 41.262886
64.255 42.607414
64.260 42.992256
64.265 42.229
64.270 41.878014
64.275 42.606094
64.280 42.708889
64.285 42.596878
64.290 41.740795
64.295 41.107567
64.300 41.710251
64.305 42.559025
64.310 42.941761
64.315 43.55595
64.320 43.840023
64.325 44.006142
64.330 43.720551
64.335 42.861145
64.340 42.303726
64.345 41.764271
64.350 41.48259
64.355 41.522839
64.360 41.667439
64.365 40.934029
64.370 41.28738
64.375 41.665646
64.380 40.968761
64.385 40.073959
64.390 39.290413
64.395 38.635983
64.400 39.562641
64.405 39.2034
64.410 38.632942
64.415 38.590561
64.420 39.92178
64.425 40.030437
64.430 39.644772
64.435 39.012695
64.440 39.447781
64.445 39.624332
64.450 38.599369
64.455 37.444355
64.460 37.242901
64.465 36.873074
64.470 36.375248
64.475 35.461018
64.480 35.302383
64.485 36.099239
64.490 36.534882
64.495 36.523399
64.500 36.735359
64.505 37.309544
64.510 36.539276
64.515 35.421806
64.520 34.954842
64.525 33.81279
64.530 33.042122
64.535 32.6278
64.540 31.54221
64.545 31.02293
64.550 30.670288
64.555 29.797113
64.560 29.994009
64.565 30.106268
64.570 29.425091
64.575 29.617077
64.580 29.64967
64.585 29.675312
64.590 29.706505
64.595 28.61622
64.600 27.873213
64.605 27.649284
64.610 27.333483
64.615 26.613585
64.620 26.328314
64.625 25.778158
64.630 25.241552
64.635 24.998653
64.640 24.128504
64.645 23.407961
64.650 23.443676
64.655 23.585102
64.660 24.107473
64.665 24.656239
64.670 24.865849
64.675 24.62324
64.680 24.622049
64.685 24.955746
64.690 24.482635
64.695 24.061632
64.700 23.82777
64.705 22.699183
64.710 23.293121
64.715 23.479528
64.720 22.538338
64.725 22.283394
64.730 22.213221
64.735 22.441324
64.740 23.326633
64.745 23.470905
64.750 23.333202
64.755 23.643068
64.760 23.992331
64.765 24.295647
64.770 23.867645
64.775 22.788296
64.780 21.625021
64.785 21.698633
64.790 21.59201
64.795 20.931234
64.800 20.59453
64.805 21.022617
64.810 21.797289
64.815 22.083115
64.820 22.135164
64.825 22.302946
64.830 22.10318
64.835 21.416634
64.840 21.34054
64.845 21.38063
64.850 21.38155
64.855 21.235224
64.860 21.181334
64.865 22.100056
64.870 21.871878
64.875 21.584021
64.880 21.001471
64.885 20.718594
64.890 20.376659
64.895 20.099411
64.900 20.334208
64.905 21.13497
64.910 21.574249
64.915 22.354843
64.920 23.185595
64.925 23.060513
64.930 22.721722
64.935 22.551151
64.940 22.662163
64.945 22.094034
64.950 21.665325
64.955 20.674313
64.960 20.864077
64.965 21.513693
64.970 21.042826
64.975 20.863432
64.980 21.286959
64.985 21.848148
64.990 22.537102
64.995 23.148178
65.000 23.050337
65.005 23.475395
65.010 23.811018
65.015 23.957499
65.020 24.420261
65.025 24.549213
65.030 24.776083
65.035 24.732012
65.040 24.629572
65.045 24.152651
65.050 24.04291
65.055 23.700073
65.060 24.00152
65.065 23.725677
65.070 23.68067
65.075 23.919468
65.080 24.227482
65.085 24.372267
65.090 24.504862
65.095 24.035158
65.100 24.324446
65.105 24.722572
65.110 24.752605
65.115 24.349009
65.120 23.65951
65.125 23.323444
65.130 23.171574
65.135 23.390511
65.140 23.258303
65.145 22.917318
65.150 23.708796
65.155 24.208231
65.160 24.150398
65.165 23.601488
65.170 23.764799
65.175 24.641054
65.180 24.783628
65.185 24.809956
65.190 25.018583
65.195 25.708138
65.200 26.962492
65.205 26.506931
65.210 25.776793
65.215 25.791616
65.220 25.684391
65.225 25.305727
65.230 25.697153
65.235 24.939081
65.240 24.68808
65.245 24.877895
65.250 24.667191
65.255 24.648262
65.260 25.106415
65.265 24.872429
65.270 25.779772
65.275 25.715572
65.280 25.549219
65.285 26.031612
65.290 26.383451
65.295 26.581852
65.300 26.699162
65.305 26.46954
65.310 27.539251
65.315 28.640692
65.320 28.68376
65.325 28.422455
65.330 28.364132
65.335 28.392595
65.340 28.886255
65.345 28.469053
65.350 27.870701
65.355 28.465494
65.360 28.882288
65.365 28.83626
65.370 29.734007
65.375 30.339548
65.380 30.813713
65.385 30.746397
65.390 30.454985
65.395 30.06978
65.400 30.942101
65.405 31.362913
65.410 30.76755
65.415 30.862526
65.420 31.02825
65.425 31.771433
65.430 32.809731
65.435 32.664173
65.440 32.036816
65.445 31.989908
65.450 31.977257
65.455 32.59074
65.460 32.628452
65.465 31.586119
65.470 31.188963
65.475 31.07778
65.480 30.710766
65.485 31.667967
65.490 32.151493
65.495 31.844816
65.500 32.737656
65.505 33.652481
65.510 35.413265
65.515 36.281437
65.520 36.032894
65.525 35.547165
65.530 35.932743
65.535 35.682953
65.540 36.097923
65.545 35.798565
65.550 35.063553
65.555 34.013466
65.560 33.70063
65.565 33.42757
65.570 34.054108
65.575 33.573505
65.580 33.003593
65.585 33.935844
65.590 34.937645
65.595 35.301517
65.600 35.106621
65.605 35.22385
65.610 35.988144
65.615 37.572826
65.620 37.395107
65.625 37.209221
65.630 37.36018
65.635 37.815132
65.640 37.849026
65.645 37.4995
65.650 37.106998
65.655 37.782902
65.660 38.449326
65.665 39.501923
65.670 39.587505
65.675 40.093365
65.680 40.981968
65.685 41.55571
65.690 42.246243
65.695 42.961391
65.700 42.71122
65.705 43.035252
65.710 42.632908
65.715 42.071884
65.720 41.76701
65.725 40.763107
65.730 40.109253
65.735 39.809196
65.740 39.819263
65.745 39.771515
65.750 39.467274
65.755 39.693233
65.760 40.089371
65.765 40.185177
65.770 39.906273
65.775 40.3493
65.780 39.784107
65.785 39.422623
65.790 39.057228
65.795 38.674541
65.800 38.094231
65.805 37.848507
65.810 36.829903
65.815 36.515324
65.820 36.41465
65.825 36.848572
65.830 37.378563
65.835 37.534737
65.840 37.665543
65.845 37.516941
65.850 37.523796
65.855 37.181053
65.860 36.513081
65.865 36.396179
65.870 36.342991
65.875 36.672573
65.880 37.595196
65.885 38.247715
65.890 37.917439
65.895 37.707497
65.900 37.391815
65.905 37.08606
65.910 36.083752
65.915 34.981441
65.920 34.413818
65.925 34.014072
65.930 33.571213
65.935 33.87669
65.940 33.467751
65.945 33.587421
65.950 33.355682
65.955 33.409214
65.960 34.608681
65.965 34.447544
65.970 34.085037
65.975 34.620758
65.980 34.529587
65.985 34.488239
65.990 34.365555
65.995 33.288845
66.000 33.38456
66.005 32.833073
66.010 31.777948
66.015 31.107309
66.020 31.384207
66.025 30.41345
66.030 29.697477
66.035 28.741989
66.040 29.002138
66.045 29.786541
66.050 29.901655
66.055 29.585405
66.060 29.946342
66.065 30.317778
66.070 30.51512
66.075 29.960342
66.080 29.638838
66.085 29.154724
66.090 28.679518
66.095 28.118103
66.100 27.548096
66.105 26.940329
66.110 26.293694
66.115 25.980093
66.120 25.776785
66.125 26.244335
66.130 26.649755
66.135 27.094854
66.140 27.286533
66.145 27.085135
66.150 26.700634
66.155 26.371126
66.160 25.920681
66.165 25.456934
66.170 24.679871
66.175 24.735874
66.180 25.341648
66.185 25.356768
66.190 25.68362
66.195 25.515591
66.200 25.419266
66.205 26.165619
66.210 25.985083
66.215 25.432955
66.220 25.221045
66.225 24.500299
66.230 24.263639
66.235 24.533421
66.240 23.920639
66.245 23.663862
66.250 23.825722
66.255 23.836344
66.260 24.053131
66.265 24.264681
66.270 23.604387
66.275 22.95323
66.280 22.581448
66.285 22.691261
66.290 22.65304
66.295 22.176167
66.300 21.835604
66.305 21.561857
66.310 21.559666
66.315 21.856077
66.320 21.819368
66.325 22.520716
66.330 22.737129
66.335 22.425028
66.340 22.383841
66.345 21.946177
66.350 21.333807
66.355 20.181011
66.360 20.001684
66.365 20.492496
66.370 20.310844
66.375 19.857117
66.380 19.334768
66.385 19.297449
66.390 19.9979
66.395 19.96063
66.400 19.818203
66.405 20.313253
66.410 20.940714
66.415 21.054939
66.420 20.949505
66.425 20.488487
66.430 20.213345
66.435 20.103037
66.440 20.572454
66.445 20.58864
66.450 20.469301
66.455 21.149082
66.460 21.298286
66.465 20.659281
66.470 19.821117
66.475 18.937229
66.480 18.925385
66.485 19.357359
66.490 18.924053
66.495 18.167286
66.500 18.804482
66.505 18.988564
66.510 18.623064
66.515 17.958225
66.520 17.781427
66.525 17.96524
66.530 18.948112
66.535 19.092941
66.540 19.553154
66.545 20.274687
66.550 21.352869
66.555 21.103804
66.560 21.330782
66.565 21.184711
66.570 21.219706
66.575 20.972961
66.580 20.02947
66.585 19.884371
66.590 20.448004
66.595 20.039352
66.600 19.137968
66.605 18.828676
66.610 18.860409
66.615 18.871782
66.620 18.321909
66.625 17.409443
66.630 16.892605
66.635 16.579645
66.640 16.728823
66.645 16.496639
66.650 16.883801
66.655 17.119541
66.660 16.654243
66.665 17.130468
66.670 17.770344
66.675 17.989586
66.680 18.336378
66.685 18.213991
66.690 18.217937
66.695 18.998037
66.700 19.117758
66.705 19.274569
66.710 18.6448
66.715 18.404095
66.720 18.459713
66.725 18.326593
66.730 18.133671
66.735 18.317528
66.740 17.918125
66.745 18.081841
66.750 17.740099
66.755 17.105864
66.760 17.324585
66.765 17.566511
66.770 17.922495
66.775 18.356014
66.780 18.40745
66.785 18.701153
66.790 18.944359
66.795 18.910568
66.800 18.441486
66.805 18.244982
66.810 18.404642
66.815 18.422901
66.820 18.290104
66.825 18.898357
66.830 19.082697
66.835 19.311928
66.840 18.967422
66.845 18.782391
66.850 19.270027
66.855 19.825018
66.860 19.017416
66.865 18.888329
66.870 18.604576
66.875 17.854654
66.880 17.355003
66.885 16.442612
66.890 16.160772
66.895 16.422041
66.900 16.365351
66.905 16.36809
66.910 17.198948
66.915 17.400459
66.920 17.371729
66.925 17.30785
66.930 17.295416
66.935 17.153757
66.940 17.345135
66.945 17.120396
66.950 17.276501
66.955 17.658012
66.960 17.707682
66.965 17.880907
66.970 18.004087
66.975 17.830439
66.980 18.329079
66.985 18.422977
66.990 18.172344
66.995 18.774546
67.000 19.05666
67.005 19.158627
67.010 19.280794
67.015 19.053862
67.020 19.083107
67.025 19.348251
67.030 19.028742
67.035 19.344343
67.040 18.664509
67.045 18.691509
67.050 18.486038
67.055 18.413471
67.060 18.399746
67.065 17.91955
67.070 18.049496
67.075 18.769484
67.080 18.79858
67.085 18.875782
67.090 19.283104
67.095 19.07435
67.100 19.559908
67.105 18.872383
67.110 18.693859
67.115 19.232639
67.120 19.31498
67.125 19.478674
67.130 19.651913
67.135 19.272144
67.140 19.192266
67.145 18.724274
67.150 17.784206
67.155 17.888519
67.160 17.265503
67.165 17.494278
67.170 17.465654
67.175 17.684994
67.180 17.726007
67.185 18.454601
67.190 18.755434
67.195 19.459621
67.200 19.4659
67.205 19.364143
67.210 19.375223
67.215 19.552237
67.220 19.290207
67.225 19.28437
67.230 19.328199
67.235 19.471895
67.240 19.6478
67.245 19.64275
67.250 19.528479
67.255 19.426975
67.260 19.008821
67.265 18.369606
67.270 18.23876
67.275 18.260754
67.280 18.360235
67.285 18.289257
67.290 18.643618
67.295 18.980257
67.300 19.222868
67.305 20.086451
67.310 20.465219
67.315 21.347773
67.320 21.382641
67.325 20.996424
67.330 21.100637
67.335 20.8736
67.340 20.158854
67.345 19.660183
67.350 19.829521
67.355 20.534708
67.360 20.193506
67.365 19.808531
67.370 19.63891
67.375 20.34273
67.380 20.417511
67.385 19.741278
67.390 19.223852
67.395 19.079994
67.400 18.314829
67.405 18.280836
67.410 17.925482
67.415 17.372416
67.420 16.770632
67.425 16.38306
67.430 16.345091
67.435 17.542891
67.440 17.628231
67.445 17.939444
67.450 18.457447
67.455 19.192863
67.460 19.85622
67.465 19.878397
67.470 19.654833
67.475 19.694023
67.480 20.059198
67.485 20.112436
67.490 19.825686
67.495 19.551249
67.500 19.978292
67.505 19.730333
67.510 19.204153
67.515 18.453474
67.520 18.282581
67.525 18.399694
67.530 18.470209
67.535 18.47094
67.540 18.29052
67.545 17.886587
67.550 17.565556
67.555 18.132284
67.560 18.211103
67.565 18.8873
67.570 18.812149
67.575 19.24419
67.580 19.908167
67.585 20.258865
67.590 20.051439
67.595 20.055378
67.600 19.564983
67.605 19.525084
67.610 19.478741
67.615 19.467655
67.620 19.597281
67.625 19.488506
67.630 19.211761
67.635 18.951096
67.640 19.087299
67.645 18.605433
67.650 18.230003
67.655 18.204197
67.660 17.860378
67.665 17.54332
67.670 17.473394
67.675 17.365438
67.680 17.609411
67.685 18.194986
67.690 18.25046
67.695 18.626888
67.700 18.830313
67.705 19.124702
67.710 19.378912
67.715 19.208351
67.720 19.232237
67.725 18.848063
67.730 18.318558
67.735 18.24605
67.740 18.636395
67.745 18.934134
67.750 19.602179
67.755 19.064825
67.760 19.53401
67.765 19.451605
67.770 19.492794
67.775 19.393959
67.780 18.812145
67.785 18.431421
67.790 17.972654
67.795 17.431717
67.800 17.810022
67.805 17.50695
67.810 17.059313
67.815 16.780991
67.820 17.0354
67.825 17.457129
67.830 18.589705
67.835 18.671444
67.840 18.504986
67.845 18.516699
67.850 18.821777
67.855 19.064663
67.860 19.441187
67.865 18.486954
67.870 18.126167
67.875 18.119118
67.880 18.426254
67.885 18.833185
67.890 18.36046
67.895 17.749174
67.900 17.704115
67.905 18.160166
67.910 18.827
67.915 18.492443
67.920 18.416262
67.925 18.866564
67.930 19.204727
67.935 19.509474
67.940 19.549801
67.945 18.727509
67.950 18.375046
67.955 17.806847
67.960 17.306711
67.965 16.760553
67.970 16.694267
67.975 17.223534
67.980 17.962393
67.985 18.352737
67.990 18.422091
67.995 18.595083
68.000 18.96641
68.005 18.971972
68.010 18.637701
68.015 17.979454
68.020 17.469322
68.025 17.105247
68.030 16.968105
68.035 17.276646
68.040 17.527168
68.045 17.610126
68.050 18.04792
68.055 18.858093
68.060 18.875872
68.065 18.471842
68.070 18.349215
68.075 18.066998
68.080 18.056187
68.085 18.31926
68.090 18.552509
68.095 19.5487
68.100 20.22735
68.105 20.541222
68.110 21.085949
68.115 21.601793
68.120 21.620029
68.125 21.488705
68.130 21.403664
68.135 21.14584
68.140 20.188322
68.145 19.838511
68.150 19.906778
68.155 20.279276
68.160 20.142693
68.165 19.941988
68.170 19.958719
68.175 20.70022
68.180 20.297455
68.185 19.93985
68.190 19.790411
68.195 19.8433
68.200 19.256622
68.205 19.222651
68.210 19.521248
68.215 19.064919
68.220 18.347486
68.225 18.276266
68.230 18.337507
68.235 18.515598
68.240 18.16992
68.245 17.633427
68.250 18.337475
68.255 18.770521
68.260 18.660179
68.265 18.675398
68.270 18.831207
68.275 18.976913
68.280 18.472885
68.285 18.161112
68.290 18.631453
68.295 18.830006
68.300 19.247438
68.305 19.767998
68.310 20.18432
68.315 20.891277
68.320 21.132561
68.325 20.746185
68.330 20.525375
68.335 20.330534
68.340 20.263363
68.345 20.285902
68.350 20.178223
68.355 20.076363
68.360 20.722582
68.365 20.568811
68.370 20.498747
68.375 20.44486
68.380 20.753469
68.385 21.588108
68.390 22.131111
68.395 21.858482
68.400 21.769075
68.405 22.452225
68.410 22.926813
68.415 23.284632
68.420 23.395443
68.425 23.207096
68.430 23.809654
68.435 24.415327
68.440 23.945919
68.445 23.646427
68.450 23.798302
68.455 23.83498
68.460 23.635866
68.465 23.05007
68.470 22.994909
68.475 23.437393
68.480 23.87219
68.485 23.832943
68.490 23.688656
68.495 23.192495
68.500 23.377127
68.505 23.822998
68.510 23.27301
68.515 23.094603
68.520 23.563669
68.525 24.406797
68.530 25.223598
68.535 24.980976
68.540 24.581333
68.545 24.721632
68.550 24.960165
68.555 24.845381
68.560 24.509745
68.565 24.594168
68.570 25.232206
68.575 25.606756
68.580 26.155998
68.585 26.086214
68.590 26.655952
68.595 26.938568
68.600 26.672571
68.605 26.674358
68.610 27.227535
68.615 27.565578
68.620 27.648355
68.625 27.629854
68.630 28.250414
68.635 28.966831
68.640 29.440071
68.645 29.493752
68.650 29.496145
68.655 29.383581
68.660 28.999523
68.665 28.889713
68.670 28.639227
68.675 28.046688
68.680 28.699354
68.685 28.493385
68.690 28.331673
68.695 28.758873
68.700 28.809246
68.705 28.710402
68.710 28.630796
68.715 27.800869
68.720 28.293985
68.725 28.737736
68.730 28.794106
68.735 29.312712
68.740 29.470949
68.745 29.509674
68.750 29.816748
68.755 29.498363
68.760 29.961103
68.765 30.391479
68.770 30.966719
68.775 31.917488
68.780 31.915968
68.785 31.957285
68.790 32.106613
68.795 32.443287
68.800 32.202522
68.805 31.926901
68.810 32.037514
68.815 32.138756
68.820 32.776886
68.825 33.085266
68.830 32.817253
68.835 33.404034
68.840 33.194439
68.845 33.391537
68.850 33.523811
68.855 33.339214
68.860 33.713505
68.865 33.728943
68.870 33.035927
68.875 33.144341
68.880 33.160603
68.885 33.389931
68.890 33.402538
68.895 33.504322
68.900 34.34079
68.905 35.232876
68.910 35.396297
68.915 35.784168
68.920 35.756561
68.925 35.939491
68.930 35.945118
68.935 35.916954
68.940 36.135235
68.945 36.74704
68.950 37.001724
68.955 37.091351
68.960 37.466431
68.965 37.357395
68.970 36.376274
68.975 35.873993
68.980 34.732224
68.985 34.648499
68.990 35.038998
68.995 34.707653
69.000 34.603561
69.005 34.702858
69.010 34.462563
69.015 35.053535
69.020 34.131981
69.025 34.172634
69.030 34.474781
69.035 34.695869
69.040 35.97443
69.045 36.61837
69.050 36.457035
69.055 36.285759
69.060 35.540546
69.065 35.041286
69.070 33.85281
69.075 32.742912
69.080 32.719757
69.085 32.797729
69.090 32.382839
69.095 32.116833
69.100 32.35355
69.105 33.056263
69.110 33.053356
69.115 32.190681
69.120 32.094036
69.125 33.096794
69.130 33.739162
69.135 33.082867
69.140 33.250637
69.145 33.535072
69.150 33.873657
69.155 34.339844
69.160 33.620262
69.165 33.158665
69.170 33.3214
69.175 32.97617
69.180 32.607151
69.185 32.783615
69.190 32.25375
69.195 32.180447
69.200 31.312054
69.205 30.47245
69.210 30.186045
69.215 30.250694
69.220 29.638954
69.225 29.349333
69.230 29.266787
69.235 29.555218
69.240 29.458117
69.245 29.010523
69.250 28.435059
69.255 28.220501
69.260 27.142941
69.265 27.192966
69.270 26.908361
69.275 26.345118
69.280 25.759054
69.285 24.770447
69.290 25.377001
69.295 26.026958
69.300 26.571308
69.305 27.395212
69.310 27.90764
69.315 27.950064
69.320 28.264994
69.325 27.497774
69.330 27.380131
69.335 26.267723
69.340 25.288929
69.345 24.93708
69.350 24.350445
69.355 23.803686
69.360 23.42115
69.365 23.659168
69.370 23.960127
69.375 24.178474
69.380 24.407263
69.385 25.42705
69.390 26.23267
69.395 26.880339
69.400 26.66659
69.405 26.558556
69.410 26.097561
69.415 24.743771
69.420 24.058025
69.425 23.384102
69.430 22.222168
69.435 22.2393
69.440 22.339859
69.445 22.611656
69.450 22.752859
69.455 23.258034
69.460 23.754145
69.465 23.937237
69.470 23.702536
69.475 23.334623
69.480 23.250916
69.485 22.772024
69.490 21.665241
69.495 21.911327
69.500 21.693312
69.505 21.750206
69.510 21.950916
69.515 21.78458
69.520 22.361589
69.525 22.477489
69.530 21.466013
69.535 21.613388
69.540 21.573555
69.545 21.82921
69.550 22.143318
69.555 22.17671
69.560 22.382833
69.565 22.837719
69.570 22.828611
69.575 22.119057
69.580 21.547609
69.585 21.305452
69.590 20.663458
69.595 20.284962
69.600 19.741369
69.605 19.457542
69.610 19.818304
69.615 20.04652
69.620 19.18075
69.625 19.092947
69.630 19.356606
69.635 19.972694
69.640 19.845221
69.645 19.84256
69.650 19.582767
69.655 19.755024
69.660 19.260059
69.665 18.367844
69.670 18.485136
69.675 19.027878
69.680 18.875126
69.685 19.251211
69.690 20.080809
69.695 20.770029
69.700 21.373741
69.705 20.765326
69.710 20.271912
69.715 19.88833
69.720 19.474155
69.725 19.176422
69.730 19.540907
69.735 19.858181
69.740 19.598104
69.745 19.914412
69.750 19.895525
69.755 20.576624
69.760 20.615015
69.765 20.202084
69.770 20.025007
69.775 19.787285
69.780 19.963881
69.785 19.8965
69.790 19.09631
69.795 18.744753
69.800 18.208981
69.805 18.353909
69.810 18.380606
69.815 18.609026
69.820 18.589291
69.825 18.398722
69.830 18.362078
69.835 18.810429
69.840 19.126759
69.845 19.015369
69.850 18.7103
69.855 19.019299
69.860 18.843775
69.865 18.982536
69.870 18.977453
69.875 18.258928
69.880 18.767271
69.885 18.775682
69.890 19.495634
69.895 20.293938
69.900 20.252686
69.905 19.643871
69.910 19.858932
69.915 19.356737
69.920 19.191961
69.925 18.224134
69.930 17.408806
69.935 17.719547
69.940 17.481663
69.945 16.621994
69.950 16.251888
69.955 16.899601
69.960 17.199242
69.965 17.517353
69.970 17.546431
69.975 18.046522
69.980 18.424934
69.985 18.404701
69.990 17.619398
69.995 17.370407
70.000 17.355835
70.005 17.027424
70.010 16.536612
70.015 16.754822
70.020 17.540632
70.025 18.225971
70.030 18.482803
70.035 18.042912
70.040 18.23296
70.045 18.854914
70.050 19.036758
70.055 18.140503
70.060 17.600739
70.065 17.254852
70.070 17.228214
70.075 17.550152
70.080 17.17543
70.085 16.762201
70.090 16.984852
70.095 17.409185
70.100 17.62571
70.105 17.870413
70.110 18.277737
70.115 18.202234
70.120 18.429144
70.125 18.501682
70.130 18.236864
70.135 17.785086
70.140 17.44338
70.145 17.321625
70.150 17.696373
70.155 17.502003
70.160 16.79084
70.165 17.350603
70.170 17.971321
70.175 17.349649
70.180 16.932594
70.185 17.245367
70.190 17.687931
70.195 17.857853
70.200 17.653553
70.205 18.15222
70.210 18.964987
70.215 19.460192
70.220 18.950239
70.225 18.702826
70.230 18.416311
70.235 18.146597
70.240 17.89567
70.245 17.366537
70.250 17.830235
70.255 17.687065
70.260 17.745848
70.265 17.884085
70.270 17.79357
70.275 17.624763
70.280 18.091732
70.285 17.263029
70.290 17.551559
70.295 18.340971
70.300 18.599739
70.305 18.649214
70.310 18.175741
70.315 18.236036
70.320 18.781166
70.325 19.082426
70.330 18.704176
70.335 18.70509
70.340 19.004545
70.345 18.886465
70.350 19.129885
70.355 18.809732
70.360 18.740595
70.365 18.870575
70.370 19.066019
70.375 18.72682
70.380 18.904949
70.385 18.505842
70.390 18.44261
70.395 18.174841
70.400 18.016769
70.405 17.72246
70.410 17.451973
70.415 17.539818
70.420 17.810797
70.425 18.430948
70.430 18.710402
70.435 18.58189
70.440 18.9498
70.445 19.013889
70.450 18.330013
70.455 17.833506
70.460 16.823202
70.465 16.570206
70.470 16.390432
70.475 16.491756
70.480 16.609274
70.485 16.909966
70.490 17.154022
70.495 17.452389
70.500 17.961563
70.505 18.964457
70.510 18.789957
70.515 18.982094
70.520 19.114542
70.525 19.294909
70.530 19.127035
70.535 18.126673
70.540 17.793669
70.545 18.176649
70.550 17.984303
70.555 17.883106
70.560 17.431473
70.565 17.659081
70.570 18.046869
70.575 17.636457
70.580 17.654598
70.585 17.725044
70.590 17.886517
70.595 17.717415
70.600 17.956041
70.605 17.578245
70.610 18.015642
70.615 17.924192
70.620 18.224115
70.625 18.546074
70.630 19.12521
70.635 19.103714
70.640 18.914961
70.645 18.547848
70.650 18.302299
70.655 17.7612
70.660 17.847834
70.665 17.172421
70.670 17.193201
70.675 17.173798
70.680 17.241302
70.685 17.910231
70.690 18.118515
70.695 17.977455
70.700 18.205292
70.705 18.486353
70.710 19.077051
70.715 19.249353
70.720 19.10083
70.725 18.68494
70.730 18.265697
70.735 18.375042
70.740 18.528362
70.745 18.135822
70.750 18.12723
70.755 17.98781
70.760 18.538416
70.765 18.190174
70.770 18.096415
70.775 17.459232
70.780 16.986889
70.785 16.740236
70.790 17.10821
70.795 16.914948
70.800 17.009291
70.805 17.02243
70.810 17.149437
70.815 17.234419
70.820 17.613453
70.825 17.417213
70.830 17.761696
70.835 17.998089
70.840 18.834723
70.845 19.186188
70.850 19.372808
70.855 19.297253
70.860 19.432129
70.865 19.686377
70.870 19.554697
70.875 18.54892
70.880 18.403013
70.885 18.284275
70.890 19.057154
70.895 19.184204
70.900 18.850464
70.905 18.623154
70.910 19.212826
70.915 19.350494
70.920 18.651161
70.925 18.134769
70.930 17.372545
70.935 17.330362
70.940 17.469046
70.945 17.285999
70.950 17.101368
70.955 16.971525
70.960 17.088175
70.965 17.411776
70.970 17.850101
70.975 18.334723
70.980 18.546608
70.985 18.597565
70.990 18.534519
70.995 18.559036
71.000 18.704905
71.005 18.482702
71.010 17.836723
71.015 17.416626
71.020 17.714733
71.025 17.371443
71.030 17.099205
71.035 17.710268
71.040 18.08107
71.045 18.954525
71.050 19.018068
71.055 18.89012
71.060 19.446289
71.065 19.513683
71.070 18.88381
71.075 18.013271
71.080 17.555939
71.085 18.121984
71.090 18.097204
71.095 17.774313
71.100 17.722715
71.105 17.835495
71.110 18.275305
71.115 18.284861
71.120 18.16502
71.125 18.081438
71.130 18.169855
71.135 18.888504
71.140 18.972569
71.145 18.861135
71.150 18.786638
71.155 18.619013
71.160 18.945486
71.165 18.833363
71.170 18.536465
71.175 18.366776
71.180 18.703716
71.185 18.833744
71.190 18.931259
71.195 19.460165
71.200 19.469046
71.205 19.303947
71.210 19.591372
71.215 19.308605
71.220 19.263712
71.225 19.023146
71.230 18.587185
71.235 18.464722
71.240 18.632084
71.245 18.69957
71.250 19.018656
71.255 19.329273
71.260 19.296274
71.265 19.134197
71.270 18.689985
71.275 18.000715
71.280 17.698923
71.285 17.363293
71.290 16.886902
71.295 16.169182
71.300 15.651159
71.305 16.000156
71.310 15.898369
71.315 15.7652
71.320 16.300861
71.325 16.865276
71.330 17.980013
71.335 18.311398
71.340 18.486376
71.345 18.796967
71.350 19.199951
71.355 19.112921
71.360 19.264841
71.365 18.600115
71.370 18.731092
71.375 19.269091
71.380 20.312477
71.385 19.868679
71.390 19.124168
71.395 19.227531
71.400 19.427439
71.405 18.278345
71.410 17.560005
71.415 17.143261
71.420 17.557161
71.425 18.007105
71.430 17.842463
71.435 18.336693
71.440 18.861609
71.445 18.233198
71.450 18.211258
71.455 17.937346
71.460 17.330194
71.465 17.072906
71.470 17.030092
71.475 16.836622
71.480 17.262556
71.485 16.910408
71.490 17.295799
71.495 17.791836
71.500 17.469727
71.505 17.229753
71.510 17.377928
71.515 17.688913
71.520 18.35121
71.525 18.281448
71.530 17.940693
71.535 18.035776
71.540 18.550932
71.545 18.293434
71.550 17.805969
71.555 17.301622
71.560 17.655149
71.565 18.267792
71.570 18.910017
71.575 19.000908
71.580 18.916372
71.585 19.157644
71.590 18.945662
71.595 18.587782
71.600 18.507908
71.605 17.966976
71.610 17.651295
71.615 17.790592
71.620 17.964443
71.625 18.430246
71.630 19.03746
71.635 19.073526
71.640 19.382687
71.645 19.263756
71.650 19.205206
71.655 18.746916
71.660 18.335159
71.665 17.883163
71.670 17.862326
71.675 17.74791
71.680 17.742317
71.685 17.357889
71.690 17.939419
71.695 17.581238
71.700 17.814678
71.705 17.43774
71.710 17.444565
71.715 17.667093
71.720 17.90933
71.725 17.996017
71.730 17.70579
71.735 17.176813
71.740 16.851225
71.745 17.170935
71.750 17.072262
71.755 16.536985
71.760 16.472403
71.765 16.988344
71.770 17.221619
71.775 17.968712
71.780 18.207613
71.785 17.959482
71.790 17.619665
71.795 17.385611
71.800 17.510424
71.805 17.156651
71.810 16.458939
71.815 16.183498
71.820 16.674065
71.825 16.979563
71.830 17.216805
71.835 16.984961
71.840 17.135826
71.845 17.215919
71.850 17.266115
71.855 17.389015
71.860 17.280945
71.865 17.124472
71.870 16.736298
71.875 17.912237
71.880 18.472797
71.885 18.200932
71.890 17.809208
71.895 17.802574
71.900 17.924265
71.905 18.554728
71.910 17.745564
71.915 17.391512
71.920 17.763329
71.925 18.265442
71.930 18.608025
71.935 18.859802
71.940 18.416918
71.945 17.72364
71.950 17.936451
71.955 17.899052
71.960 17.865347
71.965 17.651527
71.970 17.856783
71.975 17.815111
71.980 18.087217
71.985 18.185871
71.990 18.157095
71.995 17.401764
72.000 17.289677
72.005 17.115583
72.010 17.745914
72.015 17.74473
72.020 17.277887
72.025 17.413279
72.030 17.493801
72.035 17.402187
72.040 17.416822
72.045 17.451691
72.050 17.810801
72.055 18.252745
72.060 18.287937
72.065 18.338413
72.070 18.476433
72.075 18.044727
72.080 18.283829
72.085 18.28882
72.090 17.985498
72.095 18.085697
72.100 18.08963
72.105 17.764772
72.110 17.760258
72.115 17.353079
72.120 17.35041
72.125 17.509705
72.130 17.291212
72.135 17.183666
72.140 17.45945
72.145 17.564985
72.150 17.331461
72.155 17.390501
72.160 17.094225
72.165 17.914223
72.170 18.262955
72.175 18.136507
72.180 18.089634
72.185 18.163759
72.190 18.256937
72.195 18.02755
72.200 17.463085
72.205 17.827255
72.210 18.111044
72.215 18.095425
72.220 17.646925
72.225 18.179485
72.230 18.363216
72.235 18.251839
72.240 18.019156
72.245 17.869896
72.250 17.861855
72.255 17.834721
72.260 17.599537
72.265 17.518888
72.270 17.378378
72.275 17.715101
72.280 17.916618
72.285 18.320904
72.290 18.339083
72.295 18.263412
72.300 18.271057
72.305 18.153164
72.310 18.124454
72.315 18.432364
72.320 18.05595
72.325 18.041933
72.330 18.154005
72.335 18.295517
72.340 18.647274
72.345 18.285891
72.350 17.666254
72.355 18.010386
72.360 18.347193
72.365 18.532055
72.370 18.657818
72.375 18.092676
72.380 18.096319
72.385 17.87501
72.390 17.081728
72.395 16.065863
72.400 15.976653
72.405 16.098742
72.410 16.368977
72.415 16.479633
72.420 16.673195
72.425 17.082258
72.430 17.539694
72.435 17.384134
72.440 17.386713
72.445 17.431379
72.450 17.021881
72.455 17.147753
72.460 17.380589
72.465 17.331373
72.470 17.000877
72.475 17.083757
72.480 17.368212
72.485 17.834507
72.490 18.635313
72.495 18.604807
72.500 19.109699
72.505 19.156857
72.510 19.027269
72.515 19.225973
72.520 19.208336
72.525 19.020756
72.530 19.175817
72.535 18.879072
72.540 18.640738
72.545 18.43347
72.550 17.999134
72.555 17.454323
72.560 16.582361
72.565 16.21298
72.570 16.596554
72.575 16.955462
72.580 17.055914
72.585 16.671602
72.590 17.049545
72.595 17.61965
72.600 17.880079
72.605 17.185442
72.610 16.76228
72.615 16.757343
72.620 16.544441
72.625 16.262756
72.630 16.031202
72.635 15.50112
72.640 16.070732
72.645 16.106163
72.650 16.573645
72.655 17.074802
72.660 17.457912
72.665 17.997341
72.670 18.000645
72.675 17.830549
72.680 17.532091
72.685 17.292614
72.690 17.395433
72.695 17.768295
72.700 17.091005
72.705 17.004881
72.710 17.36788
72.715 17.947914
72.720 17.973898
72.725 17.761438
72.730 17.304411
72.735 17.50635
72.740 17.06093
72.745 16.844961
72.750 16.587114
72.755 16.165806
72.760 16.172815
72.765 16.512194
72.770 16.540997
72.775 16.846874
72.780 16.103853
72.785 16.078299
72.790 15.800639
72.795 14.930255
72.800 14.607412
72.805 14.600986
72.810 14.591765
72.815 14.48278
72.820 14.190126
72.825 14.534731
72.830 15.27458
72.835 15.21236
72.840 15.182578
72.845 15.949097
72.850 16.245768
72.855 16.345114
72.860 16.399664
72.865 15.773067
72.870 16.593153
72.875 16.622437
72.880 16.853264
72.885 16.951735
72.890 17.41979
72.895 17.56752
72.900 18.118038
72.905 17.966383
72.910 17.854179
72.915 17.656124
72.920 18.022758
72.925 17.950399
72.930 18.403799
72.935 18.455421
72.940 18.165161
72.945 18.173365
72.950 18.710865
72.955 19.302094
72.960 20.004145
72.965 19.621748
72.970 20.163385
72.975 19.831877
72.980 19.414225
72.985 18.800449
72.990 18.049635
72.995 16.735649
73.000 16.212643
