!@!!GADDS PLOTSO FILE: Chi integration type
!@!!Title/SampleName: map-a
!@!!Comment: ?
!@!!User: Bruker Instrument Administrator
!@!!Site: University of Illinois Chicago
!@!!Frame: map-a_01_000.gfrm
!@!!Wavelengths    1.54184   1.54056   1.54439
!@!!Frame angles: 2Theta: 63.000 Omega: 50.000 Phi: 0.000 Chi: 90.000
!@!!Integration range: 2Theta: 53.000 to 73.000  Gamma: -105.000 to -75.000
!@!!Integration method: bin normalized
!@!N
!@!SS
!@!M
!@!L 0.0 0.0 0.0 0.0
!@!XDegrees
!@!YCounts
53.000 7.225539
53.005 7.41846
53.010 7.245815
53.015 7.415705
53.020 7.043605
53.025 6.351017
53.030 5.732733
53.035 5.514811
53.040 5.702122
53.045 5.064624
53.050 4.902971
53.055 5.524522
53.060 6.09727
53.065 6.593406
53.070 6.833349
53.075 6.760451
53.080 6.830101
53.085 6.798332
53.090 6.481824
53.095 6.411451
53.100 6.103669
53.105 5.86404
53.110 6.310192
53.115 6.669165
53.120 6.884933
53.125 7.105806
53.130 7.099508
53.135 7.479098
53.140 7.850173
53.145 8.056612
53.150 8.243447
53.155 8.04637
53.160 7.561327
53.165 7.284081
53.170 6.649312
53.175 5.945763
53.180 5.635297
53.185 5.514604
53.190 5.714559
53.195 6.255623
53.200 6.599678
53.205 6.945266
53.210 7.419174
53.215 7.312354
53.220 7.473336
53.225 7.348054
53.230 7.236852
53.235 7.47695
53.240 7.41512
53.245 7.21606
53.250 7.04866
53.255 6.460433
53.260 6.15853
53.265 5.92025
53.270 5.973981
53.275 6.07519
53.280 6.261812
53.285 6.73269
53.290 7.512824
53.295 7.803975
53.300 7.576916
53.305 7.463592
53.310 7.416232
53.315 7.251132
53.320 7.402478
53.325 7.144731
53.330 7.03675
53.335 7.193014
53.340 7.386569
53.345 7.586939
53.350 7.351491
53.355 7.304539
53.360 7.325171
53.365 7.146271
53.370 7.092629
53.375 7.055352
53.380 7.356532
53.385 7.21838
53.390 6.809512
53.395 6.945951
53.400 7.128917
53.405 6.930758
53.410 6.721823
53.415 6.540781
53.420 6.785293
53.425 6.95565
53.430 7.007549
53.435 7.106831
53.440 7.019429
53.445 7.106373
53.450 7.27437
53.455 7.043873
53.460 6.834754
53.465 7.019011
53.470 6.916821
53.475 6.671972
53.480 6.304939
53.485 6.199087
53.490 6.579686
53.495 6.715673
53.500 6.442258
53.505 6.744829
53.510 7.093509
53.515 7.415876
53.520 7.645007
53.525 7.487859
53.530 7.45053
53.535 7.538909
53.540 7.59145
53.545 7.569894
53.550 7.256044
53.555 7.50883
53.560 7.498797
53.565 7.672991
53.570 7.596234
53.575 7.325552
53.580 7.555271
53.585 7.656596
53.590 7.60725
53.595 7.813641
53.600 7.958991
53.605 8.441586
53.610 8.284471
53.615 7.996428
53.620 7.498309
53.625 7.208415
53.630 7.128804
53.635 6.776002
53.640 6.308357
53.645 6.341812
53.650 6.479627
53.655 7.054617
53.660 7.036967
53.665 7.221266
53.670 7.309092
53.675 7.427692
53.680 7.518915
53.685 7.483353
53.690 7.238859
53.695 7.450362
53.700 7.391721
53.705 7.424412
53.710 7.550011
53.715 7.366276
53.720 7.368845
53.725 7.171331
53.730 6.732209
53.735 6.645504
53.740 6.460262
53.745 6.481283
53.750 6.745836
53.755 6.689627
53.760 7.21104
53.765 7.772745
53.770 7.738554
53.775 7.956811
53.780 8.257821
53.785 8.441522
53.790 8.420283
53.795 8.000196
53.800 7.59518
53.805 7.594162
53.810 7.619982
53.815 7.346959
53.820 7.174739
53.825 7.014689
53.830 7.12109
53.835 7.351134
53.840 7.463885
53.845 7.487648
53.850 7.711453
53.855 7.93927
53.860 8.00881
53.865 7.912772
53.870 7.820212
53.875 7.742615
53.880 7.712929
53.885 8.194951
53.890 8.464524
53.895 8.993319
53.900 9.226051
53.905 9.222358
53.910 8.955712
53.915 8.60869
53.920 7.892597
53.925 7.767334
53.930 7.598638
53.935 7.403329
53.940 7.547489
53.945 7.425655
53.950 7.581357
53.955 8.071255
53.960 7.512686
53.965 7.367096
53.970 7.761963
53.975 8.007232
53.980 8.283194
53.985 8.220145
53.990 7.694722
53.995 7.998803
54.000 8.089457
54.005 7.887761
54.010 7.90113
54.015 7.813694
54.020 7.843644
54.025 7.881958
54.030 7.550544
54.035 7.338384
54.040 6.817153
54.045 6.427936
54.050 6.282797
54.055 6.331743
54.060 6.327713
54.065 6.532938
54.070 6.611516
54.075 6.919137
54.080 7.579647
54.085 7.989655
54.090 8.380874
54.095 8.771301
54.100 8.903234
54.105 8.78113
54.110 8.711564
54.115 8.217749
54.120 7.89691
54.125 7.685161
54.130 7.839591
54.135 7.851241
54.140 8.169654
54.145 8.242354
54.150 8.375467
54.155 8.377796
54.160 8.506138
54.165 8.204363
54.170 8.243598
54.175 7.640368
54.180 7.140282
54.185 7.354101
54.190 7.272983
54.195 7.075763
54.200 7.33856
54.205 7.687048
54.210 8.606828
54.215 9.04458
54.220 8.906418
54.225 9.00811
54.230 8.808425
54.235 8.583119
54.240 8.391931
54.245 8.006439
54.250 7.724367
54.255 7.083283
54.260 7.300713
54.265 7.62096
54.270 7.720555
54.275 7.810532
54.280 7.970901
54.285 8.912411
54.290 9.400089
54.295 9.738318
54.300 9.857103
54.305 9.647933
54.310 9.540887
54.315 9.626064
54.320 9.706316
54.325 9.949226
54.330 10.017499
54.335 9.908352
54.340 10.085963
54.345 10.153144
54.350 9.562793
54.355 8.813624
54.360 8.012897
54.365 7.535618
54.370 7.258184
54.375 7.004445
54.380 7.187473
54.385 7.172823
54.390 7.071587
54.395 7.334908
54.400 7.686974
54.405 7.733047
54.410 7.975019
54.415 8.126864
54.420 8.401862
54.425 8.630931
54.430 8.742316
54.435 8.805106
54.440 8.967931
54.445 9.030194
54.450 8.749183
54.455 8.492176
54.460 8.201373
54.465 7.932327
54.470 7.768822
54.475 7.658648
54.480 7.478798
54.485 8.082127
54.490 8.302544
54.495 8.475097
54.500 8.4182
54.505 8.502513
54.510 8.586317
54.515 8.814623
54.520 8.601324
54.525 8.682731
54.530 8.826672
54.535 8.949937
54.540 9.043196
54.545 8.912309
54.550 8.401266
54.555 8.50398
54.560 8.844879
54.565 8.982022
54.570 8.912176
54.575 8.697284
54.580 8.568495
54.585 8.482252
54.590 7.880108
54.595 7.055959
54.600 6.55409
54.605 6.5978
54.610 6.637529
54.615 6.558333
54.620 7.297339
54.625 7.968843
54.630 8.77759
54.635 9.093478
54.640 9.108654
54.645 8.718537
54.650 8.811606
54.655 8.503793
54.660 8.436507
54.665 8.405988
54.670 8.626017
54.675 8.548982
54.680 9.004973
54.685 8.882912
54.690 8.719058
54.695 8.364424
54.700 7.970765
54.705 7.874545
54.710 8.174506
54.715 7.855883
54.720 7.757376
54.725 7.677336
54.730 8.197709
54.735 8.389627
54.740 8.481133
54.745 8.596963
54.750 8.817515
54.755 8.823668
54.760 8.850039
54.765 8.465565
54.770 8.41829
54.775 8.126175
54.780 7.69385
54.785 7.908421
54.790 8.241804
54.795 8.240585
54.800 8.419318
54.805 8.831418
54.810 8.872556
54.815 9.096541
54.820 9.294712
54.825 9.289094
54.830 9.182596
54.835 8.928866
54.840 9.020335
54.845 9.591922
54.850 9.786772
54.855 9.447096
54.860 9.245434
54.865 9.085908
54.870 8.823655
54.875 8.946573
54.880 9.021679
54.885 9.031364
54.890 9.438549
54.895 9.361821
54.900 9.59447
54.905 9.269876
54.910 9.084465
54.915 9.144704
54.920 8.97565
54.925 8.687291
54.930 8.620629
54.935 8.552962
54.940 9.054772
54.945 8.903708
54.950 9.285961
54.955 9.639978
54.960 9.899445
54.965 9.827435
54.970 9.639042
54.975 9.282026
54.980 8.892821
54.985 8.821976
54.990 8.79164
54.995 9.083845
55.000 9.012303
55.005 9.211325
55.010 9.103501
55.015 8.767668
55.020 8.068598
55.025 7.623528
55.030 7.717241
55.035 7.990324
55.040 7.989589
55.045 8.336902
55.050 8.82152
55.055 9.211431
55.060 9.142096
55.065 9.144976
55.070 8.960952
55.075 8.834815
55.080 9.197125
55.085 8.701012
55.090 8.386905
55.095 8.35837
55.100 8.435056
55.105 8.467355
55.110 8.666331
55.115 8.647256
55.120 8.955067
55.125 9.490068
55.130 9.571745
55.135 9.459743
55.140 9.372641
55.145 9.25383
55.150 9.096901
55.155 9.216484
55.160 8.912292
55.165 8.968806
55.170 9.193686
55.175 8.958109
55.180 8.656584
55.185 8.391393
55.190 8.702175
55.195 8.800736
55.200 8.693502
55.205 9.030972
55.210 9.788735
55.215 10.010565
55.220 9.785576
55.225 9.151683
55.230 9.010148
55.235 9.074004
55.240 8.714644
55.245 8.749535
55.250 8.606798
55.255 9.039992
55.260 9.339528
55.265 9.950471
55.270 9.986393
55.275 10.359819
55.280 10.912136
55.285 11.081697
55.290 10.570889
55.295 10.215734
55.300 9.70473
55.305 9.362806
55.310 8.560449
55.315 7.612356
55.320 7.491389
55.325 8.035696
55.330 8.42176
55.335 8.448832
55.340 8.470304
55.345 8.974402
55.350 9.612356
55.355 9.976123
55.360 9.920115
55.365 9.877371
55.370 9.923926
55.375 9.973061
55.380 9.646232
55.385 9.521382
55.390 9.629902
55.395 9.601431
55.400 9.700539
55.405 9.953747
55.410 10.063986
55.415 10.230173
55.420 9.89306
55.425 9.588645
55.430 9.548727
55.435 8.99442
55.440 8.875756
55.445 8.915367
55.450 8.744948
55.455 8.896827
55.460 8.920745
55.465 8.991917
55.470 9.304026
55.475 9.494678
55.480 9.604493
55.485 9.721832
55.490 9.785232
55.495 9.698771
55.500 9.610144
55.505 9.698314
55.510 9.342296
55.515 8.93205
55.520 8.645316
55.525 8.593645
55.530 8.766396
55.535 9.040998
55.540 9.034421
55.545 9.075727
55.550 9.430009
55.555 9.418144
55.560 9.705479
55.565 9.564474
55.570 9.219544
55.575 8.957209
55.580 9.000604
55.585 9.639701
55.590 9.793282
55.595 9.576974
55.600 9.80721
55.605 10.309699
55.610 10.375397
55.615 10.106653
55.620 9.636644
55.625 9.606131
55.630 9.767147
55.635 9.724307
55.640 9.463167
55.645 9.900456
55.650 9.63461
55.655 9.566724
55.660 9.161885
55.665 8.85487
55.670 9.093059
55.675 9.078069
55.680 8.884553
55.685 9.121552
55.690 9.608412
55.695 10.123286
55.700 9.933037
55.705 9.802238
55.710 10.305976
55.715 10.456458
55.720 10.405841
55.725 9.811009
55.730 9.601264
55.735 9.454723
55.740 9.479316
55.745 9.22508
55.750 8.794192
55.755 9.27588
55.760 9.66616
55.765 10.164549
55.770 10.739288
55.775 11.090219
55.780 11.334987
55.785 11.875798
55.790 11.429983
55.795 11.126628
55.800 11.095648
55.805 10.863496
55.810 10.63441
55.815 10.921405
55.820 10.842008
55.825 11.074038
55.830 10.895171
55.835 10.729838
55.840 10.081038
55.845 10.309761
55.850 10.25196
55.855 9.947621
55.860 9.926714
55.865 10.051598
55.870 10.023135
55.875 9.932987
55.880 9.263892
55.885 9.39316
55.890 10.088804
55.895 10.353311
55.900 10.563334
55.905 10.690928
55.910 11.363281
55.915 11.740508
55.920 11.865294
55.925 11.634801
55.930 11.42597
55.935 11.119583
55.940 10.817169
55.945 10.597589
55.950 10.567532
55.955 10.182629
55.960 10.24113
55.965 10.361768
55.970 10.535484
55.975 10.383406
55.980 10.250539
55.985 10.128878
55.990 10.040103
55.995 9.863413
56.000 10.073549
56.005 10.486513
56.010 10.664914
56.015 10.691886
56.020 10.853271
56.025 10.806076
56.030 10.582665
56.035 10.104894
56.040 9.561003
56.045 9.887032
56.050 9.931707
56.055 9.700889
56.060 10.056567
56.065 10.370755
56.070 10.721957
56.075 10.531051
56.080 10.295848
56.085 10.181342
56.090 9.961625
56.095 9.651974
56.100 9.488994
56.105 9.56609
56.110 9.710876
56.115 10.050562
56.120 10.577378
56.125 10.661916
56.130 10.537664
56.135 10.534613
56.140 10.393723
56.145 10.553563
56.150 10.141595
56.155 9.733191
56.160 9.478859
56.165 9.609812
56.170 9.579091
56.175 9.9966
56.180 9.749582
56.185 9.556937
56.190 9.912003
56.195 10.538573
56.200 10.754398
56.205 11.149422
56.210 11.214531
56.215 11.709953
56.220 11.776971
56.225 11.442789
56.230 11.097784
56.235 10.668371
56.240 10.246434
56.245 10.005549
56.250 10.030625
56.255 10.343782
56.260 10.687986
56.265 11.208873
56.270 11.458737
56.275 11.376544
56.280 11.225475
56.285 11.370028
56.290 11.03104
56.295 10.699563
56.300 10.405856
56.305 10.567925
56.310 10.8756
56.315 10.896453
56.320 10.18574
56.325 10.31192
56.330 10.759953
56.335 10.631449
56.340 10.305977
56.345 10.290806
56.350 10.417956
56.355 10.632849
56.360 10.288135
56.365 9.724479
56.370 9.920708
56.375 10.133393
56.380 10.059868
56.385 9.906841
56.390 9.704645
56.395 10.224609
56.400 10.741499
56.405 10.604529
56.410 10.917295
56.415 11.095827
56.420 11.272067
56.425 11.499415
56.430 11.36094
56.435 11.346162
56.440 11.213272
56.445 10.862913
56.450 10.419731
56.455 10.378942
56.460 10.898699
56.465 10.980349
56.470 10.6288
56.475 10.508606
56.480 10.651369
56.485 11.000354
56.490 11.243797
56.495 11.056315
56.500 10.8877
56.505 10.976862
56.510 11.241336
56.515 11.342321
56.520 11.386689
56.525 11.35222
56.530 11.290103
56.535 11.608139
56.540 11.321602
56.545 10.902677
56.550 10.672623
56.555 10.786331
56.560 10.812487
56.565 10.446617
56.570 10.330435
56.575 11.013638
56.580 11.582905
56.585 11.479415
56.590 11.026355
56.595 10.744024
56.600 10.889594
56.605 10.521823
56.610 10.148235
56.615 9.698791
56.620 9.957574
56.625 9.963417
56.630 10.501951
56.635 11.126443
56.640 11.622418
56.645 11.554507
56.650 11.70735
56.655 11.643323
56.660 11.781322
56.665 11.587459
56.670 11.250316
56.675 11.712365
56.680 12.023145
56.685 11.88266
56.690 11.70045
56.695 12.073808
56.700 12.07895
56.705 12.395935
56.710 12.236708
56.715 12.402459
56.720 12.672402
56.725 12.893365
56.730 13.025348
56.735 12.804968
56.740 12.125597
56.745 12.15101
56.750 12.230558
56.755 12.348982
56.760 12.149371
56.765 11.767282
56.770 11.981388
56.775 12.122846
56.780 11.553467
56.785 11.564797
56.790 11.959286
56.795 12.291775
56.800 12.067107
56.805 12.317273
56.810 11.919821
56.815 11.549972
56.820 11.089045
56.825 10.346916
56.830 10.510956
56.835 10.669363
56.840 10.883151
56.845 11.393247
56.850 12.105625
56.855 12.18231
56.860 12.249953
56.865 11.670167
56.870 11.808736
56.875 12.000156
56.880 12.235767
56.885 12.404236
56.890 13.168475
56.895 13.198752
56.900 13.764743
56.905 13.731434
56.910 13.169759
56.915 12.936235
56.920 12.790774
56.925 12.744544
56.930 12.963438
56.935 12.340684
56.940 12.206188
56.945 12.566805
56.950 12.891788
56.955 12.645361
56.960 12.623477
56.965 13.02991
56.970 13.225378
56.975 13.76866
56.980 13.540824
56.985 13.397818
56.990 13.640131
56.995 13.479246
57.000 13.738269
57.005 13.774316
57.010 13.219651
57.015 13.441634
57.020 13.259015
57.025 12.696855
57.030 12.149411
57.035 11.543516
57.040 11.285398
57.045 10.650499
57.050 10.304245
57.055 10.02751
57.060 9.700291
57.065 9.787089
57.070 9.878805
57.075 10.427763
57.080 11.251946
57.085 11.496934
57.090 11.733797
57.095 12.024882
57.100 11.859856
57.105 11.821227
57.110 11.314391
57.115 10.920089
57.120 10.917971
57.125 11.322184
57.130 11.960149
57.135 12.201764
57.140 12.220308
57.145 12.120042
57.150 12.516782
57.155 12.18233
57.160 11.697431
57.165 11.883685
57.170 12.185642
57.175 12.74783
57.180 12.467313
57.185 12.267962
57.190 12.386487
57.195 12.336757
57.200 12.032973
57.205 11.649708
57.210 11.653651
57.215 11.762871
57.220 11.805949
57.225 11.820104
57.230 12.011266
57.235 11.353271
57.240 11.108576
57.245 10.963139
57.250 10.98897
57.255 11.059158
57.260 10.92848
57.265 11.031118
57.270 11.573917
57.275 11.213346
57.280 10.904803
57.285 11.203608
57.290 11.192125
57.295 11.032719
57.300 10.709059
57.305 10.912176
57.310 11.323802
57.315 11.546417
57.320 11.792025
57.325 11.705848
57.330 12.441399
57.335 12.414824
57.340 12.020607
57.345 12.067892
57.350 11.572903
57.355 11.235769
57.360 11.120092
57.365 10.649176
57.370 11.01481
57.375 11.252454
57.380 11.11971
57.385 11.527934
57.390 11.6174
57.395 11.950213
57.400 12.149468
57.405 11.994162
57.410 11.897417
57.415 12.517368
57.420 13.241986
57.425 13.539439
57.430 13.946306
57.435 13.591153
57.440 13.872227
57.445 14.052018
57.450 13.507986
57.455 12.88933
57.460 12.510124
57.465 12.181589
57.470 12.134357
57.475 12.207353
57.480 12.266912
57.485 12.606044
57.490 12.681568
57.495 12.756954
57.500 12.853823
57.505 12.868921
57.510 13.061126
57.515 13.193622
57.520 13.324006
57.525 12.987383
57.530 13.082037
57.535 13.240226
57.540 13.432655
57.545 12.789334
57.550 12.326543
57.555 12.306307
57.560 12.481189
57.565 11.985947
57.570 11.779169
57.575 12.121942
57.580 12.759613
57.585 12.948239
57.590 12.297801
57.595 11.924979
57.600 12.770564
57.605 12.810642
57.610 12.156294
57.615 11.745385
57.620 11.877277
57.625 12.392171
57.630 12.542634
57.635 12.315766
57.640 12.115105
57.645 12.247078
57.650 11.897502
57.655 12.050392
57.660 12.095468
57.665 12.513402
57.670 12.030035
57.675 12.442592
57.680 12.357022
57.685 12.775123
57.690 12.728118
57.695 13.096076
57.700 12.660167
57.705 12.741795
57.710 12.364415
57.715 12.649012
57.720 12.25713
57.725 12.201634
57.730 11.956675
57.735 12.527254
57.740 12.403452
57.745 12.478082
57.750 12.711624
57.755 13.184389
57.760 13.288462
57.765 12.974056
57.770 12.718278
57.775 12.788889
57.780 12.601679
57.785 12.5278
57.790 12.175709
57.795 11.933647
57.800 11.811749
57.805 11.842631
57.810 12.259548
57.815 12.624202
57.820 12.683483
57.825 12.766265
57.830 12.700284
57.835 13.160268
57.840 13.348387
57.845 13.400498
57.850 13.525899
57.855 13.164678
57.860 12.929396
57.865 12.758786
57.870 12.291802
57.875 12.121265
57.880 11.757609
57.885 11.295128
57.890 11.255589
57.895 11.856566
57.900 12.536977
57.905 13.02223
57.910 13.001074
57.915 13.575352
57.920 13.800535
57.925 13.643713
57.930 13.318928
57.935 13.230024
57.940 13.391183
57.945 13.284925
57.950 13.406058
57.955 13.774775
57.960 13.555241
57.965 13.680134
57.970 13.430509
57.975 13.327921
57.980 13.032631
57.985 12.864949
57.990 12.67488
57.995 13.075096
58.000 13.342103
58.005 13.121337
58.010 13.278793
58.015 13.69289
58.020 13.639873
58.025 14.413169
58.030 14.943042
58.035 14.987333
58.040 15.258292
58.045 15.219308
58.050 15.156249
58.055 14.827877
58.060 14.12727
58.065 13.560036
58.070 13.16346
58.075 12.737573
58.080 12.503957
58.085 12.534072
58.090 12.43437
58.095 12.513896
58.100 12.787147
58.105 12.857194
58.110 13.125208
58.115 13.102862
58.120 12.949499
58.125 12.883434
58.130 12.784273
58.135 12.953453
58.140 13.550845
58.145 13.455165
58.150 13.306503
58.155 13.127832
58.160 12.96839
58.165 12.553195
58.170 12.307482
58.175 11.990955
58.180 12.232194
58.185 12.489049
58.190 13.30257
58.195 13.530982
58.200 13.615841
58.205 13.510162
58.210 13.349136
58.215 13.297506
58.220 13.574281
58.225 13.547457
58.230 13.725822
58.235 14.012612
58.240 14.550628
58.245 14.351872
58.250 13.755677
58.255 13.088605
58.260 13.013976
58.265 13.180912
58.270 12.779255
58.275 11.921046
58.280 11.939914
58.285 12.50535
58.290 12.557031
58.295 12.053608
58.300 12.026488
58.305 12.012634
58.310 12.180418
58.315 12.374975
58.320 12.402035
58.325 12.29049
58.330 12.815139
58.335 12.574854
58.340 12.491812
58.345 12.804093
58.350 12.595697
58.355 12.470569
58.360 12.762001
58.365 12.39468
58.370 12.692854
58.375 12.963947
58.380 13.108407
58.385 13.225285
58.390 13.231956
58.395 13.345635
58.400 13.41414
58.405 12.892326
58.410 13.053733
58.415 12.803524
58.420 12.777109
58.425 12.509269
58.430 12.094004
58.435 12.308113
58.440 13.132554
58.445 13.107084
58.450 13.435455
58.455 13.427974
58.460 14.343529
58.465 14.937143
58.470 14.831563
58.475 14.397312
58.480 14.311806
58.485 14.242704
58.490 14.827031
58.495 14.764303
58.500 15.232692
58.505 15.243814
58.510 14.949716
58.515 14.594837
58.520 14.24877
58.525 13.839498
58.530 14.104397
58.535 13.405159
58.540 13.475719
58.545 14.140245
58.550 14.599601
58.555 15.293504
58.560 15.833612
58.565 15.077306
58.570 15.741501
58.575 16.069284
58.580 15.996115
58.585 15.609897
58.590 14.626687
58.595 14.130943
58.600 14.373906
58.605 14.110927
58.610 14.240584
58.615 13.795753
58.620 13.61294
58.625 14.058861
58.630 13.827402
58.635 13.658707
58.640 13.870032
58.645 13.632154
58.650 13.466354
58.655 14.28368
58.660 15.101229
58.665 14.982967
58.670 15.000051
58.675 14.689883
58.680 14.815255
58.685 15.049659
58.690 14.320288
58.695 14.205743
58.700 14.490754
58.705 14.475003
58.710 14.900534
58.715 15.882648
58.720 16.500044
58.725 16.941263
58.730 16.896416
58.735 17.018599
58.740 17.140572
58.745 16.86161
58.750 16.586441
58.755 16.450731
58.760 15.953987
58.765 15.406171
58.770 15.447958
58.775 15.911438
58.780 16.101883
58.785 16.122606
58.790 16.26882
58.795 16.818174
58.800 17.425793
58.805 17.314379
58.810 16.860235
58.815 16.447905
58.820 15.603201
58.825 15.450265
58.830 15.520558
58.835 15.572837
58.840 15.743171
58.845 15.732893
58.850 15.600307
58.855 15.663713
58.860 15.468943
58.865 15.27695
58.870 15.621737
58.875 15.428473
58.880 15.542052
58.885 16.139069
58.890 16.584433
58.895 16.638992
58.900 16.377722
58.905 16.38143
58.910 16.539537
58.915 16.589668
58.920 16.582325
58.925 16.688166
58.930 17.133192
58.935 16.957418
58.940 15.941455
58.945 15.732615
58.950 15.258584
58.955 15.164312
58.960 15.403303
58.965 14.883642
58.970 14.932885
58.975 14.992496
58.980 14.962638
58.985 15.348162
58.990 15.17718
58.995 15.172728
59.000 15.453513
59.005 16.230253
59.010 16.876398
59.015 16.816629
59.020 17.155302
59.025 17.329958
59.030 17.470444
59.035 17.501047
59.040 16.877846
59.045 16.673531
59.050 17.032049
59.055 17.294039
59.060 17.438271
59.065 17.613007
59.070 17.42411
59.075 17.758705
59.080 17.466022
59.085 17.217285
59.090 16.586655
59.095 16.317053
59.100 15.964559
59.105 15.87604
59.110 15.686314
59.115 16.884985
59.120 16.796261
59.125 16.529995
59.130 16.414078
59.135 16.659945
59.140 16.949198
59.145 17.385254
59.150 16.94334
59.155 17.310598
59.160 17.503809
59.165 17.523743
59.170 17.225065
59.175 17.378738
59.180 17.335562
59.185 17.454029
59.190 17.287537
59.195 17.397894
59.200 16.914501
59.205 17.132484
59.210 17.193285
59.215 16.908154
59.220 16.397537
59.225 16.502567
59.230 16.504475
59.235 16.594812
59.240 16.787405
59.245 16.947519
59.250 17.039211
59.255 17.435535
59.260 17.626694
59.265 17.130743
59.270 16.859133
59.275 16.41898
59.280 15.984879
59.285 15.839657
59.290 15.88769
59.295 16.28602
59.300 16.868038
59.305 17.479874
59.310 17.707487
59.315 17.667429
59.320 17.843044
59.325 17.502655
59.330 16.814444
59.335 16.781286
59.340 16.324617
59.345 16.188822
59.350 16.354908
59.355 16.812363
59.360 17.5179
59.365 17.726892
59.370 18.026497
59.375 18.224411
59.380 18.471935
59.385 18.350698
59.390 17.623398
59.395 16.97843
59.400 17.341198
59.405 17.105875
59.410 17.612988
59.415 18.166306
59.420 18.366564
59.425 18.814289
59.430 19.074249
59.435 19.170263
59.440 19.058916
59.445 18.512365
59.450 18.142067
59.455 18.385122
59.460 18.289574
59.465 17.586073
59.470 17.281017
59.475 17.319155
59.480 17.29991
59.485 16.845455
59.490 16.890284
59.495 16.683838
59.500 16.846888
59.505 16.963463
59.510 17.503454
59.515 17.908915
59.520 18.127819
59.525 18.203432
59.530 18.364363
59.535 18.785543
59.540 18.87303
59.545 18.301857
59.550 18.856842
59.555 18.880293
59.560 18.260942
59.565 18.192595
59.570 18.360733
59.575 18.120945
59.580 18.359976
59.585 17.819429
59.590 17.626749
59.595 18.167322
59.600 18.681871
59.605 18.647879
59.610 19.064528
59.615 19.205765
59.620 19.257359
59.625 19.488867
59.630 19.316519
59.635 18.492083
59.640 18.265079
59.645 17.991768
59.650 17.762669
59.655 17.5811
59.660 17.289568
59.665 17.08474
59.670 16.944353
59.675 16.556494
59.680 16.641493
59.685 16.747375
59.690 16.914328
59.695 17.686852
59.700 18.832899
59.705 19.897633
59.710 20.108698
59.715 19.661343
59.720 19.794409
59.725 19.690453
59.730 19.69532
59.735 18.892353
59.740 18.705549
59.745 18.571653
59.750 19.051237
59.755 19.098587
59.760 19.49052
59.765 18.988419
59.770 18.334002
59.775 17.963123
59.780 18.079687
59.785 18.53591
59.790 18.544619
59.795 18.020422
59.800 17.710564
59.805 17.831861
59.810 18.192827
59.815 18.134146
59.820 17.382448
59.825 16.934359
59.830 16.748312
59.835 16.52272
59.840 16.627617
59.845 17.07983
59.850 17.058805
59.855 17.168585
59.860 17.530951
59.865 17.649097
59.870 18.570057
59.875 18.846287
59.880 18.185402
59.885 18.265968
59.890 19.046791
59.895 19.183508
59.900 19.572218
59.905 18.803505
59.910 18.484718
59.915 18.877346
59.920 18.844978
59.925 18.681522
59.930 18.316774
59.935 18.35376
59.940 18.735899
59.945 18.875765
59.950 19.054924
59.955 18.545528
59.960 18.406422
59.965 18.426313
59.970 17.809387
59.975 17.371246
59.980 16.576027
59.985 16.429935
59.990 16.992348
59.995 17.588289
60.000 17.796144
60.005 18.31835
60.010 19.226463
60.015 20.439125
60.020 20.682869
60.025 20.673466
60.030 19.908062
60.035 19.820747
60.040 19.488668
60.045 19.386074
60.050 19.136578
60.055 19.158596
60.060 18.726788
60.065 18.76795
60.070 18.99481
60.075 18.925325
60.080 18.859676
60.085 19.314051
60.090 19.497887
60.095 19.342356
60.100 19.099199
60.105 18.561785
60.110 18.879524
60.115 18.489328
60.120 18.207983
60.125 18.219995
60.130 18.551094
60.135 18.565636
60.140 18.847382
60.145 18.800776
60.150 17.913181
60.155 17.272306
60.160 17.206676
60.165 17.370945
60.170 17.726526
60.175 17.380463
60.180 16.980545
60.185 17.962456
60.190 18.575066
60.195 18.544977
60.200 18.117706
60.205 17.76993
60.210 18.338446
60.215 18.782785
60.220 18.221809
60.225 17.724497
60.230 17.870285
60.235 17.782539
60.240 17.959185
60.245 17.539494
60.250 17.997965
60.255 17.918671
60.260 17.900303
60.265 17.518099
60.270 17.223577
60.275 17.366789
60.280 17.32716
60.285 16.474213
60.290 16.799656
60.295 16.688122
60.300 16.671104
60.305 17.398691
60.310 17.118336
60.315 16.492023
60.320 17.301365
60.325 17.421917
60.330 17.809664
60.335 18.796913
60.340 18.377447
60.345 18.637941
60.350 18.811501
60.355 18.359613
60.360 18.176168
60.365 17.843794
60.370 16.88031
60.375 16.646566
60.380 16.396421
60.385 16.750504
60.390 16.265812
60.395 16.222225
60.400 16.355772
60.405 16.510616
60.410 16.546167
60.415 16.746017
60.420 16.458593
60.425 16.815323
60.430 17.161509
60.435 17.181341
60.440 16.740692
60.445 16.580801
60.450 16.583
60.455 17.038048
60.460 17.036274
60.465 16.733297
60.470 16.524061
60.475 16.853809
60.480 16.949848
60.485 17.448273
60.490 17.567038
60.495 17.631147
60.500 17.030754
60.505 17.172012
60.510 17.651861
60.515 17.797617
60.520 17.361471
60.525 16.821293
60.530 16.826147
60.535 17.496048
60.540 17.706511
60.545 17.674976
60.550 17.926022
60.555 18.134995
60.560 18.099438
60.565 17.609598
60.570 16.981979
60.575 16.402615
60.580 15.487288
60.585 15.249682
60.590 14.976619
60.595 14.982411
60.600 15.082655
60.605 15.373027
60.610 16.085135
60.615 16.71349
60.620 16.593477
60.625 16.571865
60.630 16.73909
60.635 16.691244
60.640 16.004625
60.645 15.527388
60.650 15.229015
60.655 15.413478
60.660 15.546057
60.665 15.445318
60.670 15.966335
60.675 16.57655
60.680 16.661274
60.685 16.538908
60.690 16.279463
60.695 16.001053
60.700 15.768592
60.705 15.341858
60.710 15.154556
60.715 15.091203
60.720 15.368295
60.725 15.752818
60.730 16.126934
60.735 16.487383
60.740 17.098104
60.745 16.88365
60.750 17.061583
60.755 16.875919
60.760 16.704073
60.765 16.810425
60.770 16.8759
60.775 17.002033
60.780 17.518915
60.785 17.484558
60.790 17.171539
60.795 17.359034
60.800 17.09403
60.805 16.590456
60.810 16.030506
60.815 15.897845
60.820 15.917669
60.825 16.643063
60.830 16.399986
60.835 16.673561
60.840 16.792877
60.845 16.641748
60.850 16.259748
60.855 16.620338
60.860 15.951523
60.865 15.837012
60.870 15.601214
60.875 15.992767
60.880 16.385237
60.885 16.17598
60.890 15.811662
60.895 15.964462
60.900 15.691949
60.905 15.597912
60.910 15.823087
60.915 15.633703
60.920 15.840743
60.925 15.927826
60.930 15.530825
60.935 15.566561
60.940 15.684257
60.945 15.051653
60.950 14.789351
60.955 14.713243
60.960 14.254007
60.965 14.233561
60.970 14.374336
60.975 13.979756
60.980 14.531756
60.985 14.720974
60.990 14.776919
60.995 14.671916
61.000 15.018273
61.005 14.973569
61.010 15.559932
61.015 15.688563
61.020 15.9418
61.025 15.897396
61.030 16.490393
61.035 16.282993
61.040 16.244215
61.045 15.716926
61.050 15.372611
61.055 15.514285
61.060 15.364493
61.065 15.341744
61.070 15.345294
61.075 15.063224
61.080 14.603835
61.085 14.470314
61.090 13.979354
61.095 14.283186
61.100 14.087276
61.105 13.926008
61.110 14.211388
61.115 14.439838
61.120 14.725596
61.125 14.674806
61.130 14.668186
61.135 15.2579
61.140 15.737929
61.145 15.167972
61.150 15.119731
61.155 14.918584
61.160 15.197839
61.165 15.72571
61.170 15.677137
61.175 15.750878
61.180 16.147678
61.185 15.813717
61.190 15.50018
61.195 15.748119
61.200 15.792385
61.205 15.48509
61.210 15.164935
61.215 15.413005
61.220 15.508612
61.225 16.097322
61.230 15.978811
61.235 15.626521
61.240 15.49649
61.245 15.658492
61.250 16.268311
61.255 16.309019
61.260 15.940434
61.265 15.439245
61.270 15.354458
61.275 15.796234
61.280 15.591367
61.285 15.177105
61.290 15.75077
61.295 15.64447
61.300 15.71362
61.305 16.200617
61.310 15.864088
61.315 15.662856
61.320 15.555212
61.325 15.460437
61.330 15.39139
61.335 15.287972
61.340 14.818491
61.345 14.368813
61.350 14.434163
61.355 14.824044
61.360 15.36567
61.365 15.566617
61.370 15.856283
61.375 16.646168
61.380 17.206947
61.385 17.519405
61.390 17.106274
61.395 16.464617
61.400 15.803173
61.405 15.464181
61.410 14.743389
61.415 14.891849
61.420 14.617125
61.425 14.769514
61.430 14.843072
61.435 15.382684
61.440 15.668776
61.445 15.532712
61.450 15.29424
61.455 15.570081
61.460 15.367918
61.465 15.508594
61.470 15.52914
61.475 15.45814
61.480 15.401264
61.485 15.149102
61.490 14.493712
61.495 14.414621
61.500 14.136136
61.505 14.0387
61.510 14.156235
61.515 14.957399
61.520 15.150385
61.525 15.454327
61.530 16.004219
61.535 16.573334
61.540 16.626694
61.545 16.584887
61.550 16.723631
61.555 17.621628
61.560 18.337769
61.565 18.821735
61.570 18.82163
61.575 19.01457
61.580 18.78087
61.585 18.023584
61.590 17.018717
61.595 16.078861
61.600 15.128224
61.605 14.802166
61.610 14.933681
61.615 14.601398
61.620 14.610187
61.625 14.604189
61.630 14.850444
61.635 14.689828
61.640 14.561426
61.645 14.119042
61.650 13.899086
61.655 13.940319
61.660 14.511741
61.665 14.872144
61.670 15.528687
61.675 15.36533
61.680 15.475918
61.685 16.249819
61.690 16.512831
61.695 16.401638
61.700 16.080708
61.705 15.779442
61.710 16.349804
61.715 16.12812
61.720 15.25136
61.725 14.987039
61.730 14.893047
61.735 15.039978
61.740 15.115622
61.745 15.329367
61.750 15.786094
61.755 16.197475
61.760 16.613024
61.765 16.137581
61.770 15.61512
61.775 15.472266
61.780 14.852343
61.785 14.481441
61.790 14.149326
61.795 14.062483
61.800 14.350228
61.805 14.882757
61.810 15.225215
61.815 15.822898
61.820 16.457796
61.825 17.076267
61.830 17.101021
61.835 17.202971
61.840 16.914011
61.845 16.596823
61.850 16.252468
61.855 15.853264
61.860 16.058334
61.865 16.236719
61.870 16.355131
61.875 16.868656
61.880 16.997862
61.885 17.242273
61.890 17.649246
61.895 17.13307
61.900 16.927267
61.905 16.757294
61.910 16.120314
61.915 15.794687
61.920 15.354949
61.925 15.231844
61.930 15.458387
61.935 15.13868
61.940 15.343626
61.945 15.49668
61.950 15.626365
61.955 15.538906
61.960 14.960904
61.965 15.596463
61.970 16.012693
61.975 16.161587
61.980 15.914108
61.985 16.098415
61.990 16.168079
61.995 16.175627
62.000 15.725969
62.005 15.728425
62.010 16.195887
62.015 16.124325
62.020 15.696212
62.025 15.918247
62.030 16.201056
62.035 16.202564
62.040 15.773239
62.045 15.271814
62.050 15.984039
62.055 16.497688
62.060 16.420261
62.065 16.695114
62.070 16.700184
62.075 17.065493
62.080 17.438869
62.085 17.616379
62.090 17.046623
62.095 16.649706
62.100 15.576527
62.105 15.440506
62.110 15.171273
62.115 14.524263
62.120 14.343091
62.125 15.112744
62.130 15.625251
62.135 16.867331
62.140 16.908192
62.145 16.846212
62.150 17.039801
62.155 16.622822
62.160 15.928169
62.165 15.554703
62.170 14.711348
62.175 14.405394
62.180 15.04318
62.185 15.286926
62.190 15.736915
62.195 16.144911
62.200 16.407742
62.205 16.003683
62.210 15.885233
62.215 15.788416
62.220 15.923392
62.225 15.753573
62.230 15.509922
62.235 15.672886
62.240 16.618389
62.245 17.070585
62.250 16.404289
62.255 15.364623
62.260 16.038473
62.265 16.374369
62.270 15.34775
62.275 14.805467
62.280 14.774348
62.285 14.949015
62.290 15.570847
62.295 15.127647
62.300 15.034101
62.305 15.349039
62.310 15.124093
62.315 14.504867
62.320 14.579577
62.325 14.34409
62.330 14.479788
62.335 14.402505
62.340 14.973586
62.345 14.998656
62.350 15.21114
62.355 15.235794
62.360 15.636347
62.365 15.296309
62.370 15.37366
62.375 14.861458
62.380 14.84563
62.385 15.051912
62.390 15.220772
62.395 15.102467
62.400 15.194908
62.405 15.634951
62.410 16.157829
62.415 16.965361
62.420 16.240488
62.425 15.813483
62.430 15.830364
62.435 15.532555
62.440 15.128546
62.445 14.860765
62.450 15.028033
62.455 15.664891
62.460 16.092342
62.465 16.171658
62.470 16.226301
62.475 16.435633
62.480 16.068899
62.485 15.664263
62.490 15.949831
62.495 16.17749
62.500 15.682
62.505 15.844608
62.510 15.878745
62.515 16.237564
62.520 16.465807
62.525 15.800535
62.530 15.229521
62.535 15.085207
62.540 15.100883
62.545 15.342572
62.550 15.313952
62.555 15.302579
62.560 15.495028
62.565 15.601426
62.570 15.640059
62.575 15.426935
62.580 15.080339
62.585 14.936299
62.590 14.583237
62.595 14.804408
62.600 14.889325
62.605 14.836571
62.610 14.832074
62.615 14.800445
62.620 14.333075
62.625 14.576207
62.630 14.454093
62.635 14.711115
62.640 15.09686
62.645 15.169854
62.650 15.346958
62.655 15.417829
62.660 15.241117
62.665 15.270411
62.670 15.23319
62.675 15.285463
62.680 15.343204
62.685 15.628919
62.690 16.414536
62.695 16.716654
62.700 16.596134
62.705 16.425116
62.710 16.528549
62.715 16.789532
62.720 17.211231
62.725 17.593386
62.730 17.587366
62.735 17.691196
62.740 17.838341
62.745 18.125582
62.750 18.061155
62.755 17.947165
62.760 17.93405
62.765 18.296083
62.770 18.28545
62.775 18.132771
62.780 17.552229
62.785 16.9002
62.790 16.357368
62.795 15.475922
62.800 15.193601
62.805 14.850768
62.810 14.903036
62.815 14.809779
62.820 14.79658
62.825 14.588743
62.830 14.777083
62.835 14.165956
62.840 13.916458
62.845 13.774595
62.850 14.122518
62.855 14.254375
62.860 14.460073
62.865 14.309485
62.870 15.048141
62.875 15.804793
62.880 15.780948
62.885 15.724985
62.890 15.846245
62.895 15.752975
62.900 15.869124
62.905 15.844575
62.910 15.646619
62.915 15.637371
62.920 15.658455
62.925 15.572664
62.930 15.540997
62.935 15.133006
62.940 14.584677
62.945 14.320033
62.950 14.196164
62.955 14.382108
62.960 14.865724
62.965 15.255061
62.970 15.912404
62.975 16.734386
62.980 17.362362
62.985 17.719421
62.990 17.267433
62.995 16.902422
63.000 16.91654
63.005 16.377733
63.010 16.014452
63.015 16.217009
63.020 16.075565
63.025 16.217077
63.030 16.552086
63.035 16.823826
63.040 17.527231
63.045 17.853884
63.050 17.464273
63.055 17.488737
63.060 17.444035
63.065 17.05464
63.070 16.621572
63.075 16.173504
63.080 15.392961
63.085 15.032873
63.090 14.808066
63.095 14.737614
63.100 14.849959
63.105 14.812169
63.110 14.407259
63.115 14.332938
63.120 14.536376
63.125 15.269369
63.130 15.411633
63.135 15.210162
63.140 15.464504
63.145 15.677906
63.150 15.987699
63.155 16.099895
63.160 15.434151
63.165 15.364506
63.170 15.722046
63.175 15.485648
63.180 15.622652
63.185 15.485811
63.190 14.984497
63.195 14.722799
63.200 15.236835
63.205 15.32694
63.210 15.199464
63.215 15.537447
63.220 16.137434
63.225 16.407974
63.230 16.395725
63.235 15.466675
63.240 14.633666
63.245 14.98523
63.250 14.847115
63.255 15.165546
63.260 15.571888
63.265 16.096302
63.270 17.035082
63.275 17.951084
63.280 17.985985
63.285 17.574457
63.290 17.14661
63.295 16.765095
63.300 17.126888
63.305 16.989052
63.310 16.994717
63.315 16.820236
63.320 17.297924
63.325 17.688055
63.330 18.123133
63.335 17.876925
63.340 17.387167
63.345 17.236374
63.350 17.143295
63.355 16.665997
63.360 15.919306
63.365 15.618047
63.370 15.769214
63.375 16.450365
63.380 16.43119
63.385 15.877964
63.390 16.180447
63.395 16.207403
63.400 16.150686
63.405 15.656906
63.410 14.965654
63.415 15.22101
63.420 16.142094
63.425 16.225857
63.430 17.445526
63.435 17.787497
63.440 18.106419
63.445 18.210119
63.450 17.91938
63.455 17.97941
63.460 17.660076
63.465 17.08391
63.470 16.398193
63.475 16.069826
63.480 16.522995
63.485 16.524982
63.490 16.471174
63.495 16.74312
63.500 16.641968
63.505 16.691605
63.510 16.864479
63.515 16.61471
63.520 16.525715
63.525 16.331398
63.530 15.837888
63.535 16.208479
63.540 16.566156
63.545 16.319586
63.550 16.430531
63.555 16.396864
63.560 16.533253
63.565 17.332233
63.570 17.208458
63.575 16.535675
63.580 16.46472
63.585 16.146191
63.590 16.51016
63.595 15.910326
63.600 15.245456
63.605 15.423771
63.610 16.111254
63.615 16.724527
63.620 16.641535
63.625 16.275541
63.630 16.860809
63.635 16.975327
63.640 16.734268
63.645 16.493008
63.650 15.929663
63.655 15.89826
63.660 16.368603
63.665 16.850952
63.670 17.16116
63.675 17.529409
63.680 17.950941
63.685 17.940557
63.690 18.559265
63.695 18.323576
63.700 17.611553
63.705 16.935656
63.710 16.452847
63.715 16.34981
63.720 16.848927
63.725 16.487425
63.730 16.665499
63.735 17.076347
63.740 17.853144
63.745 18.169584
63.750 18.334242
63.755 17.870016
63.760 16.968628
63.765 16.41922
63.770 16.311543
63.775 16.160372
63.780 15.953756
63.785 15.36748
63.790 15.612002
63.795 16.482456
63.800 16.387367
63.805 15.99324
63.810 15.481518
63.815 15.89835
63.820 16.004192
63.825 16.048948
63.830 16.269218
63.835 16.374537
63.840 16.000587
63.845 15.549366
63.850 15.35824
63.855 15.664724
63.860 15.519009
63.865 15.354061
63.870 15.459215
63.875 16.005075
63.880 16.12915
63.885 15.998501
63.890 15.894817
63.895 15.669775
63.900 15.535661
63.905 15.498588
63.910 15.184347
63.915 15.709203
63.920 15.501313
63.925 15.296802
63.930 15.668389
63.935 16.170736
63.940 16.19392
63.945 16.506918
63.950 16.386017
63.955 17.158998
63.960 17.39122
63.965 17.484863
63.970 17.31646
63.975 17.887873
63.980 17.672249
63.985 17.506113
63.990 16.926369
63.995 17.083366
64.000 17.518583
64.005 17.925312
64.010 17.472229
64.015 17.978304
64.020 18.344275
64.025 18.326654
64.030 17.975155
64.035 17.871292
64.040 17.775089
64.045 18.113388
64.050 18.054701
64.055 17.87203
64.060 18.455091
64.065 18.625088
64.070 18.240761
64.075 18.27614
64.080 18.725063
64.085 18.56262
64.090 18.358685
64.095 17.781912
64.100 17.589661
64.105 17.506731
64.110 17.07707
64.115 16.758085
64.120 16.576479
64.125 16.74963
64.130 17.426117
64.135 17.720942
64.140 17.590214
64.145 17.702394
64.150 17.53965
64.155 17.705063
64.160 17.813601
64.165 17.852598
64.170 17.990128
64.175 18.035295
64.180 17.72942
64.185 17.979836
64.190 18.133585
64.195 17.9779
64.200 17.777834
64.205 18.364416
64.210 19.345686
64.215 19.847015
64.220 19.653473
64.225 19.575993
64.230 19.68294
64.235 19.414383
64.240 19.382772
64.245 19.170216
64.250 18.550344
64.255 18.862247
64.260 18.641125
64.265 18.3396
64.270 18.359617
64.275 17.786968
64.280 17.527725
64.285 18.160645
64.290 18.478426
64.295 19.381613
64.300 20.178612
64.305 20.54398
64.310 20.892874
64.315 20.661182
64.320 20.155218
64.325 20.080204
64.330 19.735582
64.335 19.595036
64.340 18.873039
64.345 18.229975
64.350 18.588682
64.355 19.389002
64.360 19.494156
64.365 19.256348
64.370 18.975719
64.375 19.484854
64.380 20.427418
64.385 20.631807
64.390 20.037638
64.395 19.199667
64.400 19.410948
64.405 19.826208
64.410 19.598106
64.415 19.264383
64.420 19.028484
64.425 19.197144
64.430 19.812916
64.435 20.121264
64.440 20.066805
64.445 20.380978
64.450 20.721178
64.455 21.150486
64.460 21.394917
64.465 20.788599
64.470 19.805122
64.475 19.006397
64.480 18.875435
64.485 18.530466
64.490 18.36882
64.495 18.660561
64.500 19.480837
64.505 19.973661
64.510 20.381069
64.515 20.50429
64.520 20.355959
64.525 20.225031
64.530 19.540794
64.535 19.036749
64.540 19.399553
64.545 19.763514
64.550 19.966225
64.555 19.877159
64.560 19.78351
64.565 20.196293
64.570 21.117226
64.575 20.744192
64.580 20.491377
64.585 20.363403
64.590 20.39451
64.595 20.531324
64.600 20.078726
64.605 19.390446
64.610 19.601898
64.615 19.072163
64.620 19.258846
64.625 19.196999
64.630 18.7946
64.635 19.004141
64.640 18.959711
64.645 18.931715
64.650 19.319847
64.655 19.304998
64.660 19.426296
64.665 19.264482
64.670 19.366842
64.675 19.401402
64.680 19.261
64.685 19.138918
64.690 18.538176
64.695 18.094296
64.700 18.479029
64.705 18.200531
64.710 18.301273
64.715 19.021809
64.720 19.356966
64.725 20.297638
64.730 20.723322
64.735 20.433264
64.740 20.53302
64.745 20.089855
64.750 19.906469
64.755 19.494125
64.760 18.867163
64.765 19.308681
64.770 20.277802
64.775 21.197815
64.780 21.696157
64.785 22.063366
64.790 22.335258
64.795 23.062757
64.800 22.969643
64.805 22.747871
64.810 22.418341
64.815 23.117933
64.820 23.443983
64.825 23.88858
64.830 23.861746
64.835 24.192129
64.840 24.163845
64.845 23.439333
64.850 22.378492
64.855 21.738684
64.860 21.433048
64.865 21.076303
64.870 20.685152
64.875 20.650551
64.880 21.143463
64.885 21.576412
64.890 21.86167
64.895 21.514242
64.900 21.670534
64.905 21.591654
64.910 21.474483
64.915 21.43025
64.920 20.804386
64.925 20.21138
64.930 20.597736
64.935 20.896309
64.940 21.022072
64.945 21.084587
64.950 20.945415
64.955 20.930887
64.960 21.357449
64.965 21.429443
64.970 21.619947
64.975 22.130362
64.980 22.144051
64.985 22.458183
64.990 22.530333
64.995 22.404911
65.000 22.376738
65.005 22.198957
65.010 22.316162
65.015 22.749651
65.020 23.332043
65.025 23.897514
65.030 24.436031
65.035 24.790316
65.040 24.370222
65.045 24.092859
65.050 23.657173
65.055 23.336384
65.060 23.418753
65.065 22.621939
65.070 22.493116
65.075 23.473364
65.080 23.680473
65.085 23.535324
65.090 23.389246
65.095 23.082836
65.100 23.373474
65.105 23.19293
65.110 22.530399
65.115 22.482151
65.120 22.467171
65.125 22.0676
65.130 21.875811
65.135 22.090807
65.140 21.977537
65.145 21.592506
65.150 21.630949
65.155 21.649218
65.160 22.177912
65.165 22.629515
65.170 22.656885
65.175 22.697493
65.180 22.713737
65.185 23.20578
65.190 23.707319
65.195 23.826717
65.200 23.967781
65.205 23.784477
65.210 23.671741
65.215 23.996355
65.220 23.647354
65.225 23.051579
65.230 23.39374
65.235 23.026176
65.240 23.386261
65.245 23.553947
65.250 23.293243
65.255 23.831717
65.260 24.504705
65.265 25.027678
65.270 25.083952
65.275 25.083714
65.280 24.480698
65.285 24.564981
65.290 24.457384
65.295 24.253759
65.300 23.267179
65.305 23.431421
65.310 23.821543
65.315 24.477343
65.320 24.558105
65.325 24.446466
65.330 24.377293
65.335 24.466022
65.340 24.159895
65.345 23.670002
65.350 23.475767
65.355 23.415649
65.360 23.098879
65.365 22.629044
65.370 22.068165
65.375 22.147324
65.380 22.042131
65.385 22.141518
65.390 21.992096
65.395 22.062883
65.400 22.514688
65.405 23.193975
65.410 23.315523
65.415 23.770319
65.420 23.856823
65.425 24.381733
65.430 24.562687
65.435 25.16268
65.440 26.20503
65.445 26.262363
65.450 26.338751
65.455 26.171881
65.460 26.085979
65.465 26.099344
65.470 25.013952
65.475 24.417152
65.480 24.945362
65.485 24.882122
65.490 24.9146
65.495 25.218931
65.500 25.61488
65.505 26.536676
65.510 26.774097
65.515 26.497972
65.520 26.403837
65.525 26.497944
65.530 26.130932
65.535 25.866474
65.540 26.069887
65.545 25.495564
65.550 25.326286
65.555 25.691048
65.560 25.671598
65.565 25.788837
65.570 25.782824
65.575 25.401957
65.580 25.433947
65.585 25.762653
65.590 26.026892
65.595 25.900536
65.600 26.132221
65.605 26.672987
65.610 26.968885
65.615 27.33794
65.620 27.497044
65.625 27.277811
65.630 27.420143
65.635 27.889448
65.640 28.126371
65.645 28.798733
65.650 28.849527
65.655 28.676502
65.660 28.402538
65.665 28.396961
65.670 27.890938
65.675 26.78405
65.680 26.065825
65.685 25.995548
65.690 26.5294
65.695 27.502254
65.700 27.525995
65.705 27.48859
65.710 28.421087
65.715 28.861549
65.720 29.092424
65.725 28.848501
65.730 28.651167
65.735 29.021942
65.740 29.563156
65.745 29.589552
65.750 30.674292
65.755 30.77854
65.760 30.896738
65.765 31.370649
65.770 31.587488
65.775 31.727627
65.780 32.341721
65.785 31.955626
65.790 32.446434
65.795 32.298027
65.800 31.985472
65.805 32.613201
65.810 32.928974
65.815 32.524105
65.820 32.972485
65.825 32.554077
65.830 33.13842
65.835 32.867397
65.840 32.20829
65.845 31.505636
65.850 30.631235
65.855 30.72665
65.860 31.380116
65.865 30.832973
65.870 31.080584
65.875 31.332891
65.880 31.263275
65.885 31.850361
65.890 32.186794
65.895 32.930706
65.900 34.07621
65.905 34.298447
65.910 34.180466
65.915 34.997311
65.920 35.622158
65.925 35.362724
65.930 34.938793
65.935 35.437252
65.940 35.715096
65.945 36.176029
65.950 36.785843
65.955 36.893875
65.960 36.809376
65.965 36.528526
65.970 35.987335
65.975 35.691372
65.980 34.986298
65.985 34.561054
65.990 34.268169
65.995 34.103077
66.000 34.707531
66.005 35.082214
66.010 36.029266
66.015 36.431232
66.020 36.967144
66.025 37.48032
66.030 38.364464
66.035 38.023788
66.040 37.588329
66.045 36.903492
66.050 36.570236
66.055 35.79702
66.060 35.412804
66.065 35.44952
66.070 36.343739
66.075 36.115891
66.080 36.052135
66.085 35.711468
66.090 35.745129
66.095 36.071106
66.100 35.49398
66.105 34.620979
66.110 35.889034
66.115 36.86174
66.120 37.705963
66.125 38.079544
66.130 38.261646
66.135 38.224449
66.140 38.127987
66.145 37.788059
66.150 38.300617
66.155 38.243248
66.160 37.805637
66.165 37.774952
66.170 37.940697
66.175 38.192562
66.180 38.050137
66.185 37.633858
66.190 37.543854
66.195 37.746098
66.200 37.529247
66.205 37.996098
66.210 37.984261
66.215 36.958492
66.220 36.047691
66.225 36.206657
66.230 36.075546
66.235 36.333138
66.240 36.004139
66.245 36.071934
66.250 36.618954
66.255 37.444206
66.260 37.500565
66.265 37.435776
66.270 36.552696
66.275 36.361511
66.280 35.978489
66.285 35.252155
66.290 34.958401
66.295 34.694897
66.300 35.275791
66.305 36.156921
66.310 36.402542
66.315 37.114716
66.320 37.717766
66.325 37.553158
66.330 37.559395
66.335 36.737541
66.340 35.835869
66.345 35.839767
66.350 34.810707
66.355 34.02623
66.360 33.700531
66.365 33.52964
66.370 33.109409
66.375 33.095562
66.380 31.983156
66.385 31.786531
66.390 31.739016
66.395 31.794067
66.400 31.40593
66.405 31.759275
66.410 30.926832
66.415 31.217506
66.420 31.63616
66.425 31.375874
66.430 31.003975
66.435 30.620281
66.440 30.296347
66.445 30.765512
66.450 30.997559
66.455 30.894178
66.460 31.300812
66.465 31.64904
66.470 31.866083
66.475 31.371952
66.480 31.181772
66.485 30.62956
66.490 30.040533
66.495 29.297087
66.500 28.530209
66.505 28.334709
66.510 28.286297
66.515 27.764811
66.520 26.954489
66.525 26.695885
66.530 26.334578
66.535 26.266596
66.540 26.225565
66.545 25.474443
66.550 24.434183
66.555 24.454273
66.560 24.824877
66.565 24.786615
66.570 24.524023
66.575 24.865486
66.580 25.69688
66.585 26.648037
66.590 26.976957
66.595 27.496372
66.600 27.241455
66.605 27.056696
66.610 26.521673
66.615 26.32238
66.620 25.676723
66.625 25.205694
66.630 24.642782
66.635 25.011322
66.640 24.711987
66.645 23.984478
66.650 23.67066
66.655 23.797586
66.660 23.295303
66.665 22.896135
66.670 22.906837
66.675 22.606592
66.680 23.267897
66.685 22.982285
66.690 22.983194
66.695 22.999514
66.700 22.750814
66.705 22.486942
66.710 22.145882
66.715 21.585154
66.720 21.497162
66.725 21.279562
66.730 21.232763
66.735 21.514841
66.740 21.251299
66.745 21.442614
66.750 21.408173
66.755 20.705441
66.760 20.503
66.765 20.331509
66.770 19.720995
66.775 19.690668
66.780 20.42482
66.785 20.14089
66.790 19.865175
66.795 19.250401
66.800 19.194805
66.805 19.970049
66.810 20.183556
66.815 19.996098
66.820 20.347843
66.825 20.729784
66.830 21.864677
66.835 21.540258
66.840 21.110395
66.845 20.956465
66.850 20.701792
66.855 21.097363
66.860 20.99872
66.865 20.516201
66.870 21.173185
66.875 21.023085
66.880 20.418243
66.885 20.485302
66.890 20.244358
66.895 19.762505
66.900 20.251238
66.905 20.144007
66.910 20.734694
66.915 21.357031
66.920 21.182117
66.925 21.563692
66.930 22.417818
66.935 22.255138
66.940 22.160294
66.945 22.073061
66.950 22.443724
66.955 23.010269
66.960 22.870134
66.965 22.09659
66.970 22.049259
66.975 21.644032
66.980 21.237415
66.985 20.978374
66.990 20.637156
66.995 20.809132
67.000 20.914293
67.005 20.714226
67.010 20.68601
67.015 20.928137
67.020 20.362198
67.025 20.14613
67.030 19.751604
67.035 20.367598
67.040 20.420282
67.045 20.641693
67.050 20.354769
67.055 20.86344
67.060 21.062202
67.065 21.588509
67.070 20.758478
67.075 20.440487
67.080 20.483896
67.085 20.333061
67.090 20.221796
67.095 20.211821
67.100 19.975054
67.105 20.052305
67.110 19.91466
67.115 20.186815
67.120 20.76063
67.125 21.169291
67.130 21.387226
67.135 21.176737
67.140 21.213827
67.145 21.846268
67.150 22.019569
67.155 21.820076
67.160 21.083429
67.165 20.903687
67.170 21.157234
67.175 21.488813
67.180 21.278929
67.185 20.712416
67.190 21.304132
67.195 21.814163
67.200 21.927711
67.205 21.216799
67.210 20.771175
67.215 20.712393
67.220 20.607029
67.225 19.743408
67.230 19.364365
67.235 19.377382
67.240 19.477983
67.245 19.56822
67.250 19.655643
67.255 19.626514
67.260 19.596645
67.265 19.465075
67.270 19.310051
67.275 19.337732
67.280 18.949755
67.285 18.848536
67.290 18.892912
67.295 19.038795
67.300 19.135607
67.305 19.443037
67.310 19.397152
67.315 19.271004
67.320 19.12158
67.325 19.201767
67.330 19.526649
67.335 19.603174
67.340 19.367369
67.345 19.881454
67.350 20.519722
67.355 20.489658
67.360 20.107367
67.365 19.640619
67.370 19.69319
67.375 19.651176
67.380 19.089653
67.385 18.505581
67.390 19.003532
67.395 19.479351
67.400 19.645332
67.405 19.548862
67.410 19.616192
67.415 19.509016
67.420 19.501169
67.425 19.385923
67.430 19.337105
67.435 19.383419
67.440 19.538445
67.445 20.175903
67.450 21.095865
67.455 21.201437
67.460 20.860281
67.465 20.762325
67.470 20.212383
67.475 19.828972
67.480 19.325886
67.485 19.263794
67.490 19.034019
67.495 18.846519
67.500 19.512499
67.505 19.721321
67.510 20.305645
67.515 20.271183
67.520 20.055136
67.525 20.150967
67.530 19.982889
67.535 19.857735
67.540 19.999313
67.545 19.483084
67.550 19.808573
67.555 20.056721
67.560 20.522036
67.565 20.360645
67.570 20.036566
67.575 19.969118
67.580 20.002466
67.585 19.622561
67.590 19.288937
67.595 18.987755
67.600 19.145433
67.605 19.229195
67.610 19.291479
67.615 20.243683
67.620 20.596872
67.625 20.251223
67.630 20.300579
67.635 20.223289
67.640 20.175709
67.645 20.365524
67.650 19.870039
67.655 19.995411
67.660 20.513453
67.665 20.154791
67.670 20.226074
67.675 20.392561
67.680 19.970695
67.685 19.579185
67.690 18.991632
67.695 19.42247
67.700 19.621382
67.705 19.188398
67.710 18.56431
67.715 18.512945
67.720 18.440645
67.725 18.728672
67.730 18.024666
67.735 18.389029
67.740 18.721195
67.745 19.060251
67.750 19.323784
67.755 19.804909
67.760 19.942793
67.765 19.962021
67.770 19.948284
67.775 19.914856
67.780 19.635216
67.785 19.442574
67.790 19.456331
67.795 19.293669
67.800 18.963869
67.805 19.067976
67.810 18.719612
67.815 18.88699
67.820 18.468664
67.825 17.636566
67.830 17.535286
67.835 17.742006
67.840 17.677534
67.845 17.991753
67.850 17.945705
67.855 18.30612
67.860 18.463068
67.865 18.976887
67.870 19.21011
67.875 19.44183
67.880 19.709202
67.885 19.737309
67.890 19.453316
67.895 19.597795
67.900 19.49584
67.905 19.285318
67.910 19.118229
67.915 19.213144
67.920 19.665653
67.925 20.307974
67.930 20.388363
67.935 20.040651
67.940 20.339678
67.945 20.007454
67.950 19.79018
67.955 19.818193
67.960 19.603838
67.965 19.407726
67.970 19.030058
67.975 18.852722
67.980 18.898251
67.985 19.272844
67.990 19.269535
67.995 19.234911
68.000 19.537331
68.005 20.022888
68.010 20.126608
68.015 20.664215
68.020 20.533215
68.025 21.0212
68.030 20.948967
68.035 20.901239
68.040 20.556581
68.045 20.251648
68.050 19.763163
68.055 19.594618
68.060 19.126265
68.065 19.153315
68.070 18.423954
68.075 18.533432
68.080 18.435505
68.085 18.583551
68.090 18.229481
68.095 18.048162
68.100 18.132729
68.105 19.189651
68.110 19.489769
68.115 19.741676
68.120 19.473791
68.125 19.630579
68.130 20.288511
68.135 20.757292
68.140 20.034786
68.145 20.303663
68.150 20.335306
68.155 20.91642
68.160 20.756355
68.165 20.707556
68.170 20.599077
68.175 21.11356
68.180 20.329731
68.185 20.11162
68.190 20.143332
68.195 20.052713
68.200 19.604048
68.205 19.385845
68.210 19.231747
68.215 19.79715
68.220 19.440723
68.225 19.337034
68.230 19.504839
68.235 19.213789
68.240 19.04682
68.245 19.069456
68.250 18.992348
68.255 19.127182
68.260 19.190716
68.265 19.766008
68.270 20.183689
68.275 20.501888
68.280 20.374744
68.285 20.716333
68.290 20.283953
68.295 19.945889
68.300 19.558971
68.305 19.195707
68.310 19.143314
68.315 18.876829
68.320 18.279802
68.325 18.480099
68.330 17.98884
68.335 17.676924
68.340 17.925821
68.345 17.998762
68.350 18.586061
68.355 18.935638
68.360 19.732626
68.365 20.19718
68.370 20.675358
68.375 20.518047
68.380 19.88129
68.385 20.459755
68.390 20.279722
68.395 20.016867
68.400 19.689999
68.405 19.305605
68.410 19.49926
68.415 19.476236
68.420 18.283882
68.425 18.599451
68.430 18.817789
68.435 19.127033
68.440 19.571228
68.445 20.067673
68.450 20.480375
68.455 20.721132
68.460 21.067558
68.465 21.086304
68.470 21.082716
68.475 20.856411
68.480 20.935446
68.485 21.475368
68.490 21.759682
68.495 20.865898
68.500 20.55513
68.505 20.592932
68.510 20.926771
68.515 20.748381
68.520 20.125319
68.525 19.569769
68.530 20.145126
68.535 20.674589
68.540 20.709688
68.545 19.942656
68.550 19.451567
68.555 19.425119
68.560 19.550451
68.565 19.31555
68.570 19.393364
68.575 19.641191
68.580 20.045944
68.585 20.339792
68.590 20.429382
68.595 20.685932
68.600 20.885532
68.605 21.194317
68.610 21.080475
68.615 21.570435
68.620 21.853884
68.625 22.255976
68.630 22.382824
68.635 22.323236
68.640 22.042925
68.645 21.908871
68.650 21.663441
68.655 21.62289
68.660 20.919947
68.665 20.526897
68.670 20.173355
68.675 19.961727
68.680 20.310392
68.685 19.624187
68.690 19.351013
68.695 19.765676
68.700 19.925262
68.705 20.464233
68.710 19.819538
68.715 19.155689
68.720 19.896542
68.725 20.37295
68.730 20.571033
68.735 19.981745
68.740 19.77339
68.745 20.611462
68.750 21.570869
68.755 21.433895
68.760 20.721455
68.765 20.945009
68.770 21.467356
68.775 20.764458
68.780 20.088907
68.785 19.63538
68.790 19.944532
68.795 20.125111
68.800 19.623806
68.805 19.80032
68.810 20.572512
68.815 20.964827
68.820 20.196947
68.825 19.988073
68.830 21.076881
68.835 21.655012
68.840 20.935976
68.845 20.518948
68.850 20.343115
68.855 20.563017
68.860 20.674751
68.865 20.117725
68.870 20.043442
68.875 20.871067
68.880 21.071388
68.885 21.832212
68.890 22.080315
68.895 21.420996
68.900 20.578814
68.905 20.584324
68.910 20.081997
68.915 19.991631
68.920 19.73296
68.925 19.785992
68.930 20.95525
68.935 22.04196
68.940 21.924582
68.945 22.328079
68.950 22.37289
68.955 22.596315
68.960 22.421108
68.965 21.925404
68.970 21.637098
68.975 21.342094
68.980 21.468395
68.985 21.414351
68.990 21.10338
68.995 21.653772
69.000 21.49416
69.005 21.501432
69.010 21.752583
69.015 21.97385
69.020 21.9734
69.025 22.186972
69.030 21.559778
69.035 21.641378
69.040 21.830482
69.045 21.497913
69.050 21.035271
69.055 20.832176
69.060 21.181284
69.065 21.78924
69.070 22.380339
69.075 22.9105
69.080 23.957691
69.085 25.192657
69.090 25.548176
69.095 25.468987
69.100 25.238272
69.105 25.157339
69.110 24.668169
69.115 23.40801
69.120 22.84243
69.125 23.136553
69.130 23.322342
69.135 23.025726
69.140 23.651117
69.145 24.290714
69.150 25.00787
69.155 25.295282
69.160 25.65695
69.165 26.113699
69.170 26.177074
69.175 25.833281
69.180 25.906197
69.185 25.735439
69.190 25.718073
69.195 25.116341
69.200 24.592453
69.205 24.746145
69.210 24.09111
69.215 23.781519
69.220 24.191168
69.225 23.853853
69.230 24.325304
69.235 25.233131
69.240 25.826759
69.245 26.685911
69.250 27.036978
69.255 26.813793
69.260 27.374195
69.265 27.058716
69.270 27.240437
69.275 27.527555
69.280 27.714056
69.285 27.752144
69.290 27.429316
69.295 26.899323
69.300 27.21011
69.305 27.565882
69.310 27.701715
69.315 27.369476
69.320 27.202442
69.325 27.653318
69.330 27.692936
69.335 27.564962
69.340 27.087931
69.345 27.478561
69.350 27.969265
69.355 28.360636
69.360 29.070585
69.365 29.687229
69.370 29.477367
69.375 29.489103
69.380 29.252661
69.385 28.896513
69.390 28.926575
69.395 28.847813
69.400 29.246519
69.405 29.434652
69.410 29.367266
69.415 29.415516
69.420 30.283102
69.425 30.766403
69.430 31.125566
69.435 31.680017
69.440 32.196739
69.445 32.772511
69.450 32.928051
69.455 32.639175
69.460 32.364208
69.465 31.091349
69.470 30.174232
69.475 29.874798
69.480 29.82593
69.485 30.232365
69.490 30.258673
69.495 30.545343
69.500 30.706036
69.505 30.89645
69.510 31.004803
69.515 31.086876
69.520 31.164736
69.525 31.023361
69.530 31.102755
69.535 32.194271
69.540 32.379959
69.545 32.218578
69.550 32.07975
69.555 31.756014
69.560 31.752661
69.565 31.686785
69.570 31.756144
69.575 32.168903
69.580 32.475746
69.585 33.306038
69.590 33.173038
69.595 33.394291
69.600 32.591927
69.605 32.122875
69.610 31.321495
69.615 31.17416
69.620 29.97456
69.625 29.383551
69.630 29.345926
69.635 29.997612
69.640 30.634258
69.645 31.384752
69.650 31.571367
69.655 32.008186
69.660 32.509495
69.665 33.353592
69.670 33.524471
69.675 33.06329
69.680 32.825207
69.685 32.456718
69.690 32.395115
69.695 31.734362
69.700 30.771105
69.705 30.722361
69.710 30.159472
69.715 30.578032
69.720 30.689869
69.725 30.586441
69.730 31.300808
69.735 31.350376
69.740 30.909395
69.745 30.628548
69.750 29.823608
69.755 29.203222
69.760 29.148647
69.765 28.866793
69.770 28.728653
69.775 28.431084
69.780 28.441963
69.785 28.352167
69.790 28.71554
69.795 28.251671
69.800 27.606846
69.805 27.32806
69.810 27.350655
69.815 27.222385
69.820 26.948797
69.825 26.724535
69.830 26.315531
69.835 25.753742
69.840 25.46114
69.845 25.438654
69.850 25.259975
69.855 24.46217
69.860 23.977491
69.865 24.924475
69.870 25.012388
69.875 25.214989
69.880 24.919394
69.885 24.860996
69.890 25.150095
69.895 24.638641
69.900 23.865984
69.905 23.632959
69.910 23.203915
69.915 23.288025
69.920 23.157808
69.925 23.428278
69.930 23.329161
69.935 23.463196
69.940 23.381668
69.945 23.230154
69.950 22.917233
69.955 22.817221
69.960 22.799332
69.965 22.800032
69.970 22.184782
69.975 21.964651
69.980 21.584459
69.985 21.669844
69.990 21.631384
69.995 21.679157
70.000 21.21797
70.005 21.072332
70.010 21.164438
70.015 21.567299
70.020 21.443895
70.025 21.185814
70.030 20.806267
70.035 21.094366
70.040 20.862511
70.045 20.370449
70.050 19.961693
70.055 19.476675
70.060 19.040409
70.065 19.854458
70.070 20.724289
70.075 21.227148
70.080 21.17189
70.085 21.10882
70.090 21.799936
70.095 22.160479
70.100 20.808624
70.105 20.202272
70.110 20.395731
70.115 20.283434
70.120 20.718544
70.125 20.545624
70.130 21.72788
70.135 22.252594
70.140 22.07868
70.145 21.783039
70.150 21.681499
70.155 20.661194
70.160 19.986986
70.165 18.456219
70.170 17.721668
70.175 17.76413
70.180 17.770044
70.185 17.533234
70.190 17.887924
70.195 18.478361
70.200 18.654015
70.205 19.230671
70.210 19.45882
70.215 19.488136
70.220 19.416927
70.225 19.227905
70.230 18.958332
70.235 18.633608
70.240 18.082287
70.245 17.915737
70.250 17.913118
70.255 17.973928
70.260 18.417719
70.265 18.625916
70.270 19.144438
70.275 18.756554
70.280 18.72356
70.285 19.107098
70.290 19.079248
70.295 18.753534
70.300 18.728409
70.305 18.924006
70.310 19.799463
70.315 20.312136
70.320 20.176952
70.325 20.300896
70.330 20.311079
70.335 19.954937
70.340 19.361576
70.345 19.161434
70.350 19.072424
70.355 19.387976
70.360 18.837502
70.365 18.32955
70.370 18.547386
70.375 18.578846
70.380 18.795628
70.385 18.463902
70.390 18.653614
70.395 19.715485
70.400 20.105539
70.405 20.089912
70.410 19.747986
70.415 19.165447
70.420 19.055212
70.425 18.496305
70.430 18.005657
70.435 17.758869
70.440 17.687592
70.445 17.089249
70.450 17.046719
70.455 17.473354
70.460 17.810719
70.465 18.104042
70.470 18.956043
70.475 18.879696
70.480 19.88204
70.485 19.90172
70.490 19.578897
70.495 18.879026
70.500 18.723446
70.505 18.136623
70.510 18.744709
70.515 18.936398
70.520 19.08658
70.525 19.105639
70.530 19.578579
70.535 19.360352
70.540 19.552526
70.545 19.532356
70.550 19.11504
70.555 19.542788
70.560 19.717264
70.565 19.642742
70.570 19.526619
70.575 19.351192
70.580 19.123213
70.585 18.622921
70.590 17.642948
70.595 17.682045
70.600 17.40793
70.605 17.425724
70.610 17.394678
70.615 17.784369
70.620 17.977806
70.625 17.817509
70.630 17.662231
70.635 17.68058
70.640 17.648157
70.645 17.567404
70.650 17.606472
70.655 18.041132
70.660 17.796772
70.665 18.229
70.670 18.746544
70.675 18.593426
70.680 18.686348
70.685 18.336308
70.690 18.724953
70.695 19.428467
70.700 19.341738
70.705 19.020742
70.710 18.898621
70.715 18.64496
70.720 18.677633
70.725 18.207022
70.730 17.896284
70.735 17.942034
70.740 17.958216
70.745 17.978029
70.750 18.009821
70.755 18.358488
70.760 18.081018
70.765 18.073292
70.770 18.041018
70.775 17.691717
70.780 18.229307
70.785 17.839111
70.790 17.870117
70.795 17.955564
70.800 17.683405
70.805 17.812271
70.810 18.2612
70.815 18.020618
70.820 18.177027
70.825 18.056816
70.830 18.240376
70.835 18.18589
70.840 17.99781
70.845 17.829309
70.850 17.736414
70.855 17.335987
70.860 17.264494
70.865 17.592892
70.870 17.88867
70.875 17.46207
70.880 17.351902
70.885 17.456619
70.890 17.845922
70.895 17.831177
70.900 18.025503
70.905 18.030121
70.910 18.40999
70.915 18.740788
70.920 19.056211
70.925 19.288147
70.930 19.541235
70.935 19.781687
70.940 19.368181
70.945 19.050512
70.950 19.01615
70.955 18.457281
70.960 19.292215
70.965 19.216423
70.970 18.749187
70.975 19.032124
70.980 19.046467
70.985 19.187309
70.990 19.264709
70.995 17.637314
71.000 17.387642
71.005 17.735163
71.010 17.769445
71.015 18.033262
71.020 18.072384
71.025 18.47888
71.030 18.942184
71.035 18.887918
71.040 19.287016
71.045 19.236486
71.050 19.244257
71.055 19.291389
71.060 18.960623
71.065 18.898499
71.070 18.997929
71.075 18.224787
71.080 18.436617
71.085 17.560579
71.090 17.222988
71.095 17.741396
71.100 17.921925
71.105 17.785341
71.110 18.140373
71.115 18.258646
71.120 18.701363
71.125 18.483915
71.130 18.388638
71.135 17.932119
71.140 18.156239
71.145 18.687256
71.150 19.10997
71.155 19.481482
71.160 19.330273
71.165 19.275953
71.170 19.327919
71.175 18.816175
71.180 17.957029
71.185 17.346218
71.190 16.967762
71.195 16.550144
71.200 16.942123
71.205 17.132662
71.210 17.560732
71.215 18.171125
71.220 18.355761
71.225 18.868855
71.230 19.071634
71.235 18.362944
71.240 18.446461
71.245 18.008184
71.250 18.190365
71.255 17.846609
71.260 17.708221
71.265 18.385502
71.270 18.806755
71.275 18.694977
71.280 18.633217
71.285 18.30891
71.290 18.56786
71.295 18.770428
71.300 18.077419
71.305 17.883997
71.310 17.660023
71.315 17.31163
71.320 17.667727
71.325 17.906214
71.330 18.56629
71.335 18.956221
71.340 18.511671
71.345 18.646566
71.350 18.917767
71.355 18.718109
71.360 18.170563
71.365 16.770475
71.370 16.680439
71.375 17.321222
71.380 17.570164
71.385 17.438072
71.390 17.183794
71.395 17.338566
71.400 17.661985
71.405 17.86734
71.410 17.776789
71.415 17.531895
71.420 18.008892
71.425 18.50108
71.430 18.811077
71.435 18.769058
71.440 18.441109
71.445 18.064615
71.450 17.975826
71.455 17.765942
71.460 17.715624
71.465 17.176184
71.470 17.627251
71.475 18.22224
71.480 18.407265
71.485 18.033106
71.490 17.962896
71.495 18.133627
71.500 18.802988
71.505 17.930475
71.510 17.531658
71.515 17.647633
71.520 17.952198
71.525 17.681763
71.530 17.650076
71.535 17.441916
71.540 18.359268
71.545 18.928186
71.550 18.685635
71.555 18.18713
71.560 17.896133
71.565 17.883038
71.570 17.961723
71.575 17.711275
71.580 17.237217
71.585 17.829865
71.590 18.291935
71.595 18.4564
71.600 18.840446
71.605 18.720264
71.610 19.015379
71.615 19.314646
71.620 19.532389
71.625 19.738037
71.630 19.316868
71.635 18.383675
71.640 18.155193
71.645 17.699617
71.650 17.69784
71.655 17.083933
71.660 17.005754
71.665 17.621271
71.670 18.318468
71.675 18.355934
71.680 18.124973
71.685 17.593248
71.690 17.522675
71.695 17.447437
71.700 17.703266
71.705 17.49824
71.710 17.458506
71.715 17.731878
71.720 18.39612
71.725 18.412886
71.730 18.501284
71.735 18.474094
71.740 18.413246
71.745 18.642357
71.750 18.787939
71.755 18.514107
71.760 18.714329
71.765 18.161997
71.770 17.53879
71.775 17.773222
71.780 17.876562
71.785 17.800043
71.790 17.294144
71.795 16.605129
71.800 16.890013
71.805 17.255667
71.810 16.620909
71.815 16.741962
71.820 16.802189
71.825 17.192841
71.830 17.278566
71.835 17.392477
71.840 17.56716
71.845 18.33461
71.850 18.246813
71.855 18.491806
71.860 18.802498
71.865 19.191254
71.870 19.194332
71.875 19.131355
71.880 18.878235
71.885 18.825676
71.890 18.762169
71.895 18.653587
71.900 18.55055
71.905 18.078262
71.910 17.510408
71.915 17.237661
71.920 17.021042
71.925 17.513475
71.930 17.423563
71.935 17.701965
71.940 17.755854
71.945 18.199608
71.950 18.624561
71.955 17.851368
71.960 17.202879
71.965 16.464687
71.970 16.27076
71.975 16.424728
71.980 16.573414
71.985 16.741238
71.990 16.953051
71.995 17.639519
72.000 17.911173
72.005 17.772881
72.010 17.856297
72.015 17.424707
72.020 17.692854
72.025 17.681408
72.030 17.65704
72.035 17.931444
72.040 17.656389
72.045 17.431475
72.050 16.839785
72.055 16.437698
72.060 16.525059
72.065 16.502144
72.070 16.333982
72.075 16.471016
72.080 16.585342
72.085 16.865501
72.090 17.290842
72.095 17.409521
72.100 17.938925
72.105 18.314079
72.110 18.39152
72.115 18.911985
72.120 18.817024
72.125 18.85829
72.130 18.444923
72.135 18.288078
72.140 18.376839
72.145 18.094608
72.150 17.622732
72.155 17.706263
72.160 17.716377
72.165 17.975813
72.170 18.024408
72.175 18.074018
72.180 18.417276
72.185 18.543894
72.190 18.956135
72.195 18.892429
72.200 18.723722
72.205 18.752771
72.210 18.694313
72.215 18.574989
72.220 18.544538
72.225 18.017324
72.230 18.405895
72.235 18.637806
72.240 18.424932
72.245 18.944052
72.250 19.48073
72.255 19.785608
72.260 20.090757
72.265 19.723042
72.270 19.777914
72.275 19.999794
72.280 19.51123
72.285 19.261921
72.290 18.850983
72.295 18.315247
72.300 18.237873
72.305 18.252365
72.310 18.085508
72.315 18.063715
72.320 17.50473
72.325 17.92396
72.330 18.1064
72.335 17.785641
72.340 17.627159
72.345 17.858889
72.350 17.762192
72.355 17.812338
72.360 17.065914
72.365 17.158258
72.370 17.04715
72.375 16.803762
72.380 16.70682
72.385 16.200357
72.390 16.174391
72.395 15.84357
72.400 15.973259
72.405 15.264602
72.410 14.935869
72.415 14.998802
72.420 15.719475
72.425 16.268465
72.430 16.635811
72.435 17.277792
72.440 17.828514
72.445 17.973623
72.450 17.817705
72.455 17.797922
72.460 17.935976
72.465 17.543615
72.470 17.233406
72.475 17.792536
72.480 18.166986
72.485 18.358471
72.490 18.197735
72.495 18.375465
72.500 18.525005
72.505 18.32613
72.510 18.094645
72.515 17.744537
72.520 17.456221
72.525 17.120821
72.530 16.872999
72.535 16.984264
72.540 16.740992
72.545 16.323105
72.550 16.285873
72.555 17.509256
72.560 18.060995
72.565 18.013117
72.570 17.847498
72.575 17.623079
72.580 18.032965
72.585 18.104116
72.590 18.010672
72.595 18.136944
72.600 17.639145
72.605 17.958023
72.610 17.738157
72.615 18.070858
72.620 18.41931
72.625 17.988432
72.630 17.944912
72.635 18.292398
72.640 18.922451
72.645 19.086237
72.650 18.749596
72.655 18.007042
72.660 17.839808
72.665 17.361654
72.670 17.024546
72.675 16.36727
72.680 16.115778
72.685 15.930992
72.690 16.307096
72.695 16.487392
72.700 16.918549
72.705 17.077644
72.710 17.52932
72.715 17.491142
72.720 16.993008
72.725 17.042917
72.730 17.071611
72.735 17.301527
72.740 17.417248
72.745 17.443455
72.750 17.754885
72.755 17.732582
72.760 17.565002
72.765 18.024158
72.770 18.149443
72.775 17.55192
72.780 17.387363
72.785 17.550203
72.790 17.099655
72.795 16.514452
72.800 16.271252
72.805 16.09507
72.810 16.540684
72.815 16.471224
72.820 16.406977
72.825 16.743969
72.830 16.527351
72.835 16.389349
72.840 16.437073
72.845 16.108837
72.850 15.964171
72.855 15.667857
72.860 15.730289
72.865 15.736607
72.870 15.535381
72.875 15.867154
72.880 16.33441
72.885 16.893856
72.890 16.863075
72.895 16.264784
72.900 16.511284
72.905 17.068405
72.910 16.792999
72.915 16.316099
72.920 15.845485
72.925 15.988773
72.930 16.757553
72.935 16.082043
72.940 15.777057
72.945 15.846998
72.950 16.142773
72.955 16.608107
72.960 17.167063
72.965 16.821623
72.970 17.08252
72.975 16.763161
72.980 16.501617
72.985 15.925574
72.990 15.373989
72.995 14.973825
73.000 15.495219
