!@!!GADDS PLOTSO FILE: Chi integration type
!@!!Title/SampleName: map-eb
!@!!Comment: ?
!@!!User: Bruker Instrument Administrator
!@!!Site: University of Illinois Chicago
!@!!Frame: map-eb_01_000.gfrm
!@!!Wavelengths    1.54184   1.54056   1.54439
!@!!Frame angles: 2Theta: 63.000 Omega: 50.000 Phi: 0.000 Chi: 90.000
!@!!Integration range: 2Theta: 53.000 to 73.000  Gamma: -105.000 to -75.000
!@!!Integration method: bin normalized
!@!N
!@!SS
!@!M
!@!L 0.0 0.0 0.0 0.0
!@!XDegrees
!@!YCounts
53.000 6.135106
53.005 6.354766
53.010 6.337247
53.015 5.937517
53.020 5.749794
53.025 5.53162
53.030 5.521114
53.035 5.517268
53.040 5.380298
53.045 5.674517
53.050 5.620775
53.055 5.529499
53.060 5.74139
53.065 6.142518
53.070 6.395248
53.075 6.810469
53.080 7.142164
53.085 7.082345
53.090 7.277929
53.095 7.417574
53.100 6.870412
53.105 6.522697
53.110 6.581669
53.115 6.469662
53.120 6.711834
53.125 6.350259
53.130 6.243867
53.135 6.630723
53.140 6.679614
53.145 6.543738
53.150 6.790658
53.155 6.879165
53.160 7.288514
53.165 7.183112
53.170 7.049119
53.175 7.332814
53.180 7.057572
53.185 6.87405
53.190 6.957419
53.195 6.917758
53.200 6.822079
53.205 6.745474
53.210 6.426206
53.215 6.415599
53.220 6.273729
53.225 6.07802
53.230 5.863655
53.235 5.860967
53.240 6.12282
53.245 6.00841
53.250 5.615495
53.255 5.540863
53.260 5.61049
53.265 5.771372
53.270 5.732184
53.275 5.475619
53.280 5.795733
53.285 6.075898
53.290 6.191839
53.295 6.048326
53.300 6.124254
53.305 6.323158
53.310 6.466758
53.315 6.500986
53.320 6.665631
53.325 6.849115
53.330 6.857967
53.335 6.7876
53.340 6.497756
53.345 6.404669
53.350 6.410795
53.355 6.346519
53.360 6.582118
53.365 6.686327
53.370 6.92889
53.375 7.088014
53.380 6.851677
53.385 6.765392
53.390 6.800471
53.395 6.663287
53.400 6.749116
53.405 6.519222
53.410 6.213173
53.415 6.248889
53.420 6.178778
53.425 6.053641
53.430 5.819721
53.435 5.985341
53.440 6.079856
53.445 6.457973
53.450 6.561411
53.455 6.493463
53.460 6.31202
53.465 6.022711
53.470 5.7104
53.475 5.723548
53.480 5.761972
53.485 5.893316
53.490 6.083594
53.495 6.345675
53.500 6.690474
53.505 7.417506
53.510 7.927032
53.515 8.001755
53.520 8.36453
53.525 8.419139
53.530 8.223266
53.535 7.892178
53.540 7.286866
53.545 6.665749
53.550 6.246912
53.555 5.725116
53.560 5.815031
53.565 6.149276
53.570 6.155428
53.575 6.180869
53.580 6.62113
53.585 6.886614
53.590 6.889119
53.595 6.470953
53.600 6.78629
53.605 7.042839
53.610 6.846357
53.615 6.647058
53.620 6.702997
53.625 7.020914
53.630 7.101964
53.635 6.826246
53.640 7.024342
53.645 7.522102
53.650 7.710772
53.655 7.486215
53.660 7.699079
53.665 7.532307
53.670 7.219954
53.675 7.007096
53.680 6.697334
53.685 6.866309
53.690 7.024866
53.695 7.017686
53.700 7.4739
53.705 7.637417
53.710 7.414296
53.715 7.24841
53.720 7.225764
53.725 7.099572
53.730 6.64187
53.735 6.064725
53.740 5.87771
53.745 6.217583
53.750 5.931202
53.755 5.519356
53.760 5.585404
53.765 6.127012
53.770 6.536874
53.775 6.864014
53.780 7.007179
53.785 7.420305
53.790 7.94258
53.795 7.854105
53.800 7.791365
53.805 7.706599
53.810 7.744223
53.815 7.615956
53.820 7.518712
53.825 7.354778
53.830 7.400741
53.835 7.611261
53.840 7.671219
53.845 7.367986
53.850 7.403073
53.855 7.418563
53.860 7.262342
53.865 7.17768
53.870 7.066887
53.875 7.000187
53.880 6.83042
53.885 6.302914
53.890 6.38602
53.895 6.644177
53.900 6.566823
53.905 6.594835
53.910 6.710372
53.915 7.059662
53.920 7.186336
53.925 7.331431
53.930 7.235293
53.935 7.138756
53.940 7.112901
53.945 7.048172
53.950 7.305591
53.955 7.312345
53.960 6.991673
53.965 7.255965
53.970 7.260563
53.975 7.140334
53.980 7.343604
53.985 7.328685
53.990 7.657322
53.995 7.882658
54.000 7.744835
54.005 8.090344
54.010 8.159544
54.015 7.611479
54.020 7.584563
54.025 7.159055
54.030 6.982285
54.035 6.725984
54.040 6.210126
54.045 6.56457
54.050 6.816988
54.055 6.741375
54.060 6.792892
54.065 6.435507
54.070 6.457193
54.075 6.563892
54.080 6.26407
54.085 6.377465
54.090 6.287781
54.095 6.319927
54.100 6.915428
54.105 7.129967
54.110 6.951649
54.115 6.774872
54.120 6.636409
54.125 6.634777
54.130 6.391582
54.135 6.100976
54.140 6.1609
54.145 6.332685
54.150 6.650722
54.155 6.885894
54.160 7.108649
54.165 7.318973
54.170 7.537327
54.175 7.451639
54.180 7.393538
54.185 7.521096
54.190 7.557306
54.195 7.494804
54.200 7.568705
54.205 7.561979
54.210 7.945181
54.215 8.061345
54.220 7.874936
54.225 7.695474
54.230 7.333224
54.235 7.260408
54.240 7.197397
54.245 7.392135
54.250 7.255468
54.255 7.117442
54.260 7.0971
54.265 6.739733
54.270 6.949263
54.275 6.693644
54.280 6.182114
54.285 6.396911
54.290 6.894732
54.295 7.208712
54.300 7.397979
54.305 7.039346
54.310 7.092004
54.315 6.971983
54.320 6.847559
54.325 6.638412
54.330 6.683894
54.335 6.991868
54.340 7.188327
54.345 7.528824
54.350 7.632343
54.355 7.626372
54.360 7.767882
54.365 7.809248
54.370 7.847614
54.375 7.727376
54.380 7.708824
54.385 7.68155
54.390 7.751901
54.395 7.348338
54.400 7.120917
54.405 6.8517
54.410 6.708426
54.415 6.68825
54.420 6.586116
54.425 6.782853
54.430 7.249189
54.435 7.256622
54.440 6.979176
54.445 7.074358
54.450 7.365221
54.455 6.983815
54.460 6.644
54.465 6.681554
54.470 7.37641
54.475 8.067443
54.480 7.909808
54.485 7.646487
54.490 7.983523
54.495 7.989542
54.500 7.821022
54.505 7.418705
54.510 6.934015
54.515 6.825762
54.520 7.026786
54.525 7.120289
54.530 7.281462
54.535 7.34118
54.540 7.714108
54.545 8.112586
54.550 8.334055
54.555 7.903405
54.560 8.115309
54.565 8.189567
54.570 7.977733
54.575 7.433073
54.580 7.134715
54.585 7.248827
54.590 7.521202
54.595 7.221687
54.600 7.310938
54.605 7.602284
54.610 7.992908
54.615 7.707307
54.620 7.455779
54.625 7.060371
54.630 6.630487
54.635 6.331352
54.640 5.575444
54.645 5.564928
54.650 6.025827
54.655 6.336628
54.660 6.342324
54.665 6.713225
54.670 6.969451
54.675 7.476004
54.680 7.496803
54.685 7.236946
54.690 7.37902
54.695 7.91131
54.700 7.690919
54.705 7.593024
54.710 7.396327
54.715 7.376427
54.720 7.456456
54.725 7.129634
54.730 7.166975
54.735 7.322105
54.740 7.190437
54.745 7.090459
54.750 7.139235
54.755 7.074523
54.760 6.868145
54.765 6.707091
54.770 6.626675
54.775 6.762622
54.780 6.689376
54.785 6.683391
54.790 6.815965
54.795 7.15327
54.800 7.418353
54.805 7.313779
54.810 7.509274
54.815 7.786269
54.820 7.722038
54.825 7.823521
54.830 7.847248
54.835 7.787108
54.840 7.697361
54.845 7.415695
54.850 7.383016
54.855 7.25363
54.860 7.258268
54.865 7.332483
54.870 7.999159
54.875 7.981433
54.880 8.356428
54.885 8.675922
54.890 8.597039
54.895 8.515492
54.900 8.041765
54.905 7.496006
54.910 7.780982
54.915 8.234279
54.920 8.013079
54.925 7.926114
54.930 7.878515
54.935 8.344868
54.940 8.822639
54.945 8.259766
54.950 7.439811
54.955 7.285668
54.960 7.760468
54.965 7.714105
54.970 7.168706
54.975 6.832589
54.980 7.098624
54.985 7.542964
54.990 7.787141
54.995 7.301112
55.000 7.264964
55.005 7.351589
55.010 7.605652
55.015 7.469839
55.020 7.514869
55.025 7.775392
55.030 8.205575
55.035 8.47287
55.040 8.741848
55.045 9.129434
55.050 9.136409
55.055 8.77345
55.060 8.798326
55.065 8.541201
55.070 8.48678
55.075 8.241838
55.080 8.036669
55.085 8.033378
55.090 7.945134
55.095 7.732947
55.100 7.33224
55.105 7.005365
55.110 7.461701
55.115 7.432923
55.120 7.631246
55.125 7.768749
55.130 8.055413
55.135 8.413718
55.140 8.762413
55.145 8.244691
55.150 8.093422
55.155 8.241516
55.160 8.228631
55.165 8.102829
55.170 7.919442
55.175 7.72732
55.180 8.117785
55.185 8.196515
55.190 7.95062
55.195 8.08383
55.200 8.244291
55.205 8.00573
55.210 7.798554
55.215 7.119384
55.220 6.679931
55.225 7.415107
55.230 6.976486
55.235 7.099565
55.240 7.335954
55.245 7.607462
55.250 8.113632
55.255 7.967903
55.260 7.28333
55.265 7.870884
55.270 7.704233
55.275 7.619418
55.280 7.440187
55.285 7.185269
55.290 7.55895
55.295 7.709608
55.300 7.509202
55.305 7.923241
55.310 7.909973
55.315 7.898109
55.320 7.797246
55.325 8.064897
55.330 8.099053
55.335 8.039495
55.340 7.790504
55.345 7.647041
55.350 7.647671
55.355 7.960252
55.360 7.85221
55.365 7.462448
55.370 7.479339
55.375 7.50261
55.380 7.790331
55.385 7.813029
55.390 7.556341
55.395 7.839933
55.400 8.492692
55.405 8.874397
55.410 9.273741
55.415 9.531337
55.420 9.768321
55.425 9.729548
55.430 9.322494
55.435 9.246373
55.440 9.050522
55.445 8.622791
55.450 8.791395
55.455 9.154185
55.460 9.758994
55.465 9.688251
55.470 9.426244
55.475 9.308682
55.480 9.166786
55.485 8.624605
55.490 8.685377
55.495 8.556878
55.500 8.493299
55.505 8.291071
55.510 8.393955
55.515 8.758138
55.520 8.547492
55.525 8.242142
55.530 7.849445
55.535 8.177865
55.540 8.539412
55.545 8.749149
55.550 8.947284
55.555 8.815077
55.560 8.311194
55.565 8.311289
55.570 8.357011
55.575 8.242745
55.580 7.955205
55.585 7.603059
55.590 8.040573
55.595 8.533694
55.600 8.395222
55.605 8.344014
55.610 8.064888
55.615 8.138784
55.620 8.383978
55.625 8.634705
55.630 8.707006
55.635 8.572363
55.640 8.513445
55.645 8.441245
55.650 8.206777
55.655 8.037926
55.660 7.477962
55.665 7.852607
55.670 7.780998
55.675 7.713592
55.680 8.035943
55.685 8.298802
55.690 8.438455
55.695 8.702953
55.700 8.648265
55.705 8.88693
55.710 8.86385
55.715 8.810525
55.720 8.750907
55.725 8.781781
55.730 8.557603
55.735 8.135303
55.740 7.992279
55.745 8.420911
55.750 8.350891
55.755 8.204148
55.760 8.018723
55.765 8.262265
55.770 8.780111
55.775 8.945285
55.780 8.742731
55.785 8.587977
55.790 8.270151
55.795 8.117882
55.800 8.217879
55.805 7.54089
55.810 7.151423
55.815 7.191006
55.820 7.484074
55.825 7.76557
55.830 7.602293
55.835 7.403817
55.840 7.361817
55.845 7.60123
55.850 7.51914
55.855 7.356042
55.860 7.331241
55.865 7.499187
55.870 7.642071
55.875 7.850564
55.880 7.722269
55.885 7.693819
55.890 8.332466
55.895 8.512401
55.900 8.816216
55.905 9.069143
55.910 9.348006
55.915 9.645577
55.920 9.724307
55.925 9.662457
55.930 9.454445
55.935 9.149371
55.940 9.221679
55.945 9.176929
55.950 9.76235
55.955 9.840393
55.960 9.480992
55.965 9.328115
55.970 9.267228
55.975 8.917329
55.980 8.466619
55.985 8.225415
55.990 8.506938
55.995 9.100629
56.000 9.005403
56.005 9.004232
56.010 9.414741
56.015 9.36431
56.020 9.086049
56.025 8.683943
56.030 8.17094
56.035 8.43679
56.040 8.41267
56.045 8.706834
56.050 8.870596
56.055 8.918758
56.060 9.226392
56.065 9.499076
56.070 9.325068
56.075 9.486114
56.080 8.89123
56.085 8.837822
56.090 8.531851
56.095 8.249679
56.100 8.27533
56.105 8.51089
56.110 8.195018
56.115 8.724718
56.120 8.903112
56.125 9.35244
56.130 9.858793
56.135 9.95149
56.140 10.152113
56.145 10.317932
56.150 9.778516
56.155 9.994824
56.160 9.862608
56.165 9.711741
56.170 9.625813
56.175 9.411546
56.180 9.11768
56.185 8.841004
56.190 8.19626
56.195 7.867751
56.200 7.899503
56.205 7.740069
56.210 7.544292
56.215 7.691739
56.220 8.238607
56.225 8.52044
56.230 8.422709
56.235 8.317632
56.240 8.272284
56.245 8.376873
56.250 8.613992
56.255 8.358441
56.260 8.560413
56.265 8.962875
56.270 9.060481
56.275 9.434315
56.280 9.629388
56.285 9.701454
56.290 9.960835
56.295 9.257822
56.300 8.644697
56.305 8.495317
56.310 8.33145
56.315 8.708996
56.320 9.002619
56.325 8.845384
56.330 9.17315
56.335 9.405085
56.340 9.619531
56.345 9.726715
56.350 8.961735
56.355 8.422953
56.360 8.822031
56.365 8.876939
56.370 9.112868
56.375 8.914131
56.380 8.298117
56.385 8.749502
56.390 9.070442
56.395 8.975641
56.400 8.897887
56.405 9.166102
56.410 9.448669
56.415 9.814309
56.420 9.182646
56.425 9.012312
56.430 9.12477
56.435 9.160592
56.440 8.897139
56.445 9.343281
56.450 9.354818
56.455 9.440012
56.460 9.016869
56.465 8.960926
56.470 8.966179
56.475 8.780236
56.480 8.741727
56.485 9.346245
56.490 9.99683
56.495 10.709224
56.500 10.659809
56.505 10.671946
56.510 10.504199
56.515 10.066451
56.520 10.005601
56.525 9.656417
56.530 9.206739
56.535 9.085896
56.540 9.207768
56.545 9.251286
56.550 9.272097
56.555 8.932873
56.560 8.845074
56.565 8.750345
56.570 8.89462
56.575 8.973346
56.580 9.153303
56.585 9.081869
56.590 9.059045
56.595 9.312995
56.600 9.301412
56.605 8.879561
56.610 8.900777
56.615 8.808087
56.620 8.842121
56.625 8.895877
56.630 9.027534
56.635 9.03586
56.640 9.031283
56.645 9.298825
56.650 9.470355
56.655 8.896862
56.660 8.541915
56.665 8.589224
56.670 9.020652
56.675 9.132195
56.680 8.846931
56.685 9.225958
56.690 9.955873
56.695 10.38629
56.700 10.51927
56.705 10.207938
56.710 10.306257
56.715 10.079395
56.720 9.634315
56.725 9.645145
56.730 9.709167
56.735 9.739312
56.740 10.160583
56.745 10.078441
56.750 10.121624
56.755 10.583238
56.760 10.408088
56.765 10.008415
56.770 9.536743
56.775 9.268964
56.780 9.684157
56.785 9.956366
56.790 9.67046
56.795 9.541802
56.800 9.474266
56.805 9.475454
56.810 9.115956
56.815 8.872776
56.820 8.67405
56.825 8.754468
56.830 9.017876
56.835 9.11094
56.840 9.035604
56.845 8.847783
56.850 8.534524
56.855 8.682768
56.860 9.063751
56.865 9.110395
56.870 9.2297
56.875 9.706013
56.880 9.952919
56.885 10.313887
56.890 10.394073
56.895 10.596208
56.900 10.826122
56.905 11.252975
56.910 11.531798
56.915 12.005907
56.920 11.459627
56.925 11.172604
56.930 10.816602
56.935 10.535999
56.940 10.354211
56.945 10.274466
56.950 9.788652
56.955 10.017057
56.960 10.058496
56.965 9.510713
56.970 8.90013
56.975 8.811202
56.980 8.628805
56.985 8.892419
56.990 8.906633
56.995 8.78581
57.000 8.744118
57.005 8.627784
57.010 8.72683
57.015 9.553392
57.020 9.697194
57.025 9.686817
57.030 10.543479
57.035 11.346751
57.040 11.531994
57.045 11.101979
57.050 10.433385
57.055 11.058679
57.060 10.920581
57.065 10.383055
57.070 9.900505
57.075 9.825898
57.080 9.922647
57.085 10.02939
57.090 9.220054
57.095 9.802035
57.100 10.139966
57.105 10.734279
57.110 11.181046
57.115 11.130309
57.120 11.195574
57.125 11.437146
57.130 10.713172
57.135 10.160715
57.140 9.417894
57.145 8.932749
57.150 8.852649
57.155 8.535907
57.160 8.130946
57.165 8.252224
57.170 8.694947
57.175 9.128442
57.180 9.347169
57.185 9.931654
57.190 10.001843
57.195 10.293702
57.200 10.616737
57.205 10.769473
57.210 10.844725
57.215 10.982003
57.220 10.060513
57.225 9.854601
57.230 9.843344
57.235 9.258032
57.240 8.914999
57.245 8.818648
57.250 8.878293
57.255 9.112366
57.260 9.372038
57.265 9.649669
57.270 10.069901
57.275 10.609886
57.280 10.31147
57.285 10.38089
57.290 10.251514
57.295 9.977071
57.300 9.839383
57.305 9.837403
57.310 9.683261
57.315 9.984549
57.320 10.204
57.325 10.841134
57.330 11.084931
57.335 11.026924
57.340 10.512205
57.345 10.232724
57.350 10.000322
57.355 9.512554
57.360 8.990838
57.365 8.639091
57.370 8.707162
57.375 9.153706
57.380 9.548123
57.385 9.245135
57.390 9.264138
57.395 9.127954
57.400 9.13864
57.405 9.108989
57.410 8.871182
57.415 8.738227
57.420 9.317767
57.425 9.542635
57.430 9.530671
57.435 9.466671
57.440 9.748977
57.445 10.125734
57.450 10.344978
57.455 10.806846
57.460 11.064932
57.465 11.16078
57.470 11.121103
57.475 11.246196
57.480 11.012011
57.485 10.639208
57.490 10.19057
57.495 9.846726
57.500 10.199323
57.505 9.989833
57.510 9.833235
57.515 10.064176
57.520 10.056152
57.525 10.048012
57.530 10.645075
57.535 10.756818
57.540 11.229246
57.545 11.056372
57.550 11.218204
57.555 11.806624
57.560 12.103803
57.565 11.951023
57.570 11.539006
57.575 11.314326
57.580 11.475677
57.585 11.463594
57.590 11.28186
57.595 10.656674
57.600 10.705334
57.605 11.018023
57.610 11.222858
57.615 11.307791
57.620 11.113527
57.625 11.200823
57.630 11.740168
57.635 12.075043
57.640 12.076185
57.645 11.996729
57.650 12.238758
57.655 12.063539
57.660 11.126785
57.665 10.736475
57.670 10.408558
57.675 10.457744
57.680 9.849043
57.685 9.459883
57.690 9.937848
57.695 10.709838
57.700 10.90558
57.705 11.378974
57.710 11.840462
57.715 12.301297
57.720 12.667302
57.725 12.590276
57.730 12.583699
57.735 12.328857
57.740 11.742071
57.745 11.392043
57.750 11.245519
57.755 10.808599
57.760 10.5209
57.765 10.697706
57.770 10.844798
57.775 10.978247
57.780 11.145611
57.785 11.194069
57.790 11.14191
57.795 11.414212
57.800 11.020677
57.805 10.668234
57.810 10.50939
57.815 10.573916
57.820 10.547387
57.825 10.351077
57.830 10.532696
57.835 11.056206
57.840 11.266813
57.845 11.269238
57.850 11.378674
57.855 11.449426
57.860 11.523888
57.865 11.277178
57.870 11.277947
57.875 11.059548
57.880 10.843249
57.885 10.093045
57.890 9.907013
57.895 9.967462
57.900 10.22331
57.905 10.223136
57.910 10.87513
57.915 11.539245
57.920 11.699754
57.925 11.877707
57.930 11.880692
57.935 11.863077
57.940 11.78328
57.945 11.095557
57.950 10.591412
57.955 10.940569
57.960 11.219383
57.965 11.285295
57.970 10.810888
57.975 11.047158
57.980 11.216602
57.985 11.299154
57.990 11.693853
57.995 11.742361
58.000 11.739628
58.005 12.031949
58.010 11.685397
58.015 11.687672
58.020 11.75517
58.025 11.742139
58.030 12.238806
58.035 12.883261
58.040 13.288393
58.045 13.937703
58.050 14.659117
58.055 14.948227
58.060 14.486918
58.065 13.873806
58.070 13.423375
58.075 13.240871
58.080 12.947717
58.085 12.510059
58.090 12.139107
58.095 12.142614
58.100 12.143446
58.105 12.16178
58.110 12.121161
58.115 12.385839
58.120 12.461297
58.125 12.666793
58.130 12.863833
58.135 13.16214
58.140 13.245254
58.145 13.308321
58.150 13.582284
58.155 14.085515
58.160 13.842577
58.165 13.817942
58.170 13.805494
58.175 13.889562
58.180 13.88041
58.185 13.443275
58.190 12.765068
58.195 12.938094
58.200 12.830209
58.205 12.425964
58.210 12.24777
58.215 12.100611
58.220 11.954017
58.225 12.460335
58.230 12.367912
58.235 12.744958
58.240 12.836234
58.245 12.444518
58.250 11.957321
58.255 12.097336
58.260 11.990924
58.265 12.411033
58.270 12.117898
58.275 11.820266
58.280 12.34748
58.285 13.048181
58.290 13.132928
58.295 13.016284
58.300 12.945029
58.305 13.096626
58.310 13.282321
58.315 13.060214
58.320 12.867764
58.325 13.390063
58.330 13.523732
58.335 13.400839
58.340 13.680502
58.345 13.921397
58.350 14.507698
58.355 15.095028
58.360 14.957336
58.365 14.923304
58.370 14.963893
58.375 15.005098
58.380 15.165548
58.385 15.0061
58.390 14.619637
58.395 14.656211
58.400 14.951115
58.405 15.049092
58.410 15.103244
58.415 14.859214
58.420 15.582895
58.425 16.21307
58.430 16.267946
58.435 16.172857
58.440 16.329704
58.445 16.758352
58.450 17.427946
58.455 17.161503
58.460 16.871244
58.465 17.071907
58.470 17.169123
58.475 17.475996
58.480 17.448828
58.485 17.854364
58.490 18.200117
58.495 18.907614
58.500 19.115139
58.505 19.49449
58.510 19.679491
58.515 19.865053
58.520 19.787584
58.525 20.599998
58.530 20.588762
58.535 20.586123
58.540 21.42909
58.545 21.773647
58.550 22.130505
58.555 22.484711
58.560 22.038265
58.565 22.422764
58.570 22.642464
58.575 22.357914
58.580 23.539869
58.585 23.719893
58.590 24.055004
58.595 24.962444
58.600 25.134047
58.605 25.555618
58.610 25.952332
58.615 25.466021
58.620 25.350302
58.625 25.198709
58.630 25.218475
58.635 26.266094
58.640 26.761654
58.645 26.381903
58.650 25.974583
58.655 25.633953
58.660 25.362865
58.665 24.58835
58.670 23.38847
58.675 23.274925
58.680 22.976124
58.685 23.165442
58.690 23.510141
58.695 23.816586
58.700 24.710411
58.705 25.244699
58.710 24.431681
58.715 24.409542
58.720 23.887535
58.725 23.650015
58.730 22.970238
58.735 22.257725
58.740 21.879902
58.745 22.184557
58.750 22.224831
58.755 22.113167
58.760 21.993719
58.765 22.256535
58.770 22.683764
58.775 22.793774
58.780 22.73139
58.785 22.676517
58.790 23.238331
58.795 23.374651
58.800 22.88085
58.805 22.603043
58.810 21.974897
58.815 21.714712
58.820 21.458672
58.825 20.860882
58.830 20.212715
58.835 19.863411
58.840 19.551142
58.845 19.573818
58.850 19.317556
58.855 18.884487
58.860 19.083475
58.865 19.914082
58.870 19.958023
58.875 19.860146
58.880 19.273987
58.885 19.052216
58.890 18.896351
58.895 18.428806
58.900 17.968061
58.905 17.104042
58.910 16.862089
58.915 17.105473
58.920 17.354136
58.925 17.120619
58.930 16.895197
58.935 16.394577
58.940 16.155817
58.945 15.769068
58.950 15.432961
58.955 15.246355
58.960 15.631762
58.965 15.467941
58.970 15.63906
58.975 16.032696
58.980 15.848673
58.985 15.379642
58.990 15.035557
58.995 14.372221
59.000 14.090141
59.005 14.05217
59.010 13.842971
59.015 13.851521
59.020 13.806856
59.025 13.5889
59.030 13.540647
59.035 13.012608
59.040 12.736782
59.045 12.434425
59.050 12.053181
59.055 11.398412
59.060 11.330029
59.065 11.488277
59.070 11.528184
59.075 11.315154
59.080 11.048748
59.085 10.872353
59.090 11.290628
59.095 11.325276
59.100 11.595748
59.105 12.128469
59.110 12.032712
59.115 11.768497
59.120 11.816596
59.125 11.578564
59.130 11.468427
59.135 11.50209
59.140 11.338422
59.145 11.565004
59.150 11.985261
59.155 12.420911
59.160 12.861281
59.165 12.730242
59.170 12.439426
59.175 12.172203
59.180 12.074723
59.185 11.783173
59.190 11.256548
59.195 11.10536
59.200 11.298589
59.205 10.776489
59.210 10.423719
59.215 10.294388
59.220 10.792002
59.225 11.123698
59.230 10.921348
59.235 11.23219
59.240 11.911113
59.245 12.40754
59.250 12.50038
59.255 12.091191
59.260 12.189718
59.265 11.597341
59.270 11.14732
59.275 10.679719
59.280 10.849888
59.285 11.101838
59.290 11.439599
59.295 11.392683
59.300 11.970147
59.305 12.129357
59.310 12.271321
59.315 12.181462
59.320 12.344732
59.325 12.421082
59.330 12.428999
59.335 12.076472
59.340 11.672623
59.345 11.377245
59.350 11.017347
59.355 10.731988
59.360 10.440206
59.365 10.677145
59.370 10.763051
59.375 11.019893
59.380 11.1091
59.385 11.757841
59.390 12.143569
59.395 12.033956
59.400 12.003485
59.405 11.685751
59.410 11.582347
59.415 11.48151
59.420 10.614981
59.425 10.663183
59.430 10.683062
59.435 10.510625
59.440 11.305832
59.445 11.686927
59.450 11.618778
59.455 11.978509
59.460 11.928148
59.465 11.951273
59.470 11.511198
59.475 10.883758
59.480 10.721579
59.485 10.749221
59.490 10.351717
59.495 9.932682
59.500 10.136649
59.505 10.731543
59.510 11.008603
59.515 10.503483
59.520 10.506268
59.525 10.904445
59.530 10.866916
59.535 10.764259
59.540 10.077349
59.545 10.05197
59.550 10.844951
59.555 11.130133
59.560 11.383975
59.565 11.712636
59.570 11.994709
59.575 12.61348
59.580 12.515211
59.585 12.304859
59.590 12.714619
59.595 12.592849
59.600 12.529816
59.605 12.719924
59.610 12.371482
59.615 12.268379
59.620 12.264529
59.625 11.523644
59.630 11.995493
59.635 12.315623
59.640 12.159594
59.645 12.381603
59.650 12.25112
59.655 12.022309
59.660 11.966231
59.665 11.422894
59.670 11.121445
59.675 11.618701
59.680 11.657852
59.685 11.751674
59.690 12.051166
59.695 11.91282
59.700 11.912806
59.705 11.836636
59.710 11.655941
59.715 11.515092
59.720 11.297095
59.725 10.965511
59.730 11.122747
59.735 11.047492
59.740 10.940288
59.745 10.593733
59.750 10.496254
59.755 11.036642
59.760 11.672516
59.765 11.845571
59.770 11.903007
59.775 11.945346
59.780 12.208993
59.785 12.370366
59.790 12.26803
59.795 11.759786
59.800 11.235599
59.805 11.235368
59.810 11.169888
59.815 10.79319
59.820 10.829381
59.825 10.723724
59.830 10.909169
59.835 11.000093
59.840 10.788763
59.845 10.566233
59.850 10.219204
59.855 10.206731
59.860 10.315081
59.865 10.212579
59.870 10.42357
59.875 10.600363
59.880 11.013783
59.885 11.461856
59.890 11.572351
59.895 11.772319
59.900 12.129892
59.905 11.946686
59.910 11.999489
59.915 12.050414
59.920 12.184027
59.925 12.360822
59.930 12.06126
59.935 11.815015
59.940 11.960663
59.945 11.948573
59.950 11.761751
59.955 11.663329
59.960 11.545292
59.965 11.511517
59.970 11.35572
59.975 11.196724
59.980 11.119081
59.985 11.156198
59.990 11.586074
59.995 11.951775
60.000 12.202924
60.005 12.329888
60.010 12.661834
60.015 12.500506
60.020 12.668181
60.025 11.55257
60.030 10.952296
60.035 11.166556
60.040 11.431684
60.045 11.855036
60.050 12.14148
60.055 11.675287
60.060 12.102911
60.065 12.027802
60.070 12.169453
60.075 12.161677
60.080 11.388203
60.085 11.643187
60.090 11.935492
60.095 11.995679
60.100 11.554978
60.105 10.845905
60.110 10.439149
60.115 10.548329
60.120 10.700361
60.125 10.7808
60.130 10.844488
60.135 11.071838
60.140 10.852145
60.145 11.246333
60.150 11.253749
60.155 10.982152
60.160 11.22024
60.165 11.108913
60.170 11.52675
60.175 11.636622
60.180 11.265939
60.185 11.474641
60.190 11.202756
60.195 10.807363
60.200 10.830271
60.205 10.788675
60.210 10.646268
60.215 10.971308
60.220 10.367698
60.225 10.87395
60.230 11.154519
60.235 10.969821
60.240 11.300427
60.245 11.360731
60.250 11.284967
60.255 11.846642
60.260 11.774946
60.265 11.965811
60.270 12.021901
60.275 11.786255
60.280 12.139021
60.285 12.078181
60.290 11.764215
60.295 11.329656
60.300 11.717772
60.305 12.274808
60.310 12.201204
60.315 12.030802
60.320 11.766396
60.325 11.726412
60.330 12.083785
60.335 11.806534
60.340 12.021791
60.345 11.841212
60.350 11.973998
60.355 12.323921
60.360 12.285469
60.365 12.224398
60.370 12.265292
60.375 11.694088
60.380 11.895044
60.385 11.857118
60.390 11.89722
60.395 12.219636
60.400 12.004057
60.405 11.6917
60.410 11.94073
60.415 12.253458
60.420 12.380422
60.425 12.87883
60.430 12.686012
60.435 12.799087
60.440 13.036845
60.445 12.416172
60.450 11.786006
60.455 11.370067
60.460 10.703791
60.465 10.810117
60.470 11.101108
60.475 10.838236
60.480 11.061967
60.485 11.058036
60.490 11.139557
60.495 11.241617
60.500 11.281232
60.505 11.12574
60.510 11.569595
60.515 11.392898
60.520 11.52597
60.525 11.878117
60.530 11.708207
60.535 11.825185
60.540 11.696384
60.545 11.536414
60.550 11.440425
60.555 11.518081
60.560 11.090757
60.565 10.797325
60.570 10.865197
60.575 11.245334
60.580 11.482208
60.585 11.45538
60.590 11.351759
60.595 11.603627
60.600 12.014363
60.605 12.156462
60.610 11.971921
60.615 12.030704
60.620 12.544371
60.625 12.446699
60.630 12.322337
60.635 12.15777
60.640 11.511739
60.645 11.435488
60.650 11.339633
60.655 11.120871
60.660 11.025381
60.665 10.845168
60.670 10.760497
60.675 11.035049
60.680 11.234174
60.685 10.95055
60.690 11.242394
60.695 11.353312
60.700 11.329159
60.705 11.5569
60.710 11.263777
60.715 11.28316
60.720 11.584217
60.725 11.589195
60.730 11.846908
60.735 12.338347
60.740 12.243239
60.745 12.459991
60.750 12.545373
60.755 12.491723
60.760 12.602469
60.765 12.473557
60.770 11.915754
60.775 11.913861
60.780 12.142077
60.785 11.821609
60.790 12.087673
60.795 11.993937
60.800 11.861878
60.805 12.164971
60.810 12.278309
60.815 11.84302
60.820 11.003119
60.825 10.572124
60.830 10.956602
60.835 11.291142
60.840 11.214757
60.845 11.329784
60.850 11.803288
60.855 12.861779
60.860 13.512277
60.865 13.606431
60.870 13.834222
60.875 13.973607
60.880 13.386712
60.885 12.928927
60.890 12.390385
60.895 12.068624
60.900 11.898218
60.905 11.859841
60.910 11.682029
60.915 11.925455
60.920 12.398095
60.925 13.207295
60.930 13.299263
60.935 12.925869
60.940 12.759653
60.945 12.810181
60.950 12.898341
60.955 12.696876
60.960 12.180866
60.965 12.069837
60.970 12.327089
60.975 12.55228
60.980 12.530816
60.985 12.588069
60.990 12.5716
60.995 12.388183
61.000 12.336959
61.005 12.312251
61.010 12.580004
61.015 12.832998
61.020 13.327214
61.025 13.12193
61.030 13.220566
61.035 13.13329
61.040 12.863729
61.045 12.527906
61.050 12.296602
61.055 12.230245
61.060 12.435624
61.065 12.471625
61.070 12.570364
61.075 12.266715
61.080 12.360328
61.085 12.248456
61.090 11.754434
61.095 11.522069
61.100 11.242181
61.105 10.959052
61.110 10.933235
61.115 10.618495
61.120 10.418691
61.125 10.692022
61.130 10.82518
61.135 11.134237
61.140 11.538195
61.145 11.96183
61.150 12.405091
61.155 12.79016
61.160 12.416022
61.165 12.410107
61.170 12.076425
61.175 12.074033
61.180 12.019154
61.185 11.651835
61.190 11.873204
61.195 12.304434
61.200 12.407499
61.205 12.919584
61.210 12.789848
61.215 12.658534
61.220 12.548885
61.225 12.587853
61.230 12.970454
61.235 12.755868
61.240 12.130462
61.245 11.885845
61.250 12.093379
61.255 12.679496
61.260 12.157407
61.265 11.11286
61.270 11.243081
61.275 11.521526
61.280 11.503096
61.285 11.427587
61.290 11.295185
61.295 11.298863
61.300 12.124099
61.305 12.240773
61.310 12.274302
61.315 12.835793
61.320 12.408001
61.325 12.33562
61.330 12.202543
61.335 11.73248
61.340 11.690451
61.345 11.847787
61.350 11.680273
61.355 11.77557
61.360 11.821744
61.365 12.138188
61.370 12.439496
61.375 12.229761
61.380 12.626046
61.385 12.860982
61.390 13.048986
61.395 12.660191
61.400 12.540721
61.405 12.221231
61.410 12.531721
61.415 11.996738
61.420 11.627653
61.425 11.697313
61.430 11.800679
61.435 12.246162
61.440 12.625961
61.445 12.527224
61.450 12.582506
61.455 12.970665
61.460 12.991068
61.465 12.960953
61.470 12.442501
61.475 12.064178
61.480 12.291033
61.485 12.120449
61.490 12.238338
61.495 12.317394
61.500 12.8036
61.505 13.094607
61.510 13.291298
61.515 13.158929
61.520 13.074102
61.525 12.896184
61.530 13.052165
61.535 12.892408
61.540 12.91739
61.545 13.092933
61.550 13.694323
61.555 14.176531
61.560 14.126259
61.565 13.402214
61.570 13.076389
61.575 13.160595
61.580 12.994059
61.585 12.368143
61.590 12.064589
61.595 11.884298
61.600 12.232129
61.605 12.091974
61.610 11.999931
61.615 11.721412
61.620 11.70461
61.625 11.627782
61.630 11.684573
61.635 12.004596
61.640 12.202191
61.645 12.050433
61.650 12.137094
61.655 11.851143
61.660 11.757725
61.665 11.921039
61.670 11.778546
61.675 11.801878
61.680 11.90675
61.685 12.083055
61.690 12.479468
61.695 12.126279
61.700 11.859771
61.705 11.898984
61.710 12.119458
61.715 11.998319
61.720 11.630014
61.725 12.023781
61.730 12.668401
61.735 12.919639
61.740 12.536684
61.745 12.464531
61.750 12.709832
61.755 12.943191
61.760 12.225716
61.765 11.77931
61.770 11.509041
61.775 11.632244
61.780 11.499978
61.785 11.480573
61.790 11.300517
61.795 11.62293
61.800 11.523788
61.805 11.505602
61.810 12.080343
61.815 12.291053
61.820 12.634801
61.825 13.084677
61.830 12.915845
61.835 13.055703
61.840 13.06082
61.845 12.826174
61.850 12.365408
61.855 11.812198
61.860 11.990046
61.865 12.626197
61.870 13.160107
61.875 13.542303
61.880 13.561477
61.885 13.516395
61.890 13.531262
61.895 13.016379
61.900 12.645277
61.905 12.347192
61.910 11.679937
61.915 11.497392
61.920 12.169586
61.925 12.6496
61.930 12.897935
61.935 13.011175
61.940 12.806303
61.945 12.94514
61.950 12.864862
61.955 12.52232
61.960 11.703283
61.965 11.373972
61.970 11.545523
61.975 12.731191
61.980 12.694847
61.985 12.699408
61.990 12.407889
61.995 13.241572
62.000 13.365008
62.005 12.911604
62.010 12.497296
62.015 12.695189
62.020 12.655789
62.025 12.825401
62.030 12.256293
62.035 12.290543
62.040 12.404596
62.045 11.769169
62.050 11.874965
62.055 12.211477
62.060 12.101249
62.065 12.106936
62.070 12.083158
62.075 12.087
62.080 12.375058
62.085 12.179217
62.090 12.122494
62.095 12.447392
62.100 12.373087
62.105 12.460091
62.110 12.516262
62.115 12.600318
62.120 12.462901
62.125 12.298086
62.130 12.014288
62.135 11.978652
62.140 12.08084
62.145 11.791594
62.150 11.736978
62.155 11.742814
62.160 11.570524
62.165 12.024082
62.170 13.168429
62.175 13.622211
62.180 13.999923
62.185 14.451752
62.190 14.956593
62.195 15.023923
62.200 14.527402
62.205 13.53837
62.210 13.318217
62.215 13.381607
62.220 13.512273
62.225 13.315117
62.230 13.499388
62.235 13.852501
62.240 13.910909
62.245 13.454556
62.250 13.069214
62.255 12.851198
62.260 12.806037
62.265 12.56902
62.270 12.462191
62.275 12.657311
62.280 12.539225
62.285 12.517202
62.290 12.427773
62.295 12.918198
62.300 13.010528
62.305 12.391949
62.310 12.401385
62.315 12.773284
62.320 12.609106
62.325 12.4804
62.330 12.079392
62.335 12.089794
62.340 11.988135
62.345 11.204323
62.350 10.943483
62.355 11.1326
62.360 11.173042
62.365 11.467576
62.370 12.149199
62.375 12.879823
62.380 13.319608
62.385 13.79643
62.390 13.790644
62.395 13.620837
62.400 13.185926
62.405 12.897038
62.410 12.819722
62.415 13.014391
62.420 12.727077
62.425 12.778234
62.430 12.680415
62.435 12.930511
62.440 12.826747
62.445 13.33602
62.450 13.937379
62.455 14.029087
62.460 14.073622
62.465 14.241208
62.470 14.043112
62.475 14.424634
62.480 14.288065
62.485 13.623902
62.490 13.670296
62.495 13.47587
62.500 13.724891
62.505 13.643536
62.510 13.390182
62.515 13.078323
62.520 13.297373
62.525 13.377183
62.530 13.274962
62.535 12.893751
62.540 12.893334
62.545 12.310416
62.550 12.03121
62.555 11.621112
62.560 11.192847
62.565 11.335962
62.570 11.315745
62.575 11.299882
62.580 11.639031
62.585 11.981522
62.590 12.048246
62.595 12.113197
62.600 12.113099
62.605 12.250724
62.610 12.181361
62.615 12.367147
62.620 12.378247
62.625 12.732435
62.630 12.582663
62.635 12.597327
62.640 12.258502
62.645 12.478948
62.650 12.224923
62.655 11.929245
62.660 11.834075
62.665 12.54634
62.670 12.857865
62.675 13.395594
62.680 13.02266
62.685 13.446792
62.690 13.858825
62.695 13.810102
62.700 13.659499
62.705 13.344165
62.710 13.402674
62.715 13.796709
62.720 13.442528
62.725 12.956758
62.730 12.366556
62.735 11.715227
62.740 11.640655
62.745 11.801798
62.750 12.029387
62.755 11.989324
62.760 12.187722
62.765 12.698614
62.770 13.149986
62.775 13.137365
62.780 12.750916
62.785 12.493217
62.790 12.764585
62.795 13.009253
62.800 12.87661
62.805 12.760743
62.810 12.802952
62.815 13.005606
62.820 12.986231
62.825 12.865568
62.830 13.20657
62.835 13.433264
62.840 13.667315
62.845 13.657812
62.850 13.224582
62.855 13.079685
62.860 12.827727
62.865 12.263
62.870 12.21672
62.875 12.196201
62.880 12.148676
62.885 12.42333
62.890 12.302712
62.895 12.852033
62.900 13.36678
62.905 13.574905
62.910 13.460646
62.915 13.586184
62.920 13.618126
62.925 14.120066
62.930 14.129935
62.935 13.848276
62.940 13.242234
62.945 13.915261
62.950 14.113017
62.955 13.569272
62.960 12.98822
62.965 12.790145
62.970 13.040022
62.975 13.342203
62.980 12.836403
62.985 12.259429
62.990 12.680214
62.995 13.517174
63.000 13.623797
63.005 13.658509
63.010 13.976247
63.015 14.436956
63.020 15.151873
63.025 15.544728
63.030 14.903854
63.035 14.862104
63.040 15.112096
63.045 15.004075
63.050 14.751882
63.055 14.45205
63.060 13.778891
63.065 13.852806
63.070 13.624766
63.075 13.218338
63.080 12.725263
63.085 12.304016
63.090 12.030396
63.095 12.261281
63.100 12.192
63.105 12.348075
63.110 12.33368
63.115 12.556753
63.120 13.124481
63.125 13.618012
63.130 13.597589
63.135 13.816114
63.140 13.364549
63.145 13.073617
63.150 13.312093
63.155 13.007237
63.160 12.348436
63.165 11.870344
63.170 11.660314
63.175 12.324026
63.180 12.589039
63.185 12.705467
63.190 12.604756
63.195 12.432665
63.200 12.670078
63.205 12.625789
63.210 12.532079
63.215 12.618924
63.220 12.417084
63.225 12.269032
63.230 12.76835
63.235 12.976485
63.240 12.856208
63.245 12.804338
63.250 12.609404
63.255 12.592489
63.260 12.929856
63.265 13.139741
63.270 13.090878
63.275 13.902348
63.280 14.096064
63.285 14.187727
63.290 13.989535
63.295 13.808981
63.300 13.717424
63.305 13.622031
63.310 13.025498
63.315 12.748643
63.320 12.55267
63.325 12.54466
63.330 12.559222
63.335 12.087894
63.340 12.121658
63.345 11.890491
63.350 12.049404
63.355 12.192776
63.360 12.487685
63.365 13.043408
63.370 13.183374
63.375 13.3919
63.380 13.900223
63.385 14.111835
63.390 14.16943
63.395 14.026482
63.400 13.804894
63.405 13.985032
63.410 13.472145
63.415 13.042352
63.420 12.692172
63.425 12.839352
63.430 12.823113
63.435 12.867734
63.440 12.680701
63.445 12.487755
63.450 12.783389
63.455 13.274277
63.460 12.974752
63.465 13.054725
63.470 13.431681
63.475 13.726094
63.480 14.09352
63.485 13.892879
63.490 13.680312
63.495 13.685817
63.500 13.556647
63.505 13.07658
63.510 12.908423
63.515 12.822634
63.520 12.83883
63.525 12.729503
63.530 12.772468
63.535 12.898595
63.540 13.100726
63.545 13.194642
63.550 12.859258
63.555 12.437529
63.560 12.852011
63.565 12.958171
63.570 12.911805
63.575 12.565845
63.580 12.514371
63.585 13.068464
63.590 13.74516
63.595 13.865749
63.600 13.885114
63.605 13.93377
63.610 14.396272
63.615 15.045937
63.620 14.828012
63.625 14.332645
63.630 13.63874
63.635 13.256241
63.640 12.89227
63.645 12.473667
63.650 12.007727
63.655 12.615025
63.660 12.908353
63.665 13.0375
63.670 13.629448
63.675 14.367582
63.680 14.5869
63.685 14.605721
63.690 14.499427
63.695 14.491277
63.700 14.953219
63.705 14.565836
63.710 13.806275
63.715 13.739186
63.720 13.63968
63.725 13.689243
63.730 13.781716
63.735 13.740314
63.740 13.758069
63.745 14.032035
63.750 14.535559
63.755 14.77646
63.760 14.39159
63.765 14.534959
63.770 14.408113
63.775 14.591864
63.780 14.991839
63.785 14.65304
63.790 14.396789
63.795 14.243842
63.800 13.959187
63.805 14.149475
63.810 13.933892
63.815 13.855094
63.820 13.793116
63.825 14.029157
63.830 14.09309
63.835 14.230932
63.840 14.298385
63.845 14.383566
63.850 14.307289
63.855 14.377318
63.860 14.275159
63.865 14.24502
63.870 14.295505
63.875 13.991102
63.880 14.012763
63.885 14.457223
63.890 14.260514
63.895 13.891822
63.900 13.914264
63.905 14.282184
63.910 14.216972
63.915 13.739235
63.920 13.372648
63.925 13.70312
63.930 14.360843
63.935 14.39668
63.940 14.280669
63.945 14.504094
63.950 14.555048
63.955 14.641142
63.960 14.791583
63.965 14.991947
63.970 15.441323
63.975 15.291113
63.980 15.503498
63.985 15.91922
63.990 15.844445
63.995 16.00079
64.000 15.947133
64.005 15.773057
64.010 16.05929
64.015 16.111198
64.020 16.309059
64.025 16.430059
64.030 16.466099
64.035 16.68939
64.040 16.668869
64.045 17.047417
64.050 17.881363
64.055 18.719946
64.060 19.194773
64.065 19.022825
64.070 19.279312
64.075 19.711803
64.080 20.003477
64.085 19.580475
64.090 18.807964
64.095 19.053427
64.100 18.871891
64.105 18.979078
64.110 19.581884
64.115 20.475603
64.120 21.550442
64.125 22.34178
64.130 22.454332
64.135 23.630331
64.140 23.973888
64.145 23.363619
64.150 22.676674
64.155 22.191183
64.160 21.931387
64.165 21.885807
64.170 21.676619
64.175 21.865566
64.180 22.093477
64.185 22.331352
64.190 23.274551
64.195 24.544621
64.200 25.120527
64.205 25.194424
64.210 25.586481
64.215 25.866194
64.220 25.738461
64.225 25.471333
64.230 25.412222
64.235 26.240025
64.240 27.080124
64.245 27.116844
64.250 27.194418
64.255 28.779587
64.260 29.229059
64.265 29.423607
64.270 29.619862
64.275 29.557915
64.280 30.035818
64.285 30.520586
64.290 30.838226
64.295 30.694021
64.300 30.97718
64.305 30.406559
64.310 30.435993
64.315 30.82262
64.320 30.87446
64.325 30.929512
64.330 31.232946
64.335 30.80401
64.340 31.782862
64.345 31.53615
64.350 31.778601
64.355 32.123455
64.360 32.978992
64.365 33.650658
64.370 34.130726
64.375 33.91909
64.380 34.541046
64.385 34.766499
64.390 34.873405
64.395 34.841774
64.400 35.093796
64.405 35.476048
64.410 35.876816
64.415 35.253735
64.420 34.776279
64.425 35.302402
64.430 35.009453
64.435 33.966358
64.440 33.924438
64.445 34.676083
64.450 35.301674
64.455 35.152939
64.460 34.059891
64.465 34.540909
64.470 35.14146
64.475 34.382927
64.480 33.305286
64.485 32.746559
64.490 32.563648
64.495 32.63184
64.500 31.012524
64.505 30.589239
64.510 29.984329
64.515 29.827288
64.520 30.133486
64.525 30.249506
64.530 29.953382
64.535 30.313807
64.540 29.973673
64.545 30.273811
64.550 30.302746
64.555 29.975962
64.560 29.513748
64.565 29.176556
64.570 28.581169
64.575 28.142443
64.580 27.332212
64.585 26.768246
64.590 26.384562
64.595 25.861746
64.600 24.916599
64.605 24.528671
64.610 24.55307
64.615 24.466064
64.620 23.855415
64.625 23.263702
64.630 23.614252
64.635 23.588562
64.640 23.088799
64.645 22.776134
64.650 23.532591
64.655 24.128323
64.660 24.025661
64.665 23.777424
64.670 24.087198
64.675 23.65855
64.680 23.2225
64.685 22.277369
64.690 21.184628
64.695 20.548218
64.700 19.734449
64.705 19.005796
64.710 18.583813
64.715 18.282269
64.720 18.118837
64.725 18.392172
64.730 18.853928
64.735 19.030695
64.740 18.987783
64.745 18.991074
64.750 18.730967
64.755 18.58506
64.760 18.11153
64.765 18.017603
64.770 17.797804
64.775 17.850275
64.780 18.151779
64.785 18.329161
64.790 17.72014
64.795 17.474449
64.800 17.035316
64.805 16.985655
64.810 16.405191
64.815 16.594603
64.820 16.947792
64.825 17.975321
64.830 18.739523
64.835 19.175701
64.840 19.415945
64.845 19.783869
64.850 19.137859
64.855 17.945299
64.860 16.95912
64.865 16.431635
64.870 16.324423
64.875 15.774609
64.880 15.4206
64.885 15.838029
64.890 16.752169
64.895 17.200779
64.900 17.100975
64.905 17.005032
64.910 16.894503
64.915 16.873859
64.920 16.51487
64.925 16.945826
64.930 16.974829
64.935 17.536476
64.940 18.133141
64.945 18.831358
64.950 19.437826
64.955 19.454977
64.960 18.712749
64.965 18.462019
64.970 18.210327
64.975 18.05262
64.980 18.401915
64.985 18.549149
64.990 19.075737
64.995 19.756374
65.000 19.959261
65.005 19.653519
65.010 19.631584
65.015 19.642776
65.020 19.296532
65.025 19.587355
65.030 20.00528
65.035 20.064129
65.040 20.590698
65.045 20.816259
65.050 20.774282
65.055 21.532755
65.060 21.80591
65.065 21.855927
65.070 22.740873
65.075 22.737543
65.080 22.230068
65.085 22.274315
65.090 22.199579
65.095 22.251696
65.100 22.081921
65.105 21.42153
65.110 21.269993
65.115 22.021902
65.120 22.130989
65.125 21.475214
65.130 21.27812
65.135 21.435919
65.140 21.952587
65.145 22.093435
65.150 22.125971
65.155 22.240389
65.160 22.980871
65.165 22.849863
65.170 22.767462
65.175 23.17555
65.180 23.482092
65.185 22.958538
65.190 23.121105
65.195 22.97049
65.200 23.379734
65.205 23.231554
65.210 22.93622
65.215 22.831327
65.220 23.209013
65.225 23.531891
65.230 23.474262
65.235 23.491713
65.240 24.206778
65.245 24.148714
65.250 24.200691
65.255 24.63798
65.260 24.480179
65.265 24.901806
65.270 25.368542
65.275 25.340256
65.280 25.612984
65.285 26.233332
65.290 26.412157
65.295 26.512775
65.300 26.893948
65.305 26.895374
65.310 27.609806
65.315 27.863544
65.320 27.951797
65.325 27.741892
65.330 27.425131
65.335 26.68129
65.340 26.029539
65.345 25.700544
65.350 25.921055
65.355 25.951143
65.360 26.375237
65.365 26.160734
65.370 26.296375
65.375 26.704124
65.380 26.70656
65.385 26.411432
65.390 26.068672
65.395 26.026632
65.400 26.624523
65.405 26.951992
65.410 26.586794
65.415 26.687067
65.420 26.66641
65.425 26.629684
65.430 26.538208
65.435 26.551792
65.440 27.016058
65.445 27.282391
65.450 27.503214
65.455 28.019609
65.460 28.602093
65.465 28.699038
65.470 28.178457
65.475 27.746887
65.480 27.575132
65.485 26.742395
65.490 25.749765
65.495 25.059389
65.500 25.052168
65.505 25.639961
65.510 25.166485
65.515 25.51211
65.520 25.960609
65.525 26.303392
65.530 26.960171
65.535 26.928478
65.540 26.665567
65.545 27.259878
65.550 27.469164
65.555 27.997677
65.560 28.016571
65.565 27.628292
65.570 27.615438
65.575 28.184776
65.580 29.150621
65.585 29.603525
65.590 28.945452
65.595 29.362627
65.600 29.928375
65.605 30.291731
65.610 30.00029
65.615 29.279341
65.620 28.82206
65.625 29.170176
65.630 29.236771
65.635 28.437784
65.640 28.40044
65.645 28.587135
65.650 28.557764
65.655 28.099733
65.660 27.9743
65.665 27.395119
65.670 27.445221
65.675 27.991089
65.680 28.78302
65.685 28.252153
65.690 29.234907
65.695 29.587122
65.700 29.513268
65.705 29.407236
65.710 28.54236
65.715 27.546131
65.720 27.434513
65.725 27.384567
65.730 26.899456
65.735 26.987673
65.740 26.416874
65.745 26.162617
65.750 26.696066
65.755 27.074118
65.760 25.882589
65.765 26.202974
65.770 26.477924
65.775 27.009443
65.780 27.166729
65.785 26.423546
65.790 26.464712
65.795 26.658388
65.800 26.070658
65.805 25.518602
65.810 25.342634
65.815 24.867956
65.820 24.60774
65.825 24.176479
65.830 24.455429
65.835 25.035975
65.840 25.254162
65.845 24.959179
65.850 25.400599
65.855 25.385983
65.860 24.494614
65.865 23.929129
65.870 23.573402
65.875 23.592646
65.880 23.665094
65.885 23.175449
65.890 22.980783
65.895 23.265432
65.900 23.268074
65.905 22.591717
65.910 22.039598
65.915 21.594358
65.920 21.348967
65.925 21.595955
65.930 21.586178
65.935 21.342218
65.940 21.257067
65.945 21.159678
65.950 21.156332
65.955 20.714922
65.960 20.817057
65.965 20.744833
65.970 20.67963
65.975 20.622679
65.980 20.166796
65.985 20.056334
65.990 19.949631
65.995 19.301889
66.000 19.244505
66.005 19.134882
66.010 19.236025
66.015 19.611139
66.020 19.507668
66.025 19.318691
66.030 19.259947
66.035 19.184048
66.040 19.206665
66.045 19.197166
66.050 19.170437
66.055 19.233393
66.060 19.164967
66.065 18.625875
66.070 18.171938
66.075 17.987112
66.080 18.232218
66.085 18.284704
66.090 18.763727
66.095 19.057079
66.100 19.648422
66.105 20.174297
66.110 19.866209
66.115 19.445051
66.120 19.421782
66.125 18.551996
66.130 18.155781
66.135 17.133059
66.140 16.425802
66.145 16.08555
66.150 16.077091
66.155 15.680498
66.160 16.095922
66.165 15.996143
66.170 15.74003
66.175 15.540305
66.180 15.820883
66.185 15.759694
66.190 15.612623
66.195 15.159654
66.200 15.530664
66.205 16.414219
66.210 16.390659
66.215 15.770989
66.220 15.356496
66.225 15.240486
66.230 15.592065
66.235 15.596185
66.240 15.137576
66.245 15.450102
66.250 15.941689
66.255 16.601902
66.260 16.654995
66.265 16.381845
66.270 16.157793
66.275 15.311467
66.280 15.002711
66.285 14.932344
66.290 14.55656
66.295 14.622722
66.300 14.315569
66.305 14.303576
66.310 14.552232
66.315 14.844337
66.320 14.9438
66.325 14.606967
66.330 14.554843
66.335 14.726439
66.340 14.895659
66.345 15.408379
66.350 15.56375
66.355 15.271095
66.360 15.947075
66.365 16.196184
66.370 15.878056
66.375 15.712013
66.380 15.259555
66.385 14.706832
66.390 14.507132
66.395 14.006882
66.400 13.924794
66.405 14.493562
66.410 14.630499
66.415 14.551894
66.420 15.125828
66.425 15.216163
66.430 15.271146
66.435 15.040894
66.440 14.929024
66.445 14.919938
66.450 14.467199
66.455 14.354311
66.460 14.109197
66.465 13.948798
66.470 14.10207
66.475 13.701043
66.480 14.337028
66.485 15.023424
66.490 15.296523
66.495 15.644215
66.500 15.5025
66.505 15.535728
66.510 15.825215
66.515 15.299754
66.520 15.14795
66.525 14.668747
66.530 14.483072
66.535 14.271495
66.540 14.36563
66.545 14.435159
66.550 14.609113
66.555 14.161009
66.560 13.972704
66.565 14.290129
66.570 14.64813
66.575 14.694156
66.580 14.488755
66.585 13.662751
66.590 13.818453
66.595 14.239965
66.600 13.938344
66.605 13.923874
66.610 13.714705
66.615 13.879869
66.620 14.183125
66.625 13.917343
66.630 13.683083
66.635 13.698875
66.640 13.309771
66.645 13.460187
66.650 13.59902
66.655 13.904964
66.660 14.076327
66.665 14.079741
66.670 13.986307
66.675 14.14347
66.680 14.11252
66.685 13.558192
66.690 13.256437
66.695 13.422295
66.700 13.385328
66.705 13.627464
66.710 14.125732
66.715 14.087639
66.720 14.084221
66.725 14.475588
66.730 14.403829
66.735 14.419249
66.740 14.417119
66.745 14.103071
66.750 14.64334
66.755 15.1309
66.760 15.075772
66.765 15.294733
66.770 16.180944
66.775 16.349995
66.780 16.390892
66.785 15.884551
66.790 15.428628
66.795 14.991856
66.800 15.24441
66.805 14.346072
66.810 14.088922
66.815 13.88798
66.820 13.710629
66.825 13.744673
66.830 13.978005
66.835 13.766293
66.840 13.79453
66.845 13.858292
66.850 13.833133
66.855 14.024963
66.860 14.398257
66.865 14.675164
66.870 14.77646
66.875 14.884083
66.880 14.715423
66.885 14.817092
66.890 14.824214
66.895 15.051654
66.900 14.89929
66.905 14.658301
66.910 14.423187
66.915 14.100363
66.920 14.119183
66.925 14.200383
66.930 14.200272
66.935 13.906576
66.940 14.089247
66.945 14.266189
66.950 14.849769
66.955 14.76051
66.960 14.877741
66.965 14.681005
66.970 14.912274
66.975 15.197218
66.980 15.164252
66.985 14.985052
66.990 15.000734
66.995 14.984857
67.000 15.451497
67.005 15.622293
67.010 15.816991
67.015 16.023806
67.020 15.932993
67.025 15.480467
67.030 14.991314
67.035 14.255955
67.040 14.106924
67.045 14.17121
67.050 13.752754
67.055 13.703932
67.060 13.780409
67.065 13.725202
67.070 13.908357
67.075 13.727615
67.080 12.968584
67.085 13.206815
67.090 13.997149
67.095 14.249005
67.100 14.393376
67.105 14.409642
67.110 14.501952
67.115 15.14932
67.120 15.43371
67.125 14.816124
67.130 14.836915
67.135 14.679684
67.140 14.418402
67.145 13.784184
67.150 13.294651
67.155 13.48546
67.160 13.854806
67.165 13.899638
67.170 13.770827
67.175 13.654432
67.180 14.37855
67.185 14.489851
67.190 13.549851
67.195 13.458683
67.200 13.64139
67.205 14.065496
67.210 14.354515
67.215 13.973937
67.220 13.98359
67.225 14.185499
67.230 14.174133
67.235 13.446232
67.240 13.306191
67.245 13.474526
67.250 13.863237
67.255 14.009665
67.260 14.213196
67.265 14.253382
67.270 14.518093
67.275 14.845502
67.280 14.916909
67.285 14.683654
67.290 14.388033
67.295 14.020046
67.300 14.039124
67.305 13.777721
67.310 12.881114
67.315 12.38416
67.320 12.364364
67.325 12.518497
67.330 12.720026
67.335 12.730273
67.340 13.4528
67.345 13.847606
67.350 13.769258
67.355 13.559006
67.360 14.048408
67.365 14.272329
67.370 14.258632
67.375 14.147824
67.380 14.15226
67.385 14.059425
67.390 13.722551
67.395 13.014597
67.400 13.058346
67.405 13.074297
67.410 13.391092
67.415 13.947183
67.420 14.202239
67.425 14.868794
67.430 15.115845
67.435 15.391985
67.440 15.572203
67.445 15.409956
67.450 14.96491
67.455 14.745797
67.460 14.489851
67.465 14.279562
67.470 14.05067
67.475 13.868986
67.480 14.130295
67.485 14.722808
67.490 14.995399
67.495 14.654646
67.500 14.663472
67.505 14.373564
67.510 14.010521
67.515 12.907957
67.520 11.86525
67.525 11.661303
67.530 11.838291
67.535 12.12427
67.540 12.569536
67.545 12.885352
67.550 13.089634
67.555 13.849273
67.560 14.166712
67.565 14.098637
67.570 13.414612
67.575 12.634595
67.580 12.853808
67.585 13.10855
67.590 12.511339
67.595 12.337002
67.600 12.131139
67.605 12.29264
67.610 12.242917
67.615 12.253209
67.620 12.517843
67.625 13.131741
67.630 13.469232
67.635 14.164818
67.640 14.312857
67.645 14.981821
67.650 14.884822
67.655 14.717937
67.660 14.389528
67.665 14.111667
67.670 13.776905
67.675 13.457705
67.680 13.114254
67.685 13.260551
67.690 13.924565
67.695 14.018009
67.700 13.847631
67.705 13.914491
67.710 14.467364
67.715 14.138379
67.720 14.156185
67.725 13.804679
67.730 14.11611
67.735 14.157461
67.740 14.113357
67.745 13.923679
67.750 14.014821
67.755 13.873059
67.760 14.422157
67.765 14.91193
67.770 15.193064
67.775 15.386205
67.780 15.65656
67.785 15.666875
67.790 15.673597
67.795 14.744493
67.800 14.284091
67.805 14.405819
67.810 14.331039
67.815 14.202396
67.820 14.147969
67.825 13.77792
67.830 13.610638
67.835 13.584577
67.840 13.417634
67.845 13.124149
67.850 13.182698
67.855 13.019828
67.860 13.219604
67.865 13.67115
67.870 13.800546
67.875 13.951742
67.880 14.014354
67.885 13.871385
67.890 14.056973
67.895 14.05719
67.900 14.08258
67.905 14.26123
67.910 14.2718
67.915 14.138666
67.920 14.468036
67.925 14.844399
67.930 15.089607
67.935 14.880469
67.940 14.4429
67.945 14.54586
67.950 14.531346
67.955 14.147192
67.960 14.020906
67.965 13.845748
67.970 13.934222
67.975 13.974768
67.980 13.923556
67.985 14.340627
67.990 14.506339
67.995 14.264966
68.000 13.934965
68.005 14.076755
68.010 13.944243
68.015 14.009666
68.020 14.226396
68.025 14.410405
68.030 14.596819
68.035 14.488367
68.040 14.751829
68.045 14.773142
68.050 14.207871
68.055 13.891817
68.060 13.773847
68.065 13.618896
68.070 13.921362
68.075 13.695831
68.080 13.788975
68.085 14.131786
68.090 13.950127
68.095 13.389846
68.100 13.631644
68.105 13.65597
68.110 14.007613
68.115 14.057426
68.120 13.840352
68.125 14.355375
68.130 14.537172
68.135 14.47541
68.140 14.22844
68.145 13.908856
68.150 13.915994
68.155 14.360006
68.160 14.266169
68.165 14.149936
68.170 14.100117
68.175 14.627558
68.180 14.470579
68.185 14.559024
68.190 14.264199
68.195 14.361315
68.200 14.798484
68.205 14.854742
68.210 14.85258
68.215 15.018434
68.220 15.869312
68.225 16.201084
68.230 16.222862
68.235 16.153145
68.240 16.474003
68.245 16.207979
68.250 16.077366
68.255 15.991511
68.260 16.091564
68.265 16.069937
68.270 15.944698
68.275 16.002098
68.280 16.277245
68.285 16.07703
68.290 15.540032
68.295 15.47134
68.300 15.611257
68.305 15.989742
68.310 16.014347
68.315 16.886683
68.320 17.171076
68.325 17.405663
68.330 18.350584
68.335 18.560312
68.340 18.4214
68.345 18.151733
68.350 17.977325
68.355 18.084013
68.360 18.303768
68.365 17.670971
68.370 17.987879
68.375 18.167444
68.380 18.953125
68.385 19.332113
68.390 19.670631
68.395 19.281965
68.400 19.359056
68.405 19.723642
68.410 19.940079
68.415 19.571188
68.420 19.914358
68.425 20.326406
68.430 20.638773
68.435 21.025837
68.440 21.011654
68.445 21.177649
68.450 21.254059
68.455 21.135729
68.460 21.072449
68.465 21.90407
68.470 22.01553
68.475 22.011421
68.480 22.082191
68.485 21.737446
68.490 21.491468
68.495 21.474936
68.500 21.101549
68.505 21.048996
68.510 21.258827
68.515 21.147594
68.520 22.178015
68.525 22.781006
68.530 22.688839
68.535 22.593006
68.540 23.133131
68.545 23.899406
68.550 24.268574
68.555 23.997286
68.560 23.924803
68.565 24.40148
68.570 24.974054
68.575 24.928894
68.580 24.747126
68.585 25.073046
68.590 25.201115
68.595 25.354736
68.600 25.359772
68.605 25.352295
68.610 25.432903
68.615 25.697392
68.620 25.734806
68.625 25.250309
68.630 24.852867
68.635 24.722855
68.640 24.745913
68.645 24.400417
68.650 23.934437
68.655 24.656214
68.660 25.461454
68.665 26.105738
68.670 25.274462
68.675 24.735731
68.680 24.878359
68.685 24.600643
68.690 24.330763
68.695 24.255884
68.700 24.631231
68.705 25.83551
68.710 25.985659
68.715 26.000753
68.720 26.257586
68.725 25.617085
68.730 25.355072
68.735 25.547842
68.740 25.371746
68.745 25.166525
68.750 24.708961
68.755 24.435724
68.760 23.902012
68.765 24.181286
68.770 24.050571
68.775 24.449993
68.780 24.898436
68.785 24.886063
68.790 24.944935
68.795 25.633915
68.800 26.182732
68.805 25.807001
68.810 25.583666
68.815 25.99054
68.820 27.109518
68.825 27.439438
68.830 27.103769
68.835 26.827482
68.840 27.366806
68.845 27.412737
68.850 26.833548
68.855 26.373697
68.860 27.15254
68.865 27.217567
68.870 26.919117
68.875 26.686396
68.880 26.72661
68.885 26.710802
68.890 26.349409
68.895 25.874435
68.900 26.460407
68.905 26.223434
68.910 25.807014
68.915 25.893488
68.920 26.004713
68.925 26.344528
68.930 26.692116
68.935 26.32888
68.940 26.457745
68.945 27.169086
68.950 26.703207
68.955 26.351198
68.960 25.358765
68.965 24.357058
68.970 23.121735
68.975 22.597569
68.980 22.497068
68.985 22.664873
68.990 23.064295
68.995 23.318766
69.000 23.711153
69.005 24.182604
69.010 23.972679
69.015 22.961435
69.020 22.456663
69.025 22.286762
69.030 22.64327
69.035 22.32596
69.040 22.475603
69.045 22.997175
69.050 23.709864
69.055 24.041971
69.060 24.28504
69.065 24.116917
69.070 24.092392
69.075 24.29838
69.080 24.383291
69.085 24.013342
69.090 23.851875
69.095 23.609488
69.100 23.512867
69.105 23.298466
69.110 22.840242
69.115 22.02758
69.120 21.530497
69.125 21.711847
69.130 21.321352
69.135 21.269936
69.140 20.703075
69.145 20.425743
69.150 20.673203
69.155 20.624123
69.160 19.948101
69.165 19.938726
69.170 19.475086
69.175 19.272793
69.180 19.087379
69.185 19.055515
69.190 19.084454
69.195 18.481047
69.200 17.939159
69.205 17.579014
69.210 17.399353
69.215 17.358749
69.220 16.889763
69.225 17.413052
69.230 18.269184
69.235 18.608912
69.240 18.921803
69.245 18.648201
69.250 18.147911
69.255 17.829672
69.260 17.180323
69.265 16.636734
69.270 16.700394
69.275 17.253286
69.280 17.591681
69.285 17.584124
69.290 17.721128
69.295 17.833666
69.300 17.531527
69.305 16.922316
69.310 16.264977
69.315 16.232035
69.320 16.487865
69.325 16.245148
69.330 15.89332
69.335 15.897655
69.340 15.945789
69.345 15.884002
69.350 15.828041
69.355 15.701785
69.360 15.53034
69.365 15.82386
69.370 15.658454
69.375 15.542301
69.380 15.375546
69.385 14.792239
69.390 15.2954
69.395 15.819813
69.400 15.829878
69.405 16.166874
69.410 16.618139
69.415 16.889849
69.420 17.078352
69.425 16.415966
69.430 15.797523
69.435 15.499685
69.440 15.457166
69.445 15.286909
69.450 15.400902
69.455 15.781786
69.460 15.880365
69.465 15.940516
69.470 16.53727
69.475 16.173153
69.480 16.496807
69.485 16.466051
69.490 16.142422
69.495 16.508844
69.500 16.521025
69.505 16.614674
69.510 16.94282
69.515 16.798002
69.520 16.753719
69.525 16.549313
69.530 16.106749
69.535 15.958453
69.540 16.065163
69.545 16.085157
69.550 16.00683
69.555 15.788884
69.560 15.604834
69.565 15.669414
69.570 15.844858
69.575 15.297324
69.580 14.463686
69.585 13.831638
69.590 13.962253
69.595 14.148258
69.600 13.869169
69.605 13.501591
69.610 14.058741
69.615 14.480551
69.620 14.754354
69.625 14.909357
69.630 15.165707
69.635 15.276059
69.640 15.386896
69.645 15.056683
69.650 14.745071
69.655 15.180637
69.660 15.24935
69.665 15.19521
69.670 15.13251
69.675 15.288778
69.680 15.276385
69.685 15.883076
69.690 15.832922
69.695 15.549972
69.700 15.683739
69.705 16.08445
69.710 15.647868
69.715 15.920516
69.720 15.45376
69.725 15.126029
69.730 14.798064
69.735 15.061059
69.740 15.168957
69.745 15.270607
69.750 15.148821
69.755 15.423308
69.760 15.221488
69.765 15.552955
69.770 15.355931
69.775 14.855173
69.780 14.929516
69.785 15.25666
69.790 15.383857
69.795 15.962198
69.800 15.98342
69.805 16.151215
69.810 16.569752
69.815 16.274261
69.820 15.685632
69.825 15.559813
69.830 15.739769
69.835 15.791899
69.840 16.032312
69.845 16.056263
69.850 16.432079
69.855 16.428198
69.860 16.240717
69.865 16.002838
69.870 15.849402
69.875 15.816284
69.880 15.632537
69.885 15.64856
69.890 15.549372
69.895 15.766205
69.900 15.850869
69.905 15.324304
69.910 15.18333
69.915 15.414656
69.920 15.256602
69.925 15.269278
69.930 14.632618
69.935 13.988585
69.940 13.779116
69.945 13.596498
69.950 13.633497
69.955 13.979783
69.960 13.963573
69.965 14.143176
69.970 14.244177
69.975 14.348117
69.980 13.938693
69.985 13.85129
69.990 14.192498
69.995 14.092733
70.000 14.411082
70.005 14.864105
70.010 15.035933
70.015 15.511915
70.020 15.492882
70.025 15.121634
70.030 15.422673
70.035 15.674097
70.040 16.136433
70.045 16.074287
70.050 15.552895
70.055 15.291744
70.060 15.430311
70.065 15.453515
70.070 14.406069
70.075 13.433415
70.080 13.235089
70.085 13.563483
70.090 13.644187
70.095 13.362535
70.100 13.487852
70.105 13.941496
70.110 14.304479
70.115 14.440201
70.120 13.873166
70.125 14.27883
70.130 14.520221
70.135 14.522471
70.140 14.870647
70.145 14.687032
70.150 14.870083
70.155 14.899477
70.160 14.385776
70.165 13.977666
70.170 13.525459
70.175 13.141882
70.180 13.182657
70.185 13.151603
70.190 13.607796
70.195 13.449582
70.200 13.923203
70.205 13.80672
70.210 14.245941
70.215 14.831427
70.220 14.265366
70.225 13.720564
70.230 13.655116
70.235 13.62645
70.240 14.053114
70.245 13.81468
70.250 14.392584
70.255 15.098535
70.260 15.55515
70.265 15.788582
70.270 15.408061
70.275 14.758969
70.280 14.24462
70.285 13.462426
70.290 13.788711
70.295 13.321774
70.300 13.117184
70.305 13.589789
70.310 14.015882
70.315 14.475566
70.320 14.262853
70.325 14.296999
70.330 14.460317
70.335 14.924063
70.340 14.989875
70.345 14.718801
70.350 14.436492
70.355 14.496098
70.360 14.239933
70.365 14.330058
70.370 13.958373
70.375 14.111982
70.380 14.375609
70.385 14.807522
70.390 14.534349
70.395 14.454493
70.400 14.455452
70.405 14.285418
70.410 13.938252
70.415 13.73783
70.420 13.555731
70.425 13.845813
70.430 13.94074
70.435 13.936708
70.440 14.070529
70.445 13.841352
70.450 14.076702
70.455 14.431889
70.460 14.325843
70.465 14.34732
70.470 14.58403
70.475 15.097803
70.480 14.799799
70.485 14.321599
70.490 13.931375
70.495 13.744423
70.500 13.727751
70.505 13.426497
70.510 13.18213
70.515 13.898335
70.520 14.137288
70.525 13.777033
70.530 13.523223
70.535 13.638055
70.540 13.820882
70.545 14.586576
70.550 14.623998
70.555 14.784796
70.560 14.87423
70.565 15.45788
70.570 15.448964
70.575 15.380381
70.580 15.437922
70.585 15.16121
70.590 15.309422
70.595 15.888862
70.600 15.805009
70.605 15.65254
70.610 15.051687
70.615 14.572908
70.620 15.009066
70.625 14.795114
70.630 14.400963
70.635 14.129904
70.640 14.278755
70.645 13.997946
70.650 13.976499
70.655 13.883194
70.660 14.035268
70.665 13.931763
70.670 13.418145
70.675 13.562263
70.680 13.730807
70.685 13.76502
70.690 13.40445
70.695 13.576822
70.700 13.893682
70.705 14.259039
70.710 13.989336
70.715 14.275718
70.720 14.324667
70.725 14.560119
70.730 14.503252
70.735 14.419707
70.740 14.44002
70.745 14.281809
70.750 14.41204
70.755 14.546287
70.760 14.261561
70.765 13.946534
70.770 13.694079
70.775 13.857596
70.780 14.092348
70.785 13.658586
70.790 13.471516
70.795 13.208404
70.800 13.447046
70.805 13.535439
70.810 13.239793
70.815 12.563554
70.820 12.928879
70.825 12.86041
70.830 13.397388
70.835 13.364898
70.840 13.409354
70.845 13.603722
70.850 13.835306
70.855 13.916646
70.860 14.204841
70.865 14.215966
70.870 14.305436
70.875 14.42439
70.880 14.076131
70.885 13.911217
70.890 13.507887
70.895 12.802409
70.900 13.038438
70.905 12.975902
70.910 13.079788
70.915 13.223763
70.920 13.558147
70.925 13.712985
70.930 13.930546
70.935 14.028338
70.940 14.368494
70.945 14.241214
70.950 14.65228
70.955 14.503371
70.960 14.300252
70.965 13.896872
70.970 14.146951
70.975 14.209883
70.980 14.200566
70.985 14.013563
70.990 14.090944
70.995 14.51465
71.000 14.884964
71.005 14.271671
71.010 14.351696
71.015 14.823994
71.020 15.085198
71.025 15.405091
71.030 15.03428
71.035 14.524084
71.040 14.426118
71.045 14.414358
71.050 13.925773
71.055 13.140877
71.060 12.455233
71.065 13.208128
71.070 13.210138
71.075 12.710428
71.080 12.712359
71.085 12.433731
71.090 12.810311
71.095 13.070981
71.100 13.038069
71.105 13.290593
71.110 13.256724
71.115 13.226003
71.120 14.152334
71.125 14.185713
71.130 14.477865
71.135 14.478783
71.140 14.649016
71.145 14.329429
71.150 14.671553
71.155 14.683164
71.160 14.423806
71.165 13.909888
71.170 13.93552
71.175 14.261942
71.180 14.744327
71.185 14.198489
71.190 14.277864
71.195 14.442368
71.200 14.496922
71.205 14.309485
71.210 14.232281
71.215 13.874733
71.220 13.478392
71.225 13.228227
71.230 13.053233
71.235 12.920716
71.240 12.664211
71.245 12.610817
71.250 13.211839
71.255 13.677122
71.260 13.529448
71.265 14.005107
71.270 13.838311
71.275 14.439782
71.280 14.332011
71.285 14.069145
71.290 13.780757
71.295 13.818661
71.300 13.624143
71.305 13.64169
71.310 13.817415
71.315 14.125674
71.320 14.298479
71.325 14.515804
71.330 14.474377
71.335 14.75236
71.340 15.053098
71.345 15.050862
71.350 14.72424
71.355 14.382754
71.360 14.408388
71.365 14.602901
71.370 14.470557
71.375 14.255
71.380 14.524426
71.385 15.011168
71.390 15.438776
71.395 15.529963
71.400 15.727836
71.405 15.971078
71.410 15.362408
71.415 15.14182
71.420 15.271776
71.425 14.929833
71.430 13.958276
71.435 13.336764
71.440 13.369495
71.445 13.525442
71.450 13.526927
71.455 13.593661
71.460 14.266136
71.465 14.867347
71.470 14.63402
71.475 14.416243
71.480 14.453115
71.485 14.526634
71.490 13.971783
71.495 13.721395
71.500 14.10296
71.505 14.254503
71.510 13.827433
71.515 13.715824
71.520 13.662884
71.525 13.528535
71.530 13.389333
71.535 13.746737
71.540 13.985217
71.545 14.374969
71.550 14.239306
71.555 14.217257
71.560 14.139029
71.565 14.061214
71.570 13.811021
71.575 13.871167
71.580 13.756763
71.585 13.685574
71.590 13.66426
71.595 14.277702
71.600 14.325159
71.605 14.184419
71.610 14.256243
71.615 14.231264
71.620 14.314836
71.625 13.641315
71.630 12.870142
71.635 12.689213
71.640 12.287931
71.645 12.27022
71.650 12.062287
71.655 11.859547
71.660 12.324531
71.665 13.102124
71.670 13.643616
71.675 14.191847
71.680 13.898376
71.685 14.171284
71.690 14.594073
71.695 14.748068
71.700 14.373357
71.705 14.298544
71.710 14.902531
71.715 15.061401
71.720 15.111059
71.725 14.828588
71.730 14.531079
71.735 14.458689
71.740 14.113484
71.745 13.528836
71.750 13.51967
71.755 13.046411
71.760 13.373389
71.765 13.778249
71.770 14.110128
71.775 14.456549
71.780 14.931104
71.785 15.4139
71.790 15.723969
71.795 15.412618
71.800 15.289257
71.805 15.238284
71.810 15.16687
71.815 14.739671
71.820 14.990808
71.825 15.034312
71.830 14.968784
71.835 15.08259
71.840 14.89291
71.845 14.611279
71.850 14.700369
71.855 14.195143
71.860 14.370451
71.865 14.388831
71.870 14.271199
71.875 14.639862
71.880 14.658677
71.885 15.080279
71.890 15.008101
71.895 14.496367
71.900 14.240257
71.905 14.06626
71.910 14.230365
71.915 13.993895
71.920 13.625489
71.925 14.178526
71.930 14.555119
71.935 14.380572
71.940 14.425967
71.945 14.623633
71.950 14.738089
71.955 14.940457
71.960 14.525567
71.965 14.402596
71.970 14.864964
71.975 14.401365
71.980 13.91736
71.985 13.371603
71.990 13.407648
71.995 13.643492
72.000 13.836913
72.005 14.013314
72.010 13.705624
72.015 13.364793
72.020 14.125073
72.025 14.102526
72.030 13.747669
72.035 14.065
72.040 13.72989
72.045 14.008824
72.050 13.886022
72.055 13.316419
72.060 13.568329
72.065 13.880955
72.070 13.062857
72.075 13.05116
72.080 13.410066
72.085 13.60745
72.090 13.670336
72.095 13.127806
72.100 13.188927
72.105 13.468091
72.110 13.152066
72.115 12.980155
72.120 13.214781
72.125 13.068184
72.130 13.351252
72.135 13.172384
72.140 13.600231
72.145 13.690219
72.150 13.282364
72.155 13.583595
72.160 13.692452
72.165 13.926534
72.170 13.971322
72.175 14.058583
72.180 14.794044
72.185 15.415717
72.190 15.343333
72.195 15.139551
72.200 15.217753
72.205 15.38012
72.210 14.937776
72.215 14.098742
72.220 13.903617
72.225 13.629446
72.230 13.746325
72.235 14.064652
72.240 13.623878
72.245 13.883831
72.250 14.498947
72.255 14.624981
72.260 14.427785
72.265 14.6108
72.270 14.263456
72.275 14.268426
72.280 14.334226
72.285 13.667524
72.290 13.568643
72.295 13.335785
72.300 13.057633
72.305 13.009608
72.310 13.185161
72.315 13.389286
72.320 13.75713
72.325 14.037864
72.330 14.309165
72.335 14.575543
72.340 14.774888
72.345 14.918479
72.350 14.747152
72.355 14.956128
72.360 15.019713
72.365 14.536814
72.370 14.389868
72.375 14.133976
72.380 13.946076
72.385 14.167913
72.390 13.681083
72.395 13.955764
72.400 14.074322
72.405 13.922365
72.410 13.780743
72.415 13.837665
72.420 13.718367
72.425 13.694037
72.430 14.034466
72.435 14.262517
72.440 14.167962
72.445 14.163172
72.450 14.151484
72.455 14.568855
72.460 14.486918
72.465 14.014036
72.470 14.348576
72.475 14.303467
72.480 14.587462
72.485 14.50993
72.490 14.278795
72.495 14.181504
72.500 13.965068
72.505 13.650354
72.510 13.784927
72.515 13.410297
72.520 13.180366
72.525 13.275259
72.530 13.364745
72.535 13.583563
72.540 14.052783
72.545 13.954038
72.550 13.95118
72.555 13.683731
72.560 13.550941
72.565 13.498501
72.570 13.116448
72.575 12.891498
72.580 13.288385
72.585 13.469168
72.590 14.026
72.595 13.875737
72.600 14.548002
72.605 15.347876
72.610 15.28986
72.615 15.012268
72.620 14.978152
72.625 14.669615
72.630 14.598845
72.635 14.289564
72.640 13.656292
72.645 13.084988
72.650 12.625791
72.655 12.216994
72.660 12.311883
72.665 12.198679
72.670 11.930055
72.675 11.816283
72.680 12.276298
72.685 12.60864
72.690 13.110991
72.695 13.190837
72.700 13.462022
72.705 13.686102
72.710 13.5878
72.715 13.552734
72.720 13.644989
72.725 13.364016
72.730 13.08947
72.735 13.00411
72.740 13.172729
72.745 13.240703
72.750 12.939349
72.755 12.697561
72.760 12.654491
72.765 12.258308
72.770 11.77133
72.775 11.791956
72.780 12.027829
72.785 11.808909
72.790 11.535127
72.795 11.529428
72.800 12.007919
72.805 12.014589
72.810 11.174881
72.815 11.118615
72.820 11.284803
72.825 11.382011
72.830 11.149009
72.835 10.792282
72.840 11.615607
72.845 12.515018
72.850 12.486342
72.855 12.503919
72.860 12.989101
72.865 13.128131
72.870 13.570549
72.875 13.31992
72.880 13.406292
72.885 13.416528
72.890 13.512621
72.895 13.26777
72.900 13.211341
72.905 12.852641
72.910 12.264631
72.915 11.94074
72.920 12.007933
72.925 12.154804
72.930 12.29141
72.935 12.056748
72.940 12.126163
72.945 13.095221
72.950 13.318014
72.955 13.823886
72.960 13.670317
72.965 13.931454
72.970 14.555887
72.975 14.349725
72.980 14.254559
72.985 14.459323
72.990 14.58127
72.995 14.971689
73.000 14.689835
