!@!!GADDS PLOTSO FILE: Chi integration type
!@!!Title/SampleName: map-10c
!@!!Comment: ?
!@!!User: Bruker Instrument Administrator
!@!!Site: University of Illinois Chicago
!@!!Frame: map-10c_01_000.gfrm
!@!!Wavelengths    1.54184   1.54056   1.54439
!@!!Frame angles: 2Theta: 63.000 Omega: 50.000 Phi: 0.000 Chi: 90.000
!@!!Integration range: 2Theta: 53.000 to 73.000  Gamma: -105.000 to -75.000
!@!!Integration method: bin normalized
!@!N
!@!SS
!@!M
!@!L 0.0 0.0 0.0 0.0
!@!XDegrees
!@!YCounts
53.000 8.913447
53.005 9.234572
53.010 9.012889
53.015 8.33894
53.020 8.090731
53.025 7.947901
53.030 7.97712
53.035 7.967244
53.040 7.703903
53.045 7.534307
53.050 7.527296
53.055 7.980857
53.060 8.356358
53.065 8.90399
53.070 9.094449
53.075 9.745981
53.080 9.877751
53.085 10.013789
53.090 10.143488
53.095 9.856154
53.100 9.673287
53.105 9.403347
53.110 9.174587
53.115 9.218119
53.120 9.033774
53.125 9.660168
53.130 9.692468
53.135 9.284144
53.140 8.690254
53.145 8.522145
53.150 8.938394
53.155 8.472646
53.160 7.913935
53.165 8.164115
53.170 8.658795
53.175 8.946688
53.180 9.07641
53.185 9.352584
53.190 9.85263
53.195 10.421517
53.200 10.444756
53.205 10.667538
53.210 10.795378
53.215 10.860786
53.220 10.53608
53.225 10.050802
53.230 9.764388
53.235 9.643101
53.240 9.411065
53.245 9.012824
53.250 8.732727
53.255 8.832614
53.260 9.403579
53.265 9.203793
53.270 9.117479
53.275 9.128239
53.280 9.166274
53.285 9.453753
53.290 9.73554
53.295 9.438421
53.300 9.880143
53.305 9.993484
53.310 10.002
53.315 10.344428
53.320 10.353433
53.325 10.114227
53.330 9.557403
53.335 9.412633
53.340 9.326861
53.345 9.291636
53.350 9.798431
53.355 9.486362
53.360 9.547586
53.365 9.798303
53.370 9.536102
53.375 9.77634
53.380 9.549699
53.385 8.974789
53.390 9.161817
53.395 9.140818
53.400 9.07665
53.405 8.85864
53.410 8.582617
53.415 8.782952
53.420 9.17742
53.425 9.037996
53.430 8.924952
53.435 9.002316
53.440 9.552309
53.445 10.031396
53.450 9.921704
53.455 9.548957
53.460 9.984773
53.465 10.186504
53.470 10.747255
53.475 10.739065
53.480 9.962787
53.485 9.296057
53.490 9.102874
53.495 8.591897
53.500 8.289042
53.505 7.625242
53.510 7.642793
53.515 8.254146
53.520 9.191478
53.525 9.269774
53.530 9.688711
53.535 9.730492
53.540 9.806204
53.545 9.658312
53.550 9.48639
53.555 9.585312
53.560 9.247113
53.565 9.635619
53.570 10.148379
53.575 9.84767
53.580 9.633284
53.585 9.45657
53.590 9.259524
53.595 9.848635
53.600 9.556269
53.605 9.306604
53.610 9.65819
53.615 9.885545
53.620 10.322103
53.625 10.293149
53.630 9.730618
53.635 9.721414
53.640 9.597754
53.645 9.547812
53.650 9.353228
53.655 8.876144
53.660 8.731257
53.665 8.741436
53.670 9.173128
53.675 9.490904
53.680 9.569133
53.685 9.485433
53.690 9.593363
53.695 9.861957
53.700 9.965692
53.705 9.459366
53.710 9.349169
53.715 9.535097
53.720 9.533524
53.725 9.488754
53.730 9.662811
53.735 9.768144
53.740 10.034063
53.745 10.151517
53.750 10.175779
53.755 10.44414
53.760 10.325705
53.765 9.893368
53.770 9.893019
53.775 10.455193
53.780 10.282752
53.785 10.637968
53.790 10.508236
53.795 10.635951
53.800 10.860165
53.805 10.912036
53.810 11.04153
53.815 10.971184
53.820 10.696977
53.825 10.581534
53.830 10.62332
53.835 10.533726
53.840 10.155348
53.845 9.594969
53.850 9.348874
53.855 9.310306
53.860 9.857382
53.865 10.272976
53.870 10.432811
53.875 10.575995
53.880 11.011315
53.885 11.190978
53.890 11.099879
53.895 10.527206
53.900 10.364904
53.905 10.088264
53.910 10.365854
53.915 10.256316
53.920 10.370516
53.925 10.354888
53.930 10.685376
53.935 10.581686
53.940 10.509706
53.945 10.341081
53.950 10.393562
53.955 10.511146
53.960 10.36318
53.965 10.362206
53.970 10.764421
53.975 10.888967
53.980 11.075636
53.985 11.108974
53.990 11.094647
53.995 11.440286
54.000 11.424613
54.005 11.292684
54.010 11.315336
54.015 11.565118
54.020 11.940681
54.025 11.894321
54.030 11.299079
54.035 10.68469
54.040 10.485765
54.045 10.397134
54.050 10.096167
54.055 10.023119
54.060 10.38842
54.065 11.057418
54.070 11.781019
54.075 12.026233
54.080 11.800896
54.085 11.712474
54.090 11.716576
54.095 11.863064
54.100 11.517125
54.105 11.221019
54.110 10.941731
54.115 10.906748
54.120 10.781178
54.125 10.347007
54.130 10.288051
54.135 10.451548
54.140 11.092161
54.145 11.339354
54.150 11.71996
54.155 12.228609
54.160 12.48099
54.165 12.408106
54.170 12.193871
54.175 11.768022
54.180 12.008801
54.185 11.483008
54.190 11.427604
54.195 11.504366
54.200 11.416622
54.205 11.235164
54.210 11.011753
54.215 11.17682
54.220 11.367553
54.225 11.365705
54.230 10.994142
54.235 10.929572
54.240 11.464804
54.245 11.19329
54.250 10.821456
54.255 10.840451
54.260 11.055484
54.265 11.102447
54.270 11.155203
54.275 11.073126
54.280 11.376777
54.285 11.706701
54.290 11.329159
54.295 11.122135
54.300 11.00878
54.305 10.884391
54.310 10.772921
54.315 10.616812
54.320 10.632614
54.325 10.425393
54.330 10.335991
54.335 10.56506
54.340 10.320745
54.345 10.12346
54.350 9.986721
54.355 9.516628
54.360 9.734052
54.365 9.601051
54.370 9.198382
54.375 9.186898
54.380 9.499737
54.385 9.561438
54.390 9.970571
54.395 10.226689
54.400 10.587793
54.405 11.284734
54.410 11.79646
54.415 11.575853
54.420 11.394788
54.425 11.119243
54.430 11.085688
54.435 11.184793
54.440 11.068174
54.445 11.271468
54.450 11.621137
54.455 12.184056
54.460 12.269036
54.465 11.864542
54.470 11.756197
54.475 11.166065
54.480 10.698751
54.485 10.510117
54.490 10.201653
54.495 10.732414
54.500 11.086602
54.505 11.373508
54.510 11.78628
54.515 12.422698
54.520 12.709286
54.525 12.596605
54.530 12.479219
54.535 11.850845
54.540 11.352218
54.545 11.439232
54.550 11.587262
54.555 11.293006
54.560 11.036055
54.565 10.922743
54.570 11.405151
54.575 11.475554
54.580 11.29254
54.585 11.093754
54.590 11.480482
54.595 11.722705
54.600 11.805733
54.605 11.869811
54.610 12.036961
54.615 11.915702
54.620 11.55011
54.625 11.372416
54.630 11.548774
54.635 11.126534
54.640 10.827131
54.645 10.22675
54.650 10.320086
54.655 10.384012
54.660 10.265696
54.665 10.327378
54.670 10.932778
54.675 11.502589
54.680 11.51649
54.685 11.785325
54.690 11.964854
54.695 11.793185
54.700 11.878243
54.705 11.725
54.710 12.138103
54.715 12.036722
54.720 12.054086
54.725 12.213887
54.730 12.372271
54.735 11.948781
54.740 11.405746
54.745 10.549844
54.750 10.689892
54.755 9.994816
54.760 9.824691
54.765 10.027263
54.770 10.026192
54.775 10.367856
54.780 10.753296
54.785 11.048875
54.790 11.576365
54.795 11.98168
54.800 12.140213
54.805 12.619209
54.810 12.817649
54.815 13.107086
54.820 12.684555
54.825 12.703597
54.830 12.292541
54.835 12.201056
54.840 12.108422
54.845 12.154055
54.850 11.708591
54.855 11.708196
54.860 11.100966
54.865 10.94282
54.870 10.463223
54.875 10.145837
54.880 9.924685
54.885 10.360242
54.890 10.379793
54.895 10.518084
54.900 11.124354
54.905 11.623309
54.910 11.766007
54.915 12.052226
54.920 12.277115
54.925 12.466331
54.930 12.266765
54.935 11.965163
54.940 11.956011
54.945 12.19679
54.950 12.216692
54.955 11.662289
54.960 11.965182
54.965 12.299024
54.970 12.563782
54.975 12.747994
54.980 12.484068
54.985 12.430934
54.990 12.26908
54.995 11.697434
55.000 11.134124
55.005 10.672586
55.010 11.001479
55.015 10.975411
55.020 10.804535
55.025 11.027005
55.030 11.518102
55.035 12.247412
55.040 12.549323
55.045 12.510314
55.050 13.154992
55.055 13.92754
55.060 14.126214
55.065 13.968981
55.070 13.550142
55.075 13.632866
55.080 13.671312
55.085 13.053023
55.090 12.829868
55.095 12.952112
55.100 13.121309
55.105 13.18725
55.110 12.827852
55.115 12.587529
55.120 12.682799
55.125 12.160602
55.130 12.54937
55.135 12.594241
55.140 12.804456
55.145 12.747369
55.150 12.814896
55.155 13.047351
55.160 13.124939
55.165 12.709075
55.170 12.409875
55.175 12.33211
55.180 12.525
55.185 12.926233
55.190 12.589305
55.195 12.471575
55.200 12.278528
55.205 12.528386
55.210 12.582138
55.215 12.209989
55.220 12.019742
55.225 12.026012
55.230 11.876464
55.235 11.786674
55.240 11.635579
55.245 11.928187
55.250 11.854687
55.255 11.677734
55.260 11.808635
55.265 11.960348
55.270 12.310357
55.275 12.060003
55.280 12.081195
55.285 12.029082
55.290 11.623308
55.295 11.736609
55.300 11.87018
55.305 11.845189
55.310 11.943428
55.315 12.060328
55.320 12.239691
55.325 13.013745
55.330 12.856185
55.335 12.824961
55.340 13.009474
55.345 12.541873
55.350 12.514791
55.355 12.550702
55.360 12.315477
55.365 11.986691
55.370 11.537972
55.375 11.139481
55.380 11.117179
55.385 11.184655
55.390 11.194734
55.395 11.495399
55.400 11.857101
55.405 12.209249
55.410 12.486075
55.415 12.261643
55.420 11.77912
55.425 11.605171
55.430 11.614372
55.435 11.641404
55.440 11.58647
55.445 11.32616
55.450 11.495066
55.455 11.649718
55.460 11.551135
55.465 11.717268
55.470 12.107634
55.475 12.441534
55.480 12.403252
55.485 12.428867
55.490 12.390483
55.495 12.315103
55.500 12.282401
55.505 12.005458
55.510 12.297494
55.515 12.430882
55.520 12.040364
55.525 12.47981
55.530 12.111762
55.535 12.243615
55.540 12.621714
55.545 12.121227
55.550 12.185882
55.555 12.554034
55.560 12.31745
55.565 12.115129
55.570 11.989865
55.575 11.772988
55.580 11.911868
55.585 12.014232
55.590 12.102942
55.595 12.511281
55.600 12.786613
55.605 12.461951
55.610 12.24186
55.615 12.34586
55.620 12.505557
55.625 12.310575
55.630 12.388713
55.635 12.484653
55.640 12.376216
55.645 12.13615
55.650 11.94344
55.655 12.361605
55.660 12.725305
55.665 12.896478
55.670 13.281683
55.675 13.603039
55.680 14.188124
55.685 14.642052
55.690 14.104578
55.695 14.043102
55.700 13.769333
55.705 13.302054
55.710 13.376756
55.715 12.887305
55.720 12.799972
55.725 13.082973
55.730 12.60481
55.735 12.563039
55.740 12.181366
55.745 11.437161
55.750 11.383852
55.755 11.235883
55.760 11.478741
55.765 11.630327
55.770 11.268261
55.775 12.248021
55.780 12.596317
55.785 12.562743
55.790 12.274016
55.795 12.036758
55.800 11.8028
55.805 11.967968
55.810 11.497518
55.815 11.977342
55.820 12.529969
55.825 12.681013
55.830 12.673805
55.835 13.572577
55.840 13.60904
55.845 13.777997
55.850 13.439469
55.855 12.967893
55.860 13.007983
55.865 13.180732
55.870 12.517388
55.875 13.17767
55.880 13.108456
55.885 13.105218
55.890 12.983891
55.895 13.157862
55.900 13.05476
55.905 12.418885
55.910 12.334486
55.915 12.299583
55.920 12.154155
55.925 12.469427
55.930 12.551149
55.935 13.049574
55.940 13.726383
55.945 13.806557
55.950 13.829006
55.955 14.033683
55.960 13.758835
55.965 13.549318
55.970 13.411792
55.975 12.962183
55.980 13.287287
55.985 13.786794
55.990 14.059743
55.995 13.914293
56.000 14.093198
56.005 14.010695
56.010 13.812174
56.015 13.037052
56.020 12.585114
56.025 12.689198
56.030 12.39543
56.035 12.011808
56.040 12.499846
56.045 12.812758
56.050 13.160732
56.055 12.916177
56.060 13.00778
56.065 13.561679
56.070 13.257183
56.075 13.041068
56.080 13.106882
56.085 13.254734
56.090 12.897712
56.095 12.751013
56.100 12.591466
56.105 12.8341
56.110 12.4655
56.115 12.434197
56.120 12.479582
56.125 12.591106
56.130 12.447807
56.135 12.659029
56.140 12.579011
56.145 12.602828
56.150 12.635996
56.155 12.591795
56.160 12.944431
56.165 12.941891
56.170 12.814437
56.175 12.86226
56.180 13.57161
56.185 13.433544
56.190 13.525368
56.195 13.132831
56.200 13.145137
56.205 13.452063
56.210 13.292361
56.215 13.490324
56.220 14.083091
56.225 14.083525
56.230 14.911637
56.235 14.873278
56.240 14.520072
56.245 14.924045
56.250 14.472416
56.255 14.449262
56.260 14.538568
56.265 14.434607
56.270 14.303788
56.275 14.063921
56.280 13.457374
56.285 12.972264
56.290 12.79602
56.295 12.732554
56.300 12.850629
56.305 13.135607
56.310 13.038811
56.315 13.292737
56.320 13.471505
56.325 13.720494
56.330 13.547564
56.335 13.376617
56.340 13.530447
56.345 13.637876
56.350 13.919445
56.355 13.760089
56.360 13.02873
56.365 12.917963
56.370 12.832954
56.375 12.524238
56.380 12.563943
56.385 12.168378
56.390 12.135388
56.395 12.386959
56.400 12.195179
56.405 12.313138
56.410 12.621258
56.415 12.571234
56.420 13.017627
56.425 13.35774
56.430 13.59651
56.435 13.782423
56.440 14.098907
56.445 14.222334
56.450 14.124055
56.455 13.671952
56.460 13.326769
56.465 13.013448
56.470 12.820072
56.475 11.919978
56.480 11.749062
56.485 12.077293
56.490 12.464617
56.495 13.252901
56.500 13.572572
56.505 14.155632
56.510 14.737144
56.515 15.015212
56.520 14.797104
56.525 14.181349
56.530 13.871656
56.535 13.925696
56.540 13.74269
56.545 13.654846
56.550 13.790102
56.555 14.242225
56.560 15.501052
56.565 15.668648
56.570 15.495405
56.575 15.964063
56.580 16.528347
56.585 16.712948
56.590 16.657492
56.595 15.806538
56.600 15.689523
56.605 15.888472
56.610 15.720236
56.615 14.865722
56.620 14.12252
56.625 14.242547
56.630 13.991554
56.635 14.180124
56.640 13.465237
56.645 13.29883
56.650 13.506602
56.655 14.009656
56.660 13.970347
56.665 14.085592
56.670 14.022173
56.675 14.420403
56.680 13.980201
56.685 14.136734
56.690 14.047071
56.695 14.370812
56.700 14.500603
56.705 14.465553
56.710 14.353747
56.715 14.544503
56.720 14.175829
56.725 14.220958
56.730 13.636142
56.735 13.291992
56.740 13.833519
56.745 14.250979
56.750 14.64658
56.755 14.61674
56.760 14.12819
56.765 14.118139
56.770 14.254518
56.775 13.642709
56.780 14.126049
56.785 13.794109
56.790 13.871886
56.795 14.199543
56.800 14.200511
56.805 14.14747
56.810 14.062709
56.815 13.716241
56.820 14.032095
56.825 14.206541
56.830 14.378585
56.835 14.709289
56.840 15.173307
56.845 15.118638
56.850 14.832318
56.855 14.819057
56.860 14.773924
56.865 15.091309
56.870 15.24611
56.875 15.213347
56.880 15.319047
56.885 14.966135
56.890 14.736265
56.895 13.901795
56.900 13.424911
56.905 13.211169
56.910 12.798694
56.915 12.808284
56.920 12.875737
56.925 13.007563
56.930 13.614373
56.935 13.316924
56.940 13.36697
56.945 13.385654
56.950 13.571952
56.955 13.974515
56.960 14.137792
56.965 13.860192
56.970 13.914172
56.975 14.145856
56.980 14.168025
56.985 13.877913
56.990 13.723005
56.995 13.291707
57.000 13.088857
57.005 13.107846
57.010 12.862824
57.015 13.089891
57.020 13.397003
57.025 13.541834
57.030 13.865382
57.035 13.990193
57.040 14.251698
57.045 14.349856
57.050 14.527238
57.055 14.363354
57.060 14.893286
57.065 15.18104
57.070 15.395123
57.075 15.258484
57.080 15.02449
57.085 14.967044
57.090 15.025745
57.095 14.895674
57.100 14.781668
57.105 14.580564
57.110 14.684916
57.115 14.454627
57.120 13.912813
57.125 14.016322
57.130 13.834221
57.135 14.310247
57.140 14.589995
57.145 15.151037
57.150 15.558428
57.155 15.653863
57.160 15.169263
57.165 14.706201
57.170 14.122434
57.175 13.498645
57.180 13.039587
57.185 13.010011
57.190 13.387889
57.195 13.670887
57.200 14.027111
57.205 14.456054
57.210 14.582651
57.215 14.664299
57.220 14.418803
57.225 13.952851
57.230 13.706695
57.235 13.979572
57.240 14.402504
57.245 14.485524
57.250 14.184461
57.255 14.156937
57.260 14.828447
57.265 15.169931
57.270 14.580199
57.275 13.926006
57.280 14.638021
57.285 14.941689
57.290 14.89292
57.295 14.665395
57.300 14.421892
57.305 14.330173
57.310 14.219926
57.315 13.383322
57.320 13.010821
57.325 12.788437
57.330 12.71134
57.335 12.599153
57.340 12.272623
57.345 12.567791
57.350 12.696794
57.355 13.268579
57.360 13.932167
57.365 13.723071
57.370 13.864341
57.375 14.109476
57.380 13.925629
57.385 13.684834
57.390 13.588293
57.395 14.01011
57.400 14.264965
57.405 14.992352
57.410 14.870058
57.415 14.993651
57.420 14.898002
57.425 14.733052
57.430 14.387755
57.435 14.02918
57.440 13.943653
57.445 14.280526
57.450 13.925095
57.455 14.253583
57.460 13.817737
57.465 13.868345
57.470 13.938241
57.475 13.567023
57.480 13.279371
57.485 13.538253
57.490 13.346744
57.495 13.819858
57.500 14.237189
57.505 14.674892
57.510 14.815113
57.515 14.930132
57.520 15.166291
57.525 15.38327
57.530 15.28722
57.535 14.704459
57.540 14.806772
57.545 14.919076
57.550 15.158579
57.555 15.848052
57.560 15.839457
57.565 15.762292
57.570 15.91732
57.575 15.436387
57.580 16.035423
57.585 16.071394
57.590 15.292966
57.595 15.554759
57.600 15.775333
57.605 15.536113
57.610 15.327847
57.615 14.19772
57.620 14.14431
57.625 14.592455
57.630 13.764038
57.635 13.318518
57.640 13.754613
57.645 13.564804
57.650 13.605961
57.655 13.772674
57.660 13.953668
57.665 14.317941
57.670 14.548279
57.675 14.233316
57.680 15.120699
57.685 15.282403
57.690 15.516603
57.695 15.47248
57.700 15.838877
57.705 15.947455
57.710 15.897121
57.715 15.586601
57.720 15.122216
57.725 14.71666
57.730 14.405219
57.735 14.157511
57.740 14.069174
57.745 14.101961
57.750 14.2057
57.755 14.86189
57.760 15.28228
57.765 15.553435
57.770 15.497468
57.775 15.449421
57.780 15.660504
57.785 15.463651
57.790 15.255303
57.795 15.445745
57.800 15.517702
57.805 15.568563
57.810 15.639742
57.815 15.525017
57.820 15.790557
57.825 15.771095
57.830 15.393076
57.835 14.590967
57.840 14.529603
57.845 14.593806
57.850 13.91638
57.855 13.458422
57.860 13.568453
57.865 13.965816
57.870 14.828274
57.875 15.049337
57.880 15.215629
57.885 15.85683
57.890 15.813604
57.895 15.482862
57.900 15.781468
57.905 15.952888
57.910 15.454069
57.915 15.530684
57.920 15.771299
57.925 16.378651
57.930 17.064341
57.935 16.71839
57.940 16.597303
57.945 16.559328
57.950 16.331335
57.955 16.004917
57.960 15.352721
57.965 15.057239
57.970 14.978177
57.975 14.913692
57.980 15.057771
57.985 15.542448
57.990 15.745213
57.995 15.419232
58.000 14.941455
58.005 14.782187
58.010 15.21476
58.015 15.492433
58.020 15.302854
58.025 15.748416
58.030 15.911071
58.035 16.254519
58.040 16.430084
58.045 16.176023
58.050 15.974566
58.055 15.811035
58.060 15.421706
58.065 16.072849
58.070 16.062605
58.075 16.224356
58.080 15.839952
58.085 16.017427
58.090 16.303135
58.095 16.091082
58.100 15.211737
58.105 14.830173
58.110 14.679714
58.115 14.873081
58.120 14.765825
58.125 14.296366
58.130 14.568129
58.135 14.726786
58.140 14.569841
58.145 14.282009
58.150 13.888625
58.155 13.705827
58.160 13.85107
58.165 14.137156
58.170 14.379071
58.175 15.318848
58.180 15.377528
58.185 15.522399
58.190 15.469598
58.195 15.011018
58.200 15.137642
58.205 15.068885
58.210 14.943601
58.215 15.280777
58.220 15.461634
58.225 15.308836
58.230 15.633638
58.235 15.675638
58.240 16.048161
58.245 16.311708
58.250 16.369587
58.255 16.519367
58.260 16.783113
58.265 16.92329
58.270 16.76996
58.275 16.26544
58.280 15.955491
58.285 16.36062
58.290 15.968595
58.295 16.117649
58.300 15.78317
58.305 15.980177
58.310 16.044037
58.315 14.989742
58.320 14.783151
58.325 14.928087
58.330 14.65869
58.335 15.309037
58.340 15.286633
58.345 15.485335
58.350 16.554564
58.355 17.485342
58.360 17.943054
58.365 17.804995
58.370 18.122328
58.375 17.797228
58.380 17.732107
58.385 16.966557
58.390 16.093813
58.395 16.434557
58.400 16.903708
58.405 15.791297
58.410 15.436489
58.415 15.236801
58.420 15.643796
58.425 15.815413
58.430 15.295233
58.435 15.233106
58.440 15.510792
58.445 15.403146
58.450 15.642612
58.455 15.11651
58.460 14.803779
58.465 15.215724
58.470 15.388566
58.475 16.01095
58.480 16.5522
58.485 16.127096
58.490 16.276089
58.495 16.543619
58.500 15.924191
58.505 15.458327
58.510 15.286176
58.515 15.61393
58.520 15.727657
58.525 16.233755
58.530 15.84156
58.535 15.645249
58.540 15.439935
58.545 15.123466
58.550 14.736103
58.555 14.121902
58.560 14.145788
58.565 14.757783
58.570 15.021443
58.575 15.760326
58.580 16.31941
58.585 16.528677
58.590 16.411198
58.595 16.105934
58.600 15.575616
58.605 15.522262
58.610 15.167332
58.615 15.344414
58.620 15.29401
58.625 15.644609
58.630 16.197905
58.635 17.262325
58.640 17.466949
58.645 17.532864
58.650 16.97053
58.655 17.162659
58.660 17.968033
58.665 17.404703
58.670 16.88611
58.675 16.542257
58.680 15.819922
58.685 15.731706
58.690 15.929139
58.695 15.844367
58.700 15.596782
58.705 15.556269
58.710 16.021292
58.715 16.654369
58.720 16.486317
58.725 16.235233
58.730 15.782443
58.735 16.432327
58.740 16.587345
58.745 16.237913
58.750 15.901021
58.755 16.298353
58.760 16.755178
58.765 16.99192
58.770 17.259296
58.775 17.446114
58.780 17.187103
58.785 17.509939
58.790 17.791222
58.795 17.627014
58.800 17.6646
58.805 17.187164
58.810 16.9293
58.815 17.449217
58.820 17.178288
58.825 16.914038
58.830 16.318237
58.835 15.374013
58.840 15.199007
58.845 15.41014
58.850 15.08928
58.855 15.150286
58.860 14.837059
58.865 15.355113
58.870 16.247919
58.875 16.151979
58.880 16.13978
58.885 16.346699
58.890 17.031631
58.895 17.604965
58.900 17.481289
58.905 17.07531
58.910 17.628948
58.915 18.043468
58.920 18.4562
58.925 17.668732
58.930 17.572176
58.935 17.618271
58.940 17.820547
58.945 16.771402
58.950 16.261555
58.955 16.006186
58.960 15.694607
58.965 15.685426
58.970 15.246678
58.975 15.344202
58.980 15.912124
58.985 15.644338
58.990 15.580825
58.995 15.918002
59.000 15.93323
59.005 16.680534
59.010 16.689358
59.015 16.942318
59.020 17.250875
59.025 17.15469
59.030 17.043467
59.035 17.303194
59.040 17.241955
59.045 17.056427
59.050 16.83304
59.055 16.41976
59.060 16.142221
59.065 16.30217
59.070 16.186464
59.075 15.931573
59.080 16.164463
59.085 16.052736
59.090 16.664509
59.095 17.04648
59.100 16.66815
59.105 16.739185
59.110 17.00411
59.115 16.50844
59.120 16.275627
59.125 15.818135
59.130 16.708509
59.135 17.589033
59.140 17.897453
59.145 18.209377
59.150 18.666059
59.155 18.687599
59.160 18.74007
59.165 18.229488
59.170 17.733292
59.175 17.236826
59.180 16.912193
59.185 17.030582
59.190 16.902504
59.195 17.256756
59.200 16.96323
59.205 16.799648
59.210 16.756088
59.215 16.224199
59.220 16.032724
59.225 15.64089
59.230 15.012367
59.235 14.67607
59.240 14.757079
59.245 15.195535
59.250 15.834638
59.255 16.464836
59.260 17.113169
59.265 17.552464
59.270 17.399286
59.275 17.575766
59.280 17.359266
59.285 16.931307
59.290 16.916073
59.295 17.500559
59.300 17.379715
59.305 17.373793
59.310 17.32444
59.315 17.853827
59.320 18.570518
59.325 18.569052
59.330 18.720009
59.335 19.379398
59.340 19.539148
59.345 19.141655
59.350 18.905659
59.355 18.430651
59.360 18.690205
59.365 18.562489
59.370 18.312548
59.375 18.296009
59.380 18.500586
59.385 18.467932
59.390 18.71929
59.395 18.008415
59.400 17.643652
59.405 17.401743
59.410 17.806482
59.415 18.423183
59.420 18.636482
59.425 18.881151
59.430 18.94253
59.435 18.732311
59.440 19.334846
59.445 19.692907
59.450 18.982288
59.455 18.72426
59.460 18.636415
59.465 18.867716
59.470 19.173323
59.475 18.879665
59.480 18.824755
59.485 19.311188
59.490 19.935366
59.495 20.514217
59.500 20.59111
59.505 20.574013
59.510 20.618578
59.515 20.414026
59.520 20.362999
59.525 19.417797
59.530 18.38406
59.535 17.961958
59.540 17.881348
59.545 17.512659
59.550 17.850582
59.555 17.847439
59.560 18.031725
59.565 18.233795
59.570 18.226448
59.575 18.743591
59.580 18.316626
59.585 17.631605
59.590 17.23086
59.595 17.04151
59.600 17.263802
59.605 17.280729
59.610 16.895367
59.615 17.626204
59.620 18.942333
59.625 19.18375
59.630 20.003559
59.635 20.637421
59.640 21.540506
59.645 21.754501
59.650 20.940399
59.655 19.906757
59.660 19.902985
59.665 20.314144
59.670 20.178928
59.675 19.549
59.680 20.114376
59.685 20.670366
59.690 20.608036
59.695 20.280346
59.700 19.984886
59.705 20.094128
59.710 20.306318
59.715 20.172844
59.720 20.30662
59.725 20.219599
59.730 20.143606
59.735 19.924709
59.740 19.940868
59.745 20.159229
59.750 19.766197
59.755 20.280807
59.760 21.16538
59.765 21.474125
59.770 21.474688
59.775 21.588984
59.780 21.523422
59.785 21.739296
59.790 21.421499
59.795 21.224443
59.800 21.101093
59.805 21.148357
59.810 20.75267
59.815 20.718515
59.820 20.923512
59.825 21.072933
59.830 21.097345
59.835 21.127861
59.840 20.52882
59.845 20.56531
59.850 20.773954
59.855 20.892088
59.860 21.036077
59.865 20.401148
59.870 20.204807
59.875 20.710758
59.880 19.945885
59.885 18.991804
59.890 18.484312
59.895 17.992035
59.900 18.617125
59.905 18.60495
59.910 19.32815
59.915 19.699379
59.920 19.286463
59.925 19.171059
59.930 19.568901
59.935 20.400146
59.940 20.860214
59.945 20.348158
59.950 21.601336
59.955 22.564219
59.960 22.907827
59.965 22.832409
59.970 22.309923
59.975 22.25423
59.980 21.866306
59.985 21.787479
59.990 22.269934
59.995 22.208183
60.000 22.290266
60.005 22.26626
60.010 21.974707
60.015 22.484022
60.020 21.600817
60.025 20.998108
60.030 21.188019
60.035 20.957045
60.040 20.901236
60.045 21.702908
60.050 22.103674
60.055 22.772875
60.060 22.610649
60.065 21.771475
60.070 21.472939
60.075 21.260538
60.080 20.196112
60.085 19.306513
60.090 18.985769
60.095 19.354692
60.100 20.901667
60.105 21.719198
60.110 21.789879
60.115 22.016579
60.120 22.330338
60.125 22.847578
60.130 22.650473
60.135 22.064291
60.140 21.931421
60.145 21.928429
60.150 22.582653
60.155 22.520979
60.160 22.704224
60.165 22.767878
60.170 22.360226
60.175 22.177214
60.180 22.551712
60.185 22.706188
60.190 23.204208
60.195 22.501472
60.200 22.932049
60.205 23.477123
60.210 23.693062
60.215 23.91573
60.220 22.912317
60.225 22.722393
60.230 23.143675
60.235 23.021967
60.240 22.726542
60.245 22.109962
60.250 21.82593
60.255 21.85285
60.260 21.795908
60.265 21.749075
60.270 21.80619
60.275 21.738991
60.280 22.14716
60.285 22.10718
60.290 22.813921
60.295 22.780027
60.300 22.569782
60.305 22.435307
60.310 22.593885
60.315 22.420576
60.320 21.741331
60.325 21.875643
60.330 22.40988
60.335 22.416021
60.340 22.025734
60.345 22.049595
60.350 22.238424
60.355 23.084265
60.360 23.189491
60.365 23.260887
60.370 23.072502
60.375 23.277031
60.380 23.012869
60.385 22.804592
60.390 22.346729
60.395 21.79641
60.400 21.315887
60.405 21.496008
60.410 21.234903
60.415 21.564774
60.420 21.768551
60.425 21.504717
60.430 21.461609
60.435 21.128027
60.440 21.518679
60.445 21.863932
60.450 21.441023
60.455 21.383856
60.460 21.419231
60.465 20.99497
60.470 21.106968
60.475 21.356436
60.480 21.511024
60.485 21.705269
60.490 21.396797
60.495 21.401981
60.500 21.621164
60.505 21.378397
60.510 20.936207
60.515 21.050674
60.520 20.747744
60.525 20.955254
60.530 21.236727
60.535 21.385782
60.540 21.213593
60.545 20.52033
60.550 20.035427
60.555 19.951918
60.560 20.073143
60.565 19.302393
60.570 18.785217
60.575 18.954742
60.580 19.582449
60.585 19.791496
60.590 20.24507
60.595 20.262398
60.600 20.9744
60.605 20.967663
60.610 21.099497
60.615 21.164677
60.620 21.468107
60.625 20.72929
60.630 20.588718
60.635 20.246723
60.640 20.289852
60.645 20.159689
60.650 19.303114
60.655 19.160635
60.660 19.543489
60.665 19.711662
60.670 19.668957
60.675 19.733213
60.680 19.866009
60.685 20.087196
60.690 19.617479
60.695 19.364603
60.700 18.87483
60.705 19.157335
60.710 18.816654
60.715 18.3067
60.720 18.697371
60.725 19.080357
60.730 19.403099
60.735 19.812401
60.740 19.442348
60.745 18.980549
60.750 19.16758
60.755 18.904114
60.760 18.738596
60.765 18.809801
60.770 19.0352
60.775 19.573727
60.780 20.249367
60.785 19.960112
60.790 20.060486
60.795 20.372927
60.800 19.819763
60.805 19.449608
60.810 18.888353
60.815 18.964012
60.820 19.098536
60.825 18.841448
60.830 18.180639
60.835 17.97678
60.840 18.081343
60.845 18.307447
60.850 17.731676
60.855 17.891054
60.860 18.662756
60.865 18.603315
60.870 18.308586
60.875 17.783855
60.880 17.725264
60.885 18.150642
60.890 17.724546
60.895 16.841286
60.900 17.557463
60.905 18.27253
60.910 18.442179
60.915 18.2092
60.920 18.101482
60.925 18.286079
60.930 18.483707
60.935 18.091206
60.940 17.955242
60.945 18.211597
60.950 18.806419
60.955 19.35508
60.960 19.838711
60.965 19.874596
60.970 19.716692
60.975 19.264927
60.980 18.779524
60.985 18.348579
60.990 17.571117
60.995 17.457081
61.000 17.417978
61.005 17.25428
61.010 17.589718
61.015 18.196266
61.020 18.248835
61.025 18.275208
61.030 18.429466
61.035 18.767866
61.040 18.866611
61.045 18.9814
61.050 18.951324
61.055 18.801285
61.060 18.840706
61.065 18.647335
61.070 18.875816
61.075 18.678251
61.080 18.57456
61.085 18.433529
61.090 18.785547
61.095 18.932016
61.100 18.22332
61.105 18.174454
61.110 18.527996
61.115 18.745363
61.120 18.822487
61.125 18.632448
61.130 18.356239
61.135 18.703098
61.140 18.989672
61.145 19.259642
61.150 18.934778
61.155 18.4205
61.160 18.716064
61.165 19.126276
61.170 19.169096
61.175 18.307125
61.180 17.869074
61.185 18.070469
61.190 17.647614
61.195 17.51964
61.200 17.240145
61.205 17.332554
61.210 17.393709
61.215 17.751738
61.220 18.170532
61.225 18.744219
61.230 18.346663
61.235 17.601967
61.240 17.210691
61.245 17.757624
61.250 17.601807
61.255 17.455145
61.260 17.256325
61.265 17.93437
61.270 18.444998
61.275 18.242596
61.280 18.151209
61.285 17.769156
61.290 17.724045
61.295 17.700073
61.300 16.754894
61.305 16.849085
61.310 16.859032
61.315 16.588692
61.320 17.162144
61.325 17.273075
61.330 17.531036
61.335 18.486853
61.340 18.581789
61.345 18.313244
61.350 18.295275
61.355 18.014687
61.360 18.084814
61.365 18.320337
61.370 17.919436
61.375 17.533932
61.380 18.172754
61.385 17.967556
61.390 17.424177
61.395 17.424738
61.400 17.149773
61.405 17.109659
61.410 17.366322
61.415 16.884359
61.420 16.781334
61.425 17.322157
61.430 17.541243
61.435 17.408594
61.440 17.586668
61.445 17.663446
61.450 17.954575
61.455 18.070553
61.460 17.520267
61.465 17.010666
61.470 16.693457
61.475 16.943865
61.480 17.397188
61.485 17.06189
61.490 17.249228
61.495 17.974182
61.500 18.211805
61.505 18.292721
61.510 17.436497
61.515 17.110855
61.520 17.21969
61.525 17.234913
61.530 16.840368
61.535 16.43787
61.540 16.901554
61.545 17.402731
61.550 17.766212
61.555 18.160009
61.560 18.366165
61.565 18.232794
61.570 18.312462
61.575 18.074078
61.580 17.454668
61.585 17.385559
61.590 17.208141
61.595 17.225443
61.600 17.01668
61.605 17.280172
61.610 17.970068
61.615 18.803312
61.620 19.029657
61.625 18.657982
61.630 18.284983
61.635 18.730631
61.640 18.63364
61.645 18.098463
61.650 17.79822
61.655 17.323477
61.660 17.913939
61.665 18.251425
61.670 17.987974
61.675 17.841766
61.680 17.543633
61.685 17.327883
61.690 17.394524
61.695 17.063196
61.700 16.600033
61.705 16.378693
61.710 16.422152
61.715 16.396652
61.720 16.383877
61.725 16.164286
61.730 16.108395
61.735 16.679079
61.740 16.722139
61.745 16.955933
61.750 16.887409
61.755 17.609266
61.760 18.283232
61.765 18.306067
61.770 17.656574
61.775 17.734669
61.780 17.789625
61.785 17.727804
61.790 17.212805
61.795 16.911579
61.800 16.849539
61.805 17.285778
61.810 18.135321
61.815 18.051115
61.820 18.505581
61.825 18.41404
61.830 19.036434
61.835 19.307699
61.840 19.419472
61.845 19.331089
61.850 19.189741
61.855 19.090448
61.860 18.938078
61.865 18.393427
61.870 18.238712
61.875 18.031954
61.880 18.167582
61.885 18.219194
61.890 17.553364
61.895 17.780117
61.900 17.543308
61.905 17.77466
61.910 17.986876
61.915 17.483484
61.920 17.962866
61.925 18.951052
61.930 18.629816
61.935 18.701744
61.940 19.251287
61.945 18.94125
61.950 18.812542
61.955 18.391088
61.960 17.351446
61.965 17.531469
61.970 17.777819
61.975 16.684269
61.980 16.671131
61.985 16.836752
61.990 17.039967
61.995 17.403889
62.000 17.245605
62.005 17.085043
62.010 17.043703
62.015 17.046721
62.020 16.564154
62.025 16.382042
62.030 16.315866
62.035 16.060246
62.040 15.997657
62.045 16.006729
62.050 15.614817
62.055 15.36236
62.060 15.325051
62.065 15.242149
62.070 15.656322
62.075 15.606318
62.080 16.376711
62.085 17.348877
62.090 17.707951
62.095 17.636398
62.100 18.382257
62.105 18.420008
62.110 18.614056
62.115 18.326956
62.120 18.127522
62.125 18.676674
62.130 19.077673
62.135 18.93486
62.140 18.999365
62.145 18.559086
62.150 18.829372
62.155 18.708057
62.160 18.683002
62.165 18.539135
62.170 18.768538
62.175 19.057573
62.180 19.391111
62.185 19.085913
62.190 18.345592
62.195 17.964415
62.200 17.453791
62.205 17.033865
62.210 17.034063
62.215 17.094576
62.220 17.317423
62.225 17.822647
62.230 17.716675
62.235 18.49144
62.240 18.612368
62.245 18.34762
62.250 17.711641
62.255 17.385044
62.260 17.30438
62.265 17.883533
62.270 17.026838
62.275 16.144287
62.280 16.360592
62.285 16.781731
62.290 16.776558
62.295 16.721449
62.300 16.130367
62.305 16.34613
62.310 17.088942
62.315 17.08206
62.320 17.4753
62.325 18.030525
62.330 18.582279
62.335 18.591515
62.340 18.842833
62.345 18.668955
62.350 17.797876
62.355 17.348019
62.360 17.405657
62.365 17.505386
62.370 17.587563
62.375 16.871231
62.380 16.86615
62.385 17.248859
62.390 17.696262
62.395 17.531322
62.400 17.841114
62.405 18.075089
62.410 19.008343
62.415 19.107796
62.420 19.055834
62.425 18.950584
62.430 18.446955
62.435 17.893267
62.440 17.794521
62.445 17.171957
62.450 17.468008
62.455 17.928633
62.460 17.965254
62.465 18.480169
62.470 18.389585
62.475 18.995783
62.480 18.789202
62.485 18.411894
62.490 18.132132
62.495 17.704062
62.500 17.495253
62.505 17.128553
62.510 16.167437
62.515 16.672714
62.520 17.239111
62.525 17.854301
62.530 17.898287
62.535 17.723469
62.540 18.252056
62.545 19.149134
62.550 19.519596
62.555 19.438488
62.560 19.110922
62.565 19.0425
62.570 18.746498
62.575 18.487194
62.580 17.919724
62.585 16.977621
62.590 16.438536
62.595 16.452261
62.600 17.211912
62.605 17.627104
62.610 18.045809
62.615 18.605873
62.620 18.896526
62.625 19.200089
62.630 19.352516
62.635 19.118418
62.640 18.896694
62.645 18.073586
62.650 17.720472
62.655 18.307962
62.660 18.167257
62.665 17.412222
62.670 17.115168
62.675 17.1591
62.680 17.422184
62.685 17.54001
62.690 17.197365
62.695 17.110697
62.700 17.285769
62.705 17.384577
62.710 17.706572
62.715 18.495726
62.720 18.469442
62.725 18.59939
62.730 18.710779
62.735 18.904398
62.740 19.151539
62.745 19.072756
62.750 18.71978
62.755 18.525684
62.760 17.937862
62.765 18.016874
62.770 17.848801
62.775 17.167145
62.780 16.786018
62.785 16.366619
62.790 16.96348
62.795 17.313524
62.800 17.300573
62.805 17.79287
62.810 18.351923
62.815 18.603441
62.820 18.378576
62.825 18.011356
62.830 18.049959
62.835 17.855873
62.840 17.691832
62.845 17.82255
62.850 18.126127
62.855 18.884827
62.860 19.688374
62.865 20.668585
62.870 20.793299
62.875 20.948929
62.880 20.571548
62.885 19.976717
62.890 19.043583
62.895 17.884058
62.900 17.1553
62.905 17.325583
62.910 16.995945
62.915 16.865099
62.920 17.073011
62.925 17.403702
62.930 17.303265
62.935 16.635645
62.940 16.553434
62.945 16.334473
62.950 16.15081
62.955 15.616495
62.960 15.293784
62.965 15.87137
62.970 16.596411
62.975 16.465282
62.980 16.778843
62.985 17.358925
62.990 17.91749
62.995 18.469175
63.000 17.986845
63.005 17.442282
63.010 17.834703
63.015 18.099493
63.020 18.042913
63.025 18.118927
63.030 17.726496
63.035 18.393736
63.040 18.642397
63.045 18.294445
63.050 17.848738
63.055 18.07996
63.060 18.348652
63.065 18.755785
63.070 18.699026
63.075 18.992344
63.080 19.578405
63.085 19.987789
63.090 19.478224
63.095 19.485727
63.100 19.237225
63.105 18.710438
63.110 18.441254
63.115 18.291735
63.120 18.585752
63.125 18.929388
63.130 18.683489
63.135 18.730736
63.140 19.218662
63.145 19.995062
63.150 19.785208
63.155 18.988302
63.160 18.844112
63.165 18.855883
63.170 19.401575
63.175 19.427145
63.180 19.07465
63.185 18.999836
63.190 19.354744
63.195 19.646233
63.200 19.751869
63.205 19.193768
63.210 18.862823
63.215 18.411402
63.220 18.716188
63.225 18.420523
63.230 18.339695
63.235 18.27301
63.240 18.102451
63.245 18.124586
63.250 18.614784
63.255 18.796556
63.260 19.13447
63.265 18.843746
63.270 18.53146
63.275 19.004976
63.280 18.991575
63.285 18.789799
63.290 17.963438
63.295 17.980362
63.300 18.192644
63.305 18.538128
63.310 18.299173
63.315 18.677877
63.320 18.427656
63.325 18.642962
63.330 18.627756
63.335 18.369764
63.340 18.010647
63.345 17.727869
63.350 17.265657
63.355 17.604059
63.360 17.950853
63.365 17.98823
63.370 18.293329
63.375 18.616526
63.380 18.880548
63.385 19.539627
63.390 19.188143
63.395 18.484856
63.400 18.374229
63.405 18.307613
63.410 18.497093
63.415 18.363037
63.420 17.867229
63.425 18.157936
63.430 18.985744
63.435 19.125244
63.440 18.709478
63.445 18.487293
63.450 18.959845
63.455 18.987682
63.460 19.05847
63.465 18.857149
63.470 18.692842
63.475 18.990875
63.480 18.486734
63.485 17.736631
63.490 17.19174
63.495 17.306551
63.500 17.272606
63.505 17.771776
63.510 17.537493
63.515 17.831881
63.520 17.67503
63.525 17.507866
63.530 17.29664
63.535 17.186457
63.540 17.048077
63.545 17.406996
63.550 17.120193
63.555 17.189682
63.560 17.766703
63.565 18.23918
63.570 18.64608
63.575 18.76272
63.580 18.954313
63.585 19.443365
63.590 19.646173
63.595 19.216909
63.600 19.050613
63.605 18.703663
63.610 18.16559
63.615 18.060837
63.620 18.293736
63.625 18.249018
63.630 18.051125
63.635 17.626146
63.640 17.955517
63.645 18.429642
63.650 18.488651
63.655 18.597275
63.660 19.077635
63.665 19.497219
63.670 19.293858
63.675 18.873264
63.680 18.781092
63.685 18.015306
63.690 17.618599
63.695 17.467905
63.700 16.563093
63.705 17.133547
63.710 17.210232
63.715 17.423994
63.720 17.645586
63.725 18.061373
63.730 17.757441
63.735 18.1984
63.740 17.812719
63.745 17.790239
63.750 17.920546
63.755 18.385506
63.760 18.139944
63.765 18.819954
63.770 19.300762
63.775 19.788443
63.780 19.692518
63.785 19.064228
63.790 18.62487
63.795 18.310411
63.800 18.061718
63.805 18.107084
63.810 17.620256
63.815 17.625916
63.820 18.000658
63.825 18.386253
63.830 18.531815
63.835 17.89423
63.840 17.577349
63.845 17.686367
63.850 17.488642
63.855 17.682295
63.860 17.633259
63.865 17.427952
63.870 17.396734
63.875 16.97156
63.880 17.308193
63.885 17.635897
63.890 17.57917
63.895 17.501423
63.900 17.688288
63.905 17.891825
63.910 18.161997
63.915 17.887674
63.920 17.726439
63.925 17.936859
63.930 18.190434
63.935 19.209295
63.940 19.868067
63.945 19.920773
63.950 19.679844
63.955 19.742735
63.960 19.496754
63.965 19.271521
63.970 18.11871
63.975 17.858973
63.980 18.448236
63.985 18.719408
63.990 18.699532
63.995 18.722116
64.000 19.033297
64.005 19.478451
64.010 19.3337
64.015 19.098413
64.020 19.30127
64.025 19.487066
64.030 19.408878
64.035 18.70245
64.040 18.172142
64.045 18.7222
64.050 18.761557
64.055 18.96524
64.060 18.642838
64.065 18.691204
64.070 18.950285
64.075 19.127972
64.080 18.212965
64.085 17.637672
64.090 17.241787
64.095 17.454172
64.100 18.086266
64.105 19.083755
64.110 19.353357
64.115 19.437477
64.120 19.476015
64.125 19.304066
64.130 18.925306
64.135 18.388988
64.140 17.642477
64.145 17.758812
64.150 17.472872
64.155 17.514267
64.160 17.458801
64.165 17.045732
64.170 16.918154
64.175 16.848896
64.180 16.504406
64.185 17.863167
64.190 18.312872
64.195 18.531982
64.200 19.474051
64.205 19.670107
64.210 20.02211
64.215 20.253597
64.220 19.415987
64.225 19.687654
64.230 20.464809
64.235 20.180132
64.240 19.672678
64.245 19.058899
64.250 18.736061
64.255 18.24082
64.260 17.899355
64.265 17.345797
64.270 17.454643
64.275 18.009945
64.280 18.14547
64.285 18.753172
64.290 18.832985
64.295 18.977024
64.300 19.544313
64.305 19.335758
64.310 18.663761
64.315 19.009098
64.320 18.795273
64.325 19.311087
64.330 18.574238
64.335 17.920296
64.340 18.48575
64.345 19.0555
64.350 19.34487
64.355 19.872545
64.360 19.756184
64.365 20.240374
64.370 20.219982
64.375 19.942379
64.380 20.02561
64.385 19.841919
64.390 19.577311
64.395 19.187059
64.400 19.063272
64.405 18.816532
64.410 18.614729
64.415 18.36694
64.420 18.022402
64.425 18.092476
64.430 18.159779
64.435 18.267769
64.440 18.680733
64.445 19.55011
64.450 19.528713
64.455 20.114122
64.460 20.241144
64.465 20.652653
64.470 20.824806
64.475 20.641615
64.480 20.186375
64.485 20.188818
64.490 19.856262
64.495 20.104801
64.500 20.789417
64.505 20.784216
64.510 20.394363
64.515 19.77998
64.520 19.761429
64.525 19.804089
64.530 19.450825
64.535 19.230179
64.540 19.029924
64.545 19.532558
64.550 19.791225
64.555 19.651432
64.560 19.394182
64.565 19.761793
64.570 19.222048
64.575 19.386452
64.580 19.175707
64.585 19.049509
64.590 19.475109
64.595 19.584379
64.600 19.732096
64.605 19.840506
64.610 19.592651
64.615 19.926908
64.620 20.301512
64.625 20.198025
64.630 20.273878
64.635 20.001308
64.640 20.736639
64.645 21.467979
64.650 21.287037
64.655 21.258846
64.660 21.594973
64.665 21.668428
64.670 21.255011
64.675 20.587381
64.680 20.527699
64.685 20.599476
64.690 21.156467
64.695 20.986738
64.700 20.890657
64.705 21.334866
64.710 21.372286
64.715 21.063648
64.720 20.586933
64.725 20.275211
64.730 20.288593
64.735 19.967257
64.740 19.911596
64.745 20.174971
64.750 20.321281
64.755 20.881063
64.760 20.67436
64.765 20.541168
64.770 21.241013
64.775 21.248945
64.780 21.716616
64.785 22.311893
64.790 22.248718
64.795 21.868275
64.800 22.162663
64.805 21.849434
64.810 21.466475
64.815 21.068453
64.820 20.813738
64.825 20.594036
64.830 21.123083
64.835 20.717312
64.840 20.921324
64.845 21.891649
64.850 22.193428
64.855 21.374397
64.860 21.22154
64.865 21.704662
64.870 21.523436
64.875 21.619774
64.880 21.115364
64.885 21.146643
64.890 21.46917
64.895 21.924278
64.900 22.143164
64.905 22.86969
64.910 22.933138
64.915 22.745394
64.920 23.488855
64.925 24.127516
64.930 23.97002
64.935 23.949492
64.940 24.244596
64.945 24.184437
64.950 24.182032
64.955 23.179195
64.960 22.418627
64.965 22.612709
64.970 22.442194
64.975 21.958447
64.980 22.043335
64.985 21.929298
64.990 21.925446
64.995 22.40715
65.000 22.71661
65.005 23.069981
65.010 22.987265
65.015 23.193001
65.020 24.392738
65.025 25.390835
65.030 25.285234
65.035 24.53413
65.040 24.607317
65.045 25.163628
65.050 25.067528
65.055 24.392136
65.060 24.52873
65.065 25.145435
65.070 25.270515
65.075 24.870241
65.080 24.425955
65.085 24.462088
65.090 24.84375
65.095 23.932869
65.100 23.122334
65.105 22.859798
65.110 23.037596
65.115 22.8832
65.120 22.635
65.125 23.141342
65.130 23.878319
65.135 24.423225
65.140 25.170471
65.145 24.820099
65.150 24.971779
65.155 25.09796
65.160 24.761753
65.165 24.405865
65.170 24.053238
65.175 23.086451
65.180 23.658417
65.185 23.620237
65.190 23.409397
65.195 23.874744
65.200 24.582525
65.205 24.572037
65.210 24.544758
65.215 24.05159
65.220 24.291712
65.225 23.909391
65.230 22.768467
65.235 22.351801
65.240 22.879139
65.245 23.652695
65.250 23.820053
65.255 23.669828
65.260 24.38611
65.265 24.710258
65.270 24.364389
65.275 24.591291
65.280 24.573092
65.285 24.38978
65.290 24.732542
65.295 24.536427
65.300 24.488026
65.305 24.90353
65.310 24.717587
65.315 24.603783
65.320 24.540119
65.325 23.766693
65.330 23.026548
65.335 22.981176
65.340 23.033489
65.345 22.726652
65.350 23.28561
65.355 23.550102
65.360 24.052393
65.365 24.793653
65.370 24.9154
65.375 25.185474
65.380 24.94981
65.385 24.301012
65.390 24.406555
65.395 24.465151
65.400 24.865421
65.405 25.262125
65.410 25.09856
65.415 25.14736
65.420 25.588163
65.425 25.878935
65.430 25.568874
65.435 25.113613
65.440 24.977495
65.445 24.479841
65.450 24.431957
65.455 24.389416
65.460 24.199129
65.465 24.433205
65.470 24.645863
65.475 25.445045
65.480 26.356466
65.485 26.221674
65.490 26.454292
65.495 26.908369
65.500 27.244432
65.505 27.148155
65.510 27.069237
65.515 27.072191
65.520 27.898975
65.525 28.390461
65.530 28.813971
65.535 29.057976
65.540 29.33984
65.545 29.537779
65.550 29.686934
65.555 29.398653
65.560 29.107977
65.565 28.996264
65.570 28.207569
65.575 28.306519
65.580 28.23138
65.585 28.087965
65.590 28.406811
65.595 28.317072
65.600 27.964968
65.605 28.679089
65.610 29.605844
65.615 30.248297
65.620 31.163198
65.625 31.472609
65.630 31.782612
65.635 32.76046
65.640 33.03381
65.645 32.938881
65.650 32.950996
65.655 32.971184
65.660 33.001671
65.665 32.386288
65.670 32.559219
65.675 33.125256
65.680 32.790157
65.685 32.476887
65.690 32.762066
65.695 32.878414
65.700 33.519981
65.705 33.271881
65.710 33.270348
65.715 33.61005
65.720 34.82394
65.725 35.422123
65.730 36.111866
65.735 36.125557
65.740 36.204308
65.745 35.938843
65.750 35.730961
65.755 35.742954
65.760 35.077667
65.765 34.954388
65.770 35.906513
65.775 35.729446
65.780 35.445732
65.785 34.845417
65.790 34.121971
65.795 34.571533
65.800 34.490993
65.805 34.008312
65.810 34.500263
65.815 35.113132
65.820 35.691177
65.825 36.181957
65.830 36.298191
65.835 36.593796
65.840 36.157864
65.845 35.576107
65.850 35.384571
65.855 35.931644
65.860 35.808628
65.865 35.878422
65.870 36.365505
65.875 37.546822
65.880 37.87265
65.885 37.625488
65.890 37.592834
65.895 37.6996
65.900 37.577019
65.905 36.838341
65.910 35.97662
65.915 36.534962
65.920 36.834454
65.925 37.187141
65.930 36.933937
65.935 37.530956
65.940 38.996777
65.945 39.705921
65.950 39.800415
65.955 39.618946
65.960 39.380028
65.965 39.784401
65.970 39.534939
65.975 39.085274
65.980 39.573814
65.985 40.061539
65.990 40.79649
65.995 40.334316
66.000 39.644329
66.005 38.958435
66.010 38.349655
66.015 37.836826
66.020 37.440464
66.025 37.406258
66.030 37.916248
66.035 38.470531
66.040 39.006786
66.045 38.976234
66.050 39.076065
66.055 39.043831
66.060 39.067692
66.065 39.553253
66.070 39.805988
66.075 39.924458
66.080 39.448864
66.085 40.031494
66.090 39.728336
66.095 38.884445
66.100 38.278629
66.105 37.75386
66.110 37.653084
66.115 38.080338
66.120 37.879421
66.125 38.255547
66.130 38.146351
66.135 38.31636
66.140 37.742382
66.145 37.116741
66.150 36.645344
66.155 35.648216
66.160 35.451298
66.165 35.625324
66.170 34.873665
66.175 35.029377
66.180 35.678276
66.185 35.667591
66.190 36.189178
66.195 36.464287
66.200 35.856968
66.205 35.780495
66.210 36.098248
66.215 35.083088
66.220 34.657597
66.225 33.970539
66.230 33.70451
66.235 34.426178
66.240 35.20295
66.245 34.716473
66.250 34.990917
66.255 35.211723
66.260 35.51125
66.265 35.597954
66.270 34.975288
66.275 34.023846
66.280 34.331406
66.285 34.318302
66.290 34.300209
66.295 33.665073
66.300 33.601223
66.305 33.762257
66.310 33.62859
66.315 33.229927
66.320 33.49939
66.325 33.611099
66.330 33.975712
66.335 33.910557
66.340 33.145737
66.345 32.945381
66.350 32.509293
66.355 32.282131
66.360 32.580147
66.365 32.509937
66.370 32.250393
66.375 31.348639
66.380 31.185028
66.385 31.288134
66.390 31.738617
66.395 30.893856
66.400 30.922815
66.405 30.909185
66.410 31.548553
66.415 31.265327
66.420 30.752249
66.425 29.373693
66.430 28.89728
66.435 28.064138
66.440 27.975975
66.445 28.023323
66.450 27.90761
66.455 28.409187
66.460 28.148045
66.465 28.298845
66.470 27.845333
66.475 27.358644
66.480 27.296003
66.485 27.436577
66.490 27.635017
66.495 27.92918
66.500 28.043003
66.505 28.792175
66.510 29.345346
66.515 29.459486
66.520 29.197916
66.525 27.864122
66.530 27.774769
66.535 27.623749
66.540 27.077148
66.545 26.449106
66.550 26.076704
66.555 25.60442
66.560 25.996469
66.565 26.28154
66.570 26.282928
66.575 25.934799
66.580 25.80484
66.585 24.866077
66.590 24.627245
66.595 25.196573
66.600 25.155867
66.605 25.350101
66.610 26.106615
66.615 27.065468
66.620 28.222149
66.625 28.828966
66.630 28.521759
66.635 28.433393
66.640 27.912142
66.645 27.426168
66.650 26.491137
66.655 26.204716
66.660 25.292107
66.665 24.461126
66.670 24.72522
66.675 24.851616
66.680 24.986906
66.685 24.669306
66.690 24.098351
66.695 24.031534
66.700 24.821016
66.705 24.607361
66.710 24.925751
66.715 25.051075
66.720 24.896715
66.725 25.087646
66.730 25.647257
66.735 25.453617
66.740 25.072029
66.745 24.393438
66.750 23.677902
66.755 24.359335
66.760 24.322973
66.765 24.130911
66.770 23.988979
66.775 24.294489
66.780 24.696432
66.785 24.661739
66.790 24.488358
66.795 24.644461
66.800 24.626438
66.805 24.78319
66.810 24.51169
66.815 24.840088
66.820 25.168859
66.825 24.757463
66.830 24.102226
66.835 23.440989
66.840 23.146631
66.845 22.578442
66.850 22.150475
66.855 21.560177
66.860 21.170179
66.865 21.268423
66.870 21.316257
66.875 21.285852
66.880 21.334217
66.885 21.207813
66.890 21.815224
66.895 22.680902
66.900 23.448763
66.905 23.758007
66.910 23.574953
66.915 23.985538
66.920 24.062361
66.925 23.796501
66.930 23.472801
66.935 23.092352
66.940 23.588778
66.945 24.230671
66.950 23.705509
66.955 23.587877
66.960 23.480684
66.965 23.785543
66.970 23.953146
66.975 23.514696
66.980 23.506474
66.985 23.75869
66.990 24.463326
66.995 24.546375
67.000 24.224985
67.005 24.642904
67.010 24.303276
67.015 23.982164
67.020 24.26016
67.025 24.222422
67.030 24.537817
67.035 23.862381
67.040 23.173204
67.045 23.706875
67.050 23.637455
67.055 23.282896
67.060 22.790133
67.065 23.432867
67.070 24.06208
67.075 24.099863
67.080 23.969671
67.085 24.713411
67.090 24.428953
67.095 24.235487
67.100 23.589628
67.105 23.198442
67.110 23.265652
67.115 23.101988
67.120 22.981525
67.125 23.421146
67.130 22.776976
67.135 21.919607
67.140 21.88269
67.145 22.003967
67.150 22.065544
67.155 21.711033
67.160 21.446394
67.165 22.171976
67.170 22.325724
67.175 21.7656
67.180 20.981987
67.185 20.96809
67.190 21.688076
67.195 22.002056
67.200 22.293732
67.205 22.710958
67.210 23.397272
67.215 23.853054
67.220 23.147364
67.225 23.035536
67.230 23.086649
67.235 22.581026
67.240 22.733557
67.245 22.629452
67.250 22.752934
67.255 22.862173
67.260 22.685162
67.265 23.02813
67.270 23.391079
67.275 23.349516
67.280 23.138752
67.285 22.894064
67.290 23.093521
67.295 22.532263
67.300 22.742958
67.305 22.591476
67.310 23.260082
67.315 23.46307
67.320 23.654114
67.325 23.827126
67.330 24.049761
67.335 23.769562
67.340 24.278744
67.345 23.206934
67.350 22.959414
67.355 23.050344
67.360 22.981808
67.365 22.752859
67.370 22.587933
67.375 22.241953
67.380 22.749889
67.385 22.875725
67.390 22.933079
67.395 22.553907
67.400 22.335649
67.405 22.076105
67.410 22.143465
67.415 21.811699
67.420 21.916
67.425 21.396549
67.430 21.111872
67.435 21.184563
67.440 21.180597
67.445 21.126871
67.450 20.741293
67.455 20.293814
67.460 20.640285
67.465 21.217239
67.470 21.213068
67.475 20.932014
67.480 21.228905
67.485 21.621494
67.490 22.106211
67.495 22.38986
67.500 22.569677
67.505 23.096027
67.510 23.259077
67.515 23.401562
67.520 23.783556
67.525 23.293543
67.530 22.723392
67.535 22.472464
67.540 22.461525
67.545 22.805849
67.550 22.525566
67.555 22.371946
67.560 22.244879
67.565 22.299423
67.570 22.263281
67.575 22.183649
67.580 22.128481
67.585 22.038752
67.590 21.962612
67.595 22.288923
67.600 22.201189
67.605 21.972836
67.610 22.171352
67.615 22.033018
67.620 22.170755
67.625 22.435638
67.630 22.786062
67.635 23.301519
67.640 22.972696
67.645 22.17939
67.650 22.274994
67.655 22.468248
67.660 22.248266
67.665 21.973608
67.670 21.663565
67.675 21.873491
67.680 21.685249
67.685 21.462547
67.690 21.084087
67.695 20.998022
67.700 20.206913
67.705 20.096756
67.710 20.354218
67.715 20.642302
67.720 20.669168
67.725 20.692556
67.730 21.378998
67.735 22.645817
67.740 22.984467
67.745 23.037891
67.750 23.088295
67.755 22.930618
67.760 22.852179
67.765 22.335913
67.770 22.021482
67.775 21.987827
67.780 22.070028
67.785 22.078207
67.790 22.034544
67.795 22.348715
67.800 22.243906
67.805 21.81216
67.810 21.710909
67.815 21.420933
67.820 21.378859
67.825 21.210196
67.830 21.42388
67.835 21.655481
67.840 21.723909
67.845 21.581181
67.850 21.741732
67.855 21.563639
67.860 21.184826
67.865 20.795485
67.870 20.653894
67.875 20.728163
67.880 20.645206
67.885 20.638384
67.890 20.774826
67.895 21.808538
67.900 22.310957
67.905 22.212936
67.910 22.482891
67.915 22.378574
67.920 22.252398
67.925 22.505281
67.930 22.244272
67.935 22.10915
67.940 22.309559
67.945 22.097109
67.950 22.665344
67.955 22.659029
67.960 22.75565
67.965 22.780296
67.970 22.460756
67.975 22.17358
67.980 22.132715
67.985 21.67943
67.990 21.340673
67.995 20.898823
68.000 20.410488
68.005 20.408461
68.010 20.668697
68.015 21.335434
68.020 21.889835
68.025 22.239603
68.030 22.330296
68.035 22.664516
68.040 22.206593
68.045 21.988459
68.050 21.281214
68.055 21.436499
68.060 21.841177
68.065 21.52796
68.070 21.476322
68.075 22.063738
68.080 21.837446
68.085 21.644625
68.090 21.47295
68.095 21.609184
68.100 22.295506
68.105 22.075705
68.110 22.18836
68.115 22.70018
68.120 23.535324
68.125 23.387016
68.130 23.492073
68.135 23.253437
68.140 23.229197
68.145 22.86484
68.150 22.266319
68.155 22.072517
68.160 22.026447
68.165 21.179361
68.170 20.770691
68.175 21.212372
68.180 21.101124
68.185 21.10726
68.190 20.469213
68.195 20.180157
68.200 19.952032
68.205 19.421349
68.210 19.543369
68.215 19.699997
68.220 20.049669
68.225 20.73518
68.230 21.262476
68.235 22.2745
68.240 23.009552
68.245 22.948709
68.250 23.048016
68.255 22.677954
68.260 22.384871
68.265 22.142311
68.270 22.2915
68.275 21.950319
68.280 21.679274
68.285 21.934809
68.290 21.9153
68.295 21.648458
68.300 21.531158
68.305 21.534605
68.310 21.770372
68.315 21.265413
68.320 21.325069
68.325 21.376013
68.330 21.502386
68.335 21.181278
68.340 20.982389
68.345 20.636219
68.350 21.356665
68.355 21.069925
68.360 21.220007
68.365 21.598915
68.370 22.086666
68.375 22.189932
68.380 21.86998
68.385 21.37159
68.390 21.416183
68.395 21.141506
68.400 20.675209
68.405 20.115934
68.410 20.039791
68.415 20.770864
68.420 20.758659
68.425 20.559883
68.430 20.243114
68.435 20.287735
68.440 20.43211
68.445 20.421625
68.450 20.105387
68.455 20.460085
68.460 20.643229
68.465 20.998362
68.470 21.073147
68.475 20.910925
68.480 21.463741
68.485 21.503607
68.490 21.672827
68.495 21.802704
68.500 21.563572
68.505 21.500986
68.510 21.217291
68.515 20.883144
68.520 21.381865
68.525 21.430698
68.530 21.286259
68.535 21.54851
68.540 21.628023
68.545 22.077728
68.550 22.661348
68.555 22.257565
68.560 22.810278
68.565 23.555912
68.570 23.48571
68.575 24.076021
68.580 24.126877
68.585 23.689615
68.590 23.375742
68.595 22.771408
68.600 21.836205
68.605 21.816383
68.610 21.730816
68.615 21.680101
68.620 21.889307
68.625 21.803255
68.630 22.122747
68.635 22.786278
68.640 23.187748
68.645 22.745522
68.650 21.846504
68.655 21.603603
68.660 21.057577
68.665 20.631191
68.670 20.095196
68.675 19.706549
68.680 19.278526
68.685 20.174557
68.690 20.434921
68.695 21.231817
68.700 22.115026
68.705 23.139383
68.710 23.41963
68.715 24.24308
68.720 24.283867
68.725 24.309195
68.730 24.123472
68.735 23.423407
68.740 23.204617
68.745 23.904282
68.750 23.837496
68.755 23.718912
68.760 23.672125
68.765 23.296888
68.770 22.893814
68.775 22.688433
68.780 21.975029
68.785 22.237043
68.790 22.614065
68.795 22.856964
68.800 23.141354
68.805 23.838076
68.810 23.316313
68.815 23.260008
68.820 23.109297
68.825 22.653185
68.830 22.820183
68.835 22.206335
68.840 21.855486
68.845 22.351303
68.850 22.834499
68.855 23.044188
68.860 22.632553
68.865 22.306429
68.870 23.169806
68.875 22.520424
68.880 22.396376
68.885 21.745678
68.890 21.829294
68.895 22.662251
68.900 23.377722
68.905 23.558516
68.910 23.998268
68.915 24.107025
68.920 24.104521
68.925 23.862967
68.930 23.632969
68.935 23.545906
68.940 23.184723
68.945 23.306787
68.950 23.614553
68.955 23.500212
68.960 23.714993
68.965 23.797575
68.970 23.659935
68.975 24.300053
68.980 24.199972
68.985 24.145861
68.990 24.179867
68.995 24.329937
69.000 24.671
69.005 25.346222
69.010 25.169119
69.015 25.366245
69.020 25.785086
69.025 25.742155
69.030 25.177559
69.035 24.790222
69.040 24.594862
69.045 25.410622
69.050 25.390371
69.055 24.873159
69.060 24.66217
69.065 25.015015
69.070 25.073879
69.075 24.17107
69.080 23.546263
69.085 23.726412
69.090 23.733322
69.095 24.164921
69.100 24.144995
69.105 24.519815
69.110 25.09432
69.115 25.575567
69.120 25.979151
69.125 26.549097
69.130 26.812531
69.135 26.802578
69.140 25.867409
69.145 25.181574
69.150 24.707119
69.155 24.494333
69.160 23.637604
69.165 22.773676
69.170 23.082968
69.175 24.495995
69.180 24.735098
69.185 24.946238
69.190 25.228594
69.195 25.35607
69.200 25.716908
69.205 25.903463
69.210 26.229364
69.215 26.479046
69.220 26.271742
69.225 26.455345
69.230 27.171856
69.235 27.186289
69.240 26.719584
69.245 26.104757
69.250 26.040424
69.255 27.235493
69.260 27.241352
69.265 27.038637
69.270 26.898003
69.275 26.17412
69.280 26.794884
69.285 26.921179
69.290 26.183626
69.295 26.067787
69.300 26.791592
69.305 27.939178
69.310 28.863207
69.315 28.596357
69.320 28.259315
69.325 27.983948
69.330 28.148504
69.335 27.51679
69.340 26.976381
69.345 27.093092
69.350 27.553099
69.355 28.267023
69.360 28.164042
69.365 28.158962
69.370 28.192972
69.375 28.278242
69.380 27.984383
69.385 27.747995
69.390 28.134371
69.395 28.613619
69.400 28.872074
69.405 28.8281
69.410 28.899179
69.415 29.348862
69.420 29.073242
69.425 28.388702
69.430 28.536589
69.435 29.297504
69.440 29.95138
69.445 29.908491
69.450 30.610359
69.455 30.53619
69.460 30.72168
69.465 29.596792
69.470 28.448736
69.475 27.704359
69.480 27.47436
69.485 26.758194
69.490 27.760296
69.495 28.454405
69.500 29.381712
69.505 29.488516
69.510 29.664061
69.515 29.809418
69.520 29.243765
69.525 28.828693
69.530 28.123306
69.535 28.016356
69.540 28.408985
69.545 28.218985
69.550 27.886742
69.555 27.50703
69.560 27.68191
69.565 28.368124
69.570 28.528639
69.575 28.322582
69.580 28.935061
69.585 29.25094
69.590 29.603849
69.595 29.61301
69.600 28.775013
69.605 28.613754
69.610 29.086853
69.615 28.969275
69.620 29.215748
69.625 29.095514
69.630 28.734755
69.635 28.618057
69.640 28.224976
69.645 27.789709
69.650 27.002888
69.655 26.416681
69.660 26.131107
69.665 26.595074
69.670 27.613634
69.675 28.101402
69.680 28.310448
69.685 28.686464
69.690 29.571907
69.695 29.453808
69.700 29.45874
69.705 29.471699
69.710 29.115261
69.715 28.55341
69.720 28.51376
69.725 28.383892
69.730 27.998634
69.735 27.753338
69.740 26.702467
69.745 26.964287
69.750 26.730223
69.755 26.619787
69.760 26.671623
69.765 26.462265
69.770 25.92333
69.775 25.593939
69.780 25.460079
69.785 25.567934
69.790 24.949959
69.795 24.582102
69.800 25.242931
69.805 26.057545
69.810 26.481119
69.815 26.85313
69.820 27.260683
69.825 27.447233
69.830 27.774479
69.835 27.32729
69.840 26.683119
69.845 25.878866
69.850 25.392975
69.855 25.190596
69.860 23.945959
69.865 23.154408
69.870 23.187122
69.875 23.85306
69.880 24.093763
69.885 24.228802
69.890 24.296997
69.895 24.884062
69.900 25.478231
69.905 25.468435
69.910 24.638056
69.915 24.678358
69.920 24.606237
69.925 24.517605
69.930 24.255579
69.935 23.800524
69.940 23.222424
69.945 22.847181
69.950 22.818539
69.955 22.467251
69.960 21.80065
69.965 21.677063
69.970 20.740677
69.975 20.889067
69.980 20.845276
69.985 20.12462
69.990 20.363417
69.995 20.971802
70.000 21.078623
70.005 21.105089
70.010 21.558241
70.015 22.462355
70.020 23.230095
70.025 23.487762
70.030 23.015322
70.035 23.148987
70.040 22.937679
70.045 21.92692
70.050 21.157331
70.055 20.604849
70.060 20.486683
70.065 20.508883
70.070 21.474854
70.075 21.94331
70.080 22.628418
70.085 23.123714
70.090 23.184433
70.095 23.011091
70.100 22.431416
70.105 21.842308
70.110 22.075377
70.115 21.883759
70.120 21.741634
70.125 22.01845
70.130 22.395639
70.135 22.611334
70.140 22.3326
70.145 21.919716
70.150 22.279476
70.155 21.777021
70.160 21.445789
70.165 21.009319
70.170 21.473213
70.175 21.266367
70.180 21.764898
70.185 21.505091
70.190 21.680611
70.195 21.574795
70.200 21.057404
70.205 20.438404
70.210 19.714804
70.215 19.126925
70.220 19.378935
70.225 20.046873
70.230 20.650116
70.235 21.48789
70.240 22.274008
70.245 22.730631
70.250 23.368521
70.255 23.383421
70.260 22.785975
70.265 22.818762
70.270 22.469984
70.275 22.623972
70.280 22.755365
70.285 22.569384
70.290 21.734503
70.295 21.226025
70.300 20.765116
70.305 20.4655
70.310 20.162827
70.315 19.789841
70.320 19.439772
70.325 20.165737
70.330 20.666908
70.335 20.662092
70.340 20.946379
70.345 21.572182
70.350 21.818054
70.355 22.015265
70.360 21.812922
70.365 21.759228
70.370 21.652664
70.375 21.575445
70.380 20.83408
70.385 20.140743
70.390 20.000214
70.395 20.022482
70.400 19.8347
70.405 19.568121
70.410 19.048401
70.415 18.45611
70.420 18.513115
70.425 18.875761
70.430 18.982843
70.435 18.932953
70.440 18.893414
70.445 18.961586
70.450 19.479195
70.455 19.430548
70.460 19.571089
70.465 19.948849
70.470 20.409208
70.475 20.966322
70.480 20.955809
70.485 21.32336
70.490 21.050886
70.495 20.227543
70.500 20.071022
70.505 19.949711
70.510 20.049158
70.515 20.422279
70.520 20.214867
70.525 20.176126
70.530 20.65992
70.535 20.546045
70.540 20.202717
70.545 19.983562
70.550 20.061579
70.555 20.319733
70.560 21.064348
70.565 21.235889
70.570 21.186489
70.575 21.728964
70.580 21.469271
70.585 21.226315
70.590 20.935217
70.595 20.311174
70.600 19.798969
70.605 19.532461
70.610 19.110708
70.615 18.622152
70.620 18.245121
70.625 18.048456
70.630 18.011812
70.635 18.030285
70.640 18.047222
70.645 17.934711
70.650 18.463282
70.655 19.299206
70.660 19.516632
70.665 19.170202
70.670 18.985302
70.675 19.244678
70.680 19.263773
70.685 19.676891
70.690 19.271948
70.695 19.291143
70.700 19.477383
70.705 19.574587
70.710 19.752653
70.715 19.802361
70.720 20.02338
70.725 19.938812
70.730 19.938364
70.735 20.125517
70.740 20.374052
70.745 20.546526
70.750 20.687233
70.755 20.425903
70.760 20.318836
70.765 20.691507
70.770 21.077217
70.775 21.059067
70.780 20.575832
70.785 19.904585
70.790 20.221432
70.795 20.22188
70.800 19.141808
70.805 18.692799
70.810 18.522257
70.815 18.436247
70.820 19.066141
70.825 19.603416
70.830 20.101015
70.835 20.342363
70.840 20.37808
70.845 20.92168
70.850 20.96172
70.855 20.662933
70.860 19.545355
70.865 19.383406
70.870 19.256186
70.875 19.057919
70.880 19.074274
70.885 19.293539
70.890 19.011793
70.895 18.94982
70.900 19.081774
70.905 18.90177
70.910 18.820337
70.915 18.559303
70.920 18.491211
70.925 18.07642
70.930 18.006632
70.935 18.808435
70.940 18.817505
70.945 18.975121
70.950 18.513765
70.955 18.4687
70.960 18.872278
70.965 19.421154
70.970 19.324671
70.975 19.590849
70.980 19.827101
70.985 20.195353
70.990 20.477396
70.995 19.972372
71.000 19.0326
71.005 18.543827
71.010 18.81035
71.015 18.91058
71.020 18.963934
71.025 18.55477
71.030 18.392435
71.035 18.944525
71.040 19.089165
71.045 18.861809
71.050 18.444899
71.055 18.254974
71.060 19.052414
71.065 19.343458
71.070 19.378145
71.075 18.851337
71.080 18.27437
71.085 18.184786
71.090 17.819794
71.095 17.780365
71.100 17.967733
71.105 18.062061
71.110 18.487783
71.115 19.578794
71.120 20.068157
71.125 20.510986
71.130 20.845844
71.135 20.331686
71.140 20.170088
71.145 20.164812
71.150 19.787071
71.155 19.405476
71.160 19.057787
71.165 18.729923
71.170 19.422165
71.175 19.29689
71.180 19.236357
71.185 19.172264
71.190 19.466589
71.195 19.324995
71.200 19.153349
71.205 18.66466
71.210 19.476248
71.215 19.463173
71.220 19.170078
71.225 19.55562
71.230 19.829992
71.235 20.246183
71.240 20.2094
71.245 19.718731
71.250 20.194008
71.255 20.367458
71.260 20.582273
71.265 21.070934
71.270 21.296808
71.275 21.570248
71.280 20.922159
71.285 20.406519
71.290 20.333534
71.295 19.50452
71.300 19.111185
71.305 18.454817
71.310 18.163626
71.315 18.808279
71.320 19.457928
71.325 19.14871
71.330 19.001392
71.335 18.93066
71.340 19.919708
71.345 20.178419
71.350 19.633286
71.355 19.564789
71.360 20.077747
71.365 20.740517
71.370 20.786858
71.375 20.063673
71.380 20.114113
71.385 20.464188
71.390 20.373642
71.395 19.991892
71.400 19.827158
71.405 20.402102
71.410 20.876841
71.415 20.975061
71.420 20.530655
71.425 20.738997
71.430 20.762638
71.435 20.724203
71.440 19.958376
71.445 19.195326
71.450 19.105215
71.455 19.193171
71.460 19.630098
71.465 19.198584
71.470 19.573246
71.475 19.889374
71.480 19.943565
71.485 19.988632
71.490 19.931671
71.495 19.716051
71.500 19.567209
71.505 19.165411
71.510 19.390789
71.515 19.391665
71.520 19.648441
71.525 19.803579
71.530 19.819719
71.535 19.821775
71.540 19.917133
71.545 19.677107
71.550 19.235542
71.555 18.622173
71.560 18.268747
71.565 18.030546
71.570 18.048389
71.575 17.940704
71.580 17.982801
71.585 17.864727
71.590 17.566647
71.595 17.558104
71.600 17.635878
71.605 16.943336
71.610 16.524807
71.615 16.752014
71.620 16.949776
71.625 17.242905
71.630 17.630089
71.635 17.854294
71.640 18.040794
71.645 18.78301
71.650 18.642878
71.655 18.336811
71.660 17.921942
71.665 17.634136
71.670 17.195446
71.675 16.816347
71.680 16.299438
71.685 16.975607
71.690 18.016396
71.695 17.932814
71.700 17.548948
71.705 17.934242
71.710 18.214603
71.715 18.426277
71.720 18.248837
71.725 17.668859
71.730 18.409355
71.735 18.920027
71.740 19.92721
71.745 20.146149
71.750 19.773415
71.755 19.862995
71.760 20.079922
71.765 20.150494
71.770 19.772251
71.775 19.395498
71.780 19.350775
71.785 19.487564
71.790 19.450138
71.795 18.969721
71.800 19.240852
71.805 19.144371
71.810 19.074026
71.815 18.829063
71.820 18.477715
71.825 17.98432
71.830 17.59795
71.835 16.782669
71.840 16.883411
71.845 17.249912
71.850 17.83145
71.855 18.955946
71.860 19.837294
71.865 20.329468
71.870 20.978914
71.875 20.922943
71.880 20.639336
71.885 20.50783
71.890 19.924126
71.895 19.844025
71.900 19.292261
71.905 19.186758
71.910 19.39661
71.915 19.430658
71.920 19.030857
71.925 19.058878
71.930 18.881304
71.935 19.090425
71.940 18.7365
71.945 18.607882
71.950 18.455633
71.955 18.812822
71.960 18.564438
71.965 18.397516
71.970 18.439129
71.975 18.399345
71.980 17.613171
71.985 17.701859
71.990 17.535006
71.995 17.271564
72.000 17.103722
72.005 16.998837
72.010 17.421911
72.015 18.130526
72.020 18.143822
72.025 17.94882
72.030 18.244652
72.035 18.623386
72.040 18.150969
72.045 17.928106
72.050 17.783133
72.055 18.103676
72.060 18.43248
72.065 18.948303
72.070 19.12867
72.075 18.989855
72.080 18.457695
72.085 18.049889
72.090 17.320688
72.095 17.156893
72.100 16.629068
72.105 16.900227
72.110 17.433634
72.115 17.535807
72.120 17.441053
72.125 17.489248
72.130 17.559887
72.135 17.409748
72.140 17.635445
72.145 17.153225
72.150 17.26865
72.155 17.341473
72.160 17.443226
72.165 17.421207
72.170 17.544451
72.175 17.378044
72.180 17.821362
72.185 18.038176
72.190 18.202122
72.195 18.147541
72.200 17.927423
72.205 17.452843
72.210 17.550104
72.215 17.820499
72.220 18.442965
72.225 18.091906
72.230 18.140797
72.235 18.493313
72.240 18.769375
72.245 18.799379
72.250 18.015734
72.255 17.650995
72.260 17.943659
72.265 18.258854
72.270 18.262087
72.275 18.378983
72.280 18.557344
72.285 18.511637
72.290 18.658436
72.295 18.838219
72.300 18.904398
72.305 19.420858
72.310 19.473969
72.315 20.279819
72.320 20.698835
72.325 20.689016
72.330 20.448265
72.335 20.135086
72.340 20.040583
72.345 19.98303
72.350 18.988546
72.355 18.698895
72.360 18.998367
72.365 18.743965
72.370 18.785248
72.375 18.508945
72.380 18.356998
72.385 18.915855
72.390 18.678877
72.395 17.878071
72.400 17.678867
72.405 17.268557
72.410 17.667475
72.415 17.710678
72.420 17.48415
72.425 18.074181
72.430 18.751083
72.435 19.438648
72.440 19.24951
72.445 19.069948
72.450 19.123537
72.455 19.661493
72.460 19.523466
72.465 19.763031
72.470 19.517887
72.475 19.481194
72.480 19.720682
72.485 19.883352
72.490 20.299055
72.495 20.154228
72.500 20.45715
72.505 20.94767
72.510 20.597776
72.515 20.235136
72.520 20.131315
72.525 19.878204
72.530 19.847174
72.535 19.386951
72.540 19.791573
72.545 19.944754
72.550 19.964546
72.555 19.950314
72.560 19.873863
72.565 19.465191
72.570 19.011251
72.575 19.01963
72.580 19.169785
72.585 19.002352
72.590 18.808023
72.595 18.407848
72.600 18.616821
72.605 18.439724
72.610 17.986696
72.615 17.502913
72.620 17.110603
72.625 16.834362
72.630 16.844797
72.635 16.966236
72.640 17.463985
72.645 17.221045
72.650 17.120331
72.655 17.393026
72.660 17.656984
72.665 17.395689
72.670 17.565493
72.675 17.518465
72.680 18.124363
72.685 18.602455
72.690 18.369122
72.695 18.419983
72.700 18.230507
72.705 17.303432
72.710 16.883163
72.715 16.473087
72.720 16.302387
72.725 15.819743
72.730 15.43442
72.735 15.589603
72.740 15.986307
72.745 15.822528
72.750 16.115192
72.755 16.058924
72.760 16.213699
72.765 16.656057
72.770 17.158852
72.775 17.605988
72.780 18.512871
72.785 18.382475
72.790 18.610809
72.795 19.168289
72.800 19.036377
72.805 18.441946
72.810 17.745243
72.815 17.499544
72.820 17.592974
72.825 17.448071
72.830 17.176073
72.835 17.13653
72.840 17.233946
72.845 16.904795
72.850 16.959209
72.855 16.663879
72.860 16.789675
72.865 16.654297
72.870 16.904486
72.875 16.74465
72.880 16.831322
72.885 16.689381
72.890 16.953295
72.895 16.753815
72.900 16.423622
72.905 16.55584
72.910 16.360415
72.915 16.124886
72.920 15.767177
72.925 15.292906
72.930 15.244451
72.935 15.441644
72.940 15.298383
72.945 15.884598
72.950 16.122631
72.955 16.231094
72.960 16.472128
72.965 16.662058
72.970 16.90472
72.975 17.028095
72.980 16.781137
72.985 17.313158
72.990 17.787125
72.995 17.927229
73.000 18.129505
