!@!!GADDS PLOTSO FILE: Chi integration type
!@!!Title/SampleName: map-12a
!@!!Comment: ?
!@!!User: Bruker Instrument Administrator
!@!!Site: University of Illinois Chicago
!@!!Frame: map-12a_01_000.gfrm
!@!!Wavelengths    1.54184   1.54056   1.54439
!@!!Frame angles: 2Theta: 63.000 Omega: 50.000 Phi: 0.000 Chi: 90.000
!@!!Integration range: 2Theta: 53.000 to 73.000  Gamma: -105.000 to -75.000
!@!!Integration method: bin normalized
!@!N
!@!SS
!@!M
!@!L 0.0 0.0 0.0 0.0
!@!XDegrees
!@!YCounts
53.000 4.651966
53.005 4.564955
53.010 4.670916
53.015 4.754091
53.020 4.666989
53.025 4.309686
53.030 4.173825
53.035 3.989138
53.040 4.165627
53.045 4.103259
53.050 4.039824
53.055 3.862339
53.060 3.997467
53.065 4.223591
53.070 4.2659
53.075 4.061728
53.080 3.879306
53.085 3.808128
53.090 3.660062
53.095 3.469939
53.100 3.689668
53.105 3.691703
53.110 3.690084
53.115 3.789262
53.120 3.674035
53.125 3.942839
53.130 4.247578
53.135 4.202206
53.140 4.330221
53.145 4.259089
53.150 4.292907
53.155 4.536688
53.160 4.457425
53.165 3.905643
53.170 4.022449
53.175 3.922818
53.180 3.978388
53.185 3.745539
53.190 3.6871
53.195 3.842314
53.200 4.017563
53.205 3.722201
53.210 3.753775
53.215 3.755693
53.220 4.020325
53.225 3.678816
53.230 3.561312
53.235 3.546491
53.240 3.773142
53.245 4.132733
53.250 4.173391
53.255 4.283856
53.260 4.631708
53.265 4.527555
53.270 4.442811
53.275 4.324152
53.280 4.18476
53.285 4.343852
53.290 4.086493
53.295 4.149231
53.300 4.278715
53.305 4.33367
53.310 4.238282
53.315 4.15796
53.320 4.272892
53.325 4.261797
53.330 4.191106
53.335 4.280063
53.340 4.149029
53.345 4.136989
53.350 3.988749
53.355 3.800367
53.360 3.985742
53.365 3.645461
53.370 3.987998
53.375 4.294932
53.380 4.361871
53.385 4.148165
53.390 3.989447
53.395 4.128945
53.400 4.27133
53.405 3.801684
53.410 3.689407
53.415 3.839091
53.420 4.239911
53.425 4.485766
53.430 4.640514
53.435 4.90339
53.440 5.08275
53.445 4.874733
53.450 4.913254
53.455 4.74535
53.460 4.762081
53.465 4.656823
53.470 4.403401
53.475 4.263594
53.480 4.293439
53.485 3.969006
53.490 4.006167
53.495 3.87917
53.500 3.901601
53.505 4.002132
53.510 3.954642
53.515 4.137664
53.520 4.672846
53.525 4.381409
53.530 4.599285
53.535 4.609492
53.540 4.785316
53.545 5.126872
53.550 4.845432
53.555 4.69857
53.560 4.727319
53.565 4.587087
53.570 4.680686
53.575 4.70704
53.580 4.461785
53.585 4.210842
53.590 3.974408
53.595 3.773073
53.600 3.347093
53.605 3.089827
53.610 2.847012
53.615 3.061804
53.620 3.533176
53.625 3.609866
53.630 3.857075
53.635 4.190099
53.640 4.36268
53.645 4.487602
53.650 4.127698
53.655 3.771498
53.660 4.037951
53.665 4.101143
53.670 4.01939
53.675 4.092929
53.680 4.209482
53.685 4.80222
53.690 5.038723
53.695 4.974492
53.700 5.013699
53.705 5.213388
53.710 5.28043
53.715 5.04875
53.720 4.555469
53.725 4.507275
53.730 4.545856
53.735 4.113022
53.740 4.011496
53.745 4.054676
53.750 4.34009
53.755 4.307591
53.760 4.174332
53.765 4.176203
53.770 4.493922
53.775 4.303452
53.780 4.392772
53.785 4.254695
53.790 4.331019
53.795 4.420646
53.800 4.279928
53.805 4.207
53.810 4.125996
53.815 4.101486
53.820 4.476861
53.825 4.465096
53.830 4.437407
53.835 4.565117
53.840 4.724461
53.845 4.767217
53.850 4.448999
53.855 3.87527
53.860 3.624517
53.865 3.902644
53.870 3.73595
53.875 3.553278
53.880 3.601728
53.885 3.925937
53.890 4.318704
53.895 4.616683
53.900 4.540853
53.905 4.877067
53.910 4.965009
53.915 4.860918
53.920 4.818659
53.925 4.790591
53.930 4.656412
53.935 4.293216
53.940 3.852999
53.945 3.664678
53.950 3.868614
53.955 3.983843
53.960 4.159585
53.965 4.1486
53.970 4.160656
53.975 4.404548
53.980 4.336452
53.985 4.238328
53.990 4.054143
53.995 3.908149
54.000 4.26785
54.005 4.499764
54.010 4.217916
54.015 4.178548
54.020 4.125812
54.025 4.112605
54.030 4.185718
54.035 4.031966
54.040 4.106154
54.045 4.248775
54.050 4.181019
54.055 4.261527
54.060 4.341278
54.065 4.098547
54.070 4.152119
54.075 4.092696
54.080 4.409571
54.085 4.737832
54.090 4.732036
54.095 4.633815
54.100 4.533488
54.105 4.444952
54.110 4.683984
54.115 4.62804
54.120 4.230254
54.125 4.104718
54.130 4.134301
54.135 4.243145
54.140 4.130293
54.145 3.760307
54.150 3.740837
54.155 3.976494
54.160 4.252546
54.165 4.324913
54.170 4.150652
54.175 4.300424
54.180 4.406655
54.185 4.135701
54.190 4.04601
54.195 4.140997
54.200 4.119176
54.205 4.284448
54.210 4.088978
54.215 4.339108
54.220 4.596716
54.225 4.599244
54.230 4.294895
54.235 4.317676
54.240 4.32724
54.245 4.384928
54.250 4.218095
54.255 4.07101
54.260 3.908088
54.265 3.923921
54.270 3.816079
54.275 3.806514
54.280 4.080582
54.285 4.047827
54.290 4.290729
54.295 4.611045
54.300 4.748453
54.305 5.004617
54.310 5.026716
54.315 4.93392
54.320 4.806008
54.325 4.38476
54.330 4.166123
54.335 4.253858
54.340 4.253677
54.345 4.289519
54.350 4.352945
54.355 4.418017
54.360 4.45403
54.365 4.496644
54.370 4.260488
54.375 4.176172
54.380 4.120542
54.385 4.066155
54.390 4.292591
54.395 4.389754
54.400 4.650694
54.405 4.896173
54.410 4.735055
54.415 4.407414
54.420 4.257325
54.425 4.144118
54.430 4.042145
54.435 3.858551
54.440 3.939574
54.445 4.002796
54.450 4.204375
54.455 4.136016
54.460 4.058822
54.465 4.16343
54.470 4.112702
54.475 3.912572
54.480 3.954951
54.485 3.917745
54.490 3.935114
54.495 4.048374
54.500 3.94421
54.505 3.762744
54.510 3.720943
54.515 3.574876
54.520 3.747244
54.525 4.043641
54.530 4.124386
54.535 4.418951
54.540 4.316435
54.545 4.518418
54.550 4.40601
54.555 4.249169
54.560 4.174129
54.565 4.039777
54.570 3.806288
54.575 3.719291
54.580 3.941635
54.585 4.367796
54.590 4.377768
54.595 4.331452
54.600 4.512556
54.605 4.566806
54.610 4.767802
54.615 4.418454
54.620 4.362595
54.625 4.197162
54.630 4.17045
54.635 4.105643
54.640 4.178616
54.645 4.267727
54.650 4.296845
54.655 4.156835
54.660 4.086639
54.665 3.850893
54.670 3.606601
54.675 3.783263
54.680 3.588273
54.685 3.727403
54.690 3.923911
54.695 4.340673
54.700 4.696542
54.705 4.943398
54.710 4.80623
54.715 4.713714
54.720 4.701859
54.725 4.537391
54.730 4.412764
54.735 4.158021
54.740 4.085294
54.745 4.202239
54.750 4.328721
54.755 4.343508
54.760 4.688674
54.765 4.83014
54.770 4.913594
54.775 4.722717
54.780 4.612683
54.785 4.830552
54.790 4.458898
54.795 4.228948
54.800 4.162787
54.805 4.290989
54.810 4.535799
54.815 4.43551
54.820 4.414277
54.825 4.780955
54.830 4.788501
54.835 4.957125
54.840 5.306905
54.845 5.80457
54.850 6.036654
54.855 5.604349
54.860 5.627257
54.865 5.814832
54.870 5.648949
54.875 5.242349
54.880 4.828935
54.885 4.539134
54.890 4.494037
54.895 4.491821
54.900 4.41143
54.905 4.601799
54.910 4.699827
54.915 4.533141
54.920 4.678161
54.925 4.718939
54.930 4.522546
54.935 4.316145
54.940 4.307991
54.945 4.284235
54.950 4.521272
54.955 4.539926
54.960 4.577459
54.965 4.548573
54.970 4.351821
54.975 4.158219
54.980 3.897175
54.985 3.950721
54.990 3.961844
54.995 4.085116
55.000 4.409091
55.005 4.492755
55.010 4.479872
55.015 4.55959
55.020 4.890656
55.025 4.838741
55.030 4.662357
55.035 4.43959
55.040 4.522472
55.045 4.663567
55.050 4.615124
55.055 4.344412
55.060 4.315635
55.065 4.099491
55.070 4.136815
55.075 4.068217
55.080 4.160775
55.085 3.870112
55.090 3.947348
55.095 4.064016
55.100 4.169156
55.105 4.047362
55.110 3.906843
55.115 3.897579
55.120 4.033383
55.125 3.941018
55.130 4.02774
55.135 3.979703
55.140 3.755952
55.145 3.942423
55.150 3.997584
55.155 4.199532
55.160 4.165036
55.165 4.353545
55.170 4.703373
55.175 4.867854
55.180 4.89976
55.185 5.136825
55.190 4.983793
55.195 5.019255
55.200 4.526591
55.205 4.386122
55.210 4.385231
55.215 4.239081
55.220 3.977499
55.225 3.930068
55.230 3.846078
55.235 3.853025
55.240 3.794707
55.245 3.808091
55.250 3.665647
55.255 3.635985
55.260 3.705338
55.265 3.875311
55.270 4.017263
55.275 3.971831
55.280 3.901158
55.285 3.94502
55.290 3.765473
55.295 3.917229
55.300 4.068666
55.305 3.959269
55.310 4.167721
55.315 4.324529
55.320 4.392996
55.325 4.51095
55.330 4.256665
55.335 4.088535
55.340 4.310241
55.345 4.272859
55.350 4.181365
55.355 4.374762
55.360 4.84653
55.365 4.950399
55.370 4.895857
55.375 4.767631
55.380 4.727505
55.385 4.592378
55.390 4.350594
55.395 3.991501
55.400 3.956677
55.405 3.972508
55.410 3.831057
55.415 3.837688
55.420 3.94667
55.425 3.872515
55.430 3.946467
55.435 3.919431
55.440 3.861286
55.445 3.991348
55.450 4.47364
55.455 4.574804
55.460 4.635894
55.465 4.578453
55.470 4.760114
55.475 4.917074
55.480 4.931566
55.485 4.469913
55.490 4.300171
55.495 4.098327
55.500 4.050759
55.505 4.229975
55.510 4.290312
55.515 4.16753
55.520 4.027121
55.525 4.102906
55.530 4.175627
55.535 4.106968
55.540 3.670496
55.545 3.526708
55.550 3.709487
55.555 3.69313
55.560 3.737303
55.565 4.150415
55.570 4.491132
55.575 4.660003
55.580 4.535648
55.585 4.513318
55.590 4.811988
55.595 4.767951
55.600 4.319037
55.605 4.130739
55.610 4.270461
55.615 4.548847
55.620 4.391321
55.625 4.407223
55.630 4.732834
55.635 4.8456
55.640 5.231883
55.645 5.154111
55.650 4.914839
55.655 5.108863
55.660 5.054654
55.665 4.701235
55.670 4.497589
55.675 4.19863
55.680 4.158295
55.685 4.372719
55.690 4.282461
55.695 3.970337
55.700 3.929438
55.705 4.213782
55.710 4.356141
55.715 4.205052
55.720 4.136039
55.725 4.352942
55.730 4.494606
55.735 4.574501
55.740 4.292711
55.745 3.798368
55.750 3.786715
55.755 3.843828
55.760 3.64925
55.765 3.635384
55.770 3.498932
55.775 3.788357
55.780 4.407256
55.785 4.402908
55.790 4.293137
55.795 4.30809
55.800 4.338934
55.805 4.510169
55.810 4.308603
55.815 4.253192
55.820 4.445516
55.825 4.459982
55.830 4.49062
55.835 4.661936
55.840 4.473589
55.845 4.563755
55.850 4.504489
55.855 4.636827
55.860 4.507165
55.865 4.878478
55.870 4.911084
55.875 4.999271
55.880 5.2111
55.885 5.150119
55.890 5.198704
55.895 5.219023
55.900 4.94662
55.905 5.052148
55.910 5.339864
55.915 4.950896
55.920 4.932823
55.925 4.771371
55.930 4.583993
55.935 4.555753
55.940 4.377031
55.945 4.325571
55.950 4.331429
55.955 4.17069
55.960 4.651347
55.965 4.754881
55.970 4.918886
55.975 5.095141
55.980 5.023792
55.985 4.981596
55.990 5.131408
55.995 4.973802
56.000 5.008021
56.005 4.910977
56.010 4.66966
56.015 4.795435
56.020 4.93578
56.025 4.67062
56.030 4.385166
56.035 4.105177
56.040 3.928514
56.045 3.494558
56.050 3.711975
56.055 4.025768
56.060 3.963324
56.065 4.199921
56.070 4.436633
56.075 4.390174
56.080 4.509542
56.085 4.069055
56.090 3.813354
56.095 4.093221
56.100 3.972154
56.105 4.065887
56.110 4.316284
56.115 4.344892
56.120 4.38243
56.125 4.403607
56.130 4.191491
56.135 4.13871
56.140 4.146099
56.145 4.594576
56.150 4.799736
56.155 5.124424
56.160 5.10041
56.165 5.350444
56.170 5.540329
56.175 5.393879
56.180 5.225528
56.185 5.372522
56.190 5.353128
56.195 5.363423
56.200 5.09599
56.205 4.973776
56.210 4.843817
56.215 4.294368
56.220 3.963346
56.225 3.739885
56.230 3.903547
56.235 4.300107
56.240 4.236702
56.245 4.433963
56.250 4.74498
56.255 4.806136
56.260 4.831726
56.265 4.722162
56.270 4.956218
56.275 5.089691
56.280 5.110927
56.285 5.202051
56.290 5.348518
56.295 5.241084
56.300 5.13459
56.305 4.812879
56.310 4.805201
56.315 4.458055
56.320 4.083928
56.325 3.942604
56.330 4.123328
56.335 4.26138
56.340 4.239207
56.345 4.285665
56.350 4.693659
56.355 5.316679
56.360 5.545607
56.365 5.246348
56.370 5.160953
56.375 5.074103
56.380 5.163759
56.385 5.068234
56.390 4.717208
56.395 4.529161
56.400 4.349372
56.405 4.249698
56.410 4.189337
56.415 3.965091
56.420 3.989665
56.425 4.020128
56.430 4.271112
56.435 4.69824
56.440 4.598484
56.445 4.786682
56.450 4.925669
56.455 4.95228
56.460 5.040563
56.465 5.255824
56.470 5.212718
56.475 5.367871
56.480 5.292891
56.485 5.360316
56.490 5.66306
56.495 5.473745
56.500 5.219646
56.505 5.404882
56.510 5.599576
56.515 5.636271
56.520 5.528645
56.525 5.585948
56.530 5.479371
56.535 5.222906
56.540 4.973543
56.545 4.99308
56.550 5.058137
56.555 4.832072
56.560 4.506293
56.565 4.594621
56.570 4.811713
56.575 4.534155
56.580 4.334007
56.585 4.402768
56.590 4.413681
56.595 4.45192
56.600 4.379374
56.605 4.155443
56.610 4.276482
56.615 4.318928
56.620 4.143259
56.625 4.373585
56.630 4.401481
56.635 4.788324
56.640 5.07553
56.645 5.463843
56.650 5.320291
56.655 5.23524
56.660 4.836161
56.665 4.717313
56.670 4.652311
56.675 4.49703
56.680 4.472659
56.685 4.587165
56.690 4.661231
56.695 4.91574
56.700 4.957294
56.705 4.793624
56.710 4.711255
56.715 4.533132
56.720 4.475689
56.725 4.688989
56.730 4.881165
56.735 4.827099
56.740 5.042287
56.745 5.167131
56.750 5.363753
56.755 5.343309
56.760 4.985333
56.765 4.500226
56.770 4.512363
56.775 4.47724
56.780 4.569306
56.785 4.42555
56.790 4.334169
56.795 4.460189
56.800 4.77379
56.805 4.836797
56.810 4.896418
56.815 4.94452
56.820 5.228356
56.825 5.551661
56.830 5.421229
56.835 5.364223
56.840 5.038721
56.845 4.735771
56.850 4.549088
56.855 4.335131
56.860 4.184258
56.865 4.641441
56.870 4.788126
56.875 4.865537
56.880 4.785679
56.885 4.72064
56.890 4.606295
56.895 4.722203
56.900 4.52672
56.905 4.661119
56.910 4.83697
56.915 5.069001
56.920 5.037828
56.925 5.127019
56.930 5.131427
56.935 5.481676
56.940 5.595818
56.945 5.501218
56.950 5.530759
56.955 5.743065
56.960 5.538599
56.965 5.444531
56.970 5.118496
56.975 4.912712
56.980 4.838109
56.985 4.740592
56.990 4.704481
56.995 5.2005
57.000 5.238498
57.005 4.824189
57.010 4.836021
57.015 4.743698
57.020 4.460503
57.025 4.148395
57.030 3.909045
57.035 3.730147
57.040 3.79921
57.045 3.9201
57.050 4.326367
57.055 4.974219
57.060 5.228295
57.065 5.259296
57.070 5.163674
57.075 5.198342
57.080 5.066359
57.085 4.722326
57.090 4.422531
57.095 4.250353
57.100 4.088385
57.105 4.413471
57.110 4.756802
57.115 4.774292
57.120 5.094063
57.125 5.206493
57.130 5.199481
57.135 5.146539
57.140 4.987334
57.145 4.923917
57.150 5.058962
57.155 4.642875
57.160 4.544887
57.165 4.82917
57.170 5.308562
57.175 5.158479
57.180 4.856984
57.185 4.732014
57.190 4.833999
57.195 4.890715
57.200 4.588004
57.205 4.210851
57.210 4.375581
57.215 4.341806
57.220 4.465723
57.225 4.41744
57.230 4.371862
57.235 4.587182
57.240 4.885324
57.245 4.793646
57.250 4.719507
57.255 4.885748
57.260 5.086736
57.265 5.133812
57.270 5.09812
57.275 4.958622
57.280 4.979901
57.285 4.912758
57.290 4.820848
57.295 4.70906
57.300 4.557092
57.305 4.409947
57.310 4.517343
57.315 4.54744
57.320 4.517929
57.325 4.312854
57.330 4.542991
57.335 4.77705
57.340 4.68752
57.345 4.789967
57.350 5.013406
57.355 5.382452
57.360 5.346238
57.365 5.003327
57.370 4.858076
57.375 4.800576
57.380 4.695531
57.385 4.576461
57.390 4.385877
57.395 4.335484
57.400 4.609636
57.405 4.767767
57.410 4.704332
57.415 4.588366
57.420 4.586576
57.425 4.693186
57.430 4.566076
57.435 4.753605
57.440 4.846651
57.445 4.933639
57.450 4.847911
57.455 4.793759
57.460 5.125996
57.465 5.459475
57.470 5.070448
57.475 4.898388
57.480 5.187917
57.485 5.362794
57.490 5.594356
57.495 5.580031
57.500 5.655784
57.505 5.94338
57.510 5.81257
57.515 5.384038
57.520 5.244164
57.525 4.889129
57.530 4.54884
57.535 4.333628
57.540 3.90309
57.545 4.109926
57.550 4.118906
57.555 4.277603
57.560 4.339235
57.565 4.318026
57.570 4.326191
57.575 4.474135
57.580 4.635973
57.585 5.025655
57.590 5.318242
57.595 5.541152
57.600 5.638537
57.605 5.473948
57.610 5.378829
57.615 5.391332
57.620 5.303926
57.625 5.121342
57.630 5.010016
57.635 4.877759
57.640 5.020379
57.645 5.22452
57.650 5.137007
57.655 5.142692
57.660 5.131517
57.665 5.277694
57.670 5.2957
57.675 5.355012
57.680 5.192195
57.685 5.110343
57.690 4.873632
57.695 4.694442
57.700 4.704176
57.705 5.134927
57.710 4.854019
57.715 4.954844
57.720 5.0918
57.725 5.023199
57.730 5.05362
57.735 4.77235
57.740 4.685346
57.745 4.883669
57.750 4.796228
57.755 4.732874
57.760 5.136482
57.765 5.265137
57.770 5.367407
57.775 5.314703
57.780 5.543854
57.785 5.60849
57.790 5.334134
57.795 4.969213
57.800 5.072556
57.805 5.22907
57.810 5.201634
57.815 5.245321
57.820 5.699099
57.825 6.177214
57.830 6.269122
57.835 6.219506
57.840 5.863056
57.845 5.762256
57.850 5.618949
57.855 5.704582
57.860 5.687297
57.865 5.663363
57.870 5.674591
57.875 5.968223
57.880 5.950418
57.885 5.876343
57.890 5.477187
57.895 5.458377
57.900 5.39028
57.905 5.232661
57.910 5.036869
57.915 5.040429
57.920 5.034013
57.925 5.122349
57.930 5.299803
57.935 5.396857
57.940 5.578258
57.945 5.994617
57.950 5.957614
57.955 6.004042
57.960 5.870978
57.965 5.590592
57.970 5.533278
57.975 5.524801
57.980 5.227464
57.985 5.233674
57.990 4.941111
57.995 5.19017
58.000 5.352743
58.005 5.582771
58.010 5.803735
58.015 5.924926
58.020 5.81468
58.025 5.902291
58.030 5.969154
58.035 6.129678
58.040 6.17917
58.045 6.255395
58.050 6.438606
58.055 6.560435
58.060 6.542801
58.065 5.962965
58.070 5.703914
58.075 5.717027
58.080 5.499972
58.085 5.555681
58.090 5.448207
58.095 5.727334
58.100 6.301724
58.105 5.919476
58.110 5.560954
58.115 5.590641
58.120 5.584832
58.125 5.844445
58.130 5.717861
58.135 5.692756
58.140 6.254183
58.145 6.415685
58.150 6.257632
58.155 6.336738
58.160 6.347859
58.165 5.934865
58.170 5.772793
58.175 5.685433
58.180 5.598564
58.185 5.611895
58.190 5.473431
58.195 5.506998
58.200 5.641689
58.205 5.324024
58.210 4.871517
58.215 4.851329
58.220 4.702041
58.225 4.202155
58.230 4.002775
58.235 4.15503
58.240 4.279725
58.245 4.43786
58.250 4.339336
58.255 4.683994
58.260 5.17658
58.265 5.326102
58.270 5.35977
58.275 5.217303
58.280 5.518153
58.285 5.499547
58.290 5.118051
58.295 4.96453
58.300 5.247496
58.305 5.192073
58.310 5.339353
58.315 5.065342
58.320 4.889241
58.325 5.132802
58.330 5.056367
58.335 4.940886
58.340 5.017551
58.345 5.204446
58.350 5.604347
58.355 5.809227
58.360 5.784882
58.365 5.659205
58.370 5.611829
58.375 5.705284
58.380 5.697525
58.385 5.340372
58.390 5.673977
58.395 6.341528
58.400 6.328361
58.405 6.019075
58.410 5.895644
58.415 5.828916
58.420 6.140396
58.425 5.644304
58.430 5.292017
58.435 5.486127
58.440 5.860176
58.445 6.013576
58.450 6.17485
58.455 6.121157
58.460 6.419491
58.465 6.351064
58.470 6.548808
58.475 6.641509
58.480 6.869983
58.485 6.599798
58.490 6.585776
58.495 6.632113
58.500 6.863902
58.505 6.755451
58.510 6.71269
58.515 6.798819
58.520 7.167412
58.525 7.410563
58.530 7.134995
58.535 6.957054
58.540 7.157611
58.545 6.843741
58.550 6.643141
58.555 6.694582
58.560 7.072304
58.565 7.56137
58.570 7.662885
58.575 7.606095
58.580 8.0994
58.585 8.04963
58.590 8.186488
58.595 7.843006
58.600 7.927408
58.605 7.878866
58.610 7.802436
58.615 7.301635
58.620 7.382873
58.625 7.341723
58.630 7.349719
58.635 7.254372
58.640 7.494445
58.645 7.626577
58.650 8.11445
58.655 8.268382
58.660 8.482132
58.665 8.809515
58.670 8.742227
58.675 8.549068
58.680 8.554012
58.685 8.226445
58.690 8.359742
58.695 8.599921
58.700 8.758395
58.705 9.121184
58.710 9.515146
58.715 9.588041
58.720 10.185681
58.725 10.345166
58.730 10.195993
58.735 10.128409
58.740 10.000749
58.745 10.263157
58.750 10.33557
58.755 9.757954
58.760 9.421258
58.765 9.266079
58.770 9.279108
58.775 9.757764
58.780 9.637924
58.785 9.841122
58.790 10.248357
58.795 9.908392
58.800 9.713008
58.805 9.669983
58.810 9.263427
58.815 9.223874
58.820 8.776407
58.825 8.454293
58.830 8.599178
58.835 8.710473
58.840 8.465889
58.845 8.27593
58.850 8.41159
58.855 8.433994
58.860 8.186873
58.865 8.16532
58.870 7.957767
58.875 7.973696
58.880 8.234986
58.885 8.021998
58.890 8.613465
58.895 9.012407
58.900 8.846897
58.905 8.438791
58.910 7.602447
58.915 7.007665
58.920 6.82715
58.925 6.59556
58.930 6.673535
58.935 6.875446
58.940 6.854405
58.945 7.195004
58.950 7.483016
58.955 7.255386
58.960 6.917421
58.965 6.679396
58.970 6.627564
58.975 7.006467
58.980 6.964086
58.985 6.856074
58.990 6.909469
58.995 6.983594
59.000 7.037138
59.005 7.39651
59.010 7.425429
59.015 7.29081
59.020 7.235215
59.025 7.421926
59.030 7.444678
59.035 7.107084
59.040 6.747976
59.045 6.653346
59.050 6.969019
59.055 6.782982
59.060 6.39287
59.065 6.358485
59.070 6.290742
59.075 6.520578
59.080 7.10333
59.085 6.844249
59.090 6.999585
59.095 6.84418
59.100 6.77658
59.105 6.727867
59.110 5.949254
59.115 5.139483
59.120 5.133722
59.125 5.177422
59.130 5.559348
59.135 5.690732
59.140 5.717646
59.145 5.85639
59.150 6.064058
59.155 5.937537
59.160 5.769727
59.165 5.560798
59.170 5.429567
59.175 5.476233
59.180 5.371165
59.185 5.28235
59.190 5.102847
59.195 5.0302
59.200 5.110662
59.205 5.126475
59.210 5.136383
59.215 5.267329
59.220 5.338389
59.225 5.607794
59.230 5.819866
59.235 5.718174
59.240 5.997816
59.245 6.122552
59.250 6.386493
59.255 6.261935
59.260 5.903991
59.265 5.756768
59.270 5.576678
59.275 5.331069
59.280 5.06509
59.285 4.684445
59.290 5.014603
59.295 5.521808
59.300 5.781212
59.305 5.997641
59.310 5.865153
59.315 5.899602
59.320 6.300281
59.325 6.131746
59.330 5.868322
59.335 5.549238
59.340 5.396258
59.345 5.485151
59.350 5.305595
59.355 5.424744
59.360 5.706348
59.365 5.910492
59.370 6.010191
59.375 6.255471
59.380 6.670596
59.385 6.662617
59.390 6.289502
59.395 6.268448
59.400 6.419408
59.405 6.348699
59.410 6.25487
59.415 6.169747
59.420 6.491203
59.425 6.635683
59.430 6.03149
59.435 5.815542
59.440 5.792273
59.445 5.665207
59.450 5.819085
59.455 5.862116
59.460 5.746343
59.465 6.035415
59.470 5.991653
59.475 6.211701
59.480 6.406441
59.485 6.247897
59.490 6.045869
59.495 5.870959
59.500 5.580557
59.505 5.50633
59.510 5.300914
59.515 5.189516
59.520 5.331005
59.525 5.365571
59.530 5.890434
59.535 6.403815
59.540 6.52354
59.545 6.679007
59.550 6.763468
59.555 6.624795
59.560 6.495712
59.565 5.888613
59.570 5.647575
59.575 5.707064
59.580 5.774923
59.585 5.752183
59.590 5.561339
59.595 5.704819
59.600 5.89057
59.605 6.011062
59.610 5.77942
59.615 5.61189
59.620 5.606831
59.625 5.501669
59.630 5.603306
59.635 5.828838
59.640 5.672425
59.645 5.691869
59.650 5.180656
59.655 5.197045
59.660 5.631708
59.665 5.261348
59.670 5.010924
59.675 4.838108
59.680 4.735522
59.685 4.909101
59.690 4.81276
59.695 4.451943
59.700 4.862026
59.705 5.024595
59.710 5.371764
59.715 5.598022
59.720 5.689029
59.725 5.826325
59.730 5.94003
59.735 5.907958
59.740 5.788741
59.745 5.542739
59.750 5.437091
59.755 5.354786
59.760 5.650457
59.765 5.763636
59.770 5.612553
59.775 5.830817
59.780 5.906982
59.785 5.946557
59.790 5.783231
59.795 5.520575
59.800 5.188377
59.805 4.942903
59.810 4.953861
59.815 4.822926
59.820 4.719296
59.825 5.003298
59.830 5.121845
59.835 5.327931
59.840 5.432799
59.845 5.075046
59.850 5.100986
59.855 5.300746
59.860 5.126303
59.865 5.022594
59.870 5.018747
59.875 4.779733
59.880 4.610943
59.885 4.728076
59.890 4.57471
59.895 4.694573
59.900 4.837274
59.905 4.719812
59.910 4.78112
59.915 4.943954
59.920 5.097287
59.925 5.452994
59.930 5.488072
59.935 5.297271
59.940 5.556324
59.945 5.920047
59.950 6.095651
59.955 6.010015
59.960 5.683902
59.965 5.58968
59.970 5.416012
59.975 5.286596
59.980 5.261139
59.985 5.065596
59.990 4.977698
59.995 4.999743
60.000 4.902101
60.005 5.415335
60.010 5.472673
60.015 5.335312
60.020 5.700955
60.025 6.038064
60.030 6.134842
60.035 6.144862
60.040 5.802137
60.045 6.072462
60.050 6.207771
60.055 5.837307
60.060 5.780281
60.065 5.962567
60.070 5.902254
60.075 6.15107
60.080 5.930179
60.085 5.830855
60.090 5.836543
60.095 5.822989
60.100 5.595085
60.105 5.670146
60.110 5.55942
60.115 5.536898
60.120 5.841352
60.125 5.741006
60.130 5.368389
60.135 5.236688
60.140 5.376646
60.145 5.268652
60.150 5.298575
60.155 5.328078
60.160 5.614023
60.165 6.036693
60.170 6.202672
60.175 6.399318
60.180 6.537005
60.185 6.39284
60.190 6.160508
60.195 5.680604
60.200 5.681817
60.205 5.879659
60.210 6.033915
60.215 6.412018
60.220 6.627857
60.225 6.698097
60.230 6.658195
60.235 6.167923
60.240 5.913562
60.245 5.730843
60.250 5.358564
60.255 5.51654
60.260 5.52125
60.265 6.01893
60.270 6.513994
60.275 6.386546
60.280 6.152228
60.285 6.209448
60.290 5.8433
60.295 5.937222
60.300 5.656134
60.305 5.475638
60.310 5.677733
60.315 5.891402
60.320 5.8442
60.325 6.419816
60.330 6.397803
60.335 6.514785
60.340 6.689988
60.345 6.447608
60.350 6.405295
60.355 6.347074
60.360 5.707746
60.365 5.577991
60.370 5.457236
60.375 4.96625
60.380 5.156404
60.385 5.089244
60.390 5.056087
60.395 5.146636
60.400 5.261342
60.405 5.603724
60.410 6.123143
60.415 6.091759
60.420 5.94188
60.425 6.266934
60.430 6.354815
60.435 6.372864
60.440 6.40556
60.445 6.263957
60.450 6.412268
60.455 6.549608
60.460 6.233026
60.465 5.984165
60.470 5.883784
60.475 5.742954
60.480 5.691173
60.485 5.161236
60.490 5.356404
60.495 5.746826
60.500 6.003459
60.505 6.505344
60.510 6.513652
60.515 6.568457
60.520 6.884749
60.525 6.889661
60.530 6.899292
60.535 6.780771
60.540 6.205504
60.545 6.174756
60.550 6.242074
60.555 6.418752
60.560 6.129102
60.565 5.911031
60.570 5.945401
60.575 6.237418
60.580 6.266664
60.585 6.460694
60.590 6.04011
60.595 5.920315
60.600 6.031401
60.605 6.103091
60.610 6.338371
60.615 6.734583
60.620 6.543269
60.625 6.648176
60.630 6.902195
60.635 6.753873
60.640 6.448123
60.645 6.091146
60.650 5.541021
60.655 5.372031
60.660 5.334687
60.665 4.982468
60.670 5.051312
60.675 5.334807
60.680 5.207511
60.685 5.274086
60.690 5.432369
60.695 5.789284
60.700 6.120041
60.705 6.259793
60.710 5.820525
60.715 5.807383
60.720 5.851012
60.725 6.044149
60.730 6.038249
60.735 6.006919
60.740 5.745363
60.745 5.951527
60.750 5.946167
60.755 6.034267
60.760 5.799685
60.765 5.762958
60.770 5.712075
60.775 5.861702
60.780 5.858871
60.785 5.836851
60.790 6.045211
60.795 5.993016
60.800 5.562136
60.805 5.384608
60.810 5.502495
60.815 5.742044
60.820 5.829312
60.825 5.48616
60.830 5.318871
60.835 5.681275
60.840 5.819736
60.845 6.090295
60.850 6.244925
60.855 6.166857
60.860 6.236489
60.865 6.454855
60.870 6.373076
60.875 6.391001
60.880 6.148177
60.885 6.164353
60.890 6.082969
60.895 6.431244
60.900 6.626642
60.905 6.570089
60.910 6.37956
60.915 6.128658
60.920 6.050968
60.925 6.025707
60.930 5.66894
60.935 5.149325
60.940 4.913932
60.945 5.008798
60.950 5.136161
60.955 4.94287
60.960 5.187296
60.965 5.377436
60.970 5.935893
60.975 6.054785
60.980 6.188488
60.985 5.793564
60.990 5.881179
60.995 5.828646
61.000 5.436924
61.005 5.228704
61.010 5.074604
61.015 5.015036
61.020 5.432171
61.025 5.340695
61.030 5.479219
61.035 5.633362
61.040 5.811252
61.045 6.124058
61.050 5.977077
61.055 5.789382
61.060 6.007806
61.065 6.016094
61.070 6.23337
61.075 6.341568
61.080 6.119803
61.085 6.402802
61.090 6.785197
61.095 6.669805
61.100 6.456998
61.105 6.08693
61.110 5.806555
61.115 5.975625
61.120 5.816329
61.125 5.273543
61.130 5.040259
61.135 5.337448
61.140 5.454017
61.145 5.468856
61.150 5.406324
61.155 5.681115
61.160 5.841556
61.165 5.93133
61.170 5.638405
61.175 6.1085
61.180 6.67855
61.185 6.910523
61.190 6.789277
61.195 6.651158
61.200 7.049259
61.205 7.432181
61.210 7.434862
61.215 7.451323
61.220 7.29459
61.225 7.227809
61.230 7.557344
61.235 7.119907
61.240 6.608928
61.245 5.851728
61.250 5.45357
61.255 5.580623
61.260 5.740096
61.265 5.714361
61.270 5.941496
61.275 6.293563
61.280 6.866082
61.285 6.946803
61.290 6.62134
61.295 6.660292
61.300 6.580374
61.305 6.299859
61.310 5.889476
61.315 5.728644
61.320 6.077682
61.325 6.400689
61.330 6.293848
61.335 6.164567
61.340 6.414539
61.345 6.877972
61.350 6.853274
61.355 6.523753
61.360 6.710775
61.365 6.918353
61.370 6.986037
61.375 6.778955
61.380 6.520923
61.385 6.538795
61.390 6.431126
61.395 6.37846
61.400 6.363064
61.405 6.54656
61.410 6.739178
61.415 6.505302
61.420 6.319849
61.425 6.202235
61.430 5.946845
61.435 5.655563
61.440 5.64651
61.445 5.791863
61.450 6.462256
61.455 6.685993
61.460 6.567473
61.465 6.336455
61.470 6.664319
61.475 6.497141
61.480 6.21966
61.485 6.333826
61.490 6.23131
61.495 6.500859
61.500 6.940607
61.505 6.708117
61.510 6.625141
61.515 6.518138
61.520 6.010177
61.525 6.225749
61.530 6.165823
61.535 5.871405
61.540 5.831607
61.545 5.819058
61.550 6.144548
61.555 6.5444
61.560 6.341885
61.565 6.407512
61.570 6.294637
61.575 6.600519
61.580 6.741396
61.585 6.453788
61.590 6.185062
61.595 6.315598
61.600 6.256292
61.605 6.548352
61.610 6.588324
61.615 6.62183
61.620 6.693797
61.625 6.539721
61.630 6.364057
61.635 6.379391
61.640 6.311014
61.645 6.103692
61.650 5.942431
61.655 5.760459
61.660 6.060787
61.665 6.382674
61.670 6.409751
61.675 6.044169
61.680 6.044833
61.685 6.178476
61.690 6.267339
61.695 6.381349
61.700 6.157332
61.705 5.935266
61.710 6.070409
61.715 6.195709
61.720 6.235919
61.725 6.417465
61.730 6.412554
61.735 6.352378
61.740 6.724183
61.745 6.848047
61.750 6.702801
61.755 6.721919
61.760 6.814508
61.765 6.59581
61.770 6.561695
61.775 6.518046
61.780 6.625774
61.785 6.91519
61.790 6.967694
61.795 6.662441
61.800 6.749883
61.805 6.656821
61.810 6.583521
61.815 6.607411
61.820 6.42989
61.825 6.433789
61.830 6.592021
61.835 6.503297
61.840 6.724168
61.845 6.703213
61.850 6.818865
61.855 6.783488
61.860 6.931829
61.865 7.092684
61.870 7.269642
61.875 7.009688
61.880 6.853824
61.885 6.862655
61.890 6.874512
61.895 6.411224
61.900 6.081657
61.905 6.27976
61.910 6.711432
61.915 6.749312
61.920 6.7648
61.925 6.84094
61.930 7.069278
61.935 6.830587
61.940 6.460793
61.945 6.466456
61.950 6.192564
61.955 6.160934
61.960 5.958408
61.965 5.868645
61.970 5.974461
61.975 6.293296
61.980 6.151911
61.985 6.432
61.990 6.460918
61.995 6.519818
62.000 6.582812
62.005 6.522809
62.010 6.212142
62.015 5.922919
62.020 5.770999
62.025 5.779107
62.030 5.567482
62.035 5.823965
62.040 6.116132
62.045 6.460245
62.050 6.815328
62.055 6.951638
62.060 6.74036
62.065 6.615591
62.070 6.074811
62.075 5.715634
62.080 5.41422
62.085 5.352795
62.090 5.341276
62.095 5.700453
62.100 6.191063
62.105 6.583075
62.110 6.838741
62.115 7.033444
62.120 7.320529
62.125 7.372563
62.130 7.000867
62.135 6.642638
62.140 6.775861
62.145 6.997136
62.150 7.158997
62.155 7.043568
62.160 7.062823
62.165 7.653813
62.170 8.024737
62.175 8.269009
62.180 8.102354
62.185 7.813535
62.190 7.547515
62.195 7.554126
62.200 7.480374
62.205 7.070603
62.210 6.841432
62.215 6.981942
62.220 6.682262
62.225 6.74099
62.230 6.635563
62.235 6.469555
62.240 6.529756
62.245 6.339021
62.250 6.322754
62.255 6.695587
62.260 6.722038
62.265 6.510035
62.270 6.426161
62.275 6.258607
62.280 6.123506
62.285 5.926358
62.290 5.898497
62.295 5.990026
62.300 5.993472
62.305 5.873689
62.310 6.175519
62.315 6.379513
62.320 6.506207
62.325 6.565858
62.330 6.328772
62.335 6.249979
62.340 6.413125
62.345 6.251634
62.350 5.803695
62.355 5.575798
62.360 5.808594
62.365 6.227263
62.370 6.472771
62.375 6.882858
62.380 7.149291
62.385 7.324296
62.390 7.354708
62.395 7.02149
62.400 6.817974
62.405 7.006816
62.410 6.863622
62.415 6.8508
62.420 6.593291
62.425 6.886954
62.430 7.066647
62.435 6.98716
62.440 6.634305
62.445 6.104165
62.450 6.254222
62.455 6.356248
62.460 5.90783
62.465 5.72042
62.470 5.547492
62.475 5.747939
62.480 5.940348
62.485 5.840628
62.490 5.852217
62.495 6.032504
62.500 5.875831
62.505 6.047728
62.510 6.125831
62.515 6.053852
62.520 6.093436
62.525 6.055038
62.530 6.220667
62.535 6.594485
62.540 6.489815
62.545 6.154016
62.550 6.24283
62.555 5.984247
62.560 5.843421
62.565 5.811128
62.570 5.782693
62.575 5.943573
62.580 6.037762
62.585 6.015945
62.590 6.155144
62.595 6.45145
62.600 6.327592
62.605 6.275065
62.610 6.020864
62.615 6.072478
62.620 5.87905
62.625 6.015749
62.630 6.0426
62.635 6.04791
62.640 5.965516
62.645 6.025222
62.650 5.866491
62.655 6.130035
62.660 6.278284
62.665 6.327557
62.670 6.677435
62.675 6.963045
62.680 6.922714
62.685 6.871342
62.690 6.946178
62.695 7.017781
62.700 6.850732
62.705 6.346819
62.710 6.573579
62.715 6.898757
62.720 7.065145
62.725 6.815033
62.730 6.902844
62.735 7.184607
62.740 7.433883
62.745 7.034002
62.750 6.997264
62.755 7.448901
62.760 7.833045
62.765 7.715741
62.770 7.268736
62.775 6.971846
62.780 7.005519
62.785 7.088078
62.790 6.633186
62.795 6.325003
62.800 6.49602
62.805 7.299346
62.810 7.387405
62.815 7.778413
62.820 7.963918
62.825 8.050179
62.830 8.033341
62.835 7.816653
62.840 7.246613
62.845 7.392272
62.850 6.926532
62.855 6.94827
62.860 7.026006
62.865 7.089299
62.870 6.949176
62.875 7.095383
62.880 7.045394
62.885 6.814666
62.890 6.435169
62.895 6.090638
62.900 6.130007
62.905 6.290962
62.910 6.448981
62.915 6.529226
62.920 6.495072
62.925 6.463563
62.930 6.462892
62.935 5.978206
62.940 5.58342
62.945 5.153211
62.950 5.092401
62.955 5.416701
62.960 5.500535
62.965 5.952305
62.970 6.763345
62.975 7.122794
62.980 7.671988
62.985 7.846756
62.990 7.867931
62.995 7.878364
63.000 7.74988
63.005 7.674341
63.010 8.053587
63.015 7.528585
63.020 7.266212
63.025 7.046101
63.030 7.027273
63.035 6.954354
63.040 6.888859
63.045 6.685472
63.050 7.080135
63.055 7.262976
63.060 7.457456
63.065 7.611233
63.070 7.523617
63.075 7.108035
63.080 7.044422
63.085 6.931405
63.090 6.763698
63.095 6.499013
63.100 6.360466
63.105 6.479885
63.110 6.381917
63.115 6.177143
63.120 5.902677
63.125 5.912241
63.130 6.143613
63.135 6.458559
63.140 6.47753
63.145 6.584464
63.150 6.674749
63.155 6.793087
63.160 7.022024
63.165 6.970222
63.170 6.545008
63.175 6.535249
63.180 6.803965
63.185 6.589335
63.190 6.427063
63.195 6.306222
63.200 6.518477
63.205 6.979699
63.210 6.952052
63.215 6.77585
63.220 7.153717
63.225 7.207961
63.230 7.125692
63.235 7.293757
63.240 7.117878
63.245 7.08763
63.250 7.008534
63.255 7.230145
63.260 7.444053
63.265 7.300297
63.270 6.737231
63.275 6.999876
63.280 7.19702
63.285 7.249434
63.290 6.822255
63.295 7.005165
63.300 7.114209
63.305 7.486428
63.310 7.349968
63.315 7.278005
63.320 7.601281
63.325 7.881291
63.330 8.001167
63.335 8.158681
63.340 8.27122
63.345 8.125159
63.350 8.271877
63.355 7.662062
63.360 7.360544
63.365 7.123914
63.370 7.11723
63.375 7.020786
63.380 7.046051
63.385 6.886704
63.390 6.90924
63.395 6.970282
63.400 7.043878
63.405 6.68138
63.410 6.343373
63.415 6.497439
63.420 6.536662
63.425 6.854296
63.430 6.931208
63.435 6.918528
63.440 6.89105
63.445 6.799942
63.450 6.490663
63.455 6.756906
63.460 7.001101
63.465 6.860161
63.470 6.769641
63.475 7.036192
63.480 7.268694
63.485 7.619568
63.490 7.226079
63.495 7.163826
63.500 7.299976
63.505 7.000672
63.510 6.961793
63.515 6.901857
63.520 6.681374
63.525 6.700524
63.530 6.546998
63.535 6.375685
63.540 6.466245
63.545 6.487767
63.550 6.364094
63.555 6.109573
63.560 5.901995
63.565 5.989964
63.570 6.724431
63.575 7.218303
63.580 7.178663
63.585 7.471429
63.590 8.304317
63.595 9.043809
63.600 9.110798
63.605 8.983808
63.610 8.781935
63.615 8.961259
63.620 8.710126
63.625 8.29453
63.630 8.148043
63.635 7.901414
63.640 7.482111
63.645 7.510579
63.650 7.403261
63.655 7.449054
63.660 7.299455
63.665 7.037654
63.670 7.272159
63.675 7.484214
63.680 7.177141
63.685 7.24285
63.690 7.316291
63.695 7.357809
63.700 7.365538
63.705 7.547465
63.710 7.407067
63.715 7.649283
63.720 7.725049
63.725 7.926579
63.730 7.798796
63.735 7.866495
63.740 8.0777
63.745 8.073129
63.750 7.915742
63.755 7.808756
63.760 7.472328
63.765 7.255547
63.770 7.126072
63.775 6.541924
63.780 6.574214
63.785 6.6188
63.790 6.65989
63.795 6.61819
63.800 6.742225
63.805 7.159885
63.810 7.327785
63.815 7.380648
63.820 7.450616
63.825 7.259599
63.830 7.464733
63.835 7.55023
63.840 7.418881
63.845 7.613472
63.850 7.825358
63.855 7.802968
63.860 8.155229
63.865 8.271578
63.870 7.97539
63.875 7.865734
63.880 7.74464
63.885 7.581489
63.890 7.586215
63.895 7.249588
63.900 6.980794
63.905 6.86487
63.910 7.085011
63.915 6.946664
63.920 7.137582
63.925 7.340153
63.930 7.672785
63.935 7.966183
63.940 8.264754
63.945 8.183501
63.950 8.115099
63.955 7.464986
63.960 7.200153
63.965 6.741715
63.970 6.866788
63.975 6.777864
63.980 6.791589
63.985 7.11743
63.990 7.523389
63.995 7.791358
64.000 7.912471
64.005 7.922454
64.010 8.074823
64.015 8.03806
64.020 8.222726
64.025 8.545905
64.030 8.810446
64.035 8.9418
64.040 8.81635
64.045 8.824092
64.050 9.040447
64.055 8.832363
64.060 8.334138
64.065 8.277905
64.070 8.286827
64.075 8.29523
64.080 8.382956
64.085 7.874585
64.090 8.078507
64.095 8.595018
64.100 8.484937
64.105 8.487866
64.110 8.380353
64.115 8.463577
64.120 8.582291
64.125 8.439789
64.130 8.03199
64.135 7.747983
64.140 7.882535
64.145 7.847903
64.150 7.601369
64.155 7.786532
64.160 7.987862
64.165 8.167004
64.170 8.437428
64.175 8.28326
64.180 8.421407
64.185 9.135869
64.190 9.040581
64.195 8.927164
64.200 9.105317
64.205 9.187873
64.210 9.470252
64.215 9.529763
64.220 9.026279
64.225 9.341446
64.230 9.420934
64.235 9.356253
64.240 9.692088
64.245 9.812684
64.250 9.983501
64.255 10.493482
64.260 10.716118
64.265 11.095141
64.270 11.2353
64.275 11.130728
64.280 11.215566
64.285 11.434468
64.290 11.623369
64.295 11.798096
64.300 11.754046
64.305 11.744605
64.310 11.564201
64.315 11.492788
64.320 11.625156
64.325 11.474522
64.330 11.189632
64.335 11.151999
64.340 10.990614
64.345 11.534361
64.350 12.250243
64.355 12.339365
64.360 12.222782
64.365 12.332828
64.370 12.778408
64.375 13.359109
64.380 13.957117
64.385 13.471154
64.390 13.453946
64.395 14.538734
64.400 14.559007
64.405 14.637331
64.410 14.823405
64.415 14.470977
64.420 14.99028
64.425 15.211148
64.430 15.530622
64.435 16.046082
64.440 15.928691
64.445 15.894219
64.450 15.65414
64.455 15.381773
64.460 14.975804
64.465 15.000011
64.470 14.858679
64.475 15.164827
64.480 15.447206
64.485 15.349937
64.490 15.728598
64.495 15.872849
64.500 15.199177
64.505 14.971193
64.510 14.540261
64.515 14.396072
64.520 14.746614
64.525 14.603445
64.530 14.876495
64.535 15.103884
64.540 15.126551
64.545 14.998961
64.550 14.92897
64.555 14.447477
64.560 14.311497
64.565 14.412576
64.570 14.471211
64.575 14.245024
64.580 14.488708
64.585 14.305628
64.590 14.606993
64.595 14.55732
64.600 14.063839
64.605 13.747373
64.610 13.983536
64.615 13.749846
64.620 13.57787
64.625 13.471823
64.630 12.87795
64.635 12.377069
64.640 12.365222
64.645 12.146478
64.650 12.266808
64.655 12.305232
64.660 12.096066
64.665 12.238328
64.670 12.389117
64.675 11.591373
64.680 11.213362
64.685 11.032816
64.690 11.084948
64.695 11.420046
64.700 11.793951
64.705 11.872104
64.710 12.432668
64.715 12.350431
64.720 12.062644
64.725 11.846049
64.730 10.97458
64.735 10.362144
64.740 10.130772
64.745 10.185956
64.750 10.316381
64.755 10.651896
64.760 10.644065
64.765 10.622958
64.770 10.464182
64.775 10.197236
64.780 9.551225
64.785 9.536682
64.790 9.183798
64.795 9.000574
64.800 8.921904
64.805 8.827124
64.810 8.583202
64.815 8.661626
64.820 8.585677
64.825 8.433539
64.830 8.56011
64.835 9.174305
64.840 9.453771
64.845 10.003913
64.850 9.922435
64.855 9.726095
64.860 9.522106
64.865 9.883057
64.870 9.643901
64.875 9.623298
64.880 9.702684
64.885 9.590251
64.890 9.362576
64.895 8.992887
64.900 8.325614
64.905 8.27968
64.910 8.13807
64.915 7.837198
64.920 8.175887
64.925 8.445134
64.930 8.773816
64.935 9.122216
64.940 8.910585
64.945 8.845193
64.950 8.563349
64.955 8.096131
64.960 8.055485
64.965 8.256905
64.970 8.363848
64.975 8.327868
64.980 8.327933
64.985 8.927542
64.990 8.981467
64.995 8.978342
65.000 8.864236
65.005 8.918289
65.010 9.340053
65.015 9.549083
65.020 9.65636
65.025 10.14559
65.030 10.66046
65.035 10.785989
65.040 10.887091
65.045 10.921905
65.050 11.222479
65.055 11.585304
65.060 11.337013
65.065 10.741217
65.070 10.629822
65.075 10.133201
65.080 9.991773
65.085 9.99435
65.090 9.928936
65.095 9.984026
65.100 10.249124
65.105 10.295551
65.110 10.88626
65.115 11.162413
65.120 11.030247
65.125 10.950994
65.130 11.487178
65.135 11.451363
65.140 11.379139
65.145 11.437196
65.150 11.744249
65.155 12.157453
65.160 12.106793
65.165 11.791359
65.170 12.22009
65.175 12.907408
65.180 12.645766
65.185 12.30344
65.190 12.21398
65.195 12.629614
65.200 12.754478
65.205 12.472786
65.210 12.068681
65.215 12.270656
65.220 12.276031
65.225 12.407765
65.230 12.242466
65.235 12.549479
65.240 13.312718
65.245 13.61442
65.250 13.415423
65.255 13.503416
65.260 13.283535
65.265 12.79893
65.270 12.294113
65.275 11.850322
65.280 11.486202
65.285 11.511036
65.290 11.087081
65.295 10.820642
65.300 10.701651
65.305 10.653481
65.310 10.657282
65.315 10.806204
65.320 10.856952
65.325 11.277643
65.330 11.778007
65.335 12.223846
65.340 12.488912
65.345 12.21465
65.350 11.836865
65.355 12.130956
65.360 12.469288
65.365 12.719645
65.370 12.923821
65.375 13.060323
65.380 13.9018
65.385 14.291202
65.390 14.132292
65.395 13.604566
65.400 13.265832
65.405 12.845737
65.410 12.693312
65.415 12.781944
65.420 12.692791
65.425 12.924973
65.430 12.880792
65.435 12.696304
65.440 12.805111
65.445 12.323014
65.450 11.738984
65.455 12.071217
65.460 12.302007
65.465 12.383575
65.470 12.556821
65.475 13.104931
65.480 13.625049
65.485 13.86152
65.490 13.675299
65.495 13.160631
65.500 13.106503
65.505 13.521654
65.510 13.676445
65.515 13.342655
65.520 12.978309
65.525 12.69304
65.530 13.042237
65.535 13.083377
65.540 12.570949
65.545 11.860329
65.550 11.784102
65.555 12.203882
65.560 12.522625
65.565 12.658084
65.570 12.55196
65.575 12.928537
65.580 13.690677
65.585 14.529741
65.590 14.378427
65.595 13.942867
65.600 14.019525
65.605 14.226768
65.610 14.422289
65.615 14.139124
65.620 13.500894
65.625 13.739101
65.630 13.905218
65.635 13.703086
65.640 13.423215
65.645 13.201329
65.650 13.116246
65.655 12.971076
65.660 12.510242
65.665 12.803458
65.670 12.822101
65.675 12.731713
65.680 12.675569
65.685 12.512567
65.690 12.276929
65.695 12.836092
65.700 12.517547
65.705 12.31752
65.710 12.285359
65.715 11.815297
65.720 11.539914
65.725 11.532207
65.730 11.106906
65.735 11.18977
65.740 11.423419
65.745 11.994673
65.750 11.949779
65.755 12.285123
65.760 12.617065
65.765 12.711581
65.770 12.180988
65.775 11.991998
65.780 11.719562
65.785 11.81531
65.790 11.087062
65.795 10.604276
65.800 10.176968
65.805 10.242752
65.810 10.338649
65.815 10.590281
65.820 10.60772
65.825 10.911448
65.830 10.764825
65.835 10.988964
65.840 10.962831
65.845 10.763249
65.850 10.370147
65.855 9.849173
65.860 9.37647
65.865 9.50144
65.870 9.381156
65.875 9.461768
65.880 9.17604
65.885 9.384478
65.890 10.056187
65.895 10.256719
65.900 10.273283
65.905 10.459872
65.910 10.331721
65.915 10.549465
65.920 10.270348
65.925 9.753184
65.930 10.013572
65.935 9.655716
65.940 9.512848
65.945 9.312749
65.950 9.284907
65.955 9.012864
65.960 8.94769
65.965 9.135017
65.970 9.507582
65.975 9.674795
65.980 9.968707
65.985 10.037062
65.990 9.983343
65.995 10.12913
66.000 9.86877
66.005 9.619364
66.010 9.555042
66.015 9.251
66.020 9.206356
66.025 9.165982
66.030 8.799528
66.035 8.958228
66.040 9.237736
66.045 8.962522
66.050 8.733145
66.055 8.293862
66.060 8.583796
66.065 8.914054
66.070 8.747729
66.075 8.147679
66.080 8.374229
66.085 8.648071
66.090 9.214291
66.095 9.124655
66.100 8.892783
66.105 8.932694
66.110 9.213734
66.115 9.12672
66.120 8.968503
66.125 8.846404
66.130 8.639773
66.135 8.464887
66.140 8.711551
66.145 8.465516
66.150 8.74936
66.155 8.933142
66.160 9.011584
66.165 9.171788
66.170 9.132418
66.175 8.853638
66.180 8.609599
66.185 8.256868
66.190 7.941189
66.195 8.064561
66.200 8.307311
66.205 8.078837
66.210 8.243053
66.215 8.530947
66.220 8.705777
66.225 8.497993
66.230 7.798871
66.235 7.623186
66.240 7.755538
66.245 7.838008
66.250 7.798794
66.255 7.755509
66.260 7.921295
66.265 8.348502
66.270 8.227023
66.275 8.152943
66.280 7.886388
66.285 7.657278
66.290 7.719926
66.295 7.695768
66.300 7.668258
66.305 7.976256
66.310 7.855234
66.315 7.752049
66.320 7.913243
66.325 8.190302
66.330 8.561986
66.335 8.724474
66.340 9.160245
66.345 9.434602
66.350 9.451604
66.355 8.916488
66.360 8.606013
66.365 8.376391
66.370 8.165196
66.375 7.86231
66.380 8.052031
66.385 8.360437
66.390 8.936908
66.395 8.669197
66.400 8.851611
66.405 9.028801
66.410 8.448471
66.415 8.048731
66.420 7.954948
66.425 7.502789
66.430 7.614945
66.435 7.242118
66.440 7.120319
66.445 7.707555
66.450 7.506179
66.455 7.276956
66.460 7.721338
66.465 7.791423
66.470 7.616512
66.475 7.224446
66.480 7.084355
66.485 7.634081
66.490 8.001021
66.495 8.169034
66.500 8.290763
66.505 9.043992
66.510 9.923251
66.515 9.673207
66.520 9.32381
66.525 9.110576
66.530 8.670975
66.535 8.782204
66.540 8.461877
66.545 8.26392
66.550 8.37755
66.555 7.958415
66.560 7.747416
66.565 7.965357
66.570 7.883274
66.575 7.839884
66.580 7.164727
66.585 6.750711
66.590 6.921443
66.595 7.403752
66.600 7.232034
66.605 7.017479
66.610 6.78877
66.615 7.156309
66.620 7.638551
66.625 7.850135
66.630 7.569814
66.635 7.625432
66.640 7.888826
66.645 8.504024
66.650 8.729723
66.655 8.900291
66.660 9.00252
66.665 8.970923
66.670 9.06731
66.675 8.728259
66.680 8.386559
66.685 7.926131
66.690 7.653202
66.695 7.473541
66.700 7.286244
66.705 7.073924
66.710 7.196857
66.715 7.235177
66.720 7.805727
66.725 8.014507
66.730 7.967071
66.735 7.780619
66.740 7.945358
66.745 7.848133
66.750 7.483672
66.755 7.163202
66.760 7.300289
66.765 7.795831
66.770 8.237824
66.775 8.43584
66.780 8.548203
66.785 8.920906
66.790 9.05588
66.795 8.809901
66.800 8.723063
66.805 8.710657
66.810 8.48245
66.815 8.394725
66.820 8.21403
66.825 8.338013
66.830 7.912262
66.835 7.497972
66.840 7.24201
66.845 6.97795
66.850 7.138595
66.855 7.207717
66.860 7.414191
66.865 7.759922
66.870 7.500594
66.875 7.345657
66.880 7.493948
66.885 7.378986
66.890 6.923003
66.895 6.38673
66.900 6.625639
66.905 6.772268
66.910 6.815056
66.915 6.844946
66.920 6.771089
66.925 7.159153
66.930 7.677932
66.935 7.546408
66.940 7.614236
66.945 7.707554
66.950 7.738548
66.955 8.100651
66.960 8.142437
66.965 7.622059
66.970 7.606434
66.975 7.943349
66.980 8.318476
66.985 8.225995
66.990 7.689292
66.995 7.524687
67.000 7.63965
67.005 7.695092
67.010 7.479584
67.015 7.492768
67.020 7.665201
67.025 7.997328
67.030 8.189759
67.035 8.242253
67.040 8.612404
67.045 8.661341
67.050 8.587476
67.055 8.993688
67.060 9.076487
67.065 9.073616
67.070 9.045465
67.075 8.836629
67.080 8.621398
67.085 8.282725
67.090 7.818854
67.095 7.550437
67.100 7.499986
67.105 7.366919
67.110 7.732407
67.115 7.975861
67.120 8.061941
67.125 8.192446
67.130 8.364277
67.135 8.378902
67.140 8.300624
67.145 7.892703
67.150 7.764857
67.155 7.649339
67.160 7.461972
67.165 7.327138
67.170 7.282509
67.175 7.254133
67.180 6.991485
67.185 6.780147
67.190 6.904351
67.195 7.275403
67.200 7.83339
67.205 8.292728
67.210 8.476136
67.215 8.635309
67.220 8.81906
67.225 8.951918
67.230 8.804304
67.235 8.778356
67.240 8.76458
67.245 8.921693
67.250 9.032905
67.255 8.819083
67.260 8.726011
67.265 8.591588
67.270 7.958615
67.275 7.738564
67.280 7.703128
67.285 8.024527
67.290 8.513293
67.295 8.342553
67.300 8.150413
67.305 8.235896
67.310 7.94975
67.315 7.945755
67.320 7.436521
67.325 7.391004
67.330 7.016612
67.335 6.986479
67.340 7.260274
67.345 7.533487
67.350 7.791884
67.355 7.624957
67.360 7.560982
67.365 7.828217
67.370 7.756527
67.375 7.749074
67.380 7.837395
67.385 7.662275
67.390 7.818541
67.395 7.509286
67.400 7.615524
67.405 7.94143
67.410 7.846359
67.415 7.589317
67.420 7.52641
67.425 7.688658
67.430 8.041833
67.435 7.970451
67.440 7.6621
67.445 7.47627
67.450 7.67418
67.455 8.046742
67.460 8.099493
67.465 7.91599
67.470 7.970429
67.475 8.190806
67.480 8.561575
67.485 8.847885
67.490 8.56284
67.495 8.430707
67.500 8.525623
67.505 8.697605
67.510 8.923471
67.515 8.858473
67.520 8.842137
67.525 8.878327
67.530 9.601095
67.535 9.655684
67.540 9.347051
67.545 8.989347
67.550 8.59252
67.555 8.325125
67.560 8.260629
67.565 7.580579
67.570 7.542679
67.575 7.684035
67.580 7.644665
67.585 7.849928
67.590 8.188482
67.595 8.044829
67.600 7.923403
67.605 7.881727
67.610 7.879642
67.615 8.042827
67.620 8.147366
67.625 8.136444
67.630 8.266895
67.635 8.782336
67.640 9.023122
67.645 8.860345
67.650 8.797877
67.655 8.535922
67.660 8.243271
67.665 8.235739
67.670 7.671781
67.675 7.498824
67.680 7.515643
67.685 7.390644
67.690 7.810613
67.695 7.864523
67.700 7.848245
67.705 7.889166
67.710 7.870218
67.715 8.239907
67.720 8.140285
67.725 8.00526
67.730 7.975241
67.735 7.999434
67.740 8.235717
67.745 8.312566
67.750 8.141779
67.755 8.038329
67.760 7.950716
67.765 8.029287
67.770 8.256991
67.775 8.065389
67.780 8.344967
67.785 8.382733
67.790 8.547085
67.795 8.932926
67.800 9.062446
67.805 9.272186
67.810 9.368382
67.815 9.466356
67.820 9.385578
67.825 9.065164
67.830 8.869704
67.835 8.656069
67.840 8.250528
67.845 8.079852
67.850 7.642992
67.855 8.18478
67.860 8.22526
67.865 8.066689
67.870 8.292015
67.875 8.271228
67.880 8.518304
67.885 8.865616
67.890 8.327943
67.895 8.30588
67.900 8.416743
67.905 8.694256
67.910 8.848384
67.915 8.732109
67.920 8.510698
67.925 9.095724
67.930 9.577038
67.935 9.126024
67.940 8.845422
67.945 8.782713
67.950 8.988976
67.955 9.017885
67.960 8.501522
67.965 8.079607
67.970 8.374249
67.975 8.290895
67.980 7.990247
67.985 8.037968
67.990 8.075796
67.995 8.254083
68.000 8.405648
68.005 8.373418
68.010 8.563619
68.015 8.693255
68.020 8.406717
68.025 8.266712
68.030 8.306225
68.035 8.032548
68.040 7.987515
68.045 8.199915
68.050 8.37686
68.055 8.459091
68.060 8.721842
68.065 8.861016
68.070 9.239297
68.075 9.163121
68.080 8.767906
68.085 8.696938
68.090 8.795499
68.095 8.756501
68.100 8.414121
68.105 8.312133
68.110 8.686709
68.115 8.82448
68.120 9.12157
68.125 8.986721
68.130 8.8123
68.135 9.052445
68.140 8.821117
68.145 8.561452
68.150 8.698278
68.155 8.753945
68.160 8.709592
68.165 8.488847
68.170 8.482469
68.175 8.737807
68.180 8.900997
68.185 8.456768
68.190 8.443319
68.195 8.778019
68.200 8.872021
68.205 8.900462
68.210 9.046226
68.215 9.084122
68.220 9.430928
68.225 9.291632
68.230 9.292737
68.235 9.279772
68.240 9.302069
68.245 9.141515
68.250 9.154825
68.255 8.847415
68.260 8.906144
68.265 8.562819
68.270 8.589783
68.275 8.667778
68.280 8.722454
68.285 8.402093
68.290 8.050349
68.295 8.140414
68.300 8.253332
68.305 8.378443
68.310 8.555297
68.315 8.312088
68.320 8.319072
68.325 8.470813
68.330 8.376656
68.335 8.604953
68.340 8.517958
68.345 8.487946
68.350 9.427979
68.355 9.935587
68.360 10.297587
68.365 10.487457
68.370 10.612747
68.375 10.541304
68.380 10.568822
68.385 9.845965
68.390 9.928679
68.395 9.755784
68.400 9.627563
68.405 9.741932
68.410 9.621329
68.415 9.813992
68.420 10.514581
68.425 11.01894
68.430 11.380484
68.435 11.629838
68.440 11.896458
68.445 12.428096
68.450 12.717028
68.455 12.806997
68.460 12.374404
68.465 12.586649
68.470 12.326691
68.475 12.051797
68.480 11.613967
68.485 11.588351
68.490 11.654445
68.495 11.749119
68.500 11.752591
68.505 11.973303
68.510 12.291321
68.515 12.697197
68.520 12.978051
68.525 12.649977
68.530 12.295531
68.535 12.023951
68.540 11.989497
68.545 11.568512
68.550 11.451207
68.555 10.896869
68.560 11.436597
68.565 12.012704
68.570 12.228665
68.575 12.476213
68.580 12.414991
68.585 11.956123
68.590 11.777858
68.595 11.200965
68.600 10.979458
68.605 11.237328
68.610 11.361742
68.615 11.758054
68.620 12.34178
68.625 13.011832
68.630 13.243975
68.635 13.582327
68.640 13.551887
68.645 13.829547
68.650 13.9512
68.655 13.737273
68.660 13.790454
68.665 13.604889
68.670 13.38166
68.675 13.162678
68.680 12.742537
68.685 12.587952
68.690 12.614717
68.695 13.095101
68.700 13.247782
68.705 13.281164
68.710 13.785869
68.715 13.824307
68.720 13.54624
68.725 13.536368
68.730 13.611119
68.735 13.882578
68.740 14.016473
68.745 13.787327
68.750 13.791492
68.755 14.401437
68.760 14.508638
68.765 14.266562
68.770 13.744502
68.775 13.127585
68.780 12.871759
68.785 13.109138
68.790 12.707213
68.795 12.077607
68.800 12.03699
68.805 12.691508
68.810 12.96938
68.815 12.663374
68.820 12.386819
68.825 12.762595
68.830 13.159375
68.835 13.253709
68.840 12.232992
68.845 12.097878
68.850 12.849765
68.855 12.817413
68.860 12.675663
68.865 12.713786
68.870 12.754416
68.875 13.450569
68.880 13.79464
68.885 13.524475
68.890 13.593545
68.895 13.43005
68.900 13.230978
68.905 12.945982
68.910 12.813757
68.915 12.707341
68.920 12.571185
68.925 12.34477
68.930 12.356769
68.935 12.612215
68.940 12.914257
68.945 12.730898
68.950 12.691307
68.955 13.223678
68.960 13.409595
68.965 12.91109
68.970 12.178204
68.975 12.138346
68.980 12.066078
68.985 11.154283
68.990 10.968081
68.995 10.819325
69.000 11.288356
69.005 11.666366
69.010 11.310945
69.015 11.578638
69.020 12.045032
69.025 12.315996
69.030 12.707264
69.035 12.419571
69.040 12.393168
69.045 12.236307
69.050 11.963267
69.055 12.03187
69.060 11.610176
69.065 11.398064
69.070 11.624899
69.075 11.292509
69.080 11.33965
69.085 11.577071
69.090 11.427267
69.095 11.080567
69.100 11.036269
69.105 10.882701
69.110 11.172235
69.115 10.924371
69.120 11.203285
69.125 11.639702
69.130 11.729769
69.135 11.773006
69.140 11.995155
69.145 12.064314
69.150 12.120336
69.155 11.642653
69.160 11.572868
69.165 11.766345
69.170 11.839293
69.175 11.546207
69.180 11.853974
69.185 11.830618
69.190 11.83178
69.195 11.289468
69.200 11.271061
69.205 11.022429
69.210 10.630998
69.215 10.289524
69.220 10.04996
69.225 10.335052
69.230 10.387331
69.235 10.436778
69.240 10.191435
69.245 10.022874
69.250 9.776514
69.255 9.743425
69.260 9.37194
69.265 8.827162
69.270 8.378278
69.275 8.66871
69.280 9.292812
69.285 9.287661
69.290 9.22059
69.295 9.115117
69.300 9.431488
69.305 9.879848
69.310 9.822122
69.315 9.389946
69.320 9.224231
69.325 9.290421
69.330 9.579094
69.335 9.821638
69.340 9.40216
69.345 9.330354
69.350 9.626362
69.355 9.449276
69.360 9.388164
69.365 9.286757
69.370 8.871737
69.375 8.802742
69.380 8.672823
69.385 8.74654
69.390 8.960662
69.395 9.099156
69.400 9.200752
69.405 9.391871
69.410 9.527543
69.415 9.882063
69.420 9.576961
69.425 9.648566
69.430 9.529121
69.435 9.288248
69.440 9.195645
69.445 9.209198
69.450 9.065732
69.455 9.063215
69.460 8.921297
69.465 8.900268
69.470 8.928196
69.475 9.072959
69.480 9.059384
69.485 9.093914
69.490 9.105847
69.495 9.0606
69.500 8.727625
69.505 8.661885
69.510 8.689462
69.515 8.875554
69.520 8.812629
69.525 8.894945
69.530 8.944694
69.535 9.237767
69.540 9.24044
69.545 8.90479
69.550 9.26349
69.555 9.026086
69.560 8.971464
69.565 8.810366
69.570 8.783017
69.575 8.972623
69.580 8.966984
69.585 8.193956
69.590 8.552573
69.595 8.467156
69.600 8.830157
69.605 8.634092
69.610 8.50976
69.615 8.143094
69.620 8.468674
69.625 8.305855
69.630 8.172882
69.635 8.072304
69.640 7.968395
69.645 8.284616
69.650 8.627431
69.655 8.466011
69.660 8.479257
69.665 8.677078
69.670 8.658164
69.675 8.88955
69.680 8.671372
69.685 8.475804
69.690 8.63238
69.695 8.980129
69.700 8.907289
69.705 8.928468
69.710 8.666236
69.715 8.633149
69.720 8.629132
69.725 8.372137
69.730 8.105416
69.735 8.324036
69.740 8.614306
69.745 9.094697
69.750 8.99532
69.755 8.942776
69.760 9.110922
69.765 9.634903
69.770 9.566017
69.775 9.070482
69.780 8.754723
69.785 9.154471
69.790 9.722466
69.795 9.780035
69.800 9.236208
69.805 9.005707
69.810 9.143956
69.815 9.333405
69.820 9.172447
69.825 8.785582
69.830 8.346521
69.835 8.515368
69.840 8.881428
69.845 9.123716
69.850 8.93286
69.855 9.176589
69.860 9.128077
69.865 9.871169
69.870 9.99606
69.875 9.410102
69.880 9.22358
69.885 9.112062
69.890 8.534609
69.895 8.509013
69.900 7.987786
69.905 8.181023
69.910 8.420527
69.915 8.910494
69.920 9.076142
69.925 8.941928
69.930 8.951323
69.935 9.04753
69.940 8.990813
69.945 8.837668
69.950 8.856718
69.955 9.036313
69.960 9.618735
69.965 9.704064
69.970 9.202897
69.975 8.79108
69.980 8.496269
69.985 8.233957
69.990 8.255672
69.995 7.954555
70.000 7.937685
70.005 8.093675
70.010 8.381134
70.015 8.228775
70.020 8.317834
70.025 8.617029
70.030 8.925781
70.035 8.660941
70.040 8.590892
70.045 8.32441
70.050 7.957816
70.055 7.516006
70.060 7.010971
70.065 6.846653
70.070 7.383947
70.075 7.708098
70.080 8.405579
70.085 8.784948
70.090 8.697326
70.095 8.522246
70.100 8.496461
70.105 8.174842
70.110 7.990895
70.115 7.66224
70.120 7.783601
70.125 8.361122
70.130 8.741788
70.135 8.318623
70.140 8.443066
70.145 8.597738
70.150 8.814314
70.155 8.899058
70.160 8.520617
70.165 8.324381
70.170 8.914269
70.175 8.896187
70.180 8.858423
70.185 8.744449
70.190 8.70957
70.195 9.041389
70.200 9.169696
70.205 8.921218
70.210 8.618571
70.215 8.401991
70.220 8.095042
70.225 8.043034
70.230 7.793388
70.235 7.713673
70.240 7.907056
70.245 8.315145
70.250 8.496185
70.255 8.60671
70.260 8.709212
70.265 8.859257
70.270 8.888343
70.275 9.066383
70.280 8.724286
70.285 8.834828
70.290 8.830426
70.295 8.896495
70.300 9.052692
70.305 9.558502
70.310 9.821613
70.315 10.026709
70.320 9.762919
70.325 9.404281
70.330 9.179931
70.335 8.975201
70.340 8.404758
70.345 8.53506
70.350 8.583804
70.355 8.562765
70.360 8.273461
70.365 8.351307
70.370 8.292228
70.375 8.135827
70.380 7.698508
70.385 7.90312
70.390 8.155594
70.395 8.488721
70.400 8.419503
70.405 8.523617
70.410 8.537492
70.415 8.441725
70.420 8.593385
70.425 8.54586
70.430 8.355285
70.435 8.598473
70.440 9.055053
70.445 9.360668
70.450 9.417516
70.455 9.110466
70.460 9.258347
70.465 9.073578
70.470 8.88415
70.475 8.435205
70.480 8.465192
70.485 7.976367
70.490 8.005043
70.495 8.210415
70.500 8.43308
70.505 8.531801
70.510 8.602093
70.515 8.642163
70.520 9.354471
70.525 9.301644
70.530 8.869948
70.535 8.976318
70.540 8.80677
70.545 9.173171
70.550 9.405231
70.555 9.195783
70.560 9.232151
70.565 9.354012
70.570 9.480868
70.575 9.222879
70.580 9.310592
70.585 9.297272
70.590 9.546216
70.595 9.707083
70.600 9.745786
70.605 9.816296
70.610 9.893894
70.615 9.524154
70.620 9.0618
70.625 8.554588
70.630 8.442639
70.635 8.187803
70.640 8.076138
70.645 8.140255
70.650 8.186433
70.655 8.373992
70.660 8.910895
70.665 9.186601
70.670 9.071319
70.675 8.721652
70.680 8.37765
70.685 8.581566
70.690 8.810376
70.695 8.808493
70.700 8.619514
70.705 8.769169
70.710 8.835116
70.715 8.902026
70.720 8.680691
70.725 8.638448
70.730 8.188282
70.735 7.878982
70.740 7.716303
70.745 7.698121
70.750 7.727431
70.755 7.60744
70.760 7.240334
70.765 7.402269
70.770 7.613057
70.775 7.867303
70.780 7.977864
70.785 7.641204
70.790 7.376201
70.795 7.518004
70.800 7.735007
70.805 8.025689
70.810 8.294155
70.815 8.304561
70.820 8.666076
70.825 9.185306
70.830 9.119821
70.835 9.340195
70.840 9.356785
70.845 9.116735
70.850 9.244412
70.855 8.964126
70.860 9.200103
70.865 9.790353
70.870 9.593127
70.875 9.216043
70.880 9.435905
70.885 9.540407
70.890 9.715364
70.895 9.105648
70.900 8.642011
70.905 8.572571
70.910 8.849867
70.915 8.454678
70.920 8.379354
70.925 8.164028
70.930 7.921499
70.935 8.103186
70.940 7.633088
70.945 7.729502
70.950 7.953016
70.955 7.618715
70.960 7.963665
70.965 8.353279
70.970 8.263102
70.975 8.770232
70.980 8.497443
70.985 8.507718
70.990 8.511855
70.995 8.649696
71.000 8.856919
71.005 8.674729
71.010 8.400903
71.015 8.286728
71.020 8.454857
71.025 8.669725
71.030 8.456714
71.035 8.238999
71.040 8.696109
71.045 8.6803
71.050 8.746065
71.055 8.692149
71.060 8.330246
71.065 8.199826
71.070 8.382864
71.075 8.21326
71.080 8.570636
71.085 8.553691
71.090 8.683627
71.095 8.943689
71.100 8.87372
71.105 8.88247
71.110 8.914188
71.115 8.548455
71.120 8.846
71.125 9.071298
71.130 9.23673
71.135 9.10455
71.140 9.162348
71.145 9.082481
71.150 9.019834
71.155 8.902431
71.160 8.880374
71.165 8.830677
71.170 9.113803
71.175 8.749927
71.180 8.822036
71.185 8.915911
71.190 8.735324
71.195 8.609571
71.200 8.441357
71.205 8.170447
71.210 8.538742
71.215 8.472317
71.220 8.27384
71.225 8.193862
71.230 8.333879
71.235 8.597699
71.240 8.70201
71.245 8.565315
71.250 8.794389
71.255 8.816407
71.260 8.78603
71.265 8.150047
71.270 8.271983
71.275 7.965639
71.280 7.571691
71.285 7.48787
71.290 7.266128
71.295 7.292557
71.300 7.493249
71.305 7.002059
71.310 7.472422
71.315 8.025737
71.320 8.321819
71.325 8.355309
71.330 8.067773
71.335 8.38497
71.340 9.078243
71.345 9.112583
71.350 8.805792
71.355 8.738435
71.360 8.79458
71.365 8.706549
71.370 8.002721
71.375 7.486679
71.380 7.352517
71.385 7.955933
71.390 8.338801
71.395 8.547834
71.400 9.183027
71.405 9.435948
71.410 9.540859
71.415 9.354935
71.420 8.943381
71.425 8.736993
71.430 8.901455
71.435 8.701415
71.440 8.869255
71.445 8.736713
71.450 8.714543
71.455 8.864592
71.460 8.922857
71.465 9.103628
71.470 9.148086
71.475 9.131681
71.480 9.484555
71.485 9.258218
71.490 9.295935
71.495 8.870462
71.500 8.672647
71.505 8.772211
71.510 8.507292
71.515 8.551589
71.520 8.453493
71.525 8.088744
71.530 8.322557
71.535 8.354192
71.540 8.452682
71.545 8.545035
71.550 8.478927
71.555 8.575397
71.560 8.529899
71.565 8.451822
71.570 8.528479
71.575 8.296811
71.580 7.977843
71.585 8.26135
71.590 8.335425
71.595 8.15832
71.600 7.916428
71.605 7.931554
71.610 8.245886
71.615 8.585279
71.620 8.579082
71.625 8.511708
71.630 8.293641
71.635 8.358883
71.640 7.773892
71.645 7.329597
71.650 7.207851
71.655 7.119775
71.660 7.710621
71.665 7.919995
71.670 7.883705
71.675 8.363188
71.680 8.377916
71.685 8.373913
71.690 8.23607
71.695 7.735562
71.700 7.922603
71.705 8.382268
71.710 8.494042
71.715 8.255446
71.720 8.34471
71.725 8.626418
71.730 8.911012
71.735 9.140184
71.740 9.05993
71.745 8.696714
71.750 8.826219
71.755 8.210545
71.760 8.383533
71.765 8.283422
71.770 7.832623
71.775 7.85737
71.780 8.353255
71.785 8.538431
71.790 8.485711
71.795 8.305626
71.800 8.261776
71.805 8.467027
71.810 8.552285
71.815 8.07355
71.820 7.912527
71.825 8.138075
71.830 8.44988
71.835 8.636205
71.840 8.456303
71.845 8.438569
71.850 8.598135
71.855 8.976399
71.860 8.675377
71.865 8.277878
71.870 8.265532
71.875 8.530154
71.880 8.515919
71.885 8.583385
71.890 8.504878
71.895 8.737761
71.900 8.639351
71.905 8.138764
71.910 7.709805
71.915 8.106766
71.920 8.006791
71.925 8.100815
71.930 7.853711
71.935 7.698189
71.940 8.019105
71.945 8.844778
71.950 8.800784
71.955 8.610249
71.960 8.350839
71.965 8.684321
71.970 9.054112
71.975 8.663006
71.980 8.256605
71.985 8.635941
71.990 8.726816
71.995 8.485838
72.000 8.239109
72.005 8.527486
72.010 8.883157
72.015 8.942678
72.020 8.354007
72.025 8.728452
72.030 9.059986
72.035 8.90433
72.040 8.481355
72.045 8.642281
72.050 8.419764
72.055 8.373479
72.060 7.788597
72.065 7.916941
72.070 8.087046
72.075 8.459671
72.080 8.063103
72.085 8.365207
72.090 9.029567
72.095 9.316072
72.100 9.087805
72.105 8.987046
72.110 9.119932
72.115 9.347773
72.120 9.487824
72.125 9.307276
72.130 9.43561
72.135 9.492643
72.140 9.400205
72.145 9.104884
72.150 8.788709
72.155 8.543568
72.160 8.064891
72.165 8.027666
72.170 8.186917
72.175 8.177449
72.180 8.088861
72.185 7.971536
72.190 8.057198
72.195 8.602773
72.200 8.889077
72.205 9.069801
72.210 8.942045
72.215 8.445397
72.220 8.554914
72.225 8.708218
72.230 8.479435
72.235 8.192869
72.240 7.72569
72.245 8.136018
72.250 8.59498
72.255 8.578817
72.260 8.550231
72.265 8.535119
72.270 8.460178
72.275 8.673589
72.280 8.617251
72.285 8.283428
72.290 8.023026
72.295 8.252539
72.300 8.056956
72.305 7.820217
72.310 7.727796
72.315 7.854668
72.320 7.806776
72.325 7.591906
72.330 7.346007
72.335 7.523739
72.340 7.697159
72.345 7.81044
72.350 7.965058
72.355 8.543887
72.360 8.773403
72.365 8.578797
72.370 8.795151
72.375 9.060281
72.380 8.855655
72.385 8.681903
72.390 8.457961
72.395 8.318525
72.400 8.405671
72.405 8.303761
72.410 7.914221
72.415 7.706659
72.420 7.662391
72.425 7.409877
72.430 7.759412
72.435 7.465937
72.440 7.005759
72.445 7.131484
72.450 7.472746
72.455 7.873323
72.460 8.092898
72.465 8.120385
72.470 8.106786
72.475 8.561216
72.480 8.718044
72.485 8.467612
72.490 8.542388
72.495 8.380355
72.500 8.41324
72.505 8.25696
72.510 8.023057
72.515 7.786492
72.520 7.757155
72.525 7.904718
72.530 8.220352
72.535 8.248067
72.540 8.506437
72.545 8.440313
72.550 8.665126
72.555 8.806666
72.560 9.360232
72.565 9.499526
72.570 9.690593
72.575 10.256166
72.580 10.673818
72.585 10.545873
72.590 9.920953
72.595 9.617194
72.600 9.251727
72.605 9.288469
72.610 8.979991
72.615 9.126527
72.620 9.489248
72.625 9.470049
72.630 9.026096
72.635 8.9346
72.640 8.730191
72.645 8.429082
72.650 7.938026
72.655 7.667093
72.660 7.894784
72.665 8.043682
72.670 8.170161
72.675 8.23828
72.680 8.355123
72.685 8.534793
72.690 8.744437
72.695 8.359475
72.700 8.60524
72.705 8.634747
72.710 8.584772
72.715 8.787037
72.720 8.543989
72.725 8.624323
72.730 8.800833
72.735 8.629823
72.740 8.488513
72.745 8.561553
72.750 8.156345
72.755 8.2141
72.760 8.091444
72.765 8.04347
72.770 8.089306
72.775 8.278356
72.780 8.47749
72.785 8.197278
72.790 7.935286
72.795 8.144628
72.800 8.341387
72.805 8.132486
72.810 7.888041
72.815 7.958083
72.820 8.475054
72.825 8.296723
72.830 7.89008
72.835 7.821894
72.840 7.668342
72.845 7.583499
72.850 7.359828
72.855 7.397762
72.860 7.715807
72.865 7.608197
72.870 7.508756
72.875 7.577165
72.880 7.523154
72.885 7.301642
72.890 7.427102
72.895 7.215853
72.900 7.504915
72.905 7.722316
72.910 7.818083
72.915 7.919148
72.920 8.090472
72.925 7.762804
72.930 7.842116
72.935 7.60182
72.940 7.643609
72.945 7.828868
72.950 7.900055
72.955 8.101015
72.960 8.763237
72.965 8.870234
72.970 9.053323
72.975 9.321994
72.980 9.494206
72.985 9.350442
72.990 8.791036
72.995 8.085501
73.000 8.013879
