!@!!GADDS PLOTSO FILE: Chi integration type
!@!!Title/SampleName: map-ab
!@!!Comment: ?
!@!!User: Bruker Instrument Administrator
!@!!Site: University of Illinois Chicago
!@!!Frame: map-ab_01_000.gfrm
!@!!Wavelengths    1.54184   1.54056   1.54439
!@!!Frame angles: 2Theta: 63.000 Omega: 50.000 Phi: 0.000 Chi: 90.000
!@!!Integration range: 2Theta: 53.000 to 73.000  Gamma: -105.000 to -75.000
!@!!Integration method: bin normalized
!@!N
!@!SS
!@!M
!@!L 0.0 0.0 0.0 0.0
!@!XDegrees
!@!YCounts
53.000 8.752734
53.005 9.160945
53.010 9.306997
53.015 9.200578
53.020 9.055695
53.025 9.287102
53.030 9.418314
53.035 9.177848
53.040 8.960593
53.045 9.256997
53.050 9.921424
53.055 10.204149
53.060 10.511103
53.065 10.461101
53.070 10.393039
53.075 10.28243
53.080 10.424996
53.085 10.450737
53.090 9.939021
53.095 10.099766
53.100 10.418005
53.105 10.772479
53.110 10.998981
53.115 10.778949
53.120 10.590595
53.125 10.46912
53.130 10.233819
53.135 9.634519
53.140 9.302613
53.145 8.729514
53.150 8.760812
53.155 9.055892
53.160 9.067316
53.165 9.111873
53.170 9.525897
53.175 9.40669
53.180 9.522804
53.185 9.739065
53.190 9.367619
53.195 9.098955
53.200 9.238079
53.205 9.193242
53.210 9.229828
53.215 8.947968
53.220 8.988845
53.225 9.708354
53.230 9.759744
53.235 9.691311
53.240 10.096367
53.245 10.419759
53.250 10.869288
53.255 11.27594
53.260 11.40433
53.265 11.783469
53.270 11.782992
53.275 11.442424
53.280 11.269
53.285 11.286345
53.290 10.89346
53.295 10.440424
53.300 9.906186
53.305 10.138036
53.310 10.318322
53.315 10.064451
53.320 10.074168
53.325 10.457932
53.330 10.562862
53.335 10.903358
53.340 10.715163
53.345 10.805021
53.350 10.069395
53.355 9.072847
53.360 8.880765
53.365 9.41881
53.370 9.2081
53.375 9.305011
53.380 9.064676
53.385 9.632419
53.390 10.022784
53.395 9.95812
53.400 9.739898
53.405 10.038836
53.410 10.038987
53.415 10.405578
53.420 10.193499
53.425 10.655248
53.430 10.718043
53.435 10.835024
53.440 11.333156
53.445 11.784487
53.450 11.633715
53.455 11.628842
53.460 11.480329
53.465 11.090932
53.470 11.095645
53.475 10.78467
53.480 10.795656
53.485 10.960301
53.490 10.667421
53.495 10.683469
53.500 10.907166
53.505 10.782216
53.510 10.444059
53.515 10.172265
53.520 10.541507
53.525 10.315269
53.530 10.183663
53.535 9.626631
53.540 9.159317
53.545 9.119956
53.550 9.26662
53.555 9.439528
53.560 9.916117
53.565 10.417695
53.570 10.840611
53.575 11.071815
53.580 11.068652
53.585 11.090131
53.590 11.067391
53.595 11.277569
53.600 11.055565
53.605 10.945515
53.610 11.093912
53.615 11.134877
53.620 11.146939
53.625 10.980725
53.630 10.717813
53.635 10.988798
53.640 11.150668
53.645 11.387918
53.650 11.689622
53.655 11.274052
53.660 10.96565
53.665 10.391292
53.670 9.986327
53.675 9.821648
53.680 9.189489
53.685 9.342607
53.690 9.699804
53.695 9.490238
53.700 9.525943
53.705 9.856986
53.710 9.977612
53.715 10.105684
53.720 10.292619
53.725 10.737656
53.730 11.010561
53.735 10.851096
53.740 10.399546
53.745 10.42903
53.750 10.323769
53.755 9.712208
53.760 9.046139
53.765 9.573105
53.770 10.063087
53.775 10.288659
53.780 10.155955
53.785 10.146921
53.790 10.764071
53.795 10.978743
53.800 10.537004
53.805 10.49897
53.810 10.648695
53.815 10.406532
53.820 10.425322
53.825 11.048983
53.830 11.292439
53.835 11.322611
53.840 11.704728
53.845 12.104877
53.850 12.713769
53.855 12.587282
53.860 12.14604
53.865 12.803564
53.870 12.746939
53.875 12.324601
53.880 11.973855
53.885 11.654157
53.890 11.508684
53.895 11.477528
53.900 11.15259
53.905 11.486759
53.910 11.625295
53.915 11.411807
53.920 11.438055
53.925 11.899196
53.930 11.948089
53.935 11.70188
53.940 11.060656
53.945 11.031144
53.950 11.262647
53.955 10.965382
53.960 10.592564
53.965 10.661927
53.970 10.958731
53.975 11.619018
53.980 11.970503
53.985 11.853991
53.990 11.941172
53.995 11.937897
54.000 11.695966
54.005 11.669361
54.010 11.180004
54.015 10.941285
54.020 10.906023
54.025 10.761611
54.030 10.706447
54.035 10.779441
54.040 10.471661
54.045 10.284019
54.050 10.453681
54.055 10.032307
54.060 9.413342
54.065 9.145082
54.070 8.880612
54.075 8.70458
54.080 9.053121
54.085 9.369678
54.090 10.449964
54.095 11.048221
54.100 11.690214
54.105 12.339098
54.110 13.035864
54.115 13.120242
54.120 12.529736
54.125 12.001469
54.130 12.1316
54.135 11.537741
54.140 11.249437
54.145 11.146933
54.150 11.293533
54.155 11.861828
54.160 11.731201
54.165 11.231505
54.170 11.405697
54.175 11.328514
54.180 11.177137
54.185 11.183886
54.190 11.010664
54.195 11.428043
54.200 12.11925
54.205 12.044734
54.210 11.949623
54.215 11.755745
54.220 11.748603
54.225 11.673529
54.230 11.633113
54.235 12.179299
54.240 12.624326
54.245 12.715869
54.250 12.634262
54.255 12.853223
54.260 13.383647
54.265 12.73087
54.270 11.958202
54.275 11.627539
54.280 11.648491
54.285 11.684855
54.290 11.822172
54.295 11.556205
54.300 12.051347
54.305 11.832781
54.310 11.654378
54.315 11.49988
54.320 11.260918
54.325 11.324139
54.330 11.541505
54.335 11.439553
54.340 11.223036
54.345 11.456197
54.350 11.420619
54.355 11.544345
54.360 11.510905
54.365 11.624711
54.370 11.46517
54.375 11.754333
54.380 11.372751
54.385 11.138031
54.390 10.745496
54.395 10.220097
54.400 10.450814
54.405 11.141722
54.410 11.648124
54.415 12.495447
54.420 12.698811
54.425 12.725085
54.430 12.982448
54.435 12.904914
54.440 12.326277
54.445 12.212237
54.450 11.759943
54.455 11.186328
54.460 11.127112
54.465 10.715346
54.470 10.526895
54.475 10.470135
54.480 10.462443
54.485 11.113994
54.490 11.133671
54.495 11.280079
54.500 11.620309
54.505 11.6039
54.510 11.00814
54.515 10.746072
54.520 10.694757
54.525 10.75957
54.530 10.434348
54.535 10.596861
54.540 11.252822
54.545 11.578099
54.550 12.125917
54.555 12.740092
54.560 13.125668
54.565 12.952348
54.570 12.776108
54.575 12.877685
54.580 12.735664
54.585 12.170931
54.590 11.576343
54.595 11.639121
54.600 11.809903
54.605 11.698601
54.610 11.710851
54.615 11.632676
54.620 11.544794
54.625 11.249639
54.630 11.357623
54.635 11.16075
54.640 11.062061
54.645 11.020069
54.650 11.054015
54.655 11.100948
54.660 11.797274
54.665 12.031825
54.670 12.022234
54.675 11.618858
54.680 11.513122
54.685 11.640058
54.690 11.815414
54.695 11.176276
54.700 11.093521
54.705 11.859111
54.710 11.378999
54.715 11.766224
54.720 12.360497
54.725 12.54098
54.730 13.131967
54.735 13.219562
54.740 12.935772
54.745 13.493692
54.750 13.03228
54.755 12.797119
54.760 12.800956
54.765 12.601721
54.770 12.092556
54.775 12.232322
54.780 11.972689
54.785 11.564549
54.790 11.07767
54.795 10.901001
54.800 10.601147
54.805 10.495906
54.810 10.428391
54.815 11.227115
54.820 11.93634
54.825 12.136409
54.830 12.064763
54.835 12.528323
54.840 12.692277
54.845 12.061935
54.850 11.357306
54.855 11.283128
54.860 11.233833
54.865 11.274003
54.870 10.949486
54.875 11.40167
54.880 11.581817
54.885 11.516146
54.890 11.516902
54.895 11.147575
54.900 11.188664
54.905 11.427502
54.910 11.575984
54.915 12.048264
54.920 11.912066
54.925 11.544988
54.930 11.522366
54.935 11.617464
54.940 11.798494
54.945 11.760965
54.950 12.688141
54.955 12.945359
54.960 13.244159
54.965 13.559433
54.970 13.438497
54.975 13.179386
54.980 13.279328
54.985 12.849787
54.990 13.207837
54.995 13.323491
55.000 13.380561
55.005 13.430798
55.010 13.78973
55.015 13.772876
55.020 13.347088
55.025 13.030305
55.030 13.225334
55.035 13.233395
55.040 13.129381
55.045 12.967913
55.050 13.219325
55.055 13.181832
55.060 13.268192
55.065 13.169291
55.070 13.236742
55.075 13.626761
55.080 13.157166
55.085 12.682843
55.090 13.132298
55.095 12.912457
55.100 12.625818
55.105 12.640996
55.110 12.425013
55.115 12.861214
55.120 12.800129
55.125 12.697321
55.130 12.905128
55.135 12.974018
55.140 12.784674
55.145 12.657067
55.150 12.142355
55.155 12.16267
55.160 12.301795
55.165 11.811082
55.170 11.638051
55.175 11.476454
55.180 11.483739
55.185 11.761984
55.190 11.755086
55.195 11.417658
55.200 11.613505
55.205 11.777882
55.210 11.756677
55.215 11.900367
55.220 12.076609
55.225 11.461205
55.230 11.284789
55.235 11.31471
55.240 11.544604
55.245 11.515339
55.250 11.003943
55.255 10.717847
55.260 11.372806
55.265 11.996285
55.270 12.016739
55.275 11.925331
55.280 12.064383
55.285 12.737686
55.290 12.933198
55.295 12.793259
55.300 12.423697
55.305 12.181479
55.310 11.958205
55.315 11.335462
55.320 11.063658
55.325 11.305283
55.330 11.117
55.335 11.399819
55.340 11.643759
55.345 12.296302
55.350 12.394803
55.355 12.275936
55.360 12.201834
55.365 12.076367
55.370 12.2235
55.375 12.315434
55.380 12.372805
55.385 12.814365
55.390 12.882938
55.395 12.872277
55.400 13.189482
55.405 13.105616
55.410 13.065271
55.415 12.859068
55.420 12.893712
55.425 12.541522
55.430 12.300865
55.435 12.220218
55.440 12.251377
55.445 11.789191
55.450 11.907866
55.455 11.856011
55.460 12.45548
55.465 12.418082
55.470 12.667335
55.475 12.730277
55.480 13.334668
55.485 13.397892
55.490 13.352825
55.495 12.843367
55.500 12.890423
55.505 12.860295
55.510 12.939799
55.515 12.642938
55.520 12.159442
55.525 11.969944
55.530 12.086272
55.535 12.169922
55.540 12.08877
55.545 11.66944
55.550 11.685555
55.555 12.365246
55.560 12.528946
55.565 12.835196
55.570 12.830667
55.575 13.562057
55.580 14.012787
55.585 14.039026
55.590 13.785764
55.595 14.109811
55.600 14.129438
55.605 14.166256
55.610 14.240811
55.615 14.09589
55.620 14.327353
55.625 14.514673
55.630 14.555449
55.635 14.781356
55.640 14.849978
55.645 14.344949
55.650 14.109417
55.655 13.737621
55.660 13.677431
55.665 13.40663
55.670 13.105741
55.675 12.8168
55.680 12.395002
55.685 12.524253
55.690 12.701049
55.695 12.910302
55.700 12.873614
55.705 12.860049
55.710 12.760113
55.715 13.507266
55.720 14.28904
55.725 14.126397
55.730 13.793831
55.735 13.576108
55.740 13.868056
55.745 13.806143
55.750 13.488504
55.755 12.762428
55.760 13.077349
55.765 13.188862
55.770 12.837002
55.775 12.544126
55.780 13.05118
55.785 13.391173
55.790 13.679215
55.795 13.414697
55.800 13.527662
55.805 13.955828
55.810 13.571527
55.815 13.234905
55.820 13.192569
55.825 12.974908
55.830 13.475257
55.835 13.471983
55.840 13.761395
55.845 13.958771
55.850 13.867511
55.855 13.943883
55.860 13.951333
55.865 13.59436
55.870 13.893263
55.875 13.760798
55.880 13.546729
55.885 13.650679
55.890 13.145841
55.895 12.740966
55.900 12.763632
55.905 12.151969
55.910 12.372665
55.915 12.602457
55.920 12.789299
55.925 13.641126
55.930 13.821493
55.935 13.974023
55.940 14.657057
55.945 14.921483
55.950 14.759027
55.955 13.747754
55.960 13.311378
55.965 13.066251
55.970 12.785869
55.975 12.219584
55.980 12.155171
55.985 12.391398
55.990 13.131955
55.995 13.491823
56.000 14.227264
56.005 14.12294
56.010 14.221671
56.015 14.232707
56.020 14.045394
56.025 13.940534
56.030 13.708074
56.035 13.604215
56.040 14.153769
56.045 13.898953
56.050 13.682774
56.055 14.038643
56.060 13.815832
56.065 13.734715
56.070 13.742871
56.075 13.439501
56.080 13.32329
56.085 13.603431
56.090 13.6398
56.095 14.001408
56.100 13.474172
56.105 13.095751
56.110 13.451653
56.115 13.76804
56.120 13.724811
56.125 13.373763
56.130 13.448986
56.135 13.897785
56.140 14.099
56.145 14.009779
56.150 13.851166
56.155 13.97286
56.160 14.171384
56.165 13.967706
56.170 14.069213
56.175 13.79662
56.180 12.923462
56.185 12.337132
56.190 12.041683
56.195 12.239702
56.200 12.535468
56.205 13.089114
56.210 13.760476
56.215 14.44993
56.220 14.874869
56.225 15.758
56.230 15.975418
56.235 15.899002
56.240 15.608225
56.245 15.56451
56.250 15.644054
56.255 15.077868
56.260 14.013187
56.265 13.343621
56.270 13.392939
56.275 13.192166
56.280 12.796035
56.285 12.546044
56.290 13.002417
56.295 13.21081
56.300 13.288052
56.305 12.785579
56.310 12.473323
56.315 12.608018
56.320 12.527158
56.325 12.316737
56.330 12.536279
56.335 12.482685
56.340 12.966085
56.345 13.003227
56.350 13.047312
56.355 13.330794
56.360 13.135891
56.365 13.21876
56.370 13.385436
56.375 12.72553
56.380 12.31506
56.385 12.182644
56.390 12.150906
56.395 12.240406
56.400 12.29708
56.405 12.4497
56.410 13.186953
56.415 13.657952
56.420 13.572884
56.425 13.531543
56.430 13.321991
56.435 12.65163
56.440 12.222685
56.445 12.167312
56.450 12.018229
56.455 12.254786
56.460 12.812851
56.465 13.388706
56.470 14.143861
56.475 14.55621
56.480 14.282425
56.485 14.524864
56.490 14.392262
56.495 13.710989
56.500 13.318328
56.505 13.546157
56.510 13.394379
56.515 13.553987
56.520 13.838397
56.525 13.923755
56.530 14.018356
56.535 14.10908
56.540 13.633709
56.545 13.617778
56.550 13.509597
56.555 13.643634
56.560 14.343346
56.565 14.569954
56.570 14.660776
56.575 14.906232
56.580 14.697506
56.585 14.354172
56.590 14.174248
56.595 14.270192
56.600 15.029612
56.605 15.074602
56.610 14.888659
56.615 15.170943
56.620 15.221055
56.625 15.20784
56.630 14.985117
56.635 14.549911
56.640 14.409049
56.645 14.292417
56.650 14.012579
56.655 13.991891
56.660 13.568738
56.665 13.436499
56.670 12.899398
56.675 13.174488
56.680 13.887921
56.685 14.426334
56.690 14.625403
56.695 14.132441
56.700 13.958186
56.705 14.342797
56.710 14.034895
56.715 13.583495
56.720 13.283057
56.725 13.467486
56.730 13.899096
56.735 14.655984
56.740 15.212049
56.745 15.815372
56.750 16.263155
56.755 16.071003
56.760 15.98951
56.765 15.56805
56.770 15.019358
56.775 14.017563
56.780 13.223061
56.785 13.400811
56.790 13.609199
56.795 13.705323
56.800 13.866796
56.805 13.793383
56.810 14.29905
56.815 14.155199
56.820 13.923512
56.825 13.899655
56.830 13.796163
56.835 14.263762
56.840 14.514778
56.845 14.190717
56.850 14.498828
56.855 15.078765
56.860 15.12461
56.865 15.074492
56.870 14.808805
56.875 15.25725
56.880 15.884802
56.885 15.419702
56.890 14.416807
56.895 13.915944
56.900 13.292032
56.905 12.792293
56.910 11.689952
56.915 11.373063
56.920 11.388968
56.925 12.104759
56.930 12.985448
56.935 14.02139
56.940 15.229015
56.945 15.686177
56.950 15.712695
56.955 15.983996
56.960 15.72248
56.965 15.823709
56.970 15.216366
56.975 14.396172
56.980 14.483406
56.985 14.605556
56.990 14.987702
56.995 14.631175
57.000 14.034569
57.005 13.507743
57.010 13.143313
57.015 12.920631
57.020 12.746528
57.025 12.626581
57.030 12.872845
57.035 13.370231
57.040 14.165956
57.045 14.768331
57.050 14.959431
57.055 14.91193
57.060 14.914048
57.065 15.134107
57.070 15.367378
57.075 15.191109
57.080 14.525615
57.085 14.525317
57.090 14.292374
57.095 14.02418
57.100 14.062904
57.105 13.979248
57.110 13.763032
57.115 14.079144
57.120 13.634398
57.125 13.722367
57.130 13.772926
57.135 13.356707
57.140 13.015877
57.145 13.428191
57.150 13.658436
57.155 13.87816
57.160 13.846766
57.165 13.791752
57.170 13.997883
57.175 14.477138
57.180 14.518741
57.185 14.961113
57.190 15.314528
57.195 15.193607
57.200 14.993106
57.205 14.882826
57.210 15.083294
57.215 14.802742
57.220 14.69926
57.225 14.633523
57.230 14.604756
57.235 14.830469
57.240 15.054755
57.245 14.208616
57.250 14.045403
57.255 13.80471
57.260 13.860047
57.265 14.287399
57.270 14.293751
57.275 13.833235
57.280 14.012957
57.285 14.20082
57.290 13.844655
57.295 13.941216
57.300 13.855554
57.305 13.690909
57.310 14.008907
57.315 14.743331
57.320 15.194699
57.325 16.169504
57.330 16.451797
57.335 16.394892
57.340 17.427692
57.345 17.342194
57.350 16.669115
57.355 16.784451
57.360 16.239336
57.365 15.744374
57.370 15.842051
57.375 14.807489
57.380 14.790965
57.385 14.481296
57.390 13.669962
57.395 13.114554
57.400 12.825271
57.405 12.442933
57.410 12.67322
57.415 12.913706
57.420 13.27592
57.425 13.754443
57.430 14.163426
57.435 14.867993
57.440 15.838511
57.445 15.913121
57.450 15.663905
57.455 15.440372
57.460 15.226224
57.465 15.12822
57.470 14.281009
57.475 13.052192
57.480 13.103152
57.485 13.417528
57.490 13.870211
57.495 14.417964
57.500 14.731943
57.505 15.136216
57.510 15.501832
57.515 15.68452
57.520 15.48056
57.525 15.783257
57.530 15.552627
57.535 15.459823
57.540 15.281789
57.545 15.346065
57.550 14.873997
57.555 15.434745
57.560 14.531278
57.565 14.051792
57.570 13.980382
57.575 13.853406
57.580 13.799225
57.585 14.461568
57.590 14.247017
57.595 14.729394
57.600 15.580687
57.605 15.957511
57.610 16.323376
57.615 16.24939
57.620 15.903119
57.625 16.47208
57.630 16.579924
57.635 15.898176
57.640 15.685101
57.645 15.92511
57.650 15.881721
57.655 15.478946
57.660 14.589113
57.665 14.184342
57.670 14.200066
57.675 14.032164
57.680 13.719293
57.685 13.805084
57.690 14.138616
57.695 14.700599
57.700 14.90512
57.705 15.046475
57.710 14.953563
57.715 14.689194
57.720 14.87866
57.725 14.66144
57.730 13.998808
57.735 14.2151
57.740 14.509285
57.745 15.056153
57.750 15.300267
57.755 15.092912
57.760 15.078981
57.765 15.947476
57.770 15.343616
57.775 14.891185
57.780 14.645834
57.785 14.348157
57.790 14.328103
57.795 14.028356
57.800 13.386814
57.805 13.620266
57.810 13.636563
57.815 13.600668
57.820 13.603627
57.825 13.795877
57.830 14.217402
57.835 14.169139
57.840 14.424148
57.845 14.566895
57.850 14.411335
57.855 14.464714
57.860 14.185619
57.865 14.202411
57.870 14.659029
57.875 14.532497
57.880 14.632299
57.885 14.393591
57.890 14.101499
57.895 13.855467
57.900 13.725297
57.905 13.617775
57.910 13.385063
57.915 13.573287
57.920 13.978601
57.925 14.242616
57.930 14.545228
57.935 14.774212
57.940 14.907939
57.945 14.944436
57.950 15.070735
57.955 15.177923
57.960 14.859671
57.965 14.904765
57.970 14.485793
57.975 14.182183
57.980 14.220287
57.985 14.311583
57.990 14.655614
57.995 14.644481
58.000 14.823861
58.005 15.308296
58.010 15.865651
58.015 15.804072
58.020 15.930524
58.025 16.017767
58.030 16.246201
58.035 16.041504
58.040 15.919923
58.045 15.812145
58.050 15.951676
58.055 15.940063
58.060 15.875144
58.065 15.681687
58.070 15.799154
58.075 15.76435
58.080 15.616019
58.085 15.481952
58.090 15.437159
58.095 15.626429
58.100 15.888851
58.105 15.857126
58.110 15.435646
58.115 15.801985
58.120 15.601683
58.125 15.412032
58.130 15.21212
58.135 15.199832
58.140 15.14318
58.145 15.235693
58.150 14.896223
58.155 15.099106
58.160 15.02202
58.165 15.372579
58.170 15.103523
58.175 15.169671
58.180 15.113379
58.185 14.933119
58.190 14.93737
58.195 15.107893
58.200 15.10456
58.205 15.060764
58.210 15.500982
58.215 16.006985
58.220 16.098532
58.225 16.09918
58.230 15.731257
58.235 15.750092
58.240 16.027102
58.245 15.647609
58.250 15.491894
58.255 15.295445
58.260 14.841734
58.265 14.697403
58.270 14.377278
58.275 14.203147
58.280 14.409347
58.285 14.484605
58.290 14.5973
58.295 15.15346
58.300 15.587823
58.305 15.769745
58.310 15.463609
58.315 15.071361
58.320 15.184568
58.325 15.770513
58.330 16.081924
58.335 15.92406
58.340 15.630363
58.345 15.506094
58.350 15.223961
58.355 14.729908
58.360 14.617289
58.365 14.232712
58.370 14.123047
58.375 14.153405
58.380 14.134084
58.385 14.383925
58.390 14.110982
58.395 13.993786
58.400 14.116405
58.405 13.991561
58.410 14.457286
58.415 14.534851
58.420 15.254417
58.425 15.68099
58.430 15.414389
58.435 15.515301
58.440 15.685102
58.445 15.885681
58.450 16.32633
58.455 15.869308
58.460 15.770478
58.465 15.460054
58.470 15.073316
58.475 15.214577
58.480 15.228034
58.485 15.080798
58.490 15.493882
58.495 16.31822
58.500 16.9307
58.505 17.258949
58.510 16.830751
58.515 16.523003
58.520 16.339256
58.525 16.084177
58.530 15.236896
58.535 15.158223
58.540 15.207335
58.545 15.81651
58.550 15.5801
58.555 15.429702
58.560 15.840901
58.565 16.469818
58.570 16.591734
58.575 16.316534
58.580 16.16301
58.585 16.083055
58.590 16.028732
58.595 15.118596
58.600 15.035019
58.605 15.481166
58.610 15.591409
58.615 15.514684
58.620 15.840799
58.625 16.578253
58.630 16.500633
58.635 16.094526
58.640 15.365911
58.645 15.288676
58.650 15.00605
58.655 14.805673
58.660 14.532584
58.665 15.397397
58.670 15.29297
58.675 15.694839
58.680 15.538108
58.685 15.746253
58.690 15.880771
58.695 15.858932
58.700 15.438605
58.705 15.322817
58.710 15.036179
58.715 15.132204
58.720 14.861775
58.725 14.463571
58.730 14.009313
58.735 13.88155
58.740 13.877361
58.745 13.930882
58.750 13.987734
58.755 13.863322
58.760 14.447739
58.765 14.677626
58.770 15.068764
58.775 15.446412
58.780 15.228148
58.785 15.231513
58.790 15.528224
58.795 15.465606
58.800 15.788473
58.805 15.500652
58.810 14.932602
58.815 15.113027
58.820 15.303318
58.825 15.806292
58.830 15.693592
58.835 14.737381
58.840 15.239348
58.845 15.956635
58.850 16.383541
58.855 16.038004
58.860 15.723016
58.865 16.053085
58.870 16.714371
58.875 16.120937
58.880 15.883902
58.885 15.845064
58.890 16.134481
58.895 15.866429
58.900 15.55766
58.905 15.472302
58.910 16.022936
58.915 16.317806
58.920 16.148581
58.925 16.645292
58.930 16.947266
58.935 17.17362
58.940 17.500357
58.945 16.850649
58.950 16.363461
58.955 16.335075
58.960 15.752751
58.965 15.986009
58.970 16.063354
58.975 15.995077
58.980 16.217066
58.985 16.533754
58.990 16.891441
58.995 16.90139
59.000 16.807213
59.005 16.986889
59.010 16.689798
59.015 16.313698
59.020 15.585193
59.025 15.026742
59.030 14.910047
59.035 14.137669
59.040 14.592552
59.045 14.982355
59.050 15.684085
59.055 16.446074
59.060 16.786882
59.065 17.014833
59.070 17.058577
59.075 17.106455
59.080 17.587545
59.085 17.466633
59.090 17.364044
59.095 17.849377
59.100 18.059694
59.105 18.092747
59.110 17.101639
59.115 16.543079
59.120 15.990398
59.125 15.452075
59.130 14.954578
59.135 14.899789
59.140 14.7993
59.145 14.922709
59.150 14.775063
59.155 14.942801
59.160 15.202107
59.165 15.766319
59.170 16.440058
59.175 16.722572
59.180 17.101742
59.185 17.211123
59.190 17.215578
59.195 17.02096
59.200 16.503592
59.205 16.193821
59.210 16.469574
59.215 16.208246
59.220 16.877483
59.225 17.904613
59.230 17.898455
59.235 17.573862
59.240 17.281691
59.245 17.037361
59.250 17.864201
59.255 17.554337
59.260 17.022703
59.265 17.323584
59.270 17.431358
59.275 17.227966
59.280 17.049738
59.285 16.866722
59.290 17.279013
59.295 17.5077
59.300 17.677132
59.305 18.118074
59.310 18.793278
59.315 18.822311
59.320 18.272449
59.325 17.996323
59.330 17.658268
59.335 17.640699
59.340 17.645254
59.345 17.226973
59.350 17.512417
59.355 17.616835
59.360 17.590076
59.365 18.276258
59.370 17.809843
59.375 17.45233
59.380 17.10288
59.385 17.038738
59.390 17.619587
59.395 17.432123
59.400 17.016985
59.405 17.226616
59.410 17.427822
59.415 18.031799
59.420 17.899826
59.425 17.363558
59.430 17.80603
59.435 17.748186
59.440 17.748213
59.445 17.590271
59.450 17.127104
59.455 16.501427
59.460 16.063253
59.465 15.689163
59.470 15.789072
59.475 15.909971
59.480 16.000345
59.485 16.091511
59.490 16.393553
59.495 17.468628
59.500 17.875591
59.505 18.090034
59.510 18.316895
59.515 18.415964
59.520 18.541838
59.525 18.516146
59.530 17.410767
59.535 17.432434
59.540 17.65155
59.545 17.463528
59.550 17.590452
59.555 18.003435
59.560 18.520554
59.565 19.127329
59.570 18.746311
59.575 17.970772
59.580 18.040583
59.585 17.789564
59.590 17.922409
59.595 18.705845
59.600 18.971664
59.605 19.270256
59.610 19.624922
59.615 20.037582
59.620 20.233023
59.625 19.5595
59.630 18.528748
59.635 18.034666
59.640 17.967892
59.645 18.11651
59.650 17.714642
59.655 18.152899
59.660 18.89654
59.665 19.549578
59.670 19.837297
59.675 20.401333
59.680 20.379683
59.685 20.203781
59.690 20.082151
59.695 19.920465
59.700 19.954195
59.705 19.662888
59.710 19.414013
59.715 19.33633
59.720 19.480177
59.725 19.635941
59.730 19.580553
59.735 19.801529
59.740 19.836622
59.745 19.491926
59.750 19.821772
59.755 20.267252
59.760 20.219704
59.765 19.830896
59.770 19.575125
59.775 20.383554
59.780 20.922903
59.785 21.107239
59.790 20.875008
59.795 21.346811
59.800 22.514061
59.805 22.318743
59.810 20.940067
59.815 21.028851
59.820 20.755964
59.825 20.271862
59.830 19.870638
59.835 18.859871
59.840 18.872408
59.845 19.683151
59.850 19.560766
59.855 20.180967
59.860 20.343954
59.865 20.640253
59.870 20.761709
59.875 20.718155
59.880 21.085941
59.885 21.067677
59.890 20.486546
59.895 20.434498
59.900 20.199083
59.905 21.447714
59.910 21.901058
59.915 22.187006
59.920 22.142824
59.925 22.216564
59.930 22.776493
59.935 22.234507
59.940 20.922798
59.945 20.759262
59.950 19.484564
59.955 19.487791
59.960 19.502075
59.965 19.422234
59.970 19.678371
59.975 19.872076
59.980 19.79636
59.985 20.28405
59.990 20.924858
59.995 20.906391
60.000 21.537083
60.005 21.923542
60.010 22.376631
60.015 23.426279
60.020 23.86623
60.025 23.82686
60.030 23.662952
60.035 23.00642
60.040 22.860689
60.045 21.914448
60.050 20.543081
60.055 19.873144
60.060 19.590782
60.065 19.409437
60.070 19.421961
60.075 19.371067
60.080 19.764292
60.085 20.545618
60.090 21.1278
60.095 21.006819
60.100 21.142073
60.105 21.561541
60.110 21.73465
60.115 21.979086
60.120 22.484793
60.125 23.092829
60.130 23.576927
60.135 23.967371
60.140 23.974169
60.145 24.13751
60.150 23.818155
60.155 22.680365
60.160 22.700155
60.165 22.684429
60.170 22.521463
60.175 22.380022
60.180 22.171339
60.185 23.285168
60.190 23.773695
60.195 23.355898
60.200 23.054405
60.205 23.26758
60.210 23.389513
60.215 23.755442
60.220 22.942568
60.225 23.664932
60.230 24.386732
60.235 24.757879
60.240 24.206467
60.245 24.129852
60.250 24.090967
60.255 24.708975
60.260 24.402691
60.265 23.701515
60.270 23.642733
60.275 23.732784
60.280 23.928059
60.285 23.939796
60.290 23.112745
60.295 23.374451
60.300 23.484177
60.305 23.518185
60.310 23.705425
60.315 23.761723
60.320 23.557777
60.325 24.133877
60.330 22.982796
60.335 22.029673
60.340 22.318182
60.345 22.397915
60.350 22.244621
60.355 22.545715
60.360 22.492054
60.365 22.930395
60.370 23.026686
60.375 22.254761
60.380 21.860008
60.385 21.586014
60.390 21.201365
60.395 20.920969
60.400 21.127356
60.405 21.293947
60.410 22.179993
60.415 22.327797
60.420 22.037632
60.425 22.263357
60.430 21.538612
60.435 21.503445
60.440 21.971407
60.445 21.810764
60.450 22.046392
60.455 21.881433
60.460 21.368248
60.465 21.7516
60.470 21.617628
60.475 21.731846
60.480 21.455082
60.485 21.331772
60.490 21.399389
60.495 21.402225
60.500 21.146994
60.505 21.081463
60.510 20.923407
60.515 20.79768
60.520 20.442036
60.525 20.776384
60.530 20.909958
60.535 20.988546
60.540 21.098757
60.545 21.389408
60.550 21.879915
60.555 22.595768
60.560 22.461496
60.565 22.715071
60.570 23.104586
60.575 23.124985
60.580 22.299284
60.585 21.323048
60.590 21.369728
60.595 21.726778
60.600 21.806808
60.605 21.476294
60.610 20.825859
60.615 20.499264
60.620 20.398449
60.625 19.546207
60.630 18.741777
60.635 17.928598
60.640 17.564224
60.645 17.536825
60.650 18.119221
60.655 18.204281
60.660 18.313147
60.665 18.562693
60.670 18.468834
60.675 18.237558
60.680 18.309763
60.685 18.032146
60.690 18.370975
60.695 18.548223
60.700 18.940817
60.705 19.406914
60.710 19.868507
60.715 19.944176
60.720 19.942255
60.725 20.286562
60.730 19.935396
60.735 19.805353
60.740 19.44084
60.745 18.991188
60.750 19.146095
60.755 19.630352
60.760 19.546211
60.765 20.204145
60.770 20.329779
60.775 20.367727
60.780 20.902506
60.785 20.860312
60.790 20.49789
60.795 19.937943
60.800 19.794687
60.805 19.891535
60.810 20.214487
60.815 20.276133
60.820 19.79232
60.825 19.386555
60.830 19.112572
60.835 19.124054
60.840 18.728628
60.845 18.637691
60.850 18.367468
60.855 18.16596
60.860 18.174734
60.865 18.68877
60.870 18.283323
60.875 18.459862
60.880 18.705793
60.885 18.97373
60.890 19.292732
60.895 19.511276
60.900 19.803972
60.905 20.150049
60.910 20.064615
60.915 19.622013
60.920 19.659836
60.925 19.765627
60.930 19.900866
60.935 19.646681
60.940 19.45862
60.945 19.084072
60.950 18.626467
60.955 18.551966
60.960 18.603329
60.965 18.164881
60.970 18.083986
60.975 17.823847
60.980 17.990889
60.985 18.518761
60.990 18.694939
60.995 18.662638
61.000 18.78204
61.005 18.371859
61.010 18.571594
61.015 18.867092
61.020 18.198919
61.025 18.140299
61.030 18.412174
61.035 18.444197
61.040 18.951742
61.045 19.151535
61.050 18.879095
61.055 18.744423
61.060 18.749737
61.065 18.673357
61.070 18.507139
61.075 17.975063
61.080 18.176357
61.085 18.364862
61.090 18.549826
61.095 17.997263
61.100 17.622171
61.105 17.429247
61.110 17.388241
61.115 17.187153
61.120 17.062527
61.125 17.683662
61.130 18.382042
61.135 18.618034
61.140 18.651148
61.145 18.851105
61.150 18.696262
61.155 18.757013
61.160 17.99814
61.165 17.409769
61.170 17.426985
61.175 17.756496
61.180 17.50141
61.185 17.999538
61.190 17.690735
61.195 17.774927
61.200 17.679331
61.205 17.545258
61.210 17.373066
61.215 17.415125
61.220 17.366175
61.225 17.996506
61.230 17.999083
61.235 17.755859
61.240 17.532722
61.245 17.796152
61.250 17.534599
61.255 16.933376
61.260 16.654408
61.265 16.763508
61.270 17.448439
61.275 17.536549
61.280 16.9676
61.285 17.395155
61.290 17.581474
61.295 17.535721
61.300 17.171469
61.305 16.892614
61.310 16.950411
61.315 17.485643
61.320 17.828657
61.325 18.145758
61.330 18.119745
61.335 18.081539
61.340 18.225294
61.345 18.308426
61.350 18.132421
61.355 17.515127
61.360 17.45978
61.365 17.405388
61.370 17.473248
61.375 16.990355
61.380 17.381847
61.385 17.533049
61.390 17.902515
61.395 17.996513
61.400 18.124531
61.405 18.226053
61.410 18.729784
61.415 18.903151
61.420 18.997007
61.425 18.795551
61.430 18.996891
61.435 19.162695
61.440 19.512764
61.445 19.920771
61.450 19.481009
61.455 19.11952
61.460 18.516769
61.465 18.260761
61.470 18.052418
61.475 17.189236
61.480 16.341581
61.485 16.089321
61.490 16.208775
61.495 16.688519
61.500 16.582827
61.505 16.981478
61.510 17.00211
61.515 16.902168
61.520 16.742552
61.525 16.715677
61.530 16.606461
61.535 16.988899
61.540 17.675024
61.545 18.492632
61.550 19.284513
61.555 20.003292
61.560 20.396072
61.565 20.446795
61.570 19.892456
61.575 19.561039
61.580 19.175383
61.585 19.039314
61.590 18.52816
61.595 18.405857
61.600 17.844681
61.605 17.416487
61.610 16.627691
61.615 16.37657
61.620 16.079885
61.625 16.178646
61.630 16.036938
61.635 16.38921
61.640 16.797634
61.645 16.713827
61.650 16.626289
61.655 16.639168
61.660 16.466864
61.665 16.395788
61.670 16.487782
61.675 16.798101
61.680 16.929323
61.685 16.791561
61.690 16.607288
61.695 16.788866
61.700 17.000566
61.705 17.039476
61.710 16.699057
61.715 17.428886
61.720 18.285202
61.725 19.07074
61.730 19.185772
61.735 19.165541
61.740 19.595873
61.745 19.954773
61.750 20.101999
61.755 19.88294
61.760 19.834555
61.765 19.599524
61.770 19.241171
61.775 19.071068
61.780 18.696581
61.785 19.242105
61.790 19.503517
61.795 19.447048
61.800 19.507698
61.805 19.543577
61.810 19.481873
61.815 19.639185
61.820 18.802259
61.825 18.338903
61.830 18.415192
61.835 18.271597
61.840 18.357567
61.845 17.817808
61.850 17.134014
61.855 16.851042
61.860 16.605186
61.865 16.167536
61.870 16.126064
61.875 16.394648
61.880 16.844797
61.885 17.25259
61.890 17.245481
61.895 17.338804
61.900 18.174101
61.905 18.468637
61.910 18.468506
61.915 18.098587
61.920 18.10783
61.925 18.326389
61.930 18.110653
61.935 17.821539
61.940 18.251434
61.945 18.876059
61.950 18.951845
61.955 19.340399
61.960 18.633034
61.965 18.419054
61.970 18.271544
61.975 17.575296
61.980 17.085081
61.985 17.112103
61.990 16.574451
61.995 16.494165
62.000 16.38888
62.005 16.394585
62.010 16.817785
62.015 16.844513
62.020 16.40765
62.025 16.780596
62.030 17.644674
62.035 18.090284
62.040 17.904219
62.045 17.742876
62.050 17.729948
62.055 18.297329
62.060 18.145718
62.065 17.980797
62.070 18.074844
62.075 17.99441
62.080 18.147436
62.085 18.777605
62.090 19.157274
62.095 19.733675
62.100 20.039406
62.105 20.143066
62.110 20.478632
62.115 19.97205
62.120 19.218712
62.125 18.445076
62.130 17.879799
62.135 17.990883
62.140 18.115925
62.145 17.928293
62.150 18.008093
62.155 18.09173
62.160 18.337805
62.165 18.238752
62.170 18.351387
62.175 18.204245
62.180 17.985159
62.185 18.095924
62.190 18.034019
62.195 18.43721
62.200 18.754116
62.205 18.634666
62.210 18.387373
62.215 18.263069
62.220 18.061621
62.225 18.373688
62.230 17.998951
62.235 17.49494
62.240 17.111948
62.245 17.657486
62.250 17.35092
62.255 17.207043
62.260 17.124083
62.265 17.396177
62.270 17.497469
62.275 17.774622
62.280 17.792784
62.285 18.611877
62.290 18.865009
62.295 18.942041
62.300 18.924072
62.305 18.424133
62.310 17.858641
62.315 17.023224
62.320 16.500942
62.325 15.943565
62.330 15.232154
62.335 14.97205
62.340 14.72401
62.345 15.128077
62.350 15.495799
62.355 15.900062
62.360 16.243481
62.365 16.689186
62.370 17.201452
62.375 17.731377
62.380 17.745878
62.385 17.415745
62.390 16.964905
62.395 17.26346
62.400 17.36656
62.405 17.400667
62.410 17.614014
62.415 17.523766
62.420 17.907658
62.425 18.339331
62.430 18.572914
62.435 18.783514
62.440 18.662161
62.445 18.858309
62.450 18.651989
62.455 18.452995
62.460 18.637011
62.465 17.97797
62.470 17.653193
62.475 17.421694
62.480 16.984167
62.485 16.820478
62.490 17.097326
62.495 17.053652
62.500 17.388153
62.505 17.270229
62.510 17.42753
62.515 17.745489
62.520 17.564486
62.525 17.363935
62.530 17.156645
62.535 17.3274
62.540 17.253576
62.545 16.822359
62.550 16.553747
62.555 17.438484
62.560 16.914989
62.565 16.96512
62.570 16.582577
62.575 16.656952
62.580 16.820578
62.585 17.220249
62.590 17.464745
62.595 17.992702
62.600 17.696346
62.605 18.259863
62.610 18.299036
62.615 18.819201
62.620 18.797211
62.625 18.350813
62.630 18.430283
62.635 18.977537
62.640 18.909225
62.645 19.00536
62.650 18.495028
62.655 18.009222
62.660 18.053928
62.665 18.465521
62.670 18.389538
62.675 18.592163
62.680 18.601757
62.685 18.800013
62.690 19.532036
62.695 19.707737
62.700 19.599356
62.705 19.533766
62.710 19.175993
62.715 19.203114
62.720 19.184479
62.725 19.309656
62.730 18.996277
62.735 18.933716
62.740 18.622488
62.745 18.444738
62.750 18.285137
62.755 18.17432
62.760 17.438828
62.765 17.083469
62.770 16.744133
62.775 16.826426
62.780 16.924585
62.785 17.082067
62.790 16.738335
62.795 17.160618
62.800 17.937838
62.805 18.203465
62.810 18.516603
62.815 18.629698
62.820 19.234657
62.825 19.534706
62.830 19.897646
62.835 19.904751
62.840 20.060528
62.845 19.994524
62.850 19.875708
62.855 19.501362
62.860 19.755329
62.865 18.503317
62.870 17.579891
62.875 16.978691
62.880 15.789886
62.885 14.967003
62.890 14.378361
62.895 13.929055
62.900 14.586168
62.905 14.920594
62.910 15.609326
62.915 16.429701
62.920 17.005795
62.925 17.617496
62.930 17.845793
62.935 17.53281
62.940 17.759094
62.945 17.728354
62.950 17.402288
62.955 17.52002
62.960 17.405479
62.965 18.098112
62.970 18.473612
62.975 18.383129
62.980 18.081827
62.985 18.51495
62.990 18.776203
62.995 18.676804
63.000 17.801933
63.005 17.725626
63.010 17.719217
63.015 17.731537
63.020 17.607841
63.025 17.189199
63.030 16.796055
63.035 16.993748
63.040 16.873758
63.045 17.256521
63.050 17.869793
63.055 18.289597
63.060 18.501265
63.065 18.798628
63.070 19.153454
63.075 19.223194
63.080 18.726204
63.085 18.63175
63.090 18.109756
63.095 18.064346
63.100 18.110058
63.105 17.827532
63.110 17.593166
63.115 17.435371
63.120 17.263006
63.125 17.199883
63.130 16.732752
63.135 16.430717
63.140 16.068676
63.145 15.785855
63.150 15.643363
63.155 15.529511
63.160 15.503592
63.165 15.543319
63.170 15.610015
63.175 16.122044
63.180 16.304585
63.185 16.020775
63.190 16.042938
63.195 16.256895
63.200 16.449905
63.205 16.490282
63.210 16.906256
63.215 17.459667
63.220 17.713293
63.225 17.37219
63.230 17.136862
63.235 17.327065
63.240 17.507971
63.245 17.042955
63.250 16.852924
63.255 17.098248
63.260 17.68684
63.265 17.867332
63.270 17.658649
63.275 17.671656
63.280 17.630938
63.285 17.474693
63.290 18.08304
63.295 18.115372
63.300 18.420069
63.305 18.836735
63.310 18.801643
63.315 18.641512
63.320 18.877871
63.325 18.358126
63.330 18.455036
63.335 18.615103
63.340 18.285065
63.345 18.241129
63.350 18.343498
63.355 18.205013
63.360 17.690458
63.365 17.112734
63.370 17.777094
63.375 18.914028
63.380 19.165054
63.385 19.508251
63.390 19.167387
63.395 19.061895
63.400 19.566252
63.405 18.69101
63.410 17.707476
63.415 17.395172
63.420 17.062813
63.425 17.835617
63.430 18.643192
63.435 18.176853
63.440 18.37923
63.445 18.568316
63.450 18.811716
63.455 19.256245
63.460 18.930805
63.465 19.399632
63.470 19.657322
63.475 19.467333
63.480 19.735203
63.485 19.692873
63.490 19.705969
63.495 19.568977
63.500 19.324532
63.505 19.466928
63.510 19.213741
63.515 18.38702
63.520 17.990368
63.525 17.638729
63.530 18.149912
63.535 17.992661
63.540 17.73768
63.545 17.621275
63.550 17.845453
63.555 18.34977
63.560 18.222631
63.565 17.654343
63.570 17.330673
63.575 17.60306
63.580 17.607204
63.585 17.391054
63.590 17.315973
63.595 17.344368
63.600 17.594053
63.605 17.671556
63.610 17.460829
63.615 17.469376
63.620 18.219877
63.625 18.226017
63.630 18.663218
63.635 18.629341
63.640 18.654669
63.645 18.674231
63.650 19.154491
63.655 18.793491
63.660 18.878807
63.665 19.269474
63.670 19.51408
63.675 19.24522
63.680 19.171848
63.685 19.297371
63.690 19.461308
63.695 19.405268
63.700 19.170525
63.705 19.161978
63.710 19.771799
63.715 19.872009
63.720 19.515112
63.725 19.209692
63.730 18.780659
63.735 18.436424
63.740 18.170809
63.745 18.056532
63.750 18.687008
63.755 18.496786
63.760 18.698397
63.765 18.933044
63.770 19.277744
63.775 19.609982
63.780 19.394196
63.785 19.361176
63.790 19.180481
63.795 18.850721
63.800 18.614077
63.805 18.62035
63.810 18.378996
63.815 18.29715
63.820 17.511227
63.825 18.403082
63.830 18.799252
63.835 18.771996
63.840 18.422457
63.845 18.793869
63.850 19.060894
63.855 19.271416
63.860 19.319826
63.865 19.096985
63.870 19.104616
63.875 18.991432
63.880 18.841578
63.885 19.076195
63.890 18.891188
63.895 18.599949
63.900 18.679651
63.905 18.77379
63.910 19.337553
63.915 19.32634
63.920 19.2929
63.925 19.289795
63.930 18.651915
63.935 18.078533
63.940 17.555492
63.945 16.933615
63.950 16.531069
63.955 16.423382
63.960 16.775444
63.965 17.029192
63.970 17.872463
63.975 18.420813
63.980 18.660212
63.985 18.965879
63.990 19.010199
63.995 19.039593
64.000 19.541395
64.005 19.634151
64.010 19.782061
64.015 20.195637
64.020 20.270027
64.025 20.369333
64.030 20.684668
64.035 20.437647
64.040 20.425695
64.045 20.207901
64.050 19.744854
64.055 19.099226
64.060 18.868652
64.065 18.308437
64.070 18.163416
64.075 17.488123
64.080 17.326607
64.085 17.511047
64.090 17.463375
64.095 17.417551
64.100 17.603954
64.105 18.007341
64.110 17.784761
64.115 17.963419
64.120 18.213795
64.125 18.353371
64.130 18.659931
64.135 18.627613
64.140 18.140858
64.145 18.805862
64.150 18.794605
64.155 18.55558
64.160 18.40844
64.165 17.99091
64.170 18.085575
64.175 18.495956
64.180 18.896776
64.185 18.831553
64.190 18.819313
64.195 19.284168
64.200 19.452194
64.205 18.896675
64.210 18.143837
64.215 17.52561
64.220 17.654301
64.225 17.363235
64.230 16.761339
64.235 16.53644
64.240 17.3953
64.245 18.088099
64.250 17.845083
64.255 17.648722
64.260 18.239532
64.265 18.270119
64.270 18.27334
64.275 17.642632
64.280 17.122461
64.285 17.233152
64.290 17.179758
64.295 17.799597
64.300 17.914194
64.305 17.941278
64.310 18.304607
64.315 18.546757
64.320 18.505131
64.325 18.596437
64.330 18.267023
64.335 18.271606
64.340 18.531242
64.345 18.872396
64.350 19.534107
64.355 20.398321
64.360 20.656898
64.365 20.345482
64.370 20.588923
64.375 20.677572
64.380 20.829626
64.385 20.328634
64.390 19.70306
64.395 19.900385
64.400 20.01903
64.405 20.374832
64.410 20.331213
64.415 20.310635
64.420 20.971783
64.425 21.435896
64.430 21.021997
64.435 21.168137
64.440 20.983934
64.445 20.645975
64.450 20.575073
64.455 19.857992
64.460 19.819845
64.465 20.146046
64.470 20.451826
64.475 20.774326
64.480 20.789783
64.485 20.213682
64.490 20.043692
64.495 19.76906
64.500 18.834126
64.505 18.616077
64.510 18.452219
64.515 18.748911
64.520 19.011097
64.525 18.836418
64.530 19.009453
64.535 19.511572
64.540 18.780281
64.545 18.851366
64.550 18.943798
64.555 19.105341
64.560 19.646204
64.565 19.508835
64.570 19.986708
64.575 20.751926
64.580 20.451136
64.585 20.302536
64.590 20.253784
64.595 20.043716
64.600 19.644136
64.605 19.104067
64.610 18.96228
64.615 19.315371
64.620 19.476322
64.625 19.326071
64.630 19.11364
64.635 19.849934
64.640 19.834305
64.645 19.784374
64.650 19.91515
64.655 19.777714
64.660 20.158978
64.665 19.917839
64.670 19.754381
64.675 19.711445
64.680 19.28401
64.685 19.132345
64.690 19.56175
64.695 19.833628
64.700 20.20285
64.705 20.011072
64.710 20.761692
64.715 21.245346
64.720 21.026237
64.725 20.73354
64.730 20.259552
64.735 20.282063
64.740 20.288258
64.745 19.874269
64.750 19.619146
64.755 19.653662
64.760 19.624306
64.765 19.877245
64.770 20.176462
64.775 20.341488
64.780 20.643913
64.785 20.63151
64.790 20.298607
64.795 20.192341
64.800 20.130444
64.805 20.346098
64.810 20.287107
64.815 19.601505
64.820 20.225708
64.825 20.510489
64.830 20.594105
64.835 20.894594
64.840 20.589985
64.845 21.222937
64.850 21.791286
64.855 20.85713
64.860 21.164083
64.865 20.833483
64.870 20.421951
64.875 20.451609
64.880 20.41209
64.885 19.997828
64.890 20.104853
64.895 19.985771
64.900 19.870615
64.905 19.804634
64.910 19.652174
64.915 19.604647
64.920 20.389994
64.925 20.64332
64.930 21.040791
64.935 21.807364
64.940 22.121984
64.945 22.236528
64.950 22.16538
64.955 22.488066
64.960 22.766609
64.965 22.109243
64.970 21.402134
64.975 20.944239
64.980 20.906563
64.985 21.199415
64.990 21.127607
64.995 20.950459
65.000 21.554247
65.005 21.941788
65.010 22.190706
65.015 21.684963
65.020 21.406572
65.025 21.295462
65.030 21.538761
65.035 22.307516
65.040 22.761761
65.045 23.335224
65.050 23.730207
65.055 24.057137
65.060 24.216238
65.065 24.103827
65.070 23.464478
65.075 23.224016
65.080 22.976379
65.085 22.697666
65.090 22.636267
65.095 22.516857
65.100 22.206804
65.105 22.192808
65.110 21.894072
65.115 21.492027
65.120 21.82498
65.125 20.79422
65.130 20.743454
65.135 20.490065
65.140 20.486662
65.145 21.052683
65.150 21.370619
65.155 21.912523
65.160 22.701494
65.165 23.27927
65.170 23.911755
65.175 23.429165
65.180 23.161781
65.185 23.346964
65.190 23.054407
65.195 22.751013
65.200 21.948793
65.205 21.870924
65.210 22.844973
65.215 22.723021
65.220 22.371567
65.225 22.613289
65.230 22.727123
65.235 22.657942
65.240 23.289183
65.245 23.661373
65.250 24.019758
65.255 24.609098
65.260 24.419987
65.265 24.842989
65.270 25.396351
65.275 24.746544
65.280 24.294985
65.285 24.275848
65.290 23.987976
65.295 23.874737
65.300 23.775419
65.305 23.816658
65.310 23.623621
65.315 23.550005
65.320 23.905289
65.325 23.934189
65.330 23.679529
65.335 23.503681
65.340 23.120848
65.345 23.846405
65.350 23.747242
65.355 23.345421
65.360 23.342304
65.365 23.717833
65.370 23.813993
65.375 24.421831
65.380 24.187748
65.385 24.267359
65.390 24.455343
65.395 24.172243
65.400 24.126385
65.405 23.885233
65.410 23.802126
65.415 24.201021
65.420 24.21899
65.425 24.401873
65.430 25.436588
65.435 26.584969
65.440 27.116192
65.445 26.435564
65.450 26.624939
65.455 26.421173
65.460 26.349142
65.465 25.722572
65.470 24.689638
65.475 24.388731
65.480 24.916721
65.485 24.529312
65.490 24.718981
65.495 24.951496
65.500 25.561354
65.505 26.024359
65.510 27.026478
65.515 27.429522
65.520 27.570711
65.525 27.674168
65.530 27.738932
65.535 27.54426
65.540 28.059786
65.545 28.038477
65.550 27.68368
65.555 27.71608
65.560 27.435343
65.565 27.261747
65.570 27.28755
65.575 27.449293
65.580 27.753687
65.585 28.048834
65.590 28.36861
65.595 28.851471
65.600 29.432737
65.605 29.829815
65.610 29.514044
65.615 29.238861
65.620 29.272808
65.625 29.77515
65.630 30.504408
65.635 30.652897
65.640 30.694078
65.645 31.180641
65.650 31.219421
65.655 31.132061
65.660 30.80689
65.665 30.672499
65.670 30.640024
65.675 30.51729
65.680 30.7005
65.685 31.439869
65.690 31.998009
65.695 32.075092
65.700 32.144569
65.705 32.171833
65.710 32.782406
65.715 33.918598
65.720 34.179024
65.725 34.227379
65.730 34.833626
65.735 34.990772
65.740 35.786976
65.745 35.750401
65.750 35.048302
65.755 35.528683
65.760 35.970734
65.765 36.108013
65.770 36.269527
65.775 35.706799
65.780 36.060249
65.785 36.78653
65.790 36.576664
65.795 36.268066
65.800 36.40559
65.805 36.960072
65.810 36.905453
65.815 36.610447
65.820 36.898567
65.825 37.518505
65.830 38.096027
65.835 38.012848
65.840 38.385399
65.845 38.355156
65.850 37.937904
65.855 37.866005
65.860 37.827972
65.865 37.944405
65.870 37.932667
65.875 37.555965
65.880 37.596939
65.885 38.078354
65.890 37.933891
65.895 37.806877
65.900 37.620117
65.905 36.925045
65.910 37.501724
65.915 38.384205
65.920 39.429356
65.925 40.51189
65.930 40.907967
65.935 41.573902
65.940 42.132267
65.945 41.314686
65.950 40.591545
65.955 40.158905
65.960 40.036201
65.965 39.913689
65.970 40.573982
65.975 40.904369
65.980 41.32198
65.985 41.582214
65.990 41.235973
65.995 40.60759
66.000 40.554401
66.005 39.620598
66.010 39.920967
66.015 39.248089
66.020 38.897007
66.025 38.799458
66.030 38.468513
66.035 38.515354
66.040 38.786766
66.045 38.381355
66.050 38.907711
66.055 38.722481
66.060 38.347347
66.065 38.847511
66.070 39.375675
66.075 39.838791
66.080 40.241215
66.085 40.201588
66.090 40.747181
66.095 40.550774
66.100 38.909615
66.105 38.020962
66.110 37.476463
66.115 37.221767
66.120 37.060143
66.125 36.614853
66.130 37.170002
66.135 37.573162
66.140 36.915413
66.145 36.690948
66.150 37.094276
66.155 36.70192
66.160 36.010887
66.165 35.848328
66.170 37.162277
66.175 37.618626
66.180 37.302681
66.185 36.785988
66.190 37.232178
66.195 37.239231
66.200 36.391071
66.205 35.24308
66.210 34.698589
66.215 35.312721
66.220 35.899746
66.225 36.317471
66.230 37.229687
66.235 37.384422
66.240 37.556942
66.245 38.155602
66.250 36.947716
66.255 35.926765
66.260 35.618492
66.265 35.018578
66.270 34.853348
66.275 34.335052
66.280 34.011539
66.285 34.740189
66.290 35.592907
66.295 35.072998
66.300 35.209824
66.305 35.600956
66.310 35.062256
66.315 34.846233
66.320 34.748764
66.325 34.494442
66.330 33.604862
66.335 32.427006
66.340 31.60634
66.345 31.869104
66.350 31.266356
66.355 30.478445
66.360 30.377964
66.365 30.90028
66.370 31.353546
66.375 32.398052
66.380 32.2813
66.385 32.743305
66.390 32.754471
66.395 32.244408
66.400 31.715527
66.405 31.332008
66.410 30.799349
66.415 30.557329
66.420 30.278534
66.425 30.35428
66.430 30.502655
66.435 30.533274
66.440 30.5825
66.445 29.957792
66.450 29.622911
66.455 29.21508
66.460 28.899483
66.465 28.647001
66.470 29.076359
66.475 28.896952
66.480 29.784456
66.485 29.650347
66.490 29.656395
66.495 29.364939
66.500 29.168503
66.505 28.75201
66.510 28.242733
66.515 28.006041
66.520 27.92882
66.525 28.507488
66.530 28.947964
66.535 28.983072
66.540 29.380718
66.545 29.219711
66.550 28.488811
66.555 27.914518
66.560 26.682467
66.565 26.681982
66.570 26.583582
66.575 26.277279
66.580 25.99045
66.585 25.735607
66.590 26.137756
66.595 26.66473
66.600 26.573343
66.605 26.584265
66.610 26.422634
66.615 26.663034
66.620 26.304348
66.625 26.13537
66.630 26.016497
66.635 24.594872
66.640 24.472834
66.645 24.411547
66.650 24.55011
66.655 24.480629
66.660 24.742052
66.665 24.86125
66.670 25.872721
66.675 26.185316
66.680 26.744041
66.685 27.579569
66.690 28.750931
66.695 28.592403
66.700 28.945999
66.705 28.939917
66.710 29.142315
66.715 28.796625
66.720 27.921303
66.725 27.161747
66.730 26.504541
66.735 26.11651
66.740 25.997902
66.745 25.132311
66.750 24.615505
66.755 24.217567
66.760 23.721346
66.765 23.918953
66.770 23.411238
66.775 23.400867
66.780 24.04443
66.785 23.874889
66.790 23.788605
66.795 24.122238
66.800 23.773603
66.805 24.223015
66.810 24.400208
66.815 23.957111
66.820 23.892345
66.825 24.127468
66.830 24.653263
66.835 25.201746
66.840 25.022581
66.845 24.966734
66.850 25.327215
66.855 25.628338
66.860 25.733599
66.865 25.487629
66.870 25.070091
66.875 24.099424
66.880 23.56119
66.885 22.743565
66.890 22.312023
66.895 21.41353
66.900 20.706648
66.905 20.952923
66.910 21.755402
66.915 22.364729
66.920 22.731501
66.925 23.21594
66.930 23.908733
66.935 24.431803
66.940 23.942812
66.945 23.924213
66.950 23.675533
66.955 23.580095
66.960 23.546335
66.965 23.047974
66.970 22.960236
66.975 23.184141
66.980 23.118582
66.985 23.237055
66.990 23.496698
66.995 23.826813
67.000 24.300289
67.005 24.473108
67.010 24.112576
67.015 23.486158
67.020 23.060682
67.025 22.859747
67.030 22.808134
67.035 22.533812
67.040 22.751623
67.045 23.184294
67.050 23.701719
67.055 23.785648
67.060 23.758802
67.065 23.94627
67.070 24.420111
67.075 24.391211
67.080 24.888586
67.085 24.944983
67.090 24.969816
67.095 24.927164
67.100 24.318464
67.105 23.820673
67.110 23.584507
67.115 22.806137
67.120 22.759556
67.125 23.089705
67.130 23.537151
67.135 23.549631
67.140 23.818768
67.145 23.78137
67.150 23.764639
67.155 23.379526
67.160 22.841337
67.165 22.306753
67.170 22.173933
67.175 21.400343
67.180 21.388565
67.185 21.488876
67.190 21.74156
67.195 22.432333
67.200 22.090208
67.205 21.707127
67.210 21.81727
67.215 21.918852
67.220 21.958111
67.225 22.039896
67.230 21.928989
67.235 22.213602
67.240 22.80477
67.245 23.007713
67.250 23.441343
67.255 23.754375
67.260 23.212536
67.265 23.331963
67.270 23.593605
67.275 23.553379
67.280 22.939726
67.285 22.608919
67.290 22.199186
67.295 21.867073
67.300 21.936102
67.305 22.222858
67.310 22.318195
67.315 22.517197
67.320 22.553732
67.325 23.214975
67.330 23.373764
67.335 22.796953
67.340 22.408485
67.345 22.215317
67.350 22.45265
67.355 21.996157
67.360 21.397322
67.365 21.642658
67.370 21.764315
67.375 21.664326
67.380 22.001842
67.385 21.892958
67.390 22.179285
67.395 22.07336
67.400 21.443819
67.405 21.258072
67.410 21.546751
67.415 21.787991
67.420 21.000731
67.425 20.196976
67.430 19.738686
67.435 20.313215
67.440 20.662294
67.445 20.751127
67.450 20.438942
67.455 21.428139
67.460 21.864393
67.465 22.130754
67.470 21.616117
67.475 21.310566
67.480 21.681274
67.485 21.929501
67.490 21.702257
67.495 22.532696
67.500 23.433689
67.505 23.474644
67.510 23.083649
67.515 23.101717
67.520 23.137745
67.525 23.047213
67.530 22.293718
67.535 21.679564
67.540 21.498304
67.545 21.512272
67.550 21.305548
67.555 20.933113
67.560 20.96287
67.565 21.130194
67.570 21.064226
67.575 21.602491
67.580 21.275026
67.585 21.564449
67.590 22.316027
67.595 22.519461
67.600 22.862032
67.605 23.101986
67.610 23.10722
67.615 23.369452
67.620 23.244396
67.625 22.985956
67.630 23.455782
67.635 23.115366
67.640 22.940334
67.645 23.228027
67.650 23.049559
67.655 22.645332
67.660 22.145992
67.665 21.538595
67.670 21.660837
67.675 21.725819
67.680 21.550316
67.685 21.668522
67.690 21.45191
67.695 21.361036
67.700 21.966137
67.705 21.650152
67.710 22.009975
67.715 22.450981
67.720 23.155024
67.725 23.368799
67.730 23.263838
67.735 23.159372
67.740 23.054411
67.745 22.609627
67.750 21.907106
67.755 21.316051
67.760 21.378559
67.765 21.497564
67.770 20.904732
67.775 21.105497
67.780 20.868151
67.785 20.689909
67.790 20.955252
67.795 20.992413
67.800 21.057949
67.805 21.378504
67.810 21.568346
67.815 22.051695
67.820 22.107937
67.825 21.868103
67.830 21.771282
67.835 21.707977
67.840 22.004959
67.845 22.334843
67.850 21.780321
67.855 21.93931
67.860 21.928963
67.865 21.94445
67.870 22.019613
67.875 21.432306
67.880 20.795849
67.885 21.056036
67.890 21.065561
67.895 21.241108
67.900 21.609173
67.905 21.474321
67.910 21.737427
67.915 21.903341
67.920 22.046289
67.925 22.134253
67.930 21.857676
67.935 20.986666
67.940 21.177723
67.945 21.36068
67.950 21.097635
67.955 20.481054
67.960 20.045752
67.965 20.226763
67.970 20.307171
67.975 19.985579
67.980 20.369581
67.985 20.46925
67.990 20.636024
67.995 20.295061
68.000 20.093903
68.005 20.88331
68.010 20.921627
68.015 20.95347
68.020 21.392645
68.025 21.789364
68.030 21.564634
68.035 21.833376
68.040 21.214205
68.045 20.928059
68.050 20.663691
68.055 19.934429
68.060 19.746838
68.065 20.329304
68.070 19.804659
68.075 19.996393
68.080 20.187737
68.085 20.724068
68.090 21.160351
68.095 20.788544
68.100 20.684605
68.105 20.429819
68.110 19.97579
68.115 19.995058
68.120 20.090542
68.125 20.284111
68.130 20.752934
68.135 21.399181
68.140 21.748211
68.145 21.621778
68.150 21.191204
68.155 20.573902
68.160 20.626909
68.165 20.209316
68.170 19.840128
68.175 20.370174
68.180 19.819721
68.185 19.809427
68.190 20.487804
68.195 21.116297
68.200 21.75034
68.205 22.677454
68.210 23.435621
68.215 24.393036
68.220 24.599255
68.225 23.91783
68.230 23.790567
68.235 23.755497
68.240 23.242914
68.245 22.925226
68.250 22.455864
68.255 22.240387
68.260 22.138783
68.265 22.032558
68.270 22.281595
68.275 21.748974
68.280 21.302418
68.285 21.399216
68.290 21.357824
68.295 21.517817
68.300 20.787123
68.305 20.201706
68.310 20.253813
68.315 20.436804
68.320 20.621244
68.325 20.659502
68.330 21.18298
68.335 21.802069
68.340 22.496246
68.345 22.455673
68.350 22.074919
68.355 22.210487
68.360 22.258446
68.365 22.02739
68.370 21.443718
68.375 20.593699
68.380 20.997084
68.385 22.02771
68.390 22.592825
68.395 22.780111
68.400 22.337523
68.405 23.092106
68.410 23.549961
68.415 22.681726
68.420 22.137613
68.425 21.485365
68.430 20.927683
68.435 21.273401
68.440 21.216534
68.445 21.519539
68.450 22.221712
68.455 22.431
68.460 22.064577
68.465 22.358522
68.470 21.458574
68.475 20.954565
68.480 20.982464
68.485 20.20318
68.490 20.302046
68.495 20.873772
68.500 20.928631
68.505 21.777634
68.510 22.017939
68.515 21.848436
68.520 21.969107
68.525 22.204365
68.530 22.257233
68.535 22.539257
68.540 22.367949
68.545 21.59816
68.550 21.467663
68.555 21.81846
68.560 21.208796
68.565 20.925373
68.570 20.708977
68.575 20.678354
68.580 21.051384
68.585 21.248978
68.590 21.290401
68.595 21.43578
68.600 21.349644
68.605 21.038607
68.610 20.883047
68.615 21.087236
68.620 21.412382
68.625 21.415152
68.630 21.790438
68.635 22.25749
68.640 22.477797
68.645 22.590416
68.650 22.331884
68.655 22.448372
68.660 22.514582
68.665 22.316252
68.670 22.209974
68.675 22.446325
68.680 22.815069
68.685 23.131859
68.690 22.90913
68.695 23.362947
68.700 22.867748
68.705 23.170364
68.710 22.941103
68.715 22.870502
68.720 22.79417
68.725 23.223391
68.730 23.050571
68.735 23.241081
68.740 22.512539
68.745 22.381901
68.750 22.213459
68.755 22.78912
68.760 22.352932
68.765 22.069977
68.770 22.23988
68.775 22.863567
68.780 22.974957
68.785 22.78026
68.790 22.032877
68.795 22.228828
68.800 22.323866
68.805 22.210901
68.810 22.090149
68.815 21.782856
68.820 21.968615
68.825 22.525
68.830 22.684793
68.835 22.706163
68.840 22.693405
68.845 22.929121
68.850 23.178164
68.855 23.53109
68.860 23.168474
68.865 22.550364
68.870 22.785286
68.875 22.643209
68.880 22.435619
68.885 22.143654
68.890 22.173206
68.895 22.681208
68.900 23.894566
68.905 24.269947
68.910 24.910795
68.915 25.601776
68.920 25.936695
68.925 25.805752
68.930 25.393805
68.935 24.034166
68.940 23.709829
68.945 23.465879
68.950 23.235579
68.955 23.648684
68.960 23.818102
68.965 23.965359
68.970 24.62221
68.975 24.383215
68.980 24.63299
68.985 24.963697
68.990 24.589451
68.995 23.995836
69.000 24.071369
69.005 24.654337
69.010 25.07692
69.015 25.408089
69.020 24.803305
69.025 24.660774
69.030 25.049627
69.035 25.097343
69.040 24.979856
69.045 24.711376
69.050 24.523445
69.055 25.024303
69.060 25.67458
69.065 26.070196
69.070 25.864952
69.075 25.907515
69.080 25.717169
69.085 25.506094
69.090 25.728607
69.095 25.850969
69.100 26.650761
69.105 27.114946
69.110 27.142336
69.115 27.528955
69.120 27.040913
69.125 26.956337
69.130 26.033213
69.135 24.76226
69.140 24.576801
69.145 24.326389
69.150 24.224197
69.155 24.757759
69.160 25.04933
69.165 25.201113
69.170 25.285599
69.175 25.456129
69.180 26.094965
69.185 26.862379
69.190 26.968275
69.195 26.556232
69.200 27.026297
69.205 27.760475
69.210 28.04027
69.215 27.674385
69.220 27.137011
69.225 27.40732
69.230 27.447884
69.235 26.533825
69.240 25.868927
69.245 26.111332
69.250 26.183874
69.255 26.504124
69.260 26.943546
69.265 27.020737
69.270 27.629183
69.275 27.646194
69.280 27.470146
69.285 27.968958
69.290 28.217218
69.295 27.853739
69.300 27.770662
69.305 27.844439
69.310 28.258595
69.315 27.52033
69.320 26.728823
69.325 26.261967
69.330 26.513792
69.335 26.639874
69.340 26.382629
69.345 26.556398
69.350 26.873234
69.355 27.487484
69.360 27.179106
69.365 27.111261
69.370 26.567684
69.375 26.497379
69.380 26.750612
69.385 27.218176
69.390 27.622564
69.395 28.244579
69.400 28.546103
69.405 29.30048
69.410 29.972071
69.415 29.731243
69.420 29.632126
69.425 29.422106
69.430 29.9097
69.435 30.692493
69.440 31.467855
69.445 31.20396
69.450 31.232988
69.455 31.084053
69.460 30.424028
69.465 29.289116
69.470 28.85734
69.475 27.825756
69.480 27.853275
69.485 27.806931
69.490 27.760014
69.495 28.436417
69.500 28.991055
69.505 28.832657
69.510 29.339605
69.515 30.043209
69.520 30.675611
69.525 30.681623
69.530 30.042635
69.535 29.926117
69.540 30.535477
69.545 30.533566
69.550 30.325903
69.555 29.883959
69.560 29.579851
69.565 29.456472
69.570 30.140589
69.575 30.132963
69.580 29.99601
69.585 29.619526
69.590 29.896408
69.595 30.646891
69.600 30.218245
69.605 29.538181
69.610 29.261042
69.615 29.071575
69.620 28.705606
69.625 28.209949
69.630 28.16404
69.635 28.401436
69.640 27.953012
69.645 27.873602
69.650 28.02935
69.655 28.670567
69.660 28.767452
69.665 29.213881
69.670 29.186405
69.675 29.806484
69.680 30.04985
69.685 30.531643
69.690 30.091845
69.695 29.822218
69.700 29.833456
69.705 29.77161
69.710 29.574711
69.715 29.153088
69.720 28.855238
69.725 28.712122
69.730 28.297638
69.735 27.989653
69.740 28.253836
69.745 27.9709
69.750 27.606344
69.755 27.001413
69.760 27.653671
69.765 28.246885
69.770 28.157141
69.775 27.442884
69.780 26.961693
69.785 26.821569
69.790 26.761715
69.795 26.245502
69.800 26.055534
69.805 25.597633
69.810 26.245443
69.815 26.565104
69.820 26.470203
69.825 26.391573
69.830 26.315628
69.835 26.400415
69.840 26.036652
69.845 25.04244
69.850 25.009596
69.855 25.10088
69.860 24.33984
69.865 24.227922
69.870 24.114807
69.875 24.855349
69.880 25.002121
69.885 25.176226
69.890 26.01195
69.895 26.542006
69.900 26.387871
69.905 26.17487
69.910 25.921192
69.915 25.687572
69.920 25.36421
69.925 24.911783
69.930 24.413374
69.935 23.77083
69.940 23.395979
69.945 23.129944
69.950 23.056536
69.955 22.46324
69.960 22.006618
69.965 21.887548
69.970 21.714321
69.975 21.83391
69.980 21.49753
69.985 22.109764
69.990 22.893583
69.995 22.676416
70.000 22.437855
70.005 22.403862
70.010 22.430729
70.015 22.699341
70.020 22.231628
70.025 22.077564
70.030 22.313353
70.035 22.274294
70.040 22.389812
70.045 22.380808
70.050 21.813938
70.055 21.326305
70.060 21.494644
70.065 21.419956
70.070 21.41787
70.075 21.599482
70.080 21.670595
70.085 22.572521
70.090 23.000938
70.095 22.852673
70.100 23.522179
70.105 23.433168
70.110 22.816223
70.115 22.562607
70.120 22.21064
70.125 22.535122
70.130 22.480631
70.135 21.895414
70.140 21.948776
70.145 22.30583
70.150 22.460255
70.155 22.361065
70.160 22.120895
70.165 21.983076
70.170 22.098711
70.175 21.587162
70.180 21.373013
70.185 20.918171
70.190 20.722551
70.195 20.241882
70.200 20.45924
70.205 20.386917
70.210 20.674297
70.215 20.839746
70.220 21.160639
70.225 20.915171
70.230 20.672464
70.235 20.27886
70.240 20.2551
70.245 20.441378
70.250 20.659664
70.255 20.784613
70.260 21.017817
70.265 21.441048
70.270 21.805538
70.275 21.765348
70.280 21.8799
70.285 21.81031
70.290 21.38216
70.295 21.234537
70.300 21.239193
70.305 21.378023
70.310 21.798744
70.315 21.754
70.320 21.838568
70.325 21.921408
70.330 21.243496
70.335 20.741089
70.340 20.602432
70.345 20.195652
70.350 20.511539
70.355 20.611053
70.360 20.761755
70.365 21.334555
70.370 21.441631
70.375 21.363768
70.380 21.184469
70.385 20.69858
70.390 21.019567
70.395 21.094395
70.400 21.175617
70.405 21.070768
70.410 21.158388
70.415 21.035069
70.420 20.780289
70.425 20.905306
70.430 21.32913
70.435 20.77294
70.440 20.662821
70.445 20.209896
70.450 19.80933
70.455 19.252644
70.460 18.657484
70.465 18.758186
70.470 19.282146
70.475 19.663738
70.480 19.628706
70.485 19.340481
70.490 18.992069
70.495 18.505016
70.500 18.103678
70.505 17.860861
70.510 17.774141
70.515 18.232496
70.520 19.435171
70.525 19.810646
70.530 20.150784
70.535 20.163296
70.540 20.405321
70.545 20.412901
70.550 19.933502
70.555 19.891748
70.560 20.373825
70.565 20.400242
70.570 20.168434
70.575 20.151707
70.580 20.028009
70.585 20.412928
70.590 20.153614
70.595 20.399881
70.600 20.6467
70.605 20.400984
70.610 20.250404
70.615 19.84874
70.620 19.693308
70.625 19.543522
70.630 19.275221
70.635 19.402374
70.640 19.532658
70.645 19.161554
70.650 19.269913
70.655 19.00794
70.660 18.906593
70.665 18.366909
70.670 17.907679
70.675 17.656349
70.680 18.019852
70.685 18.535769
70.690 18.717926
70.695 18.891056
70.700 19.370197
70.705 19.677065
70.710 20.158249
70.715 20.3979
70.720 20.809887
70.725 20.23724
70.730 19.957445
70.735 19.985777
70.740 20.021667
70.745 19.835068
70.750 19.279085
70.755 19.849943
70.760 20.005064
70.765 19.711031
70.770 19.379211
70.775 19.027502
70.780 19.218443
70.785 19.180515
70.790 19.034912
70.795 19.502172
70.800 19.774612
70.805 20.214369
70.810 20.7101
70.815 20.487743
70.820 20.928562
70.825 20.771311
70.830 21.065926
70.835 20.77293
70.840 20.606686
70.845 20.30246
70.850 20.071516
70.855 19.102654
70.860 19.232079
70.865 19.024448
70.870 18.925224
70.875 18.409225
70.880 18.395397
70.885 18.654457
70.890 18.865776
70.895 18.838892
70.900 18.411526
70.905 18.280025
70.910 18.748856
70.915 18.741535
70.920 18.380434
70.925 17.859356
70.930 17.425144
70.935 18.436436
70.940 19.526945
70.945 19.451389
70.950 19.359829
70.955 19.329176
70.960 19.299824
70.965 18.935944
70.970 18.256987
70.975 17.547928
70.980 17.324577
70.985 17.620756
70.990 17.648174
70.995 18.477188
71.000 18.680298
71.005 18.968016
71.010 19.33688
71.015 19.569025
71.020 19.546633
71.025 19.521524
71.030 19.118416
71.035 19.488482
71.040 19.504826
71.045 19.564222
71.050 19.829432
71.055 20.198355
71.060 20.579426
71.065 20.231218
71.070 20.029882
71.075 19.597258
71.080 19.335157
71.085 19.417677
71.090 19.543671
71.095 20.063486
71.100 20.269556
71.105 20.177382
71.110 20.953228
71.115 20.891832
71.120 20.375891
71.125 19.213503
71.130 18.754519
71.135 18.813829
71.140 18.069067
71.145 17.330669
71.150 17.01569
71.155 17.436741
71.160 18.32576
71.165 18.300556
71.170 18.138084
71.175 18.477247
71.180 18.462591
71.185 18.017521
71.190 17.624063
71.195 17.515615
71.200 17.692259
71.205 18.625998
71.210 18.80114
71.215 19.325459
71.220 20.037682
71.225 20.019852
71.230 20.123501
71.235 19.990602
71.240 19.488287
71.245 19.182327
71.250 18.808422
71.255 18.999456
71.260 19.604597
71.265 20.215656
71.270 20.09197
71.275 20.314114
71.280 20.246363
71.285 20.284117
71.290 20.007551
71.295 19.979425
71.300 19.69359
71.305 20.026239
71.310 20.219044
71.315 20.383213
71.320 20.145094
71.325 19.518288
71.330 18.881226
71.335 18.916676
71.340 18.744055
71.345 18.013975
71.350 17.592493
71.355 17.963121
71.360 17.917488
71.365 17.876415
71.370 17.361073
71.375 18.110502
71.380 18.801407
71.385 19.137247
71.390 19.220905
71.395 19.300446
71.400 18.618782
71.405 18.078424
71.410 17.576525
71.415 17.624708
71.420 17.459616
71.425 17.488781
71.430 17.972513
71.435 18.356369
71.440 17.907579
71.445 17.441938
71.450 17.711409
71.455 18.078318
71.460 18.194139
71.465 18.315723
71.470 18.721741
71.475 19.786459
71.480 20.280083
71.485 19.869741
71.490 19.661438
71.495 19.981203
71.500 20.336504
71.505 19.751183
71.510 19.357901
71.515 19.061529
71.520 19.100809
71.525 19.192251
71.530 18.317005
71.535 18.466196
71.540 19.617048
71.545 19.665775
71.550 19.765139
71.555 19.780809
71.560 19.601999
71.565 19.943665
71.570 19.085222
71.575 18.193796
71.580 18.480913
71.585 18.877134
71.590 19.023598
71.595 19.557718
71.600 20.146923
71.605 20.684816
71.610 21.126881
71.615 20.720673
71.620 20.767736
71.625 20.189251
71.630 19.682926
71.635 18.808855
71.640 18.441908
71.645 17.449284
71.650 17.326815
71.655 16.843746
71.660 17.344835
71.665 17.33493
71.670 17.180984
71.675 17.670557
71.680 18.223749
71.685 18.055016
71.690 18.345419
71.695 17.976086
71.700 17.756838
71.705 17.973856
71.710 17.707891
71.715 17.510164
71.720 17.701099
71.725 17.778236
71.730 17.736166
71.735 17.872822
71.740 18.068163
71.745 18.302982
71.750 18.74295
71.755 17.900179
71.760 17.815189
71.765 18.375357
71.770 18.805037
71.775 18.680609
71.780 18.564123
71.785 18.223103
71.790 18.074162
71.795 17.917856
71.800 17.634989
71.805 17.190407
71.810 17.306164
71.815 17.607008
71.820 18.030283
71.825 18.315117
71.830 18.310459
71.835 18.320797
71.840 18.204025
71.845 18.496803
71.850 18.036913
71.855 18.047255
71.860 17.939058
71.865 18.076229
71.870 18.290314
71.875 18.94124
71.880 19.616505
71.885 19.625923
71.890 19.732647
71.895 20.404091
71.900 20.186262
71.905 20.569958
71.910 20.660568
71.915 19.801285
71.920 20.258196
71.925 19.710089
71.930 19.365923
71.935 19.670565
71.940 19.550058
71.945 19.319588
71.950 19.447254
71.955 20.08375
71.960 20.291492
71.965 20.820545
71.970 20.516762
71.975 19.631773
71.980 19.86985
71.985 19.887665
71.990 19.512352
71.995 19.689491
72.000 19.343309
72.005 20.007875
72.010 20.279306
72.015 20.039339
72.020 20.275383
72.025 20.279753
72.030 20.099859
72.035 20.045496
72.040 20.160662
72.045 20.365934
72.050 20.292137
72.055 19.717232
72.060 19.500746
72.065 19.819113
72.070 19.307812
72.075 18.40958
72.080 18.289005
72.085 18.410007
72.090 18.597149
72.095 18.674314
72.100 18.689276
72.105 19.00791
72.110 18.645105
72.115 18.373018
72.120 18.09314
72.125 17.882128
72.130 17.350225
72.135 17.164606
72.140 17.545437
72.145 17.838221
72.150 18.273788
72.155 18.508179
72.160 18.855711
72.165 19.098536
72.170 19.123753
72.175 19.609499
72.180 19.302626
72.185 18.674192
72.190 18.825859
72.195 19.149275
72.200 19.438326
72.205 18.559917
72.210 17.949688
72.215 17.228251
72.220 16.775427
72.225 15.91841
72.230 15.118366
72.235 15.796097
72.240 16.164803
72.245 16.606325
72.250 17.234715
72.255 17.225288
72.260 17.623465
72.265 17.467384
72.270 16.83256
72.275 17.215363
72.280 16.951254
72.285 17.025877
72.290 17.289534
72.295 17.641491
72.300 17.526773
72.305 17.659548
72.310 17.8452
72.315 18.613436
72.320 19.102081
72.325 19.34828
72.330 18.963085
72.335 19.100237
72.340 18.841734
72.345 18.357542
72.350 18.139708
72.355 18.415274
72.360 18.171434
72.365 18.047302
72.370 18.354103
72.375 19.073881
72.380 19.108046
72.385 18.803816
72.390 18.504251
72.395 18.658705
72.400 18.397631
72.405 17.984104
72.410 17.484289
72.415 17.70718
72.420 18.589544
72.425 18.849535
72.430 19.502567
72.435 20.227451
72.440 20.097828
72.445 20.309168
72.450 20.313696
72.455 19.734707
72.460 19.964678
72.465 19.993237
72.470 20.202717
72.475 19.72299
72.480 19.044443
72.485 18.587595
72.490 18.120611
72.495 17.630983
72.500 17.109461
72.505 17.325144
72.510 17.803513
72.515 17.868391
72.520 18.157145
72.525 18.109337
72.530 18.016298
72.535 18.0077
72.540 17.105253
72.545 17.184494
72.550 17.66815
72.555 17.338947
72.560 18.049988
72.565 18.095758
72.570 18.374973
72.575 18.067028
72.580 17.761272
72.585 17.934204
72.590 17.893013
72.595 18.030781
72.600 18.185339
72.605 18.124454
72.610 18.121288
72.615 17.438337
72.620 17.079042
72.625 16.916281
72.630 16.33193
72.635 16.282427
72.640 16.410753
72.645 16.663773
72.650 17.487026
72.655 17.993748
72.660 17.702549
72.665 17.42079
72.670 17.607996
72.675 17.862871
72.680 17.809729
72.685 17.436062
72.690 17.118916
72.695 17.848732
72.700 18.397816
72.705 18.11433
72.710 18.390701
72.715 18.52293
72.720 18.868883
72.725 18.31922
72.730 17.589769
72.735 17.561531
72.740 17.485731
72.745 17.571825
72.750 16.983932
72.755 16.774921
72.760 17.904085
72.765 18.109905
72.770 17.274258
72.775 16.510759
72.780 16.52541
72.785 16.968575
72.790 17.195845
72.795 15.979434
72.800 16.047169
72.805 16.612041
72.810 16.947542
72.815 16.892921
72.820 16.547865
72.825 16.480181
72.830 16.820004
72.835 17.226206
72.840 17.290487
72.845 17.369232
72.850 17.334743
72.855 18.012619
72.860 18.321627
72.865 17.753767
72.870 17.822838
72.875 18.293531
72.880 18.168146
72.885 17.719978
72.890 16.99489
72.895 17.230042
72.900 17.926264
72.905 17.613895
72.910 16.952263
72.915 17.08392
72.920 17.375637
72.925 17.721563
72.930 17.82184
72.935 17.370598
72.940 17.5495
72.945 17.825647
72.950 17.513191
72.955 17.716394
72.960 17.70105
72.965 17.572165
72.970 17.369568
72.975 16.906914
72.980 17.034348
72.985 17.141191
72.990 16.865835
72.995 16.867357
73.000 17.624947
