!@!!GADDS PLOTSO FILE: Chi integration type
!@!!Title/SampleName: map-8
!@!!Comment: ?
!@!!User: Bruker Instrument Administrator
!@!!Site: University of Illinois Chicago
!@!!Frame: map-8_01_000.gfrm
!@!!Wavelengths    1.54184   1.54056   1.54439
!@!!Frame angles: 2Theta: 63.000 Omega: 50.000 Phi: 0.000 Chi: 90.000
!@!!Integration range: 2Theta: 53.000 to 73.000  Gamma: -105.000 to -75.000
!@!!Integration method: bin normalized
!@!N
!@!SS
!@!M
!@!L 0.0 0.0 0.0 0.0
!@!XDegrees
!@!YCounts
53.000 7.232167
53.005 7.481576
53.010 7.602306
53.015 7.402626
53.020 7.107538
53.025 7.107978
53.030 7.121838
53.035 7.10739
53.040 6.562366
53.045 6.610786
53.050 6.975188
53.055 7.337382
53.060 7.939212
53.065 8.291536
53.070 8.15639
53.075 8.026327
53.080 7.787733
53.085 7.558004
53.090 6.982913
53.095 6.702572
53.100 6.760031
53.105 6.935381
53.110 7.081412
53.115 6.803215
53.120 6.994445
53.125 6.833202
53.130 6.666991
53.135 6.895415
53.140 7.186136
53.145 7.535127
53.150 7.704691
53.155 7.700931
53.160 7.693217
53.165 7.534213
53.170 6.893252
53.175 6.614266
53.180 6.252855
53.185 6.131984
53.190 6.180622
53.195 6.209178
53.200 6.632567
53.205 6.846026
53.210 6.794092
53.215 7.624763
53.220 7.699274
53.225 8.104581
53.230 8.205508
53.235 8.051734
53.240 8.002278
53.245 8.078901
53.250 7.798149
53.255 7.776563
53.260 7.748548
53.265 8.121607
53.270 8.211878
53.275 7.906262
53.280 7.813824
53.285 7.90836
53.290 8.176622
53.295 7.967056
53.300 7.608246
53.305 7.676019
53.310 8.044972
53.315 8.26003
53.320 8.186902
53.325 7.725934
53.330 7.413949
53.335 7.161738
53.340 7.068268
53.345 7.00967
53.350 6.711515
53.355 6.536058
53.360 6.912176
53.365 7.034935
53.370 7.254519
53.375 7.235703
53.380 7.144612
53.385 7.086589
53.390 7.054832
53.395 7.412603
53.400 7.628129
53.405 7.538311
53.410 7.481362
53.415 7.760615
53.420 7.997734
53.425 7.840342
53.430 7.512562
53.435 7.432686
53.440 7.340368
53.445 7.08926
53.450 7.021107
53.455 6.96539
53.460 6.708395
53.465 6.559312
53.470 6.463037
53.475 6.82242
53.480 7.140325
53.485 7.120764
53.490 7.578626
53.495 8.096701
53.500 8.517899
53.505 8.897733
53.510 8.76417
53.515 8.665929
53.520 8.528302
53.525 8.152227
53.530 7.815917
53.535 7.342306
53.540 7.32673
53.545 7.316655
53.550 7.082708
53.555 7.426764
53.560 7.577291
53.565 7.958406
53.570 8.464092
53.575 8.056427
53.580 8.186148
53.585 8.347107
53.590 8.086263
53.595 8.009522
53.600 7.791453
53.605 7.223002
53.610 7.165492
53.615 6.833964
53.620 6.742118
53.625 6.838787
53.630 6.794699
53.635 7.043875
53.640 7.203718
53.645 7.144119
53.650 7.229283
53.655 7.170594
53.660 7.140619
53.665 7.132744
53.670 7.122789
53.675 7.494633
53.680 7.946182
53.685 7.943741
53.690 7.99481
53.695 7.772738
53.700 7.493176
53.705 7.291156
53.710 7.317683
53.715 7.277109
53.720 7.196354
53.725 7.100411
53.730 7.323458
53.735 7.627415
53.740 7.5348
53.745 7.456327
53.750 7.540106
53.755 7.717407
53.760 8.258294
53.765 8.588807
53.770 8.715635
53.775 9.016982
53.780 8.992949
53.785 9.404638
53.790 9.416869
53.795 9.339785
53.800 9.408955
53.805 9.345342
53.810 9.218689
53.815 8.69258
53.820 8.211875
53.825 8.07022
53.830 7.776335
53.835 7.699946
53.840 7.696963
53.845 8.120551
53.850 8.565338
53.855 8.851789
53.860 8.911493
53.865 8.872124
53.870 8.440096
53.875 7.95598
53.880 7.867443
53.885 7.831602
53.890 7.91245
53.895 7.840594
53.900 7.839912
53.905 8.43248
53.910 8.619089
53.915 8.792268
53.920 8.82618
53.925 8.853919
53.930 9.489664
53.935 10.040977
53.940 10.078693
53.945 10.019512
53.950 9.494122
53.955 9.404572
53.960 9.038997
53.965 8.400124
53.970 7.687191
53.975 7.487237
53.980 7.594429
53.985 7.887234
53.990 8.013683
53.995 8.182255
54.000 8.178253
54.005 8.564255
54.010 8.722566
54.015 8.711523
54.020 8.348853
54.025 8.188537
54.030 7.98352
54.035 8.093013
54.040 8.01983
54.045 7.924471
54.050 7.982739
54.055 7.911132
54.060 8.011771
54.065 8.838005
54.070 8.584313
54.075 8.505335
54.080 8.698101
54.085 8.662275
54.090 8.738718
54.095 8.219175
54.100 7.678021
54.105 7.411904
54.110 7.455244
54.115 7.40037
54.120 7.424168
54.125 7.711543
54.130 7.950478
54.135 8.00658
54.140 8.527585
54.145 8.436007
54.150 8.198845
54.155 8.115613
54.160 8.393985
54.165 8.859109
54.170 8.961536
54.175 8.691939
54.180 8.716739
54.185 9.149389
54.190 9.152974
54.195 8.51684
54.200 8.450029
54.205 8.96943
54.210 9.159334
54.215 9.041236
54.220 9.182224
54.225 9.523084
54.230 9.668311
54.235 9.142735
54.240 8.326303
54.245 8.631372
54.250 9.115064
54.255 9.324409
54.260 9.231711
54.265 9.495839
54.270 10.169838
54.275 10.3345
54.280 10.010514
54.285 9.707636
54.290 9.56198
54.295 9.766762
54.300 10.197882
54.305 10.955754
54.310 11.243033
54.315 11.442453
54.320 11.288888
54.325 11.048073
54.330 10.431097
54.335 9.528831
54.340 8.901519
54.345 8.506465
54.350 8.309863
54.355 8.563333
54.360 8.987743
54.365 9.13494
54.370 8.837542
54.375 8.661118
54.380 8.598419
54.385 8.314939
54.390 7.818336
54.395 7.83627
54.400 8.151017
54.405 8.516801
54.410 8.935626
54.415 8.996037
54.420 9.05372
54.425 8.976615
54.430 8.249599
54.435 8.231546
54.440 8.534677
54.445 8.64982
54.450 8.741465
54.455 8.855494
54.460 9.192379
54.465 9.562387
54.470 9.363324
54.475 9.377244
54.480 9.689156
54.485 9.981058
54.490 9.852487
54.495 9.757863
54.500 10.028305
54.505 9.428473
54.510 8.694364
54.515 8.224601
54.520 7.862851
54.525 8.03704
54.530 8.161873
54.535 8.167212
54.540 8.906584
54.545 9.286502
54.550 9.857862
54.555 10.220597
54.560 10.137973
54.565 9.774889
54.570 9.500958
54.575 9.394957
54.580 9.519179
54.585 9.239908
54.590 9.303882
54.595 9.287797
54.600 9.705822
54.605 9.783493
54.610 9.687395
54.615 9.499308
54.620 9.088854
54.625 8.589568
54.630 8.53583
54.635 8.517107
54.640 8.554589
54.645 8.55179
54.650 8.442607
54.655 8.818619
54.660 9.010914
54.665 8.975327
54.670 8.837974
54.675 8.964841
54.680 8.981266
54.685 9.46973
54.690 9.791348
54.695 10.146156
54.700 10.124381
54.705 9.930573
54.710 9.936157
54.715 10.267145
54.720 9.649296
54.725 9.418935
54.730 9.358122
54.735 9.709651
54.740 9.789369
54.745 9.860802
54.750 9.40739
54.755 9.45544
54.760 9.641386
54.765 9.448717
54.770 9.30828
54.775 9.184504
54.780 9.325009
54.785 9.044154
54.790 8.947843
54.795 8.724782
54.800 9.147215
54.805 9.254534
54.810 9.184711
54.815 8.988288
54.820 9.704314
54.825 10.025537
54.830 9.817571
54.835 9.70544
54.840 9.728092
54.845 9.400332
54.850 9.361183
54.855 8.925425
54.860 8.751903
54.865 9.085856
54.870 9.501044
54.875 9.867723
54.880 10.465326
54.885 10.315237
54.890 10.348786
54.895 10.47503
54.900 9.929662
54.905 9.491703
54.910 9.28121
54.915 9.44886
54.920 9.877388
54.925 10.079462
54.930 9.912622
54.935 10.40835
54.940 10.277472
54.945 10.125012
54.950 10.168031
54.955 10.045568
54.960 10.05681
54.965 9.581482
54.970 9.145627
54.975 9.248685
54.980 9.2582
54.985 9.09923
54.990 8.9275
54.995 9.028108
55.000 9.40911
55.005 9.213914
55.010 9.182948
55.015 8.885128
55.020 8.057531
55.025 8.256172
55.030 8.204102
55.035 8.359363
55.040 8.672943
55.045 8.743814
55.050 9.032632
55.055 9.78582
55.060 9.635428
55.065 9.307165
55.070 9.171892
55.075 9.347491
55.080 9.336473
55.085 9.66356
55.090 9.660566
55.095 9.704755
55.100 9.904559
55.105 9.797894
55.110 9.304254
55.115 9.351567
55.120 9.090529
55.125 9.069811
55.130 9.20377
55.135 9.295224
55.140 9.403922
55.145 9.584121
55.150 9.48385
55.155 9.000213
55.160 9.588274
55.165 9.425349
55.170 9.648328
55.175 9.713046
55.180 9.871319
55.185 10.331133
55.190 10.377622
55.195 9.926857
55.200 10.210446
55.205 9.969721
55.210 10.167012
55.215 10.289741
55.220 10.159464
55.225 10.756486
55.230 10.687388
55.235 10.469358
55.240 10.272122
55.245 10.461075
55.250 10.320727
55.255 10.260241
55.260 9.691974
55.265 9.528152
55.270 10.364947
55.275 10.82205
55.280 10.545857
55.285 10.835793
55.290 10.497316
55.295 10.529696
55.300 11.041239
55.305 10.662276
55.310 10.60265
55.315 10.723336
55.320 10.669324
55.325 11.141752
55.330 11.508785
55.335 11.084387
55.340 11.305082
55.345 11.453966
55.350 11.333967
55.355 11.286832
55.360 10.845862
55.365 10.504762
55.370 10.338212
55.375 9.699747
55.380 9.289536
55.385 9.527603
55.390 9.667179
55.395 9.938256
55.400 10.065142
55.405 10.096287
55.410 10.17601
55.415 10.055357
55.420 9.862592
55.425 9.932755
55.430 10.093432
55.435 10.279266
55.440 10.781848
55.445 10.946864
55.450 11.14789
55.455 11.163672
55.460 11.045795
55.465 11.362031
55.470 11.617771
55.475 11.103713
55.480 10.987602
55.485 10.951941
55.490 11.331293
55.495 11.575003
55.500 10.857967
55.505 10.344255
55.510 10.295328
55.515 10.398867
55.520 10.117286
55.525 10.069798
55.530 9.819539
55.535 10.2092
55.540 10.759678
55.545 10.533846
55.550 10.726285
55.555 10.808221
55.560 10.458301
55.565 10.671919
55.570 10.308939
55.575 10.433048
55.580 10.576143
55.585 10.422553
55.590 10.419846
55.595 10.203428
55.600 9.721367
55.605 9.808629
55.610 9.900099
55.615 9.853329
55.620 9.822762
55.625 10.046711
55.630 9.920294
55.635 10.262268
55.640 10.433032
55.645 10.454711
55.650 10.263453
55.655 10.332438
55.660 10.1129
55.665 10.16406
55.670 10.070376
55.675 9.537654
55.680 9.664906
55.685 10.061601
55.690 10.127076
55.695 10.192104
55.700 10.493079
55.705 10.476345
55.710 10.66973
55.715 10.275716
55.720 9.961542
55.725 10.000854
55.730 10.277906
55.735 10.089093
55.740 10.414443
55.745 10.080812
55.750 10.339108
55.755 10.509533
55.760 10.597221
55.765 10.444857
55.770 10.30736
55.775 10.207226
55.780 10.755774
55.785 10.935559
55.790 10.857777
55.795 10.640977
55.800 10.509609
55.805 10.49687
55.810 10.316696
55.815 10.543732
55.820 10.417537
55.825 10.357843
55.830 10.525277
55.835 10.836877
55.840 10.926778
55.845 10.601457
55.850 9.893974
55.855 9.797916
55.860 9.954493
55.865 10.398928
55.870 10.200141
55.875 10.164009
55.880 10.55909
55.885 11.370203
55.890 11.259543
55.895 10.985126
55.900 10.754637
55.905 11.038457
55.910 11.05203
55.915 11.066808
55.920 10.748412
55.925 11.016829
55.930 10.963703
55.935 11.067357
55.940 11.751839
55.945 12.366348
55.950 12.224934
55.955 12.305414
55.960 12.164408
55.965 12.10142
55.970 11.666497
55.975 10.860162
55.980 10.541075
55.985 11.234775
55.990 11.735328
55.995 12.166352
56.000 12.625
56.005 12.77379
56.010 13.0079
56.015 12.833158
56.020 12.366999
56.025 12.241429
56.030 11.959743
56.035 12.253381
56.040 12.359885
56.045 12.244672
56.050 11.966257
56.055 11.834627
56.060 11.414142
56.065 11.068821
56.070 10.343134
56.075 10.570061
56.080 10.821153
56.085 10.840726
56.090 11.063257
56.095 11.047042
56.100 11.42937
56.105 11.235307
56.110 10.967329
56.115 10.491261
56.120 10.351328
56.125 10.301076
56.130 9.856868
56.135 9.790391
56.140 9.99277
56.145 10.608232
56.150 11.16573
56.155 11.168603
56.160 11.277169
56.165 11.821105
56.170 12.016268
56.175 11.984527
56.180 11.214264
56.185 10.893509
56.190 11.27905
56.195 11.286324
56.200 11.063393
56.205 11.343084
56.210 11.877335
56.215 12.379373
56.220 12.638935
56.225 12.48609
56.230 12.756371
56.235 12.987711
56.240 12.730948
56.245 12.512712
56.250 12.520961
56.255 12.366587
56.260 12.073834
56.265 12.109339
56.270 11.9598
56.275 11.559636
56.280 11.20086
56.285 10.950168
56.290 10.959496
56.295 11.607876
56.300 11.706629
56.305 11.848957
56.310 11.924973
56.315 11.704892
56.320 11.863667
56.325 11.819453
56.330 11.555859
56.335 11.421205
56.340 11.572326
56.345 11.813641
56.350 11.992346
56.355 12.030378
56.360 11.842923
56.365 11.46105
56.370 11.251296
56.375 11.163394
56.380 11.353867
56.385 11.290361
56.390 10.967495
56.395 11.043151
56.400 11.296745
56.405 11.468881
56.410 11.418589
56.415 11.245972
56.420 11.347054
56.425 11.242288
56.430 11.024331
56.435 10.833426
56.440 10.9054
56.445 10.785069
56.450 11.08847
56.455 11.583842
56.460 12.073724
56.465 12.271738
56.470 12.137948
56.475 11.835095
56.480 11.750397
56.485 11.156407
56.490 11.372138
56.495 11.429616
56.500 11.709148
56.505 12.13646
56.510 12.745274
56.515 13.1476
56.520 13.954875
56.525 13.953504
56.530 13.756956
56.535 13.310881
56.540 12.753661
56.545 12.183131
56.550 12.025625
56.555 11.551251
56.560 11.260879
56.565 11.355854
56.570 11.345428
56.575 11.716877
56.580 12.013392
56.585 12.241423
56.590 12.061347
56.595 12.081229
56.600 12.384061
56.605 12.779955
56.610 12.513941
56.615 12.875518
56.620 12.852935
56.625 13.155105
56.630 13.693346
56.635 13.559974
56.640 13.28349
56.645 13.218459
56.650 13.033878
56.655 13.306611
56.660 13.162324
56.665 13.00099
56.670 12.873409
56.675 12.746925
56.680 12.538586
56.685 12.001783
56.690 11.766022
56.695 11.202188
56.700 10.963818
56.705 11.513087
56.710 12.421978
56.715 13.045363
56.720 13.201056
56.725 13.315943
56.730 13.61437
56.735 13.838075
56.740 13.307478
56.745 12.604886
56.750 12.432063
56.755 12.686636
56.760 13.086205
56.765 12.861624
56.770 12.823195
56.775 13.311326
56.780 13.838936
56.785 13.729148
56.790 13.192332
56.795 12.808482
56.800 13.413649
56.805 13.828248
56.810 13.928966
56.815 13.700607
56.820 13.664576
56.825 13.660454
56.830 13.700421
56.835 13.028676
56.840 12.599112
56.845 12.016412
56.850 11.562131
56.855 11.695589
56.860 11.447702
56.865 11.41775
56.870 11.541821
56.875 11.648128
56.880 11.829562
56.885 11.924909
56.890 11.702977
56.895 11.895264
56.900 11.938237
56.905 11.989207
56.910 11.502908
56.915 12.029362
56.920 12.081018
56.925 12.122485
56.930 12.13536
56.935 11.719292
56.940 11.326913
56.945 11.194814
56.950 11.001741
56.955 10.907657
56.960 10.787991
56.965 10.866822
56.970 11.241072
56.975 11.681953
56.980 12.149465
56.985 11.685821
56.990 11.596496
56.995 11.654298
57.000 11.692438
57.005 12.342719
57.010 12.303353
57.015 11.984871
57.020 12.16595
57.025 12.191252
57.030 12.610508
57.035 12.301628
57.040 11.537294
57.045 11.097723
57.050 11.340157
57.055 11.305182
57.060 11.940498
57.065 12.004174
57.070 12.264164
57.075 11.967062
57.080 11.552735
57.085 11.348596
57.090 11.108223
57.095 10.506711
57.100 10.366377
57.105 10.054666
57.110 10.613911
57.115 10.875192
57.120 11.015231
57.125 11.016927
57.130 10.944456
57.135 11.118626
57.140 11.468604
57.145 11.210879
57.150 11.106197
57.155 11.182336
57.160 11.23188
57.165 10.982272
57.170 10.948087
57.175 11.584188
57.180 12.096868
57.185 12.639771
57.190 12.897674
57.195 13.39799
57.200 13.774743
57.205 13.38053
57.210 13.193963
57.215 13.052856
57.220 12.440273
57.225 12.426795
57.230 12.51225
57.235 12.808821
57.240 12.843678
57.245 12.433265
57.250 12.461411
57.255 12.326741
57.260 11.920812
57.265 12.115032
57.270 12.08029
57.275 12.628578
57.280 12.756805
57.285 12.987544
57.290 13.608418
57.295 13.775775
57.300 13.492006
57.305 13.310798
57.310 12.751626
57.315 12.769311
57.320 12.687611
57.325 12.555469
57.330 12.588516
57.335 12.403493
57.340 12.633597
57.345 12.663621
57.350 12.777393
57.355 13.230608
57.360 13.321867
57.365 13.458173
57.370 13.605361
57.375 13.522882
57.380 13.130936
57.385 12.655966
57.390 12.350193
57.395 12.225233
57.400 12.356077
57.405 12.302876
57.410 12.129808
57.415 12.814485
57.420 12.977229
57.425 12.861456
57.430 13.117755
57.435 13.040388
57.440 12.914871
57.445 12.930323
57.450 12.370047
57.455 12.202468
57.460 11.977895
57.465 11.686745
57.470 11.957265
57.475 12.072458
57.480 11.882177
57.485 12.256001
57.490 12.760101
57.495 13.59061
57.500 13.834058
57.505 13.868111
57.510 13.808416
57.515 14.021255
57.520 13.650802
57.525 13.028534
57.530 12.600821
57.535 12.066409
57.540 11.821973
57.545 12.101847
57.550 12.74717
57.555 13.268288
57.560 13.674638
57.565 13.995692
57.570 14.369167
57.575 14.387105
57.580 14.09542
57.585 13.799862
57.590 14.020791
57.595 13.950841
57.600 13.765212
57.605 13.857795
57.610 13.135976
57.615 12.929216
57.620 12.631409
57.625 12.189298
57.630 11.582755
57.635 11.639036
57.640 12.04847
57.645 12.765746
57.650 13.166438
57.655 13.806492
57.660 14.312606
57.665 14.537203
57.670 14.327998
57.675 14.246444
57.680 14.241055
57.685 14.032172
57.690 13.85189
57.695 13.735912
57.700 13.927369
57.705 13.287899
57.710 13.057615
57.715 13.24527
57.720 13.305009
57.725 13.088241
57.730 12.875328
57.735 12.674613
57.740 12.779657
57.745 12.329063
57.750 12.329848
57.755 12.147242
57.760 11.970711
57.765 12.117569
57.770 12.257103
57.775 12.984798
57.780 13.434371
57.785 13.605287
57.790 13.526035
57.795 13.505117
57.800 13.662419
57.805 13.601803
57.810 13.402869
57.815 13.265931
57.820 12.888069
57.825 12.913767
57.830 13.149796
57.835 13.068224
57.840 13.585133
57.845 13.269826
57.850 13.139225
57.855 13.700448
57.860 14.2083
57.865 13.796635
57.870 13.017254
57.875 12.432097
57.880 12.744262
57.885 13.089687
57.890 12.645047
57.895 12.572077
57.900 13.851891
57.905 14.630558
57.910 14.548942
57.915 14.548999
57.920 14.321179
57.925 13.999017
57.930 13.538606
57.935 12.483282
57.940 12.702771
57.945 12.818051
57.950 12.699154
57.955 12.941394
57.960 13.16693
57.965 13.298079
57.970 13.688344
57.975 13.446763
57.980 13.49865
57.985 13.55885
57.990 13.816764
57.995 14.053461
58.000 14.035228
58.005 14.127693
58.010 14.515052
58.015 14.714023
58.020 15.073549
58.025 15.047726
58.030 14.851654
58.035 14.609492
58.040 14.734548
58.045 14.580666
58.050 14.144346
58.055 13.566259
58.060 13.253938
58.065 13.558153
58.070 13.940657
58.075 13.478452
58.080 13.468688
58.085 13.659942
58.090 13.345375
58.095 13.116953
58.100 13.054066
58.105 13.123306
58.110 13.26485
58.115 13.109456
58.120 13.418067
58.125 13.899648
58.130 14.020534
58.135 14.018881
58.140 14.137682
58.145 14.488857
58.150 14.750197
58.155 14.804706
58.160 14.643004
58.165 14.973949
58.170 14.647955
58.175 14.551431
58.180 14.182049
58.185 13.89884
58.190 13.398824
58.195 13.30548
58.200 12.763662
58.205 12.956912
58.210 12.514321
58.215 12.335834
58.220 12.079225
58.225 12.339021
58.230 12.593294
58.235 12.940209
58.240 13.062191
58.245 12.966869
58.250 12.893353
58.255 13.342925
58.260 13.37278
58.265 13.399017
58.270 13.533921
58.275 12.904669
58.280 13.268044
58.285 13.689421
58.290 13.447559
58.295 13.324668
58.300 13.279949
58.305 13.509798
58.310 13.903969
58.315 13.818376
58.320 14.074292
58.325 14.324207
58.330 14.326125
58.335 14.249473
58.340 13.807729
58.345 13.622369
58.350 13.915604
58.355 13.971038
58.360 13.991027
58.365 14.456988
58.370 15.015828
58.375 15.670896
58.380 15.660181
58.385 15.037154
58.390 14.676004
58.395 15.003389
58.400 14.415291
58.405 13.853523
58.410 13.219951
58.415 13.140394
58.420 13.327987
58.425 13.054501
58.430 12.685799
58.435 12.827146
58.440 12.869988
58.445 13.354231
58.450 13.090915
58.455 12.957991
58.460 13.553973
58.465 13.878814
58.470 13.750993
58.475 13.420013
58.480 13.294516
58.485 13.212554
58.490 13.111932
58.495 13.22481
58.500 13.070227
58.505 12.93325
58.510 13.322172
58.515 13.656365
58.520 13.674905
58.525 13.334199
58.530 12.610798
58.535 12.416194
58.540 12.542967
58.545 12.047718
58.550 11.85488
58.555 12.012278
58.560 12.680626
58.565 13.322711
58.570 13.265121
58.575 13.564979
58.580 13.548301
58.585 13.743965
58.590 14.086747
58.595 14.095747
58.600 14.277999
58.605 14.204925
58.610 14.220411
58.615 14.375769
58.620 14.502287
58.625 14.405035
58.630 13.820865
58.635 13.224423
58.640 13.508617
58.645 13.371703
58.650 13.816957
58.655 14.031501
58.660 14.324819
58.665 14.645307
58.670 15.164907
58.675 15.37629
58.680 15.561652
58.685 15.282191
58.690 15.127025
58.695 14.938903
58.700 14.781647
58.705 14.65554
58.710 14.530857
58.715 14.323096
58.720 14.34822
58.725 14.303074
58.730 14.293482
58.735 14.277553
58.740 14.501717
58.745 14.555016
58.750 15.109015
58.755 15.393535
58.760 15.362896
58.765 15.438875
58.770 15.586304
58.775 15.158925
58.780 14.692396
58.785 14.130041
58.790 13.368963
58.795 13.130769
58.800 12.352773
58.805 12.074097
58.810 12.299774
58.815 13.101629
58.820 13.741484
58.825 14.32585
58.830 14.54373
58.835 15.624046
58.840 15.560498
58.845 15.508828
58.850 14.739511
58.855 14.280807
58.860 14.242019
58.865 14.256454
58.870 13.691173
58.875 13.820308
58.880 13.098291
58.885 13.188026
58.890 13.265703
58.895 13.258658
58.900 13.259995
58.905 13.755196
58.910 13.730775
58.915 14.046372
58.920 13.748164
58.925 14.051367
58.930 14.089722
58.935 13.785192
58.940 13.550646
58.945 14.092037
58.950 14.458112
58.955 14.836615
58.960 14.53583
58.965 14.558405
58.970 14.733666
58.975 14.448175
58.980 14.205876
58.985 14.145969
58.990 14.229338
58.995 13.960113
59.000 13.647639
59.005 13.808552
59.010 14.112234
59.015 13.771626
59.020 13.300018
59.025 13.046851
59.030 13.058115
59.035 13.543896
59.040 14.036566
59.045 14.55399
59.050 15.218471
59.055 15.666307
59.060 15.909881
59.065 16.284344
59.070 15.761384
59.075 15.005551
59.080 14.476635
59.085 14.121049
59.090 14.080584
59.095 13.900568
59.100 13.982704
59.105 14.176067
59.110 14.528658
59.115 14.214495
59.120 13.961964
59.125 13.998231
59.130 14.332573
59.135 14.88937
59.140 14.983775
59.145 14.956292
59.150 15.368975
59.155 15.621308
59.160 15.574946
59.165 15.422544
59.170 15.012664
59.175 15.560389
59.180 15.578809
59.185 15.326902
59.190 15.174181
59.195 14.689569
59.200 14.010754
59.205 13.944242
59.210 13.87785
59.215 13.798033
59.220 14.068845
59.225 14.957192
59.230 15.978359
59.235 16.199184
59.240 16.069315
59.245 15.647329
59.250 15.418142
59.255 15.618823
59.260 14.979254
59.265 14.408945
59.270 14.348248
59.275 14.123732
59.280 14.040803
59.285 13.946304
59.290 13.281574
59.295 13.452183
59.300 13.967588
59.305 14.304121
59.310 14.307547
59.315 14.379664
59.320 14.733024
59.325 14.866031
59.330 14.65818
59.335 14.241642
59.340 13.771794
59.345 13.727725
59.350 13.70064
59.355 13.841648
59.360 14.249976
59.365 14.703736
59.370 15.292682
59.375 16.052662
59.380 16.48398
59.385 16.507101
59.390 16.345776
59.395 15.721287
59.400 15.484596
59.405 15.543591
59.410 15.386897
59.415 15.212102
59.420 15.085976
59.425 15.437537
59.430 15.411423
59.435 14.678526
59.440 13.952457
59.445 13.592619
59.450 13.588958
59.455 13.547987
59.460 13.773892
59.465 14.104918
59.470 14.634654
59.475 15.258092
59.480 15.275539
59.485 15.468269
59.490 15.243919
59.495 14.544699
59.500 13.981096
59.505 13.862845
59.510 13.523552
59.515 13.571819
59.520 13.555526
59.525 13.385531
59.530 13.649988
59.535 14.001906
59.540 14.036057
59.545 13.702489
59.550 14.388536
59.555 14.829318
59.560 15.461738
59.565 15.447712
59.570 15.817609
59.575 16.03928
59.580 16.415169
59.585 15.688363
59.590 15.983271
59.595 15.926317
59.600 15.867478
59.605 15.99709
59.610 16.315254
59.615 16.142012
59.620 15.949193
59.625 15.583618
59.630 15.953809
59.635 16.795053
59.640 16.811682
59.645 16.480129
59.650 16.922878
59.655 17.486744
59.660 17.614204
59.665 17.172136
59.670 16.462595
59.675 16.21204
59.680 16.259146
59.685 16.177725
59.690 16.11405
59.695 15.98842
59.700 16.51988
59.705 16.77919
59.710 16.722469
59.715 16.796824
59.720 16.822039
59.725 16.797295
59.730 16.939859
59.735 16.449085
59.740 17.209118
59.745 17.583324
59.750 17.216446
59.755 17.558861
59.760 17.529196
59.765 17.361637
59.770 17.195766
59.775 16.516737
59.780 16.578213
59.785 16.808247
59.790 16.189758
59.795 15.847755
59.800 16.028517
59.805 16.253191
59.810 16.369829
59.815 16.541468
59.820 17.185909
59.825 17.578981
59.830 17.739492
59.835 17.743908
59.840 17.783854
59.845 18.058123
59.850 18.002941
59.855 17.229061
59.860 16.88059
59.865 16.612011
59.870 16.613445
59.875 16.67979
59.880 16.397102
59.885 16.086784
59.890 16.465109
59.895 16.748844
59.900 16.722504
59.905 16.658318
59.910 16.61902
59.915 16.948328
59.920 16.959248
59.925 17.452484
59.930 18.0268
59.935 18.495316
59.940 18.741026
59.945 18.715399
59.950 18.480198
59.955 18.685146
59.960 18.573862
59.965 18.310184
59.970 18.46467
59.975 18.375454
59.980 18.560642
59.985 18.6971
59.990 18.962507
59.995 18.756365
60.000 18.676983
60.005 18.420059
60.010 18.558292
60.015 19.195856
60.020 19.595663
60.025 19.256683
60.030 19.393593
60.035 19.653633
60.040 19.748251
60.045 19.349201
60.050 18.608486
60.055 18.175127
60.060 18.380424
60.065 18.245863
60.070 18.04524
60.075 18.399252
60.080 18.043537
60.085 17.438297
60.090 17.10919
60.095 16.757231
60.100 16.186445
60.105 16.377447
60.110 16.469038
60.115 16.960928
60.120 18.265606
60.125 19.487984
60.130 20.239698
60.135 21.066305
60.140 21.354696
60.145 21.108028
60.150 21.454021
60.155 20.849033
60.160 20.508331
60.165 20.757984
60.170 20.588314
60.175 20.316612
60.180 20.371822
60.185 19.995478
60.190 19.819229
60.195 19.645807
60.200 19.184856
60.205 18.879965
60.210 18.927341
60.215 19.261183
60.220 19.920382
60.225 20.35836
60.230 19.862257
60.235 20.023085
60.240 20.345606
60.245 20.644461
60.250 20.193064
60.255 19.79635
60.260 19.953964
60.265 19.71331
60.270 19.32493
60.275 19.174971
60.280 19.301882
60.285 19.313959
60.290 19.487936
60.295 19.489859
60.300 19.699301
60.305 20.28894
60.310 19.743542
60.315 19.32836
60.320 19.38068
60.325 18.928333
60.330 19.033548
60.335 19.324081
60.340 19.311468
60.345 19.571558
60.350 19.537746
60.355 19.568731
60.360 20.073164
60.365 19.446285
60.370 19.124847
60.375 19.18284
60.380 19.346395
60.385 19.858446
60.390 20.184633
60.395 20.017853
60.400 20.183149
60.405 20.137741
60.410 20.174166
60.415 20.261002
60.420 20.289383
60.425 19.877033
60.430 19.944822
60.435 19.608927
60.440 19.564796
60.445 19.428631
60.450 19.135992
60.455 18.573206
60.460 18.355066
60.465 18.037464
60.470 18.853748
60.475 19.40506
60.480 19.79751
60.485 19.865702
60.490 19.280832
60.495 19.348694
60.500 19.456156
60.505 19.059414
60.510 18.892565
60.515 18.48118
60.520 18.447992
60.525 19.172714
60.530 19.612629
60.535 19.356049
60.540 19.347401
60.545 19.19451
60.550 19.537531
60.555 19.48946
60.560 19.384014
60.565 19.027117
60.570 18.926083
60.575 19.185516
60.580 19.450405
60.585 19.625238
60.590 19.794682
60.595 20.293089
60.600 20.213459
60.605 20.192064
60.610 19.820444
60.615 19.075497
60.620 18.915897
60.625 18.588945
60.630 18.246012
60.635 18.598946
60.640 18.939861
60.645 18.722086
60.650 19.169037
60.655 18.952009
60.660 19.013475
60.665 19.078655
60.670 18.859901
60.675 18.181976
60.680 17.925804
60.685 17.415869
60.690 16.887838
60.695 16.586252
60.700 16.310314
60.705 16.022078
60.710 16.234911
60.715 16.658674
60.720 16.718487
60.725 17.08902
60.730 17.802879
60.735 18.132971
60.740 18.636871
60.745 18.486687
60.750 18.184383
60.755 18.715826
60.760 19.155167
60.765 19.019409
60.770 18.40568
60.775 18.334982
60.780 18.24906
60.785 18.251574
60.790 17.734695
60.795 17.498653
60.800 17.366869
60.805 17.484404
60.810 17.462749
60.815 17.245914
60.820 16.927719
60.825 17.172798
60.830 17.289879
60.835 17.402452
60.840 17.414951
60.845 17.725897
60.850 18.406017
60.855 19.162895
60.860 19.297701
60.865 19.189692
60.870 19.099743
60.875 19.023846
60.880 19.139177
60.885 18.553976
60.890 18.162947
60.895 18.156347
60.900 17.788189
60.905 17.46423
60.910 16.976326
60.915 16.098059
60.920 16.162279
60.925 15.880155
60.930 15.715169
60.935 15.871604
60.940 15.942159
60.945 16.065104
60.950 16.334873
60.955 16.324907
60.960 17.127012
60.965 16.743586
60.970 17.188938
60.975 17.378948
60.980 17.244514
60.985 16.874537
60.990 16.693747
60.995 15.68774
61.000 15.613708
61.005 15.693542
61.010 15.912818
61.015 15.997905
61.020 16.443426
61.025 16.973713
61.030 17.280678
61.035 17.806913
61.040 17.521696
61.045 18.136946
61.050 18.391703
61.055 18.745174
61.060 18.964035
61.065 18.730719
61.070 18.608881
61.075 18.44355
61.080 17.604092
61.085 17.267111
61.090 17.177656
61.095 16.865171
61.100 17.275373
61.105 17.21431
61.110 16.784632
61.115 17.294079
61.120 17.519829
61.125 16.649153
61.130 16.566568
61.135 15.722779
61.140 15.700328
61.145 16.111706
61.150 15.595603
61.155 15.46181
61.160 15.71783
61.165 15.506324
61.170 15.830577
61.175 16.201208
61.180 16.249006
61.185 16.456881
61.190 16.777632
61.195 17.107086
61.200 17.359406
61.205 17.488605
61.210 17.418985
61.215 17.871815
61.220 18.253027
61.225 18.382486
61.230 18.707167
61.235 18.570353
61.240 18.357777
61.245 17.94025
61.250 17.574919
61.255 17.28067
61.260 16.882233
61.265 16.080297
61.270 16.127096
61.275 16.308239
61.280 16.377354
61.285 16.680618
61.290 16.486929
61.295 16.710501
61.300 17.694679
61.305 18.016546
61.310 17.616617
61.315 17.630365
61.320 17.529362
61.325 17.826006
61.330 17.611101
61.335 16.562243
61.340 16.503271
61.345 16.542309
61.350 16.258245
61.355 15.995275
61.360 15.700007
61.365 15.72516
61.370 15.654225
61.375 15.306019
61.380 15.334908
61.385 15.284078
61.390 15.570536
61.395 15.777095
61.400 15.712876
61.405 16.260649
61.410 16.502596
61.415 16.464121
61.420 15.964515
61.425 15.417948
61.430 15.657349
61.435 15.812861
61.440 15.213447
61.445 15.176499
61.450 15.469462
61.455 16.25486
61.460 16.928144
61.465 17.20392
61.470 17.523462
61.475 18.528004
61.480 18.769844
61.485 18.711609
61.490 18.788162
61.495 18.17304
61.500 17.706951
61.505 17.136833
61.510 17.015854
61.515 16.669302
61.520 16.628101
61.525 16.442848
61.530 16.391401
61.535 16.471355
61.540 16.995228
61.545 16.95677
61.550 17.167744
61.555 17.417397
61.560 17.474407
61.565 17.689465
61.570 17.797712
61.575 17.382492
61.580 16.866364
61.585 16.524759
61.590 16.446779
61.595 16.317244
61.600 16.308805
61.605 16.121777
61.610 16.620012
61.615 16.816017
61.620 16.892036
61.625 16.742311
61.630 16.054111
61.635 15.426325
61.640 15.08925
61.645 14.453999
61.650 14.396361
61.655 14.501845
61.660 14.690084
61.665 15.732108
61.670 16.203659
61.675 16.473829
61.680 16.690525
61.685 16.758684
61.690 16.933104
61.695 17.022625
61.700 16.766438
61.705 17.467249
61.710 17.897306
61.715 17.771944
61.720 17.890173
61.725 17.576828
61.730 17.120167
61.735 17.135138
61.740 16.722864
61.745 16.757307
61.750 17.374763
61.755 17.421904
61.760 17.582598
61.765 17.336803
61.770 17.109505
61.775 16.640587
61.780 16.2262
61.785 15.52676
61.790 15.437866
61.795 15.714287
61.800 16.194162
61.805 16.003134
61.810 16.096474
61.815 16.063927
61.820 16.186499
61.825 16.397429
61.830 16.222706
61.835 15.949987
61.840 16.553776
61.845 16.514664
61.850 16.503014
61.855 16.009142
61.860 15.976495
61.865 16.554695
61.870 16.764221
61.875 17.069979
61.880 17.23284
61.885 17.521616
61.890 18.214315
61.895 17.848249
61.900 17.21121
61.905 17.430023
61.910 17.363169
61.915 17.030611
61.920 16.787054
61.925 16.155128
61.930 15.161808
61.935 14.652761
61.940 14.147893
61.945 13.654889
61.950 13.748711
61.955 14.119266
61.960 14.491504
61.965 14.939542
61.970 15.280746
61.975 15.263082
61.980 15.524438
61.985 15.595358
61.990 15.17997
61.995 15.468291
62.000 15.885886
62.005 15.742913
62.010 16.171732
62.015 15.988603
62.020 15.668978
62.025 15.677497
62.030 15.452132
62.035 15.269335
62.040 15.246645
62.045 14.910172
62.050 15.375007
62.055 15.673038
62.060 15.835029
62.065 16.456804
62.070 16.776066
62.075 17.168434
62.080 17.251362
62.085 16.960596
62.090 16.691006
62.095 16.414822
62.100 15.763087
62.105 15.928378
62.110 15.736821
62.115 15.63638
62.120 15.564798
62.125 15.44595
62.130 15.982552
62.135 16.555834
62.140 16.817198
62.145 16.78898
62.150 16.57988
62.155 16.707008
62.160 16.907831
62.165 16.883612
62.170 17.07567
62.175 16.655684
62.180 16.767551
62.185 16.97579
62.190 17.241587
62.195 16.918312
62.200 16.329981
62.205 15.305864
62.210 15.140021
62.215 15.089924
62.220 15.234949
62.225 14.829393
62.230 14.976769
62.235 15.591869
62.240 16.000549
62.245 15.954268
62.250 15.746071
62.255 15.769115
62.260 16.332552
62.265 16.405087
62.270 15.95717
62.275 15.918247
62.280 16.062712
62.285 16.467915
62.290 16.013096
62.295 15.441037
62.300 15.062533
62.305 15.147935
62.310 15.565667
62.315 15.519444
62.320 15.700274
62.325 15.749325
62.330 15.92097
62.335 16.346756
62.340 16.341326
62.345 15.86949
62.350 15.65369
62.355 14.875687
62.360 14.769876
62.365 14.758761
62.370 14.829901
62.375 14.646244
62.380 15.017347
62.385 15.803102
62.390 16.340214
62.395 16.609579
62.400 16.574415
62.405 16.635916
62.410 17.034616
62.415 17.194752
62.420 17.289274
62.425 17.075586
62.430 17.472454
62.435 17.462029
62.440 17.236372
62.445 17.582779
62.450 17.867455
62.455 17.860048
62.460 17.846886
62.465 17.636459
62.470 17.938875
62.475 18.442312
62.480 18.282635
62.485 17.243355
62.490 17.16118
62.495 17.473797
62.500 17.629429
62.505 17.139469
62.510 16.723026
62.515 16.744577
62.520 17.247726
62.525 16.559795
62.530 16.283815
62.535 16.475594
62.540 16.885239
62.545 16.657301
62.550 16.379631
62.555 16.30357
62.560 16.510981
62.565 16.346649
62.570 15.853679
62.575 15.237793
62.580 15.203191
62.585 15.324075
62.590 15.443031
62.595 15.576433
62.600 15.781509
62.605 16.221319
62.610 16.514999
62.615 16.715879
62.620 16.255922
62.625 15.610008
62.630 15.705866
62.635 15.514011
62.640 15.472597
62.645 15.826341
62.650 15.403207
62.655 15.818853
62.660 16.571285
62.665 16.731844
62.670 16.86211
62.675 17.063356
62.680 17.068474
62.685 17.257891
62.690 17.608189
62.695 17.454651
62.700 17.092218
62.705 17.261133
62.710 17.20027
62.715 17.197632
62.720 17.239376
62.725 17.075006
62.730 17.365484
62.735 17.585974
62.740 17.222502
62.745 16.981661
62.750 17.358473
62.755 17.517937
62.760 18.037115
62.765 18.083717
62.770 17.802889
62.775 17.712
62.780 17.674915
62.785 16.667955
62.790 15.949394
62.795 15.029607
62.800 14.523568
62.805 14.844855
62.810 15.261485
62.815 15.25824
62.820 15.6889
62.825 16.312363
62.830 16.714624
62.835 16.997959
62.840 17.018797
62.845 16.636833
62.850 16.956673
62.855 17.5214
62.860 17.275276
62.865 16.788544
62.870 16.366976
62.875 16.811512
62.880 16.925943
62.885 17.557081
62.890 17.449524
62.895 17.311165
62.900 17.737835
62.905 18.313631
62.910 17.896896
62.915 17.590279
62.920 16.655277
62.925 16.901558
62.930 17.024916
62.935 16.656469
62.940 16.68255
62.945 16.446627
62.950 16.565781
62.955 16.669685
62.960 16.430939
62.965 16.271261
62.970 16.417715
62.975 16.707451
62.980 17.106747
62.985 17.208141
62.990 17.434912
62.995 17.854258
63.000 18.527401
63.005 18.881252
63.010 18.713728
63.015 18.398205
63.020 18.020597
63.025 17.69582
63.030 17.821957
63.035 17.768202
63.040 17.751434
63.045 17.798901
63.050 17.870852
63.055 18.324343
63.060 18.677032
63.065 18.551662
63.070 18.569799
63.075 18.208113
63.080 18.221783
63.085 18.374403
63.090 17.991158
63.095 17.218866
63.100 17.241899
63.105 17.15934
63.110 16.792107
63.115 16.159477
63.120 15.467529
63.125 15.997299
63.130 16.351366
63.135 15.785084
63.140 15.347826
63.145 15.396267
63.150 15.429876
63.155 15.716177
63.160 15.535896
63.165 15.843067
63.170 15.657031
63.175 16.182959
63.180 16.494795
63.185 16.738241
63.190 16.811991
63.195 16.51915
63.200 16.524925
63.205 16.900368
63.210 16.773493
63.215 17.027191
63.220 17.507328
63.225 17.623777
63.230 17.173454
63.235 16.453554
63.240 16.222614
63.245 15.929557
63.250 15.662709
63.255 15.291873
63.260 15.401712
63.265 16.142839
63.270 16.444132
63.275 16.31307
63.280 16.107889
63.285 15.898166
63.290 15.259538
63.295 15.138721
63.300 15.149549
63.305 15.217695
63.310 16.005262
63.315 16.744394
63.320 17.096832
63.325 18.275021
63.330 18.669638
63.335 18.369057
63.340 18.51412
63.345 18.138783
63.350 18.074974
63.355 18.241837
63.360 17.818243
63.365 17.927826
63.370 18.6084
63.375 18.774696
63.380 18.573036
63.385 18.321186
63.390 17.97587
63.395 17.574038
63.400 16.716703
63.405 16.274527
63.410 16.304993
63.415 16.599764
63.420 17.088114
63.425 17.418966
63.430 17.861904
63.435 17.640759
63.440 17.277485
63.445 17.037361
63.450 16.52429
63.455 15.746768
63.460 16.141756
63.465 16.457541
63.470 17.094179
63.475 17.616264
63.480 17.661472
63.485 18.354181
63.490 18.52602
63.495 18.137178
63.500 17.852188
63.505 17.602037
63.510 17.183998
63.515 16.886387
63.520 16.406662
63.525 16.199512
63.530 16.206593
63.535 16.515268
63.540 16.242178
63.545 16.397614
63.550 16.63493
63.555 16.543686
63.560 17.324652
63.565 16.887619
63.570 16.884058
63.575 17.366911
63.580 17.668318
63.585 17.487396
63.590 17.650097
63.595 17.308321
63.600 17.68878
63.605 17.081709
63.610 16.881247
63.615 16.912891
63.620 17.210287
63.625 16.854797
63.630 16.070444
63.635 15.722238
63.640 16.267786
63.645 16.381626
63.650 16.071056
63.655 15.928317
63.660 16.236368
63.665 16.510529
63.670 16.199057
63.675 15.927034
63.680 15.850376
63.685 16.208231
63.690 16.114954
63.695 16.052746
63.700 16.688023
63.705 17.455101
63.710 17.73313
63.715 17.148846
63.720 16.570602
63.725 16.842163
63.730 17.295446
63.735 17.091002
63.740 16.660131
63.745 16.729208
63.750 17.171318
63.755 17.357683
63.760 17.358313
63.765 17.203714
63.770 17.318193
63.775 17.690031
63.780 17.992167
63.785 18.55489
63.790 19.011766
63.795 18.552864
63.800 18.398344
63.805 18.677092
63.810 19.039099
63.815 18.92593
63.820 18.497877
63.825 18.182116
63.830 18.209085
63.835 18.043571
63.840 17.538254
63.845 17.084072
63.850 16.672211
63.855 16.361122
63.860 15.906469
63.865 15.939877
63.870 16.239241
63.875 16.394171
63.880 16.297211
63.885 16.546524
63.890 16.939091
63.895 17.203531
63.900 17.518435
63.905 17.166855
63.910 17.214096
63.915 17.199089
63.920 17.245314
63.925 17.265724
63.930 17.54092
63.935 17.448244
63.940 17.576361
63.945 17.341629
63.950 17.377558
63.955 17.389389
63.960 17.275818
63.965 17.316757
63.970 17.347017
63.975 17.642803
63.980 17.796724
63.985 17.910324
63.990 17.939205
63.995 18.320881
64.000 18.442045
64.005 18.13895
64.010 17.822086
64.015 17.98851
64.020 18.115494
64.025 18.303085
64.030 18.486513
64.035 18.57773
64.040 18.925661
64.045 19.340372
64.050 19.209558
64.055 18.43889
64.060 18.607756
64.065 18.248928
64.070 18.040401
64.075 18.231125
64.080 17.99053
64.085 17.327139
64.090 17.548269
64.095 17.532499
64.100 17.66688
64.105 17.442751
64.110 17.206896
64.115 16.796631
64.120 17.43565
64.125 17.595261
64.130 17.108196
64.135 16.782656
64.140 16.673035
64.145 16.941019
64.150 17.664524
64.155 17.744804
64.160 17.459892
64.165 17.139021
64.170 17.551962
64.175 17.47648
64.180 16.857
64.185 16.383446
64.190 15.812946
64.195 16.513327
64.200 17.354071
64.205 17.475027
64.210 17.826777
64.215 18.070547
64.220 17.828695
64.225 17.759533
64.230 17.666704
64.235 17.566086
64.240 17.804022
64.245 17.83223
64.250 18.494539
64.255 19.065826
64.260 19.224783
64.265 18.619905
64.270 18.014812
64.275 17.365908
64.280 16.95657
64.285 16.196362
64.290 16.43277
64.295 16.519606
64.300 17.100534
64.305 17.306992
64.310 17.411322
64.315 17.584248
64.320 17.739843
64.325 17.770439
64.330 17.786497
64.335 17.492237
64.340 17.528561
64.345 17.782671
64.350 18.306543
64.355 18.728388
64.360 18.376993
64.365 18.452967
64.370 18.143021
64.375 18.518911
64.380 18.887787
64.385 18.987106
64.390 18.859251
64.395 18.882189
64.400 18.769854
64.405 19.13402
64.410 18.947353
64.415 18.715027
64.420 18.286722
64.425 18.172941
64.430 17.53783
64.435 17.453856
64.440 17.687851
64.445 18.09223
64.450 17.964073
64.455 17.883663
64.460 18.645742
64.465 20.032743
64.470 20.194693
64.475 19.998388
64.480 19.92083
64.485 19.967991
64.490 20.521013
64.495 20.727806
64.500 20.755533
64.505 20.90449
64.510 20.597248
64.515 19.947458
64.520 19.758928
64.525 19.238115
64.530 18.722466
64.535 18.28079
64.540 17.899853
64.545 18.34597
64.550 18.684071
64.555 18.613546
64.560 18.218216
64.565 18.398588
64.570 18.751286
64.575 19.180319
64.580 19.010622
64.585 18.807789
64.590 19.417192
64.595 20.103102
64.600 19.501654
64.605 18.910223
64.610 19.164604
64.615 19.329781
64.620 18.940964
64.625 18.100155
64.630 18.314571
64.635 18.810007
64.640 19.217047
64.645 18.955032
64.650 19.112488
64.655 19.574184
64.660 19.881933
64.665 19.396116
64.670 19.07601
64.675 18.940781
64.680 18.872515
64.685 18.946262
64.690 19.235065
64.695 19.56105
64.700 19.877352
64.705 20.635206
64.710 20.443424
64.715 20.501997
64.720 20.202898
64.725 19.653248
64.730 19.137346
64.735 18.7019
64.740 18.68623
64.745 19.545427
64.750 19.96348
64.755 20.583132
64.760 20.643024
64.765 20.449665
64.770 20.703161
64.775 19.938728
64.780 19.078964
64.785 18.669548
64.790 18.020098
64.795 18.151663
64.800 18.147919
64.805 18.141695
64.810 18.025543
64.815 18.291019
64.820 18.831352
64.825 19.1213
64.830 19.096107
64.835 19.369654
64.840 19.607918
64.845 19.804522
64.850 18.91523
64.855 18.271513
64.860 17.776548
64.865 18.05677
64.870 18.251431
64.875 18.237259
64.880 18.090109
64.885 18.14212
64.890 18.239861
64.895 18.535027
64.900 18.548336
64.905 18.363974
64.910 18.329762
64.915 18.753899
64.920 19.230873
64.925 19.551315
64.930 19.734118
64.935 19.84963
64.940 20.14777
64.945 20.370436
64.950 21.168463
64.955 21.630638
64.960 21.822016
64.965 22.13714
64.970 22.071613
64.975 21.736021
64.980 21.429029
64.985 20.894093
64.990 20.569422
64.995 20.358976
65.000 20.664856
65.005 21.728897
65.010 22.038273
65.015 22.157377
65.020 22.784197
65.025 22.797285
65.030 22.712719
65.035 21.984343
65.040 21.120089
65.045 20.675068
65.050 20.386616
65.055 19.418282
65.060 19.231806
65.065 19.677551
65.070 19.109356
65.075 19.186665
65.080 19.786287
65.085 19.856342
65.090 19.647209
65.095 19.533316
65.100 19.652143
65.105 20.389174
65.110 20.463509
65.115 20.374458
65.120 20.330441
65.125 21.380611
65.130 21.453714
65.135 21.339596
65.140 21.449224
65.145 21.525011
65.150 21.812756
65.155 21.904715
65.160 22.087479
65.165 22.815855
65.170 22.909412
65.175 22.846178
65.180 22.803814
65.185 22.330212
65.190 22.270784
65.195 21.722242
65.200 21.382412
65.205 21.84837
65.210 22.078693
65.215 22.390211
65.220 22.731972
65.225 22.566589
65.230 22.439125
65.235 22.580996
65.240 22.340555
65.245 21.816042
65.250 21.507946
65.255 21.399599
65.260 21.611467
65.265 21.795044
65.270 21.72002
65.275 21.727268
65.280 21.924986
65.285 21.627367
65.290 21.665125
65.295 22.363012
65.300 22.593697
65.305 22.326672
65.310 21.996647
65.315 21.983473
65.320 22.022188
65.325 22.416012
65.330 21.511879
65.335 20.906796
65.340 20.898121
65.345 21.040295
65.350 21.338768
65.355 21.578369
65.360 21.3458
65.365 22.21207
65.370 22.443275
65.375 22.63694
65.380 22.679888
65.385 22.133686
65.390 21.736053
65.395 21.703329
65.400 21.139452
65.405 21.247154
65.410 21.762451
65.415 22.231544
65.420 22.283649
65.425 22.176424
65.430 21.889851
65.435 21.985435
65.440 22.263918
65.445 21.648722
65.450 21.307343
65.455 21.775433
65.460 22.493986
65.465 23.102764
65.470 23.476397
65.475 23.116922
65.480 23.277107
65.485 23.927069
65.490 23.614281
65.495 22.791376
65.500 22.91522
65.505 23.249561
65.510 23.046288
65.515 22.84446
65.520 22.157221
65.525 22.773403
65.530 23.334734
65.535 23.034937
65.540 23.235661
65.545 24.331383
65.550 25.162706
65.555 26.071543
65.560 26.517988
65.565 26.632109
65.570 27.014164
65.575 26.948267
65.580 27.386528
65.585 27.001753
65.590 26.764168
65.595 27.230413
65.600 27.652712
65.605 27.787756
65.610 27.914104
65.615 27.670071
65.620 27.151882
65.625 26.869699
65.630 27.008194
65.635 26.931795
65.640 27.112963
65.645 27.532166
65.650 28.06147
65.655 29.072584
65.660 29.480082
65.665 29.512608
65.670 29.738579
65.675 30.036482
65.680 29.813753
65.685 29.642223
65.690 29.588049
65.695 29.401657
65.700 28.710258
65.705 28.548145
65.710 28.91157
65.715 29.201366
65.720 29.98608
65.725 29.791229
65.730 30.386923
65.735 30.896383
65.740 31.242201
65.745 31.918583
65.750 32.209621
65.755 32.598358
65.760 33.981045
65.765 34.439327
65.770 35.181889
65.775 35.315517
65.780 35.20113
65.785 35.765919
65.790 35.853676
65.795 36.036777
65.800 36.264404
65.805 36.475697
65.810 36.701714
65.815 35.316139
65.820 34.901794
65.825 34.968781
65.830 35.092064
65.835 35.578197
65.840 35.619865
65.845 36.109268
65.850 37.405811
65.855 38.024475
65.860 37.695354
65.865 37.473179
65.870 36.547035
65.875 36.997025
65.880 36.93721
65.885 36.226521
65.890 36.225082
65.895 36.745907
65.900 36.792587
65.905 37.393761
65.910 36.467266
65.915 36.952137
65.920 37.254459
65.925 36.712009
65.930 36.482197
65.935 36.421337
65.940 36.308083
65.945 36.793488
65.950 36.819675
65.955 37.193867
65.960 37.207489
65.965 37.333721
65.970 37.259266
65.975 37.238018
65.980 36.967308
65.985 36.380623
65.990 36.731033
65.995 37.195633
66.000 36.442963
66.005 36.372044
66.010 35.948227
66.015 35.755684
66.020 36.38625
66.025 35.664791
66.030 35.066113
66.035 35.618122
66.040 35.189701
66.045 35.496498
66.050 35.912109
66.055 35.280422
66.060 35.736454
66.065 35.749737
66.070 35.435204
66.075 35.417412
66.080 34.540493
66.085 34.152103
66.090 34.278328
66.095 34.044456
66.100 34.276894
66.105 35.074577
66.110 35.742638
66.115 36.762409
66.120 37.04229
66.125 37.16967
66.130 37.671078
66.135 37.256828
66.140 36.830383
66.145 36.597584
66.150 36.392445
66.155 35.750767
66.160 35.295834
66.165 35.195549
66.170 34.805443
66.175 34.210178
66.180 33.405056
66.185 33.216454
66.190 33.877731
66.195 33.715538
66.200 32.710789
66.205 32.284737
66.210 32.584705
66.215 33.370285
66.220 33.199669
66.225 32.723415
66.230 32.633827
66.235 32.785473
66.240 33.247143
66.245 33.224007
66.250 33.01469
66.255 32.868126
66.260 33.08527
66.265 33.710831
66.270 33.848644
66.275 33.299297
66.280 32.731117
66.285 32.672253
66.290 32.48975
66.295 31.434435
66.300 31.098402
66.305 31.306446
66.310 31.28219
66.315 31.039652
66.320 30.671024
66.325 30.733919
66.330 31.1131
66.335 31.113287
66.340 31.314085
66.345 31.261711
66.350 31.262873
66.355 31.152468
66.360 31.074364
66.365 30.144073
66.370 29.371187
66.375 29.252321
66.380 29.559544
66.385 29.365274
66.390 29.353952
66.395 29.161755
66.400 30.073532
66.405 30.988178
66.410 30.216227
66.415 29.51787
66.420 29.69441
66.425 29.634708
66.430 29.783972
66.435 29.394642
66.440 28.551363
66.445 29.396404
66.450 29.825613
66.455 29.273388
66.460 28.810457
66.465 28.523617
66.470 28.442684
66.475 28.741865
66.480 28.317583
66.485 28.096046
66.490 27.70784
66.495 27.222607
66.500 27.175377
66.505 26.887426
66.510 25.986168
66.515 25.219849
66.520 24.803764
66.525 24.913507
66.530 25.280558
66.535 24.761135
66.540 24.919601
66.545 25.22658
66.550 25.433929
66.555 25.931589
66.560 26.475338
66.565 26.9286
66.570 27.180351
66.575 26.739077
66.580 26.370743
66.585 26.013083
66.590 25.73612
66.595 25.4384
66.600 24.811186
66.605 24.390121
66.610 24.634584
66.615 25.242373
66.620 26.01473
66.625 26.622307
66.630 26.428907
66.635 26.824368
66.640 27.353802
66.645 27.284035
66.650 26.990191
66.655 26.415039
66.660 25.877018
66.665 25.684252
66.670 25.192131
66.675 25.072992
66.680 25.943613
66.685 26.014387
66.690 26.085947
66.695 26.445559
66.700 26.49176
66.705 26.707561
66.710 27.050938
66.715 26.329597
66.720 25.549261
66.725 25.266409
66.730 25.157061
66.735 25.178398
66.740 25.260811
66.745 24.801781
66.750 23.992422
66.755 24.294703
66.760 23.938383
66.765 23.852289
66.770 24.009489
66.775 23.544039
66.780 23.369324
66.785 23.604729
66.790 23.616663
66.795 23.682238
66.800 23.267939
66.805 23.093557
66.810 23.508333
66.815 23.840389
66.820 23.535534
66.825 23.67421
66.830 23.376747
66.835 23.045824
66.840 23.126665
66.845 22.686804
66.850 22.952805
66.855 23.282642
66.860 22.565777
66.865 23.457897
66.870 23.924252
66.875 23.589617
66.880 22.766247
66.885 22.517157
66.890 22.328541
66.895 22.40634
66.900 21.741442
66.905 21.416214
66.910 21.844877
66.915 22.515446
66.920 22.462559
66.925 22.580578
66.930 22.410978
66.935 22.334726
66.940 22.319139
66.945 22.234737
66.950 22.516542
66.955 22.426573
66.960 22.43639
66.965 22.55397
66.970 22.579748
66.975 22.657406
66.980 22.557215
66.985 21.622042
66.990 22.172312
66.995 22.712851
67.000 22.788652
67.005 22.273554
67.010 22.340462
67.015 22.49682
67.020 23.254498
67.025 22.803333
67.030 22.557756
67.035 23.000128
67.040 23.575506
67.045 23.118423
67.050 22.596905
67.055 22.370874
67.060 22.455481
67.065 22.148178
67.070 21.479471
67.075 21.264509
67.080 21.612421
67.085 22.007071
67.090 21.924934
67.095 21.605902
67.100 21.046101
67.105 21.663866
67.110 22.174629
67.115 21.915583
67.120 21.571489
67.125 21.233841
67.130 20.975504
67.135 21.358629
67.140 20.335796
67.145 20.246252
67.150 20.098404
67.155 20.180878
67.160 20.53639
67.165 21.135286
67.170 21.771732
67.175 22.025436
67.180 21.690472
67.185 22.127029
67.190 22.203733
67.195 22.161608
67.200 21.905689
67.205 22.078003
67.210 22.299999
67.215 22.302307
67.220 22.761015
67.225 23.043478
67.230 23.194891
67.235 23.088079
67.240 22.256042
67.245 22.232977
67.250 22.397026
67.255 22.193377
67.260 22.097164
67.265 22.028931
67.270 21.998127
67.275 22.657627
67.280 23.246582
67.285 22.934229
67.290 21.88489
67.295 21.410107
67.300 21.147112
67.305 20.740128
67.310 20.056446
67.315 19.089739
67.320 19.314762
67.325 19.985018
67.330 20.070213
67.335 20.121531
67.340 20.538475
67.345 20.852802
67.350 20.815859
67.355 21.033766
67.360 21.401972
67.365 21.602945
67.370 22.188208
67.375 22.196192
67.380 22.82999
67.385 23.369598
67.390 22.860374
67.395 22.648762
67.400 22.663902
67.405 22.121746
67.410 21.39793
67.415 20.798311
67.420 20.746862
67.425 20.746153
67.430 20.66806
67.435 20.514874
67.440 20.558954
67.445 20.958599
67.450 21.052357
67.455 20.897976
67.460 20.7243
67.465 20.56086
67.470 20.770399
67.475 20.742565
67.480 20.616549
67.485 20.106705
67.490 20.097406
67.495 20.239677
67.500 20.325029
67.505 19.981087
67.510 20.285929
67.515 20.539682
67.520 21.273451
67.525 21.531866
67.530 21.858395
67.535 21.78898
67.540 21.858711
67.545 22.233149
67.550 22.406685
67.555 21.547256
67.560 21.560331
67.565 21.347645
67.570 21.735239
67.575 21.897083
67.580 21.625416
67.585 21.965639
67.590 22.588501
67.595 22.412354
67.600 22.696888
67.605 22.757143
67.610 22.465698
67.615 22.40254
67.620 21.835093
67.625 21.843893
67.630 21.327457
67.635 20.915844
67.640 21.094143
67.645 21.059938
67.650 20.465498
67.655 20.969204
67.660 21.308392
67.665 22.164507
67.670 22.137506
67.675 22.142353
67.680 22.307114
67.685 22.987741
67.690 22.891874
67.695 22.736122
67.700 22.187305
67.705 21.984735
67.710 21.521986
67.715 20.960167
67.720 20.718952
67.725 20.896925
67.730 20.833988
67.735 20.528223
67.740 20.280577
67.745 20.857376
67.750 21.688446
67.755 21.377838
67.760 21.160212
67.765 20.963209
67.770 21.084091
67.775 20.574591
67.780 20.137711
67.785 19.619009
67.790 19.815653
67.795 19.629517
67.800 19.621778
67.805 19.828653
67.810 20.36219
67.815 19.795652
67.820 19.813871
67.825 19.749262
67.830 19.467852
67.835 19.581968
67.840 19.581366
67.845 19.49674
67.850 19.682404
67.855 19.389519
67.860 19.090525
67.865 18.757113
67.870 18.668818
67.875 18.804272
67.880 19.378777
67.885 19.787626
67.890 20.264318
67.895 20.33836
67.900 20.732029
67.905 21.370476
67.910 20.998232
67.915 20.594639
67.920 20.237873
67.925 20.200609
67.930 20.457817
67.935 20.785357
67.940 20.474577
67.945 20.772064
67.950 20.604786
67.955 20.534338
67.960 20.674019
67.965 20.310953
67.970 19.092463
67.975 18.657694
67.980 18.330835
67.985 18.332695
67.990 18.212477
67.995 17.717733
68.000 18.26782
68.005 19.200747
68.010 19.47938
68.015 19.747087
68.020 20.578773
68.025 20.785866
68.030 20.519472
68.035 20.659332
68.040 21.020266
68.045 21.571142
68.050 22.218481
68.055 21.830105
68.060 22.08194
68.065 22.293369
68.070 21.965847
68.075 21.802683
68.080 21.552269
68.085 20.79442
68.090 20.461212
68.095 20.282301
68.100 20.138563
68.105 19.978565
68.110 19.419184
68.115 18.801414
68.120 18.594101
68.125 18.698618
68.130 18.867987
68.135 18.99938
68.140 19.083563
68.145 19.356199
68.150 19.814157
68.155 20.382687
68.160 20.500895
68.165 20.476009
68.170 20.653948
68.175 21.122347
68.180 21.504587
68.185 21.846136
68.190 22.298367
68.195 22.655977
68.200 22.400654
68.205 22.134972
68.210 22.042978
68.215 21.974445
68.220 21.608343
68.225 21.245333
68.230 21.083492
68.235 21.476219
68.240 21.411772
68.245 21.184155
68.250 20.973291
68.255 20.669874
68.260 20.51189
68.265 20.674463
68.270 20.594398
68.275 20.562429
68.280 19.561529
68.285 19.475279
68.290 19.985554
68.295 20.03381
68.300 19.476789
68.305 19.501337
68.310 18.93816
68.315 18.46843
68.320 18.010868
68.325 17.47505
68.330 17.733311
68.335 18.224003
68.340 18.431988
68.345 19.117132
68.350 19.43338
68.355 20.000135
68.360 20.040628
68.365 19.752068
68.370 19.840513
68.375 19.737772
68.380 19.828953
68.385 20.696884
68.390 20.822353
68.395 20.84403
68.400 20.926117
68.405 20.497217
68.410 20.308727
68.415 20.140207
68.420 20.231951
68.425 19.905312
68.430 19.528187
68.435 19.084625
68.440 19.631897
68.445 19.958929
68.450 20.212849
68.455 20.085508
68.460 20.186901
68.465 20.94536
68.470 21.410601
68.475 21.63558
68.480 21.923737
68.485 21.282131
68.490 21.235304
68.495 21.40851
68.500 21.40826
68.505 21.100206
68.510 20.076042
68.515 19.806765
68.520 20.191561
68.525 20.29311
68.530 20.375719
68.535 20.164288
68.540 20.334364
68.545 20.746452
68.550 20.403767
68.555 20.259422
68.560 20.421961
68.565 20.407688
68.570 20.278011
68.575 20.174513
68.580 20.435078
68.585 21.349123
68.590 21.239252
68.595 20.803167
68.600 20.652458
68.605 20.519596
68.610 20.858927
68.615 20.879778
68.620 20.92737
68.625 21.137627
68.630 21.239864
68.635 21.612179
68.640 22.229177
68.645 22.020786
68.650 21.961592
68.655 22.030603
68.660 22.475943
68.665 22.782429
68.670 22.922239
68.675 22.393778
68.680 22.248034
68.685 21.968275
68.690 21.781746
68.695 21.718512
68.700 21.086426
68.705 20.484575
68.710 20.713963
68.715 21.11355
68.720 21.611771
68.725 22.566978
68.730 22.865215
68.735 23.951216
68.740 24.242775
68.745 23.963291
68.750 23.664223
68.755 23.412045
68.760 22.428755
68.765 22.567917
68.770 22.013472
68.775 22.22633
68.780 22.532492
68.785 22.489006
68.790 22.204302
68.795 21.918655
68.800 21.307615
68.805 20.998966
68.810 21.225777
68.815 21.073721
68.820 20.873238
68.825 20.877102
68.830 20.939518
68.835 21.121401
68.840 21.367579
68.845 20.847269
68.850 20.685717
68.855 20.532236
68.860 20.560158
68.865 20.675934
68.870 20.741194
68.875 20.514805
68.880 20.655056
68.885 21.100964
68.890 21.374954
68.895 21.277369
68.900 21.410692
68.905 21.872818
68.910 22.777618
68.915 23.310568
68.920 23.609287
68.925 23.522486
68.930 23.70265
68.935 23.629244
68.940 23.60075
68.945 23.042698
68.950 22.675888
68.955 22.219955
68.960 22.542919
68.965 22.646645
68.970 22.189495
68.975 22.589489
68.980 23.297089
68.985 23.674356
68.990 24.032421
68.995 24.185453
69.000 25.033216
69.005 25.750658
69.010 25.291222
69.015 24.982452
69.020 24.576904
69.025 24.813375
69.030 24.669064
69.035 24.304159
69.040 24.748417
69.045 25.24284
69.050 25.586161
69.055 25.701883
69.060 25.278097
69.065 24.811605
69.070 24.55162
69.075 24.030256
69.080 23.198154
69.085 22.827442
69.090 23.025978
69.095 23.269478
69.100 23.923025
69.105 24.35173
69.110 24.229095
69.115 24.915104
69.120 24.762201
69.125 24.687122
69.130 24.661102
69.135 24.7127
69.140 25.175865
69.145 25.855438
69.150 25.892929
69.155 26.926765
69.160 27.105217
69.165 27.370386
69.170 27.392502
69.175 26.858171
69.180 26.81764
69.185 26.392746
69.190 25.981955
69.195 25.952961
69.200 25.673113
69.205 25.706703
69.210 24.6353
69.215 25.098118
69.220 25.8386
69.225 25.671385
69.230 25.601948
69.235 24.959253
69.240 25.741016
69.245 26.567955
69.250 25.821383
69.255 25.495007
69.260 25.46698
69.265 25.730635
69.270 25.947853
69.275 25.803381
69.280 26.649765
69.285 26.79739
69.290 26.310129
69.295 26.336399
69.300 26.127607
69.305 26.412167
69.310 25.748709
69.315 25.383606
69.320 25.123337
69.325 25.325176
69.330 25.57583
69.335 26.201611
69.340 26.119066
69.345 26.796343
69.350 26.573004
69.355 27.28562
69.360 27.802818
69.365 28.405195
69.370 28.761187
69.375 28.861086
69.380 28.381678
69.385 28.232246
69.390 28.104134
69.395 28.003504
69.400 27.964304
69.405 27.800064
69.410 27.526834
69.415 28.541039
69.420 28.961443
69.425 28.055023
69.430 27.759697
69.435 27.620985
69.440 27.825069
69.445 28.177195
69.450 28.145737
69.455 28.531883
69.460 29.470848
69.465 29.532755
69.470 29.244446
69.475 28.553551
69.480 28.500187
69.485 28.371191
69.490 28.573126
69.495 28.313272
69.500 28.692442
69.505 29.185472
69.510 29.501322
69.515 29.793194
69.520 29.874516
69.525 29.230984
69.530 29.857609
69.535 29.632065
69.540 30.077133
69.545 30.272369
69.550 29.860928
69.555 29.806124
69.560 30.405037
69.565 30.097103
69.570 29.102993
69.575 28.491457
69.580 27.380987
69.585 27.227043
69.590 27.197939
69.595 26.251253
69.600 26.547691
69.605 26.764238
69.610 27.183754
69.615 27.316284
69.620 27.58029
69.625 27.84918
69.630 27.440905
69.635 26.899857
69.640 27.19261
69.645 27.474173
69.650 27.242762
69.655 27.619616
69.660 27.460106
69.665 28.311628
69.670 28.826677
69.675 28.363724
69.680 28.232185
69.685 28.681311
69.690 27.31019
69.695 26.533615
69.700 26.416197
69.705 26.594408
69.710 26.87468
69.715 26.694168
69.720 26.695133
69.725 27.30286
69.730 27.336866
69.735 27.34367
69.740 27.016891
69.745 27.550184
69.750 27.573883
69.755 26.826488
69.760 26.269314
69.765 26.219639
69.770 25.837172
69.775 25.351278
69.780 24.833256
69.785 25.188343
69.790 26.180779
69.795 26.492304
69.800 26.538902
69.805 25.804935
69.810 25.803423
69.815 25.379576
69.820 24.719482
69.825 24.285358
69.830 24.365877
69.835 24.888115
69.840 24.967524
69.845 24.88871
69.850 25.344219
69.855 25.701263
69.860 24.603258
69.865 24.540863
69.870 24.478365
69.875 24.652597
69.880 25.046036
69.885 24.483236
69.890 24.000385
69.895 24.047297
69.900 23.461653
69.905 23.770536
69.910 23.649569
69.915 22.755222
69.920 22.535063
69.925 22.805458
69.930 23.108627
69.935 22.84794
69.940 22.737997
69.945 23.078207
69.950 22.90523
69.955 22.987936
69.960 22.510757
69.965 22.548895
69.970 22.192698
69.975 21.478561
69.980 21.43351
69.985 20.994287
69.990 21.069386
69.995 22.157125
70.000 22.707354
70.005 22.823437
70.010 23.164248
70.015 22.572372
70.020 23.108421
70.025 23.123514
70.030 22.22353
70.035 21.872084
70.040 21.885855
70.045 21.468954
70.050 21.677231
70.055 21.766668
70.060 21.896088
70.065 22.048426
70.070 22.082901
70.075 22.136332
70.080 22.577549
70.085 22.443499
70.090 22.594337
70.095 22.512764
70.100 21.964525
70.105 21.609432
70.110 22.141836
70.115 22.291153
70.120 22.274796
70.125 21.720987
70.130 21.953566
70.135 21.559544
70.140 21.56679
70.145 21.375383
70.150 21.172985
70.155 20.88567
70.160 20.966742
70.165 21.021246
70.170 21.283421
70.175 20.959141
70.180 20.483057
70.185 20.206848
70.190 20.069099
70.195 19.351736
70.200 19.207573
70.205 19.440388
70.210 18.440474
70.215 18.018631
70.220 18.173164
70.225 18.387524
70.230 18.259148
70.235 18.30365
70.240 18.952648
70.245 19.937395
70.250 20.356461
70.255 20.907925
70.260 21.576139
70.265 21.766142
70.270 21.55962
70.275 21.342306
70.280 21.621157
70.285 22.058704
70.290 21.442228
70.295 21.026022
70.300 20.806999
70.305 20.765676
70.310 20.252211
70.315 20.431606
70.320 20.154791
70.325 20.596605
70.330 20.277489
70.335 20.28723
70.340 20.252323
70.345 20.60667
70.350 20.448071
70.355 19.49641
70.360 18.763933
70.365 19.248722
70.370 19.502581
70.375 19.63686
70.380 19.1644
70.385 18.944729
70.390 19.397638
70.395 19.618454
70.400 19.845316
70.405 19.466536
70.410 19.772413
70.415 19.439854
70.420 19.47802
70.425 19.820581
70.430 19.873774
70.435 19.893288
70.440 19.561115
70.445 19.29661
70.450 19.718149
70.455 19.829092
70.460 20.148491
70.465 20.201002
70.470 20.122011
70.475 20.653498
70.480 21.007532
70.485 21.268318
70.490 21.404667
70.495 20.796341
70.500 20.562119
70.505 20.144423
70.510 19.977093
70.515 19.665113
70.520 19.977533
70.525 19.879086
70.530 20.530172
70.535 21.038958
70.540 20.929831
70.545 20.98243
70.550 20.177128
70.555 19.426392
70.560 19.001282
70.565 18.413532
70.570 18.568771
70.575 19.024508
70.580 19.06682
70.585 19.378044
70.590 19.672739
70.595 19.888586
70.600 19.596516
70.605 18.704151
70.610 18.608664
70.615 18.591902
70.620 18.579597
70.625 18.14747
70.630 18.47151
70.635 18.459938
70.640 18.493237
70.645 18.314281
70.650 18.100449
70.655 18.656466
70.660 18.899136
70.665 19.094027
70.670 19.342834
70.675 19.09128
70.680 19.004894
70.685 19.088249
70.690 19.090237
70.695 19.362873
70.700 18.985605
70.705 19.061064
70.710 19.826994
70.715 19.54772
70.720 19.236834
70.725 19.041216
70.730 18.758478
70.735 19.153973
70.740 18.923176
70.745 18.586302
70.750 19.08145
70.755 19.793015
70.760 19.569002
70.765 19.198225
70.770 19.281868
70.775 20.210087
70.780 20.319418
70.785 19.956043
70.790 19.690887
70.795 19.816574
70.800 20.12001
70.805 19.623938
70.810 19.292147
70.815 19.615223
70.820 20.043425
70.825 19.7031
70.830 19.38637
70.835 19.08894
70.840 19.131989
70.845 19.047802
70.850 18.703676
70.855 18.367002
70.860 18.508163
70.865 18.905539
70.870 19.012465
70.875 18.784187
70.880 18.463547
70.885 18.284885
70.890 18.555178
70.895 18.150282
70.900 17.479219
70.905 16.843681
70.910 16.673338
70.915 16.685505
70.920 16.777916
70.925 17.255812
70.930 17.726128
70.935 18.158318
70.940 18.840958
70.945 18.729607
70.950 18.631933
70.955 18.286715
70.960 17.812532
70.965 17.931192
70.970 17.909191
70.975 17.388657
70.980 17.241871
70.985 17.603359
70.990 17.826416
70.995 17.36499
71.000 16.925293
71.005 16.808302
71.010 17.083771
71.015 17.378317
71.020 17.456881
71.025 17.328438
71.030 17.717876
71.035 18.228296
71.040 18.68338
71.045 18.994354
71.050 18.730259
71.055 17.477858
71.060 17.183649
71.065 17.108555
71.070 17.149466
71.075 17.300406
71.080 17.226933
71.085 18.08572
71.090 19.102022
71.095 19.294327
71.100 18.744572
71.105 18.615414
71.110 18.642805
71.115 19.09111
71.120 18.913269
71.125 19.034845
71.130 19.356377
71.135 19.961411
71.140 19.701099
71.145 19.678961
71.150 19.101774
71.155 18.697948
71.160 19.27751
71.165 18.905115
71.170 18.949312
71.175 19.227156
71.180 18.708479
71.185 18.655914
71.190 18.79731
71.195 18.08555
71.200 17.821686
71.205 17.106089
71.210 16.863056
71.215 17.394402
71.220 17.531645
71.225 17.30204
71.230 17.541842
71.235 18.386116
71.240 18.725031
71.245 19.427406
71.250 19.754936
71.255 20.070154
71.260 20.245235
71.265 20.810577
71.270 20.564955
71.275 20.044434
71.280 19.594448
71.285 19.868725
71.290 20.063921
71.295 20.284203
71.300 19.869267
71.305 20.122478
71.310 20.184488
71.315 19.909286
71.320 19.515587
71.325 19.319122
71.330 18.64641
71.335 18.168499
71.340 18.405912
71.345 19.144993
71.350 18.698042
71.355 18.070187
71.360 18.063175
71.365 18.374159
71.370 18.355856
71.375 17.848682
71.380 17.178482
71.385 17.45742
71.390 18.123968
71.395 18.814837
71.400 19.006229
71.405 18.845655
71.410 18.907312
71.415 18.83931
71.420 19.289598
71.425 19.380466
71.430 18.578226
71.435 18.563061
71.440 18.472998
71.445 18.425522
71.450 18.596087
71.455 18.169607
71.460 18.014921
71.465 18.308599
71.470 18.275932
71.475 18.487675
71.480 18.76066
71.485 19.308956
71.490 19.233307
71.495 18.975847
71.500 18.829933
71.505 18.838894
71.510 19.302752
71.515 19.409809
71.520 19.437155
71.525 19.775423
71.530 20.191685
71.535 20.06354
71.540 20.018475
71.545 19.570995
71.550 19.462053
71.555 19.355505
71.560 18.942732
71.565 19.342138
71.570 19.663406
71.575 19.168194
71.580 18.855812
71.585 19.207203
71.590 19.197289
71.595 18.974575
71.600 18.492069
71.605 18.837778
71.610 19.637075
71.615 19.269609
71.620 19.326305
71.625 19.675585
71.630 19.802214
71.635 19.779547
71.640 19.527657
71.645 19.503763
71.650 19.343884
71.655 18.834816
71.660 18.883953
71.665 18.860739
71.670 18.986839
71.675 19.062893
71.680 19.723919
71.685 19.562302
71.690 19.471767
71.695 19.600782
71.700 19.643166
71.705 19.01782
71.710 18.245066
71.715 17.3598
71.720 17.619835
71.725 17.719389
71.730 18.035521
71.735 18.098747
71.740 18.466919
71.745 18.82752
71.750 19.845028
71.755 19.654875
71.760 19.76301
71.765 19.138456
71.770 19.527987
71.775 19.913563
71.780 19.689354
71.785 19.414198
71.790 19.578239
71.795 19.593405
71.800 19.982386
71.805 19.57855
71.810 19.566769
71.815 19.745626
71.820 19.944645
71.825 19.599928
71.830 19.429749
71.835 19.023853
71.840 19.29043
71.845 19.574366
71.850 19.173624
71.855 18.786928
71.860 18.655327
71.865 18.712185
71.870 18.45812
71.875 18.093588
71.880 17.89522
71.885 18.31671
71.890 18.457476
71.895 18.432709
71.900 18.514492
71.905 19.020451
71.910 19.015875
71.915 19.254885
71.920 18.864449
71.925 18.708899
71.930 18.719606
71.935 18.638254
71.940 18.811514
71.945 18.064753
71.950 17.194468
71.955 17.032835
71.960 16.863131
71.965 16.162369
71.970 16.121151
71.975 16.614342
71.980 17.565619
71.985 18.292021
71.990 18.300648
71.995 18.350218
72.000 18.835505
72.005 18.588223
72.010 17.975597
72.015 18.31217
72.020 19.016632
72.025 19.730835
72.030 19.684155
72.035 19.341578
72.040 18.974024
72.045 19.17914
72.050 18.582527
72.055 17.859993
72.060 17.767963
72.065 18.079695
72.070 18.216295
72.075 18.464222
72.080 18.034815
72.085 18.615288
72.090 18.471323
72.095 18.473829
72.100 18.252707
72.105 17.995724
72.110 17.69643
72.115 17.799742
72.120 17.998396
72.125 18.195997
72.130 18.223476
72.135 18.559231
72.140 18.845024
72.145 19.249142
72.150 18.779755
72.155 17.778286
72.160 17.443184
72.165 17.392025
72.170 17.330486
72.175 17.313925
72.180 17.546562
72.185 17.358736
72.190 17.041164
72.195 17.719343
72.200 17.80443
72.205 17.385082
72.210 17.074755
72.215 16.239775
72.220 16.397966
72.225 17.333841
72.230 17.294329
72.235 17.28104
72.240 17.423738
72.245 17.804111
72.250 19.055693
72.255 19.187422
72.260 18.523499
72.265 18.255913
72.270 18.817175
72.275 19.299559
72.280 18.972345
72.285 17.737574
72.290 17.853155
72.295 17.986267
72.300 17.551126
72.305 16.699072
72.310 16.273846
72.315 16.926397
72.320 17.673206
72.325 17.654486
72.330 17.729832
72.335 18.594557
72.340 19.077415
72.345 19.124683
72.350 18.832548
72.355 18.54792
72.360 18.559435
72.365 18.743818
72.370 19.055157
72.375 19.107063
72.380 19.007597
72.385 18.920206
72.390 19.152678
72.395 19.180351
72.400 18.878941
72.405 18.309519
72.410 17.925501
72.415 17.841621
72.420 17.957788
72.425 17.681927
72.430 17.836962
72.435 18.074194
72.440 18.556656
72.445 19.334791
72.450 19.526451
72.455 19.764994
72.460 19.719469
72.465 19.812841
72.470 19.611036
72.475 19.381752
72.480 19.145397
72.485 19.235266
72.490 19.360983
72.495 19.164612
72.500 19.248886
72.505 19.573624
72.510 19.58815
72.515 18.867453
72.520 18.952923
72.525 18.844162
72.530 18.534668
72.535 18.414042
72.540 17.873831
72.545 17.736034
72.550 18.277405
72.555 17.864584
72.560 18.239323
72.565 18.7027
72.570 18.722462
72.575 18.793081
72.580 19.058018
72.585 19.379791
72.590 19.613646
72.595 19.530333
72.600 18.972931
72.605 19.042612
72.610 19.103884
72.615 18.461458
72.620 18.119116
72.625 18.306257
72.630 18.102646
72.635 18.314226
72.640 18.406754
72.645 18.585199
72.650 18.451971
72.655 17.598488
72.660 17.184074
72.665 17.319832
72.670 17.157822
72.675 16.792921
72.680 16.689316
72.685 16.372364
72.690 17.215067
72.695 17.804647
72.700 17.445658
72.705 17.177477
72.710 17.24375
72.715 17.650286
72.720 17.560345
72.725 17.123295
72.730 16.249792
72.735 16.246353
72.740 16.932821
72.745 16.777578
72.750 16.425648
72.755 16.186407
72.760 15.972131
72.765 16.783598
72.770 17.020195
72.775 16.757017
72.780 17.036816
72.785 17.104279
72.790 17.76528
72.795 18.166624
72.800 18.222324
72.805 17.634529
72.810 17.422272
72.815 17.182232
72.820 17.400608
72.825 17.01577
72.830 16.90789
72.835 16.368847
72.840 16.250633
72.845 16.114031
72.850 16.325064
72.855 16.631578
72.860 16.10149
72.865 16.28384
72.870 16.877918
72.875 17.02989
72.880 17.321621
72.885 17.622362
72.890 17.673502
72.895 18.306805
72.900 18.160997
72.905 18.074387
72.910 18.025139
72.915 17.703629
72.920 17.693552
72.925 17.519943
72.930 17.036118
72.935 16.999905
72.940 16.937773
72.945 17.039131
72.950 17.254972
72.955 17.595331
72.960 17.236471
72.965 17.273188
72.970 17.295061
72.975 17.485691
72.980 17.544289
72.985 17.073048
72.990 16.492422
72.995 16.333931
73.000 16.142591
