!@!!GADDS PLOTSO FILE: Chi integration type
!@!!Title/SampleName: map-87
!@!!Comment: ?
!@!!User: Bruker Instrument Administrator
!@!!Site: University of Illinois Chicago
!@!!Frame: map-87_01_000.gfrm
!@!!Wavelengths    1.54184   1.54056   1.54439
!@!!Frame angles: 2Theta: 63.000 Omega: 50.000 Phi: 0.000 Chi: 90.000
!@!!Integration range: 2Theta: 53.000 to 73.000  Gamma: -105.000 to -75.000
!@!!Integration method: bin normalized
!@!N
!@!SS
!@!M
!@!L 0.0 0.0 0.0 0.0
!@!XDegrees
!@!YCounts
53.000 6.688923
53.005 6.973008
53.010 7.106479
53.015 6.889686
53.020 7.087631
53.025 7.316474
53.030 7.273319
53.035 7.41778
53.040 7.307485
53.045 7.467627
53.050 7.741834
53.055 7.361847
53.060 7.551969
53.065 7.531353
53.070 7.362445
53.075 7.693284
53.080 7.641114
53.085 7.705433
53.090 8.032382
53.095 8.048537
53.100 8.422588
53.105 8.584476
53.110 8.381171
53.115 8.801868
53.120 8.803594
53.125 8.48912
53.130 8.426472
53.135 8.4178
53.140 8.438529
53.145 8.388811
53.150 8.246238
53.155 8.347898
53.160 7.927689
53.165 7.855484
53.170 7.767776
53.175 7.595495
53.180 7.356618
53.185 6.696311
53.190 6.828801
53.195 6.988447
53.200 6.780501
53.205 6.813785
53.210 7.06553
53.215 7.350412
53.220 7.509811
53.225 7.653347
53.230 7.711715
53.235 7.85498
53.240 7.979426
53.245 7.757047
53.250 7.78223
53.255 7.636129
53.260 7.478267
53.265 7.105394
53.270 7.164803
53.275 6.952374
53.280 7.327811
53.285 7.455438
53.290 7.743024
53.295 7.746596
53.300 7.649467
53.305 7.593261
53.310 7.855248
53.315 7.514224
53.320 7.413899
53.325 7.327859
53.330 7.874283
53.335 8.071514
53.340 8.086565
53.345 7.864978
53.350 8.043269
53.355 7.827998
53.360 7.751245
53.365 7.428335
53.370 7.431132
53.375 7.325695
53.380 7.28112
53.385 7.518425
53.390 7.697126
53.395 7.491434
53.400 7.37052
53.405 7.565073
53.410 7.986506
53.415 8.371203
53.420 8.625671
53.425 8.378033
53.430 8.437127
53.435 8.316839
53.440 7.974847
53.445 7.592216
53.450 7.652514
53.455 7.83121
53.460 8.229433
53.465 8.039722
53.470 8.334965
53.475 8.186191
53.480 7.718966
53.485 6.922076
53.490 6.382106
53.495 6.634246
53.500 6.98774
53.505 6.956168
53.510 7.360945
53.515 7.464386
53.520 7.330123
53.525 7.773968
53.530 7.491241
53.535 7.318686
53.540 7.292044
53.545 7.348886
53.550 7.899334
53.555 8.239983
53.560 7.930848
53.565 8.001897
53.570 7.953655
53.575 8.056381
53.580 8.062359
53.585 7.869907
53.590 8.037358
53.595 8.057023
53.600 8.225013
53.605 8.492255
53.610 8.622612
53.615 8.41573
53.620 8.096963
53.625 8.352356
53.630 8.147561
53.635 8.065399
53.640 8.208829
53.645 8.253897
53.650 8.676649
53.655 8.811154
53.660 8.548942
53.665 8.892801
53.670 8.872651
53.675 8.579498
53.680 8.133644
53.685 8.633889
53.690 9.100963
53.695 9.484406
53.700 9.510302
53.705 9.491922
53.710 9.683921
53.715 9.468473
53.720 8.784076
53.725 8.238581
53.730 7.555277
53.735 7.349371
53.740 7.527881
53.745 7.603028
53.750 8.276716
53.755 8.445397
53.760 8.673529
53.765 9.24218
53.770 9.504541
53.775 9.493529
53.780 9.397538
53.785 8.795442
53.790 8.937968
53.795 8.797112
53.800 8.3991
53.805 8.333924
53.810 8.29473
53.815 8.310058
53.820 8.599315
53.825 8.545648
53.830 8.817434
53.835 8.801114
53.840 8.630447
53.845 8.573251
53.850 8.654286
53.855 8.696114
53.860 8.419709
53.865 8.247251
53.870 8.413476
53.875 8.406315
53.880 8.221452
53.885 7.871018
53.890 8.149746
53.895 8.548079
53.900 8.698528
53.905 9.069624
53.910 9.284785
53.915 9.356506
53.920 9.390821
53.925 9.041023
53.930 8.873117
53.935 8.486848
53.940 7.874474
53.945 8.131237
53.950 8.131723
53.955 8.169732
53.960 8.330602
53.965 8.427453
53.970 8.266633
53.975 8.465361
53.980 8.324064
53.985 8.204505
53.990 7.990978
53.995 7.548656
54.000 7.109491
54.005 7.128291
54.010 6.682396
54.015 6.573911
54.020 6.672919
54.025 7.030133
54.030 7.756167
54.035 9.142307
54.040 9.849769
54.045 10.163229
54.050 10.245309
54.055 10.292191
54.060 10.072732
54.065 9.648643
54.070 9.115816
54.075 9.072922
54.080 9.121557
54.085 9.297719
54.090 9.337115
54.095 9.522525
54.100 9.815215
54.105 9.786409
54.110 9.644285
54.115 9.61003
54.120 8.991897
54.125 9.092062
54.130 8.632398
54.135 8.216772
54.140 8.160422
54.145 8.164514
54.150 8.362008
54.155 8.60014
54.160 8.726323
54.165 8.520738
54.170 9.319155
54.175 9.570509
54.180 9.506614
54.185 9.478728
54.190 9.668758
54.195 9.351371
54.200 9.489756
54.205 8.769167
54.210 8.801833
54.215 8.989224
54.220 9.156004
54.225 9.107085
54.230 9.39076
54.235 9.667265
54.240 9.511573
54.245 9.535853
54.250 9.329068
54.255 9.405685
54.260 9.307426
54.265 8.822708
54.270 8.311067
54.275 8.412161
54.280 8.783895
54.285 8.892209
54.290 8.616644
54.295 8.524839
54.300 8.67484
54.305 9.268195
54.310 9.474423
54.315 9.179117
54.320 8.959944
54.325 9.020587
54.330 9.406294
54.335 9.774168
54.340 9.808741
54.345 9.67205
54.350 10.010745
54.355 10.791744
54.360 10.649743
54.365 10.025544
54.370 9.695688
54.375 9.702244
54.380 9.53091
54.385 9.071424
54.390 8.873809
54.395 9.124453
54.400 9.123205
54.405 8.935096
54.410 8.65879
54.415 8.935406
54.420 8.961361
54.425 8.827538
54.430 8.92719
54.435 8.959267
54.440 8.674213
54.445 8.79627
54.450 8.442599
54.455 8.216365
54.460 7.978424
54.465 7.77601
54.470 7.838059
54.475 7.734223
54.480 7.710513
54.485 8.340003
54.490 8.479668
54.495 8.821501
54.500 9.146611
54.505 9.113251
54.510 9.275269
54.515 8.878025
54.520 8.6535
54.525 8.54078
54.530 8.662837
54.535 8.497296
54.540 8.345235
54.545 8.179202
54.550 7.987626
54.555 7.829178
54.560 7.935251
54.565 8.255955
54.570 8.386485
54.575 8.844616
54.580 8.922708
54.585 9.078462
54.590 9.197866
54.595 9.058062
54.600 8.766108
54.605 9.501457
54.610 9.712676
54.615 10.025345
54.620 10.196579
54.625 10.372736
54.630 10.539004
54.635 10.556505
54.640 10.254847
54.645 10.08324
54.650 9.883333
54.655 10.07841
54.660 9.74766
54.665 9.673862
54.670 9.437309
54.675 9.307243
54.680 9.244298
54.685 9.287268
54.690 9.658415
54.695 9.85521
54.700 9.583117
54.705 9.176558
54.710 9.233341
54.715 9.059928
54.720 8.795588
54.725 7.904975
54.730 7.990847
54.735 8.776818
54.740 9.498314
54.745 9.404333
54.750 9.471083
54.755 9.811641
54.760 10.520281
54.765 10.75677
54.770 10.219288
54.775 9.755423
54.780 10.001208
54.785 9.96253
54.790 10.082474
54.795 10.097042
54.800 9.901588
54.805 10.123031
54.810 10.385218
54.815 10.76557
54.820 10.998095
54.825 10.966817
54.830 10.543411
54.835 10.548308
54.840 10.554106
54.845 10.718529
54.850 10.443084
54.855 10.823868
54.860 10.8242
54.865 10.77049
54.870 10.76041
54.875 10.999146
54.880 11.165893
54.885 11.216919
54.890 10.971845
54.895 11.024378
54.900 11.052882
54.905 10.832178
54.910 10.771982
54.915 10.745505
54.920 10.264307
54.925 10.078484
54.930 9.839452
54.935 10.080713
54.940 10.671134
54.945 10.506272
54.950 10.122047
54.955 10.309754
54.960 10.529696
54.965 10.506576
54.970 10.62672
54.975 10.097902
54.980 10.523073
54.985 11.103783
54.990 11.316484
54.995 10.932016
55.000 11.114241
55.005 11.035877
55.010 10.948511
55.015 10.349587
55.020 9.990556
55.025 9.852261
55.030 10.341166
55.035 10.363999
55.040 10.179893
55.045 10.367456
55.050 10.295996
55.055 10.48631
55.060 10.775565
55.065 10.604723
55.070 10.297872
55.075 10.189994
55.080 10.160271
55.085 9.858571
55.090 9.481558
55.095 9.001678
55.100 8.498661
55.105 8.69838
55.110 9.25515
55.115 9.585325
55.120 10.048185
55.125 9.929686
55.130 10.500096
55.135 11.281835
55.140 11.296317
55.145 10.550728
55.150 10.451663
55.155 10.4401
55.160 10.796111
55.165 10.435436
55.170 10.210108
55.175 10.142438
55.180 10.359603
55.185 10.015311
55.190 9.299952
55.195 8.86952
55.200 8.756393
55.205 8.611037
55.210 8.784158
55.215 8.830339
55.220 9.37369
55.225 9.694446
55.230 9.703861
55.235 9.737629
55.240 9.727941
55.245 9.498
55.250 9.428681
55.255 9.198422
55.260 9.492022
55.265 9.697662
55.270 9.829852
55.275 10.083141
55.280 9.972308
55.285 9.840185
55.290 10.147151
55.295 10.318071
55.300 10.084959
55.305 9.813505
55.310 10.034563
55.315 10.209743
55.320 10.303764
55.325 10.2688
55.330 9.9595
55.335 10.167671
55.340 10.445211
55.345 10.379095
55.350 10.631353
55.355 10.9201
55.360 10.88025
55.365 11.008912
55.370 11.174747
55.375 11.172724
55.380 11.101563
55.385 10.857792
55.390 10.50864
55.395 10.49808
55.400 10.317429
55.405 10.048998
55.410 10.01317
55.415 9.811523
55.420 9.573895
55.425 9.384165
55.430 9.735733
55.435 9.810975
55.440 9.661363
55.445 9.66742
55.450 10.213411
55.455 10.22717
55.460 10.270148
55.465 10.469075
55.470 10.848404
55.475 11.196012
55.480 10.932665
55.485 10.77487
55.490 11.281343
55.495 11.517188
55.500 11.326323
55.505 11.386105
55.510 11.202692
55.515 11.160339
55.520 11.160282
55.525 10.799661
55.530 10.550598
55.535 10.82479
55.540 11.080944
55.545 11.113986
55.550 11.208722
55.555 11.062639
55.560 11.28019
55.565 11.523849
55.570 11.354302
55.575 11.026693
55.580 11.228256
55.585 11.534145
55.590 11.692958
55.595 11.405578
55.600 10.952491
55.605 10.365928
55.610 10.992182
55.615 10.60863
55.620 10.508458
55.625 10.672613
55.630 10.535002
55.635 10.876697
55.640 11.489028
55.645 11.203975
55.650 11.49487
55.655 11.196424
55.660 11.176565
55.665 11.234625
55.670 10.764627
55.675 10.179831
55.680 9.784085
55.685 9.405915
55.690 9.569753
55.695 9.321578
55.700 9.337139
55.705 9.480182
55.710 9.478957
55.715 9.793352
55.720 10.659595
55.725 10.93224
55.730 11.017228
55.735 11.830818
55.740 12.017193
55.745 12.031656
55.750 11.616849
55.755 11.017502
55.760 11.190848
55.765 10.678504
55.770 9.546789
55.775 9.642088
55.780 9.688776
55.785 9.777094
55.790 9.56378
55.795 9.462602
55.800 10.118914
55.805 10.713785
55.810 10.872791
55.815 11.008652
55.820 11.554859
55.825 12.033607
55.830 12.218125
55.835 12.488892
55.840 12.610844
55.845 12.484901
55.850 12.364564
55.855 11.619443
55.860 11.310004
55.865 11.281271
55.870 10.976709
55.875 10.676027
55.880 10.418233
55.885 10.61998
55.890 10.722438
55.895 10.378007
55.900 10.57595
55.905 10.477587
55.910 10.435728
55.915 10.904
55.920 10.713875
55.925 10.615417
55.930 10.985728
55.935 10.846981
55.940 11.686557
55.945 11.890925
55.950 11.753738
55.955 11.751891
55.960 11.922134
55.965 11.513136
55.970 11.165376
55.975 10.784459
55.980 11.118123
55.985 11.56598
55.990 11.65621
55.995 11.803822
56.000 12.17258
56.005 12.145597
56.010 12.038763
56.015 11.445265
56.020 11.433496
56.025 11.562554
56.030 11.474504
56.035 11.382237
56.040 11.615953
56.045 11.059577
56.050 10.477653
56.055 9.540008
56.060 9.351775
56.065 9.357697
56.070 8.996253
56.075 8.573399
56.080 8.961466
56.085 9.040301
56.090 9.29336
56.095 9.417596
56.100 9.057736
56.105 9.364689
56.110 9.589692
56.115 9.886669
56.120 10.661649
56.125 10.513503
56.130 10.86691
56.135 10.931719
56.140 10.637432
56.145 10.80809
56.150 10.866297
56.155 10.979175
56.160 10.865614
56.165 10.788924
56.170 10.948169
56.175 10.969821
56.180 10.534455
56.185 10.134163
56.190 9.876709
56.195 10.209324
56.200 10.301517
56.205 10.724312
56.210 10.760178
56.215 11.305837
56.220 11.77279
56.225 12.895599
56.230 13.159726
56.235 13.114769
56.240 12.939124
56.245 12.814631
56.250 12.360154
56.255 12.102818
56.260 11.317887
56.265 10.891294
56.270 10.948836
56.275 10.746573
56.280 10.624909
56.285 10.699776
56.290 10.887964
56.295 10.823814
56.300 10.697733
56.305 10.650322
56.310 10.87917
56.315 10.761536
56.320 10.555728
56.325 10.386046
56.330 10.473755
56.335 10.696976
56.340 10.862514
56.345 10.775207
56.350 11.083391
56.355 11.496264
56.360 11.751327
56.365 11.867513
56.370 11.796639
56.375 11.59448
56.380 11.824628
56.385 11.903997
56.390 11.139287
56.395 10.913437
56.400 10.909755
56.405 11.369134
56.410 11.833274
56.415 11.933898
56.420 11.870234
56.425 11.882649
56.430 11.532806
56.435 11.232601
56.440 11.019225
56.445 10.739065
56.450 11.168019
56.455 11.562308
56.460 11.733496
56.465 11.722335
56.470 11.79131
56.475 11.160283
56.480 10.485609
56.485 9.65398
56.490 10.068675
56.495 10.573264
56.500 10.738423
56.505 10.497703
56.510 11.265503
56.515 12.107599
56.520 12.43098
56.525 11.813572
56.530 11.863274
56.535 12.047278
56.540 12.561672
56.545 12.510675
56.550 12.475315
56.555 12.146491
56.560 12.236272
56.565 11.953546
56.570 12.073074
56.575 11.9823
56.580 11.723962
56.585 11.345416
56.590 11.718849
56.595 11.388046
56.600 11.32856
56.605 11.174646
56.610 10.93671
56.615 10.719137
56.620 10.644081
56.625 10.639346
56.630 10.903036
56.635 10.995161
56.640 11.190386
56.645 11.440932
56.650 11.326093
56.655 11.608772
56.660 11.433712
56.665 11.39715
56.670 11.776987
56.675 11.473104
56.680 11.475836
56.685 11.870397
56.690 11.592097
56.695 12.117773
56.700 12.17667
56.705 12.171026
56.710 12.550737
56.715 12.52532
56.720 12.459112
56.725 12.884145
56.730 12.608127
56.735 12.42417
56.740 11.925177
56.745 11.731883
56.750 11.943921
56.755 12.108896
56.760 12.070327
56.765 11.623401
56.770 11.613636
56.775 11.41813
56.780 11.477283
56.785 11.66398
56.790 11.719843
56.795 11.85699
56.800 12.229039
56.805 12.779546
56.810 13.654972
56.815 13.69015
56.820 13.339454
56.825 13.003985
56.830 13.076921
56.835 13.360323
56.840 12.958342
56.845 12.357276
56.850 12.143727
56.855 12.279678
56.860 12.311781
56.865 12.497124
56.870 12.883104
56.875 12.983831
56.880 13.359263
56.885 13.19251
56.890 13.201533
56.895 13.56021
56.900 12.921307
56.905 12.186114
56.910 12.239109
56.915 12.534584
56.920 12.930478
56.925 12.528126
56.930 12.154881
56.935 12.246108
56.940 12.603449
56.945 12.906726
56.950 12.499227
56.955 11.865352
56.960 12.140392
56.965 12.143773
56.970 12.531954
56.975 12.415362
56.980 12.351364
56.985 12.271421
56.990 12.488431
56.995 12.376978
57.000 12.225201
57.005 11.768105
57.010 11.564617
57.015 11.697123
57.020 11.7316
57.025 11.840276
57.030 11.650666
57.035 11.758034
57.040 12.139899
57.045 11.765538
57.050 11.588983
57.055 11.797671
57.060 12.116558
57.065 12.187901
57.070 12.356151
57.075 12.593999
57.080 12.625201
57.085 12.128179
57.090 11.872505
57.095 11.631812
57.100 11.311303
57.105 11.020037
57.110 10.539483
57.115 10.76951
57.120 11.321848
57.125 11.545153
57.130 11.53891
57.135 12.009753
57.140 12.892591
57.145 13.488012
57.150 13.445599
57.155 12.92863
57.160 12.747888
57.165 12.971044
57.170 12.4762
57.175 12.067298
57.180 11.681082
57.185 11.87862
57.190 12.296599
57.195 12.644925
57.200 12.742438
57.205 13.170646
57.210 12.923698
57.215 13.032585
57.220 12.876319
57.225 13.116258
57.230 13.091289
57.235 12.809684
57.240 12.749752
57.245 12.49504
57.250 12.483507
57.255 12.618076
57.260 12.199459
57.265 12.529069
57.270 12.860637
57.275 12.653971
57.280 12.834379
57.285 13.032707
57.290 13.468394
57.295 13.99349
57.300 13.900649
57.305 13.798702
57.310 14.312653
57.315 14.65532
57.320 14.463244
57.325 13.644733
57.330 13.263228
57.335 13.549076
57.340 13.998174
57.345 14.014115
57.350 13.959792
57.355 13.914304
57.360 14.544038
57.365 14.670889
57.370 14.010548
57.375 13.813031
57.380 13.111135
57.385 12.628573
57.390 12.817268
57.395 12.543624
57.400 12.501228
57.405 12.50395
57.410 12.074258
57.415 12.574277
57.420 12.367676
57.425 12.164394
57.430 11.965073
57.435 12.114968
57.440 12.432122
57.445 12.340022
57.450 12.279633
57.455 12.958984
57.460 13.275622
57.465 12.990875
57.470 12.541407
57.475 12.318446
57.480 12.612416
57.485 12.920715
57.490 12.814896
57.495 12.758974
57.500 13.540247
57.505 13.508548
57.510 13.854484
57.515 14.09966
57.520 13.451017
57.525 13.068727
57.530 12.738044
57.535 12.5981
57.540 12.730237
57.545 12.384638
57.550 12.232526
57.555 13.037477
57.560 13.115906
57.565 13.185803
57.570 13.153541
57.575 13.111715
57.580 12.92552
57.585 12.966647
57.590 11.974875
57.595 12.557939
57.600 13.222202
57.605 13.313835
57.610 13.42372
57.615 13.176845
57.620 12.606643
57.625 13.227671
57.630 12.994896
57.635 12.120575
57.640 11.822412
57.645 11.98206
57.650 12.761438
57.655 13.280395
57.660 12.809125
57.665 12.898205
57.670 13.267004
57.675 13.047975
57.680 12.928206
57.685 12.607084
57.690 12.398752
57.695 12.331603
57.700 11.665836
57.705 11.496626
57.710 11.689269
57.715 11.727173
57.720 12.008269
57.725 12.142843
57.730 12.409664
57.735 13.090899
57.740 13.697268
57.745 13.868723
57.750 14.175883
57.755 13.970027
57.760 13.90274
57.765 14.140874
57.770 13.828957
57.775 13.526027
57.780 13.513421
57.785 13.51783
57.790 13.617992
57.795 13.700435
57.800 14.102969
57.805 14.128786
57.810 14.316545
57.815 14.461589
57.820 14.425374
57.825 14.426512
57.830 14.359068
57.835 13.988657
57.840 13.708365
57.845 13.719208
57.850 13.734661
57.855 13.838994
57.860 13.742358
57.865 13.359906
57.870 13.708954
57.875 13.706111
57.880 13.508554
57.885 13.349885
57.890 13.23308
57.895 13.458354
57.900 13.167252
57.905 12.722786
57.910 12.806927
57.915 12.899058
57.920 12.841962
57.925 13.145143
57.930 13.342278
57.935 14.02833
57.940 14.421433
57.945 14.536073
57.950 14.512021
57.955 14.272946
57.960 13.673308
57.965 13.698543
57.970 13.308016
57.975 12.909937
57.980 12.907652
57.985 12.481194
57.990 12.434169
57.995 12.960329
58.000 12.740772
58.005 13.085897
58.010 14.17238
58.015 14.577433
58.020 14.526254
58.025 15.092802
58.030 14.841749
58.035 15.217671
58.040 14.749444
58.045 14.019852
58.050 14.058667
58.055 14.210117
58.060 14.21513
58.065 14.708971
58.070 14.857789
58.075 14.873757
58.080 14.853865
58.085 14.569085
58.090 14.623652
58.095 14.109628
58.100 13.912549
58.105 14.021769
58.110 14.355077
58.115 14.395297
58.120 14.461673
58.125 15.152467
58.130 15.469067
58.135 15.236564
58.140 15.112554
58.145 15.043048
58.150 14.722566
58.155 14.826514
58.160 14.546718
58.165 14.969533
58.170 15.064404
58.175 15.142246
58.180 15.380731
58.185 15.752157
58.190 15.815042
58.195 15.431064
58.200 15.170176
58.205 14.783954
58.210 14.507148
58.215 14.175492
58.220 14.149672
58.225 13.953043
58.230 13.940746
58.235 13.672467
58.240 14.061164
58.245 14.148807
58.250 14.0012
58.255 14.356045
58.260 14.69525
58.265 15.077007
58.270 15.273356
58.275 15.108499
58.280 14.987911
58.285 15.252708
58.290 15.136684
58.295 14.685513
58.300 14.081964
58.305 14.337768
58.310 14.618196
58.315 14.858712
58.320 14.375442
58.325 14.145644
58.330 14.368114
58.335 14.665863
58.340 14.118842
58.345 14.256041
58.350 13.883217
58.355 14.07583
58.360 14.192252
58.365 14.570113
58.370 14.666156
58.375 14.866965
58.380 14.664608
58.385 15.186517
58.390 14.881407
58.395 15.017397
58.400 14.740085
58.405 14.767516
58.410 14.495198
58.415 14.422583
58.420 14.813482
58.425 15.13373
58.430 14.960957
58.435 14.789652
58.440 15.06798
58.445 15.183591
58.450 15.380658
58.455 15.125222
58.460 15.17934
58.465 15.391069
58.470 15.423736
58.475 15.274061
58.480 15.330133
58.485 15.317901
58.490 16.102701
58.495 17.005568
58.500 17.57959
58.505 18.263933
58.510 18.475433
58.515 18.920345
58.520 18.850069
58.525 17.783503
58.530 17.23752
58.535 16.909946
58.540 16.351763
58.545 16.008751
58.550 16.243351
58.555 16.540028
58.560 16.54826
58.565 16.442652
58.570 16.847216
58.575 16.922503
58.580 17.628159
58.585 17.918608
58.590 18.124277
58.595 18.556873
58.600 18.77692
58.605 19.098631
58.610 19.47983
58.615 18.700573
58.620 18.289467
58.625 18.617434
58.630 18.871119
58.635 18.72979
58.640 18.075216
58.645 17.961941
58.650 17.978508
58.655 17.790091
58.660 17.527405
58.665 17.456934
58.670 17.288944
58.675 17.683187
58.680 18.109051
58.685 18.710169
58.690 19.01152
58.695 19.99478
58.700 20.06637
58.705 20.224998
58.710 20.271229
58.715 20.830799
58.720 20.510246
58.725 19.896574
58.730 19.124916
58.735 19.040493
58.740 19.514469
58.745 19.418873
58.750 18.536839
58.755 18.742525
58.760 19.758467
58.765 20.10943
58.770 20.405605
58.775 19.990608
58.780 20.012188
58.785 20.487568
58.790 20.345558
58.795 20.11195
58.800 20.887003
58.805 20.861147
58.810 21.153044
58.815 21.00148
58.820 21.085505
58.825 21.583157
58.830 21.205952
58.835 20.918097
58.840 21.349056
58.845 21.823725
58.850 22.139637
58.855 21.866489
58.860 21.876026
58.865 22.192371
58.870 21.52422
58.875 20.724754
58.880 19.452934
58.885 19.190556
58.890 18.681583
58.895 18.447796
58.900 18.318031
58.905 18.344843
58.910 19.031416
58.915 20.147224
58.920 20.580381
58.925 20.719791
58.930 20.579729
58.935 19.963732
58.940 19.590988
58.945 19.122196
58.950 18.158241
58.955 17.539991
58.960 17.697042
58.965 17.634548
58.970 18.301476
58.975 18.6499
58.980 18.658609
58.985 19.310923
58.990 19.59395
58.995 19.732807
59.000 19.726515
59.005 19.70347
59.010 20.308363
59.015 20.626251
59.020 20.377441
59.025 20.12797
59.030 20.451969
59.035 21.171156
59.040 21.633902
59.045 21.655529
59.050 21.862226
59.055 21.743925
59.060 22.528393
59.065 22.523863
59.070 22.103817
59.075 21.654718
59.080 21.790182
59.085 21.360273
59.090 21.743942
59.095 21.194048
59.100 20.786886
59.105 20.329498
59.110 19.257168
59.115 18.342646
59.120 18.238213
59.125 18.576056
59.130 19.053694
59.135 19.446953
59.140 19.923988
59.145 20.343624
59.150 20.623007
59.155 21.226473
59.160 21.249809
59.165 20.641413
59.170 20.415909
59.175 20.406076
59.180 20.632868
59.185 20.549011
59.190 19.616274
59.195 18.68392
59.200 18.687588
59.205 18.39538
59.210 18.580969
59.215 18.81172
59.220 19.079357
59.225 19.77828
59.230 20.229471
59.235 20.452274
59.240 20.779387
59.245 20.5917
59.250 20.371868
59.255 20.129522
59.260 19.749546
59.265 19.388474
59.270 19.624439
59.275 19.408352
59.280 19.006964
59.285 19.439631
59.290 19.55588
59.295 20.349581
59.300 20.889425
59.305 20.740889
59.310 20.835093
59.315 20.797327
59.320 20.921558
59.325 21.267826
59.330 20.889141
59.335 21.365145
59.340 21.562279
59.345 21.617727
59.350 21.689734
59.355 20.748291
59.360 20.680729
59.365 20.487188
59.370 19.768385
59.375 19.457216
59.380 19.69405
59.385 19.978804
59.390 20.258493
59.395 20.239031
59.400 20.386354
59.405 20.096556
59.410 19.757845
59.415 19.475021
59.420 19.753059
59.425 19.91478
59.430 19.463428
59.435 19.222492
59.440 19.064646
59.445 19.101645
59.450 18.472055
59.455 18.555941
59.460 18.675945
59.465 18.811068
59.470 18.716822
59.475 19.39146
59.480 19.820932
59.485 20.555557
59.490 20.493793
59.495 20.264851
59.500 20.113157
59.505 20.034929
59.510 19.441164
59.515 19.388136
59.520 19.216181
59.525 18.881889
59.530 18.576046
59.535 18.161886
59.540 17.800682
59.545 17.832605
59.550 17.713263
59.555 17.724436
59.560 18.321693
59.565 18.61134
59.570 19.571327
59.575 19.728806
59.580 19.410059
59.585 19.25075
59.590 19.21011
59.595 18.615747
59.600 17.769335
59.605 17.014141
59.610 17.266333
59.615 17.524868
59.620 17.562447
59.625 17.496622
59.630 18.250738
59.635 18.663752
59.640 18.745728
59.645 18.772102
59.650 18.788126
59.655 18.417372
59.660 17.716602
59.665 17.315084
59.670 17.842403
59.675 18.569443
59.680 18.657455
59.685 18.701805
59.690 19.206112
59.695 19.496178
59.700 19.947462
59.705 19.27313
59.710 18.637285
59.715 18.659456
59.720 18.687975
59.725 17.991871
59.730 17.514317
59.735 16.874378
59.740 17.185694
59.745 17.207714
59.750 16.535641
59.755 16.316771
59.760 17.245918
59.765 17.986702
59.770 18.168839
59.775 18.249331
59.780 18.242815
59.785 18.727945
59.790 18.619995
59.795 17.951324
59.800 17.573685
59.805 17.007694
59.810 16.883621
59.815 17.297958
59.820 17.414917
59.825 17.277716
59.830 17.30274
59.835 17.846338
59.840 17.685532
59.845 17.896374
59.850 17.598349
59.855 17.221848
59.860 17.577242
59.865 17.778498
59.870 17.700518
59.875 17.927851
59.880 17.966862
59.885 18.052446
59.890 18.483978
59.895 18.482203
59.900 18.508181
59.905 18.794142
59.910 18.891178
59.915 18.440805
59.920 18.714136
59.925 19.080332
59.930 19.219963
59.935 19.190039
59.940 18.811243
59.945 19.058661
59.950 19.331789
59.955 19.193213
59.960 18.796001
59.965 18.370672
59.970 18.10297
59.975 18.295233
59.980 17.963734
59.985 17.630564
59.990 17.273472
59.995 17.425346
60.000 17.823862
60.005 17.501394
60.010 17.402575
60.015 17.212397
60.020 17.028269
60.025 16.538399
60.030 15.947684
60.035 15.719232
60.040 16.469799
60.045 16.488268
60.050 16.725813
60.055 17.040037
60.060 18.081837
60.065 18.639837
60.070 18.604832
60.075 18.241209
60.080 18.236876
60.085 19.041883
60.090 19.007929
60.095 18.141081
60.100 17.966251
60.105 18.531948
60.110 18.073971
60.115 18.182503
60.120 18.27429
60.125 18.155615
60.130 18.138815
60.135 17.971199
60.140 17.574602
60.145 18.020077
60.150 17.403122
60.155 16.665924
60.160 16.706917
60.165 16.790354
60.170 17.050346
60.175 17.10074
60.180 17.186092
60.185 17.106792
60.190 16.908844
60.195 17.101824
60.200 17.358025
60.205 17.289989
60.210 16.565262
60.215 16.192923
60.220 15.815893
60.225 15.321256
60.230 14.905469
60.235 14.679494
60.240 14.53286
60.245 15.528072
60.250 15.860053
60.255 16.220985
60.260 16.409649
60.265 16.641062
60.270 16.505297
60.275 16.859308
60.280 16.34107
60.285 16.486509
60.290 16.836842
60.295 17.21909
60.300 16.952986
60.305 16.916649
60.310 16.555805
60.315 16.498257
60.320 16.472071
60.325 16.191528
60.330 16.264788
60.335 16.742441
60.340 16.632504
60.345 16.57057
60.350 16.356171
60.355 16.206375
60.360 16.386063
60.365 16.002636
60.370 15.845376
60.375 15.68326
60.380 15.526376
60.385 15.879077
60.390 15.937152
60.395 16.234545
60.400 16.345024
60.405 16.671017
60.410 17.070877
60.415 17.220695
60.420 17.258106
60.425 17.224447
60.430 17.046844
60.435 17.230526
60.440 17.364977
60.445 17.391737
60.450 17.192776
60.455 17.224003
60.460 17.089678
60.465 16.869015
60.470 16.449718
60.475 15.828411
60.480 15.423326
60.485 15.474309
60.490 15.155183
60.495 15.56542
60.500 15.415987
60.505 15.317134
60.510 15.564721
60.515 15.938007
60.520 15.894744
60.525 15.318328
60.530 14.553547
60.535 14.749537
60.540 15.000337
60.545 14.83421
60.550 14.612241
60.555 14.569661
60.560 15.019843
60.565 15.260577
60.570 15.3051
60.575 15.940126
60.580 16.166727
60.585 16.373966
60.590 16.758642
60.595 16.650457
60.600 16.2773
60.605 16.201342
60.610 16.303043
60.615 16.499828
60.620 16.750965
60.625 16.4876
60.630 16.303385
60.635 16.825523
60.640 16.562716
60.645 15.89058
60.650 15.570048
60.655 14.7127
60.660 14.630466
60.665 14.489029
60.670 14.340222
60.675 14.05547
60.680 13.812541
60.685 13.587733
60.690 14.104383
60.695 14.534943
60.700 14.887913
60.705 15.242689
60.710 15.7755
60.715 15.760074
60.720 16.289318
60.725 16.633533
60.730 16.586039
60.735 16.711491
60.740 16.182451
60.745 16.048487
60.750 16.207579
60.755 15.979581
60.760 15.562407
60.765 16.167122
60.770 16.042234
60.775 15.999268
60.780 15.75038
60.785 15.704933
60.790 15.600351
60.795 15.502085
60.800 15.085005
60.805 15.127987
60.810 15.116894
60.815 14.975352
60.820 15.198746
60.825 15.127596
60.830 15.087713
60.835 14.881536
60.840 15.26842
60.845 15.513919
60.850 15.826469
60.855 15.728832
60.860 15.894497
60.865 16.000795
60.870 15.719796
60.875 14.952937
60.880 14.440729
60.885 14.460845
60.890 14.730232
60.895 14.514077
60.900 14.359662
60.905 14.420688
60.910 14.432171
60.915 14.784646
60.920 14.506799
60.925 13.895803
60.930 14.023478
60.935 13.787531
60.940 13.958314
60.945 14.389311
60.950 14.259928
60.955 14.338187
60.960 14.835417
60.965 14.956029
60.970 14.935698
60.975 14.648663
60.980 14.33146
60.985 14.180261
60.990 14.665097
60.995 14.552374
61.000 14.753236
61.005 15.008824
61.010 15.084238
61.015 15.290383
61.020 15.623245
61.025 14.967965
61.030 14.940286
61.035 14.749446
61.040 14.548045
61.045 14.745996
61.050 14.768869
61.055 14.565601
61.060 15.268378
61.065 15.440275
61.070 15.897129
61.075 16.254545
61.080 16.57287
61.085 16.529524
61.090 16.408108
61.095 16.399305
61.100 16.203711
61.105 15.754292
61.110 15.335551
61.115 15.120253
61.120 15.123307
61.125 15.212318
61.130 14.357946
61.135 14.507128
61.140 14.747338
61.145 15.095729
61.150 15.134972
61.155 15.15282
61.160 15.144785
61.165 15.399362
61.170 15.270305
61.175 15.301425
61.180 15.109339
61.185 15.150352
61.190 15.226869
61.195 15.957059
61.200 16.59499
61.205 16.454945
61.210 16.779455
61.215 16.82902
61.220 16.55307
61.225 16.592062
61.230 16.379215
61.235 16.143583
61.240 16.103558
61.245 15.457492
61.250 15.084865
61.255 15.679414
61.260 15.711692
61.265 15.984966
61.270 15.786494
61.275 15.415935
61.280 15.809058
61.285 16.168076
61.290 15.801589
61.295 15.888219
61.300 15.021276
61.305 15.436388
61.310 15.914146
61.315 16.154892
61.320 16.513718
61.325 16.955511
61.330 16.808208
61.335 17.309101
61.340 16.665075
61.345 16.570711
61.350 16.386877
61.355 16.190111
61.360 15.85505
61.365 15.959844
61.370 16.290075
61.375 16.255327
61.380 16.042744
61.385 15.791977
61.390 15.416036
61.395 15.406727
61.400 15.415
61.405 14.783207
61.410 15.014242
61.415 15.116589
61.420 15.105841
61.425 15.072098
61.430 14.987123
61.435 14.749973
61.440 14.75011
61.445 14.839935
61.450 14.624315
61.455 14.630401
61.460 14.424028
61.465 14.333148
61.470 14.38766
61.475 14.21632
61.480 14.594758
61.485 14.834383
61.490 14.921446
61.495 15.251649
61.500 15.308249
61.505 15.670424
61.510 15.605969
61.515 15.280981
61.520 15.165872
61.525 15.132718
61.530 15.491583
61.535 15.797334
61.540 15.835328
61.545 16.635128
61.550 16.875481
61.555 17.132483
61.560 17.145325
61.565 17.092257
61.570 16.719809
61.575 16.579405
61.580 16.838127
61.585 16.68434
61.590 16.475918
61.595 16.469372
61.600 16.234602
61.605 16.2742
61.610 16.640324
61.615 15.890741
61.620 16.111511
61.625 16.114006
61.630 16.266771
61.635 16.463133
61.640 16.159758
61.645 15.716435
61.650 15.794257
61.655 15.494859
61.660 15.396526
61.665 15.00041
61.670 15.346245
61.675 15.537929
61.680 14.843216
61.685 14.800245
61.690 14.906716
61.695 15.2693
61.700 15.179804
61.705 14.713336
61.710 14.413545
61.715 14.782826
61.720 14.494717
61.725 14.70312
61.730 14.902909
61.735 14.882019
61.740 15.642984
61.745 16.066122
61.750 15.81153
61.755 16.215767
61.760 16.176064
61.765 16.061811
61.770 16.524092
61.775 15.923299
61.780 16.109232
61.785 16.506569
61.790 16.618807
61.795 16.311146
61.800 15.683196
61.805 15.592594
61.810 15.654252
61.815 15.986781
61.820 16.120476
61.825 16.205994
61.830 16.351519
61.835 16.835705
61.840 16.754673
61.845 16.910238
61.850 16.587173
61.855 17.162188
61.860 17.42878
61.865 17.619604
61.870 17.446791
61.875 17.25404
61.880 17.274818
61.885 16.762798
61.890 15.670171
61.895 15.296368
61.900 15.585814
61.905 15.785503
61.910 15.521417
61.915 15.800622
61.920 16.321951
61.925 16.747442
61.930 16.758162
61.935 16.461674
61.940 16.623726
61.945 16.60252
61.950 16.290712
61.955 16.516331
61.960 16.682447
61.965 16.232006
61.970 16.104828
61.975 16.107273
61.980 16.293398
61.985 15.927623
61.990 15.53915
61.995 15.130545
62.000 15.665006
62.005 16.071295
62.010 16.259373
62.015 15.989595
62.020 16.128248
62.025 16.601332
62.030 16.95146
62.035 16.585505
62.040 16.232775
62.045 16.182835
62.050 16.273161
62.055 15.728686
62.060 15.007917
62.065 15.253691
62.070 15.330921
62.075 15.467241
62.080 15.46752
62.085 15.874874
62.090 16.141413
62.095 16.239607
62.100 15.84109
62.105 15.590979
62.110 15.86571
62.115 15.999964
62.120 16.05777
62.125 16.664146
62.130 17.205643
62.135 16.947763
62.140 16.946718
62.145 16.490381
62.150 16.232307
62.155 16.356985
62.160 16.226248
62.165 15.892298
62.170 16.45981
62.175 16.460327
62.180 16.962694
62.185 17.416265
62.190 17.466322
62.195 17.082169
62.200 16.544821
62.205 16.322464
62.210 16.015043
62.215 15.357934
62.220 14.888918
62.225 14.490365
62.230 14.783657
62.235 14.920085
62.240 14.783539
62.245 15.109345
62.250 15.329193
62.255 15.495
62.260 15.553263
62.265 15.561531
62.270 15.836728
62.275 15.899222
62.280 16.257631
62.285 16.227884
62.290 16.210201
62.295 16.189497
62.300 16.312931
62.305 15.938812
62.310 15.515409
62.315 14.942554
62.320 14.900261
62.325 14.742479
62.330 14.807492
62.335 14.519135
62.340 14.371644
62.345 14.617957
62.350 14.806437
62.355 14.451139
62.360 14.40814
62.365 14.155872
62.370 14.471798
62.375 14.954756
62.380 15.555088
62.385 15.66916
62.390 15.823271
62.395 16.461561
62.400 17.127907
62.405 17.476494
62.410 17.772774
62.415 17.988619
62.420 18.056721
62.425 18.362484
62.430 18.120598
62.435 17.768881
62.440 17.423513
62.445 17.330568
62.450 16.489464
62.455 16.453875
62.460 16.670673
62.465 16.759085
62.470 16.626478
62.475 16.186258
62.480 16.166288
62.485 16.433956
62.490 16.32019
62.495 16.221148
62.500 16.247669
62.505 16.403772
62.510 16.700329
62.515 16.737818
62.520 16.416519
62.525 16.094837
62.530 16.029623
62.535 15.530924
62.540 15.387308
62.545 15.491302
62.550 15.322865
62.555 15.343506
62.560 15.108279
62.565 14.747863
62.570 14.877291
62.575 15.120841
62.580 15.380191
62.585 15.716485
62.590 16.389174
62.595 16.806852
62.600 16.962872
62.605 16.651125
62.610 16.658905
62.615 16.378494
62.620 16.073486
62.625 15.791876
62.630 16.08943
62.635 16.171183
62.640 16.697453
62.645 16.573984
62.650 16.888142
62.655 17.086641
62.660 17.072193
62.665 16.652021
62.670 16.735603
62.675 16.652971
62.680 16.612564
62.685 16.035116
62.690 15.519944
62.695 15.490445
62.700 15.291734
62.705 15.346997
62.710 15.472748
62.715 15.228679
62.720 15.282423
62.725 15.621003
62.730 16.081858
62.735 16.188353
62.740 15.863058
62.745 16.167976
62.750 16.745922
62.755 16.699551
62.760 16.706169
62.765 16.536272
62.770 16.504484
62.775 16.469824
62.780 16.065056
62.785 15.918452
62.790 16.252504
62.795 16.476004
62.800 16.65135
62.805 16.867783
62.810 16.643057
62.815 16.387625
62.820 16.382397
62.825 16.472149
62.830 16.343245
62.835 15.803692
62.840 15.45348
62.845 15.81477
62.850 15.650651
62.855 15.68821
62.860 15.390556
62.865 15.234546
62.870 15.704299
62.875 15.743765
62.880 15.856975
62.885 16.326822
62.890 16.121166
62.895 16.387394
62.900 16.479019
62.905 16.561626
62.910 17.077263
62.915 16.549183
62.920 16.30283
62.925 15.944769
62.930 15.922732
62.935 16.086433
62.940 16.032425
62.945 16.038998
62.950 16.27265
62.955 16.808367
62.960 17.368469
62.965 17.491573
62.970 16.992426
62.975 16.996019
62.980 17.034744
62.985 17.519045
62.990 17.357965
62.995 17.136337
63.000 16.942028
63.005 17.096409
63.010 16.989437
63.015 16.861454
63.020 16.358295
63.025 16.012682
63.030 15.740658
63.035 15.492085
63.040 16.574295
63.045 17.132397
63.050 17.162418
63.055 17.006916
63.060 17.009008
63.065 17.46018
63.070 17.528496
63.075 16.55438
63.080 15.753704
63.085 15.234148
63.090 15.278168
63.095 15.050371
63.100 14.595072
63.105 14.875374
63.110 15.369966
63.115 15.562074
63.120 16.329048
63.125 16.948084
63.130 17.931604
63.135 18.585005
63.140 18.30648
63.145 17.985853
63.150 18.516163
63.155 18.202106
63.160 17.51642
63.165 16.767656
63.170 16.891106
63.175 17.545273
63.180 17.959034
63.185 17.722921
63.190 18.009975
63.195 17.890501
63.200 18.064291
63.205 17.887516
63.210 17.496059
63.215 16.423727
63.220 15.926781
63.225 15.944684
63.230 16.434938
63.235 15.98579
63.240 15.389908
63.245 15.020345
63.250 15.196495
63.255 15.147698
63.260 14.633543
63.265 14.54991
63.270 14.75985
63.275 15.519305
63.280 15.880329
63.285 16.401146
63.290 17.013411
63.295 17.092646
63.300 16.988884
63.305 17.287687
63.310 17.349712
63.315 17.447514
63.320 17.293171
63.325 16.973164
63.330 17.397274
63.335 17.587187
63.340 17.011854
63.345 17.013403
63.350 17.982365
63.355 18.522797
63.360 18.403347
63.365 18.386169
63.370 18.592077
63.375 19.103264
63.380 19.287458
63.385 18.250681
63.390 18.208387
63.395 18.786842
63.400 18.879253
63.405 18.685202
63.410 18.068333
63.415 18.048132
63.420 18.565767
63.425 18.390741
63.430 18.481409
63.435 17.948019
63.440 17.890039
63.445 17.850847
63.450 17.185671
63.455 17.069542
63.460 16.849422
63.465 16.370541
63.470 16.522261
63.475 16.510376
63.480 16.565117
63.485 16.977583
63.490 16.735901
63.495 15.9307
63.500 15.94867
63.505 15.827949
63.510 16.118641
63.515 15.734861
63.520 15.15469
63.525 15.317346
63.530 16.897758
63.535 17.026039
63.540 16.790745
63.545 16.076561
63.550 16.707123
63.555 17.242434
63.560 17.806555
63.565 17.490685
63.570 17.175419
63.575 17.452429
63.580 17.991312
63.585 18.109236
63.590 17.994524
63.595 17.421667
63.600 17.144285
63.605 17.176399
63.610 17.110144
63.615 16.880817
63.620 16.898586
63.625 16.870451
63.630 16.653276
63.635 16.615816
63.640 16.466225
63.645 16.446972
63.650 16.37574
63.655 15.923756
63.660 15.901639
63.665 15.955482
63.670 16.050564
63.675 16.782614
63.680 17.109079
63.685 17.296932
63.690 17.699612
63.695 17.550434
63.700 17.445988
63.705 17.490942
63.710 17.399879
63.715 16.93041
63.720 16.617004
63.725 16.717596
63.730 17.198627
63.735 17.614023
63.740 17.836531
63.745 17.915854
63.750 18.30637
63.755 18.338638
63.760 17.810198
63.765 17.085257
63.770 16.653954
63.775 16.561005
63.780 16.391249
63.785 16.676218
63.790 17.108076
63.795 17.071329
63.800 17.319593
63.805 17.18564
63.810 17.131689
63.815 17.489143
63.820 17.46076
63.825 17.453333
63.830 18.457638
63.835 18.905308
63.840 19.840788
63.845 20.201845
63.850 20.072052
63.855 20.098053
63.860 19.677736
63.865 19.288456
63.870 19.146444
63.875 18.482216
63.880 17.558403
63.885 17.461876
63.890 17.858067
63.895 17.650023
63.900 17.175776
63.905 16.967894
63.910 16.94698
63.915 17.253561
63.920 17.213898
63.925 17.041372
63.930 17.556871
63.935 17.529354
63.940 17.461828
63.945 17.964891
63.950 18.494154
63.955 18.941748
63.960 19.036058
63.965 19.110832
63.970 18.977394
63.975 18.814398
63.980 18.464212
63.985 18.203625
63.990 17.823469
63.995 17.976549
64.000 18.055698
64.005 18.80818
64.010 19.182604
64.015 19.434809
64.020 19.828062
64.025 19.876499
64.030 19.399803
64.035 19.233709
64.040 19.134153
64.045 19.785646
64.050 19.911764
64.055 19.53261
64.060 19.734297
64.065 19.984949
64.070 20.237423
64.075 20.500919
64.080 19.97035
64.085 19.947527
64.090 20.253641
64.095 20.510012
64.100 19.939835
64.105 19.792316
64.110 19.758005
64.115 19.5868
64.120 19.73951
64.125 19.27783
64.130 18.282694
64.135 18.199413
64.140 18.277534
64.145 18.679712
64.150 18.205471
64.155 18.051018
64.160 17.762148
64.165 18.429161
64.170 19.095633
64.175 19.08465
64.180 18.900097
64.185 19.758947
64.190 19.511055
64.195 19.918402
64.200 20.673294
64.205 20.80575
64.210 20.841396
64.215 20.59264
64.220 20.522137
64.225 21.253117
64.230 21.33976
64.235 20.709221
64.240 20.93833
64.245 20.846437
64.250 20.702801
64.255 21.096138
64.260 21.727949
64.265 21.87731
64.270 22.226305
64.275 22.113588
64.280 21.562456
64.285 21.367222
64.290 21.06736
64.295 20.185831
64.300 20.449163
64.305 20.313572
64.310 20.461374
64.315 21.159626
64.320 22.217997
64.325 22.125633
64.330 21.757456
64.335 21.230799
64.340 21.569115
64.345 21.934544
64.350 21.905319
64.355 21.35561
64.360 22.034052
64.365 22.450169
64.370 22.537714
64.375 22.05208
64.380 22.664989
64.385 22.810396
64.390 22.631723
64.395 22.247211
64.400 23.04841
64.405 23.678072
64.410 23.989771
64.415 23.474657
64.420 23.685093
64.425 24.204451
64.430 24.19692
64.435 23.755297
64.440 23.736502
64.445 23.717365
64.450 24.037861
64.455 23.785629
64.460 23.386189
64.465 23.189562
64.470 23.24164
64.475 22.90871
64.480 22.583467
64.485 22.577023
64.490 22.671875
64.495 22.500263
64.500 22.69939
64.505 22.688404
64.510 23.166094
64.515 23.261957
64.520 22.980259
64.525 22.983261
64.530 23.809635
64.535 24.518776
64.540 24.644218
64.545 24.386337
64.550 24.609577
64.555 24.799335
64.560 24.830147
64.565 24.580885
64.570 24.150831
64.575 23.784838
64.580 24.330004
64.585 24.615255
64.590 24.332783
64.595 24.022383
64.600 23.625309
64.605 23.401594
64.610 24.22901
64.615 23.801771
64.620 23.073843
64.625 23.025507
64.630 23.101702
64.635 23.099041
64.640 22.769447
64.645 22.472767
64.650 22.378025
64.655 22.40951
64.660 23.120747
64.665 23.840359
64.670 24.067081
64.675 24.364838
64.680 24.651423
64.685 25.0355
64.690 25.848539
64.695 25.273714
64.700 24.332819
64.705 23.654078
64.710 23.129528
64.715 22.927574
64.720 23.21624
64.725 22.651958
64.730 23.046122
64.735 23.756992
64.740 23.908859
64.745 23.769098
64.750 23.295242
64.755 22.198631
64.760 21.933496
64.765 22.082579
64.770 21.863317
64.775 22.171648
64.780 22.476597
64.785 23.294945
64.790 24.276514
64.795 24.360193
64.800 24.109781
64.805 24.261322
64.810 24.220522
64.815 24.327496
64.820 23.511242
64.825 22.791191
64.830 23.675978
64.835 23.887207
64.840 24.334467
64.845 24.121244
64.850 24.130905
64.855 24.354561
64.860 24.525524
64.865 23.398352
64.870 23.166998
64.875 22.969706
64.880 23.098137
64.885 22.748003
64.890 22.516788
64.895 23.206728
64.900 23.68475
64.905 23.824036
64.910 23.5161
64.915 23.515995
64.920 24.195555
64.925 24.505049
64.930 24.403746
64.935 24.208117
64.940 24.212061
64.945 24.180353
64.950 23.98513
64.955 24.047424
64.960 23.809387
64.965 23.706194
64.970 23.378908
64.975 22.979027
64.980 23.129517
64.985 23.61911
64.990 23.574688
64.995 23.261261
65.000 23.330128
65.005 23.656372
65.010 24.127052
65.015 24.268946
65.020 24.847136
65.025 24.238798
65.030 24.489017
65.035 24.19956
65.040 23.948421
65.045 23.690437
65.050 23.849483
65.055 23.021072
65.060 23.235134
65.065 23.62772
65.070 23.728483
65.075 23.6528
65.080 23.640709
65.085 23.800611
65.090 24.733751
65.095 25.38061
65.100 24.889078
65.105 25.330845
65.110 26.035437
65.115 25.915295
65.120 25.287127
65.125 24.673117
65.130 24.102221
65.135 24.312614
65.140 24.139101
65.145 23.931122
65.150 24.055853
65.155 24.163141
65.160 24.583693
65.165 25.407154
65.170 26.232767
65.175 26.399223
65.180 26.149868
65.185 26.288136
65.190 26.578176
65.195 26.67207
65.200 26.60816
65.205 25.810738
65.210 25.402056
65.215 25.325323
65.220 25.496204
65.225 25.408888
65.230 24.62443
65.235 24.85545
65.240 25.257212
65.245 25.618502
65.250 25.583607
65.255 25.248991
65.260 24.493126
65.265 24.816317
65.270 24.214901
65.275 23.670944
65.280 23.892099
65.285 24.235571
65.290 24.028845
65.295 24.107889
65.300 23.294031
65.305 23.131914
65.310 23.421801
65.315 23.606144
65.320 23.249002
65.325 23.358025
65.330 23.578016
65.335 23.487612
65.340 23.248606
65.345 22.846846
65.350 22.408621
65.355 23.150576
65.360 23.764574
65.365 24.277538
65.370 25.199661
65.375 25.795021
65.380 25.961672
65.385 26.198912
65.390 25.685579
65.395 25.281363
65.400 24.943399
65.405 24.515728
65.410 24.548193
65.415 24.725954
65.420 24.301905
65.425 24.322861
65.430 24.11998
65.435 24.222391
65.440 24.41814
65.445 23.443516
65.450 23.088562
65.455 23.478062
65.460 23.873932
65.465 24.412296
65.470 24.638426
65.475 24.322088
65.480 24.612377
65.485 24.764009
65.490 24.791355
65.495 24.748688
65.500 24.769854
65.505 24.658485
65.510 25.10421
65.515 25.515301
65.520 25.118271
65.525 25.057318
65.530 24.627388
65.535 24.867678
65.540 25.151295
65.545 25.560717
65.550 25.62236
65.555 25.490181
65.560 25.017756
65.565 25.036707
65.570 24.691156
65.575 24.142935
65.580 24.148529
65.585 24.701403
65.590 24.654928
65.595 24.363724
65.600 23.965153
65.605 24.321068
65.610 24.850866
65.615 25.156603
65.620 25.465052
65.625 26.315025
65.630 27.071808
65.635 27.423464
65.640 27.104616
65.645 26.810183
65.650 26.127325
65.655 25.218632
65.660 25.33757
65.665 25.262976
65.670 25.679098
65.675 26.316269
65.680 27.649517
65.685 27.727537
65.690 28.546774
65.695 28.538115
65.700 28.564123
65.705 28.466494
65.710 28.011604
65.715 27.435616
65.720 27.487328
65.725 27.449793
65.730 27.563198
65.735 27.97327
65.740 27.907913
65.745 27.47785
65.750 27.62915
65.755 27.721886
65.760 27.722239
65.765 27.722849
65.770 28.032671
65.775 28.108742
65.780 28.075821
65.785 27.909964
65.790 27.40645
65.795 26.983881
65.800 26.845675
65.805 26.62409
65.810 26.439922
65.815 27.097395
65.820 27.596128
65.825 28.07542
65.830 29.197096
65.835 29.945141
65.840 30.117981
65.845 30.877464
65.850 30.745476
65.855 30.828848
65.860 31.017002
65.865 30.603479
65.870 30.050743
65.875 29.938414
65.880 29.488785
65.885 29.120132
65.890 29.531351
65.895 29.690769
65.900 30.2251
65.905 30.862675
65.910 31.109152
65.915 31.648911
65.920 32.020458
65.925 31.997877
65.930 32.003323
65.935 32.297867
65.940 32.065475
65.945 32.180817
65.950 32.163464
65.955 32.6497
65.960 32.795845
65.965 32.770958
65.970 32.957695
65.975 33.061665
65.980 32.589066
65.985 32.097488
65.990 31.887444
65.995 31.386738
66.000 31.394453
66.005 30.512053
66.010 30.219238
66.015 30.771042
66.020 31.303825
66.025 31.336803
66.030 31.972456
66.035 32.67532
66.040 33.402584
66.045 34.561123
66.050 35.163715
66.055 35.194645
66.060 35.516766
66.065 35.695641
66.070 35.430973
66.075 35.371483
66.080 34.823029
66.085 33.832802
66.090 33.868534
66.095 34.612293
66.100 35.263855
66.105 35.289101
66.110 35.112782
66.115 36.198166
66.120 36.841881
66.125 36.585674
66.130 36.200397
66.135 35.595844
66.140 35.559174
66.145 35.899197
66.150 35.405483
66.155 35.090534
66.160 35.711403
66.165 35.631939
66.170 35.854828
66.175 36.440819
66.180 36.646481
66.185 36.525024
66.190 36.811886
66.195 35.957352
66.200 35.792671
66.205 35.761261
66.210 36.030361
66.215 36.705883
66.220 36.712978
66.225 36.417534
66.230 36.556877
66.235 36.687233
66.240 36.364693
66.245 36.685303
66.250 35.904274
66.255 36.242096
66.260 36.854385
66.265 37.840824
66.270 38.478962
66.275 38.571606
66.280 37.976433
66.285 38.419136
66.290 38.774811
66.295 38.375618
66.300 38.289841
66.305 38.786629
66.310 39.425617
66.315 39.570644
66.320 39.133217
66.325 38.989113
66.330 38.241352
66.335 37.358982
66.340 36.903824
66.345 36.418159
66.350 35.83971
66.355 36.411114
66.360 36.020279
66.365 35.999302
66.370 36.101696
66.375 35.872616
66.380 35.0327
66.385 35.067596
66.390 34.054535
66.395 34.018574
66.400 34.500622
66.405 34.491032
66.410 34.113853
66.415 33.851959
66.420 32.970989
66.425 32.216599
66.430 31.839867
66.435 31.954502
66.440 31.507051
66.445 31.257481
66.450 31.134748
66.455 31.506075
66.460 31.587542
66.465 31.462008
66.470 30.871298
66.475 30.924395
66.480 30.977648
66.485 31.34473
66.490 31.479816
66.495 32.051651
66.500 31.801165
66.505 31.883234
66.510 31.429346
66.515 30.561905
66.520 29.910837
66.525 28.533659
66.530 27.565056
66.535 27.958607
66.540 28.237101
66.545 28.531034
66.550 28.075138
66.555 28.567795
66.560 29.264883
66.565 29.528481
66.570 29.182247
66.575 28.195206
66.580 27.745224
66.585 27.145042
66.590 26.993288
66.595 27.137373
66.600 26.775894
66.605 26.171083
66.610 26.099195
66.615 26.002136
66.620 26.404497
66.625 25.985439
66.630 25.599213
66.635 25.705147
66.640 25.944618
66.645 25.834455
66.650 25.59549
66.655 25.034992
66.660 23.969212
66.665 23.241541
66.670 22.871119
66.675 22.518648
66.680 22.158714
66.685 21.988993
66.690 21.401251
66.695 21.973001
66.700 21.737604
66.705 21.731174
66.710 21.535881
66.715 21.6238
66.720 22.093798
66.725 22.08938
66.730 21.904617
66.735 21.990469
66.740 21.879017
66.745 22.042246
66.750 22.187099
66.755 21.656652
66.760 22.19142
66.765 21.956646
66.770 21.810762
66.775 21.90045
66.780 21.739447
66.785 21.291903
66.790 21.360384
66.795 20.921391
66.800 20.907158
66.805 21.061153
66.810 21.120764
66.815 21.166201
66.820 20.563154
66.825 20.923721
66.830 20.968306
66.835 21.169273
66.840 21.437656
66.845 21.234467
66.850 20.626938
66.855 20.494184
66.860 20.303352
66.865 20.305304
66.870 20.148315
66.875 19.971918
66.880 20.646542
66.885 21.331551
66.890 21.970078
66.895 21.841501
66.900 21.948288
66.905 21.752575
66.910 21.481106
66.915 20.557018
66.920 20.306843
66.925 19.890034
66.930 19.873905
66.935 19.761766
66.940 19.652798
66.945 19.907925
66.950 20.547523
66.955 20.343887
66.960 20.85323
66.965 20.404964
66.970 20.195385
66.975 20.287281
66.980 20.210299
66.985 19.827375
66.990 19.602205
66.995 18.837008
67.000 18.393475
67.005 19.238953
67.010 19.589563
67.015 19.415646
67.020 19.495424
67.025 19.478369
67.030 19.854691
67.035 20.183784
67.040 19.577803
67.045 19.3752
67.050 19.246716
67.055 19.094414
67.060 19.078547
67.065 19.304317
67.070 19.756824
67.075 20.005392
67.080 19.447475
67.085 19.524446
67.090 19.880289
67.095 20.607664
67.100 20.216356
67.105 19.631411
67.110 20.050419
67.115 21.147198
67.120 21.54805
67.125 21.595339
67.130 21.358463
67.135 21.903023
67.140 22.462677
67.145 22.227325
67.150 21.50786
67.155 21.461634
67.160 21.569931
67.165 21.572971
67.170 21.286238
67.175 20.89551
67.180 20.829958
67.185 21.000399
67.190 20.633169
67.195 20.212902
67.200 19.666193
67.205 19.539923
67.210 19.410454
67.215 19.06723
67.220 19.248198
67.225 19.754242
67.230 20.12409
67.235 20.158274
67.240 20.107956
67.245 20.155861
67.250 20.11038
67.255 19.421711
67.260 18.899797
67.265 18.883957
67.270 19.021034
67.275 19.068338
67.280 18.760845
67.285 18.768473
67.290 19.041319
67.295 19.175943
67.300 18.95647
67.305 19.195244
67.310 19.826574
67.315 19.939869
67.320 19.654486
67.325 19.200174
67.330 19.062399
67.335 19.072063
67.340 19.096735
67.345 18.90567
67.350 19.128361
67.355 19.360283
67.360 19.713696
67.365 19.49486
67.370 19.39744
67.375 19.20735
67.380 19.345541
67.385 19.973692
67.390 20.090975
67.395 20.436741
67.400 20.787104
67.405 20.625835
67.410 20.543894
67.415 20.05736
67.420 19.991463
67.425 20.185638
67.430 20.09771
67.435 20.295849
67.440 20.577515
67.445 20.311464
67.450 19.429199
67.455 19.279984
67.460 19.169207
67.465 18.701117
67.470 18.303923
67.475 17.922939
67.480 18.053272
67.485 18.631931
67.490 18.164284
67.495 18.167963
67.500 18.6633
67.505 18.766922
67.510 19.165113
67.515 19.267382
67.520 18.894728
67.525 18.702486
67.530 18.522179
67.535 18.562458
67.540 18.055365
67.545 18.121191
67.550 18.812353
67.555 19.93313
67.560 20.970659
67.565 21.165295
67.570 20.925217
67.575 21.199762
67.580 21.065142
67.585 20.75152
67.590 19.683062
67.595 18.840101
67.600 18.667959
67.605 18.456688
67.610 18.608353
67.615 18.369429
67.620 18.464083
67.625 18.784357
67.630 18.969507
67.635 19.150381
67.640 19.289305
67.645 19.002764
67.650 18.941309
67.655 18.926476
67.660 19.0504
67.665 18.590248
67.670 18.326675
67.675 18.650631
67.680 19.029762
67.685 18.715006
67.690 18.531221
67.695 18.300068
67.700 18.820763
67.705 19.110035
67.710 18.521021
67.715 18.113789
67.720 18.680452
67.725 19.038914
67.730 19.368483
67.735 19.477602
67.740 19.466488
67.745 19.863859
67.750 20.582928
67.755 20.165407
67.760 19.678286
67.765 19.291296
67.770 18.909426
67.775 18.89855
67.780 19.383097
67.785 18.78974
67.790 19.23587
67.795 19.768141
67.800 20.266813
67.805 20.473322
67.810 20.06472
67.815 19.144985
67.820 19.197071
67.825 19.144926
67.830 19.500772
67.835 19.159695
67.840 19.162996
67.845 19.106766
67.850 19.842899
67.855 20.013821
67.860 20.073256
67.865 19.674437
67.870 19.959244
67.875 20.072428
67.880 20.472696
67.885 20.751762
67.890 20.705833
67.895 20.361572
67.900 19.870163
67.905 20.214251
67.910 19.849379
67.915 19.231535
67.920 18.39327
67.925 18.194487
67.930 18.138803
67.935 17.868366
67.940 17.779003
67.945 18.135658
67.950 18.278608
67.955 18.352142
67.960 18.149311
67.965 17.810633
67.970 18.133833
67.975 17.739094
67.980 17.751091
67.985 17.46644
67.990 17.320244
67.995 17.032328
68.000 17.528908
68.005 17.608557
68.010 17.955986
68.015 17.961899
68.020 17.949928
68.025 17.839518
68.030 18.423779
68.035 18.408852
68.040 18.385687
68.045 18.356876
68.050 18.754007
68.055 19.608013
68.060 19.705328
68.065 19.429714
68.070 19.242718
68.075 19.344477
68.080 19.199961
68.085 19.246956
68.090 19.443199
68.095 19.553015
68.100 19.894846
68.105 20.406237
68.110 20.4361
68.115 19.960714
68.120 19.533169
68.125 19.37459
68.130 19.584158
68.135 19.069307
68.140 18.815536
68.145 18.168814
68.150 18.225143
68.155 18.623333
68.160 18.736195
68.165 19.062397
68.170 19.094706
68.175 18.839819
68.180 19.789974
68.185 20.374615
68.190 20.780823
68.195 20.825415
68.200 20.096416
68.205 20.914534
68.210 20.940054
68.215 20.696682
68.220 20.032026
68.225 19.546721
68.230 19.758091
68.235 19.972109
68.240 19.507967
68.245 19.430931
68.250 19.504175
68.255 19.574795
68.260 19.46446
68.265 19.639254
68.270 19.738934
68.275 19.750906
68.280 19.32342
68.285 18.901964
68.290 19.059135
68.295 19.820982
68.300 20.017578
68.305 20.237047
68.310 20.153797
68.315 20.461565
68.320 21.098948
68.325 20.156227
68.330 19.025637
68.335 18.303194
68.340 17.922607
68.345 17.944117
68.350 17.728373
68.355 17.398399
68.360 18.052759
68.365 18.226833
68.370 18.506367
68.375 18.737885
68.380 19.024084
68.385 18.971781
68.390 19.465834
68.395 19.644066
68.400 19.269825
68.405 19.004068
68.410 19.204117
68.415 19.221272
68.420 19.296289
68.425 18.844948
68.430 19.194895
68.435 19.9503
68.440 19.949381
68.445 19.613699
68.450 18.998112
68.455 19.049355
68.460 19.567759
68.465 19.226997
68.470 19.050209
68.475 19.118568
68.480 19.736982
68.485 20.331467
68.490 20.224522
68.495 19.597015
68.500 19.098074
68.505 18.658543
68.510 18.972231
68.515 18.698288
68.520 19.027224
68.525 19.322231
68.530 19.71413
68.535 20.410671
68.540 20.577251
68.545 20.521755
68.550 20.466286
68.555 20.003029
68.560 20.013313
68.565 20.085938
68.570 19.989727
68.575 19.945457
68.580 20.062532
68.585 20.227924
68.590 20.425873
68.595 19.973019
68.600 19.453945
68.605 19.392416
68.610 19.106634
68.615 19.081671
68.620 19.217789
68.625 18.862146
68.630 19.359106
68.635 20.01293
68.640 20.01725
68.645 20.130527
68.650 19.957127
68.655 20.230009
68.660 20.152342
68.665 19.845221
68.670 19.491451
68.675 19.955559
68.680 20.195162
68.685 19.962742
68.690 20.034605
68.695 20.525364
68.700 20.532068
68.705 20.671585
68.710 21.063417
68.715 21.508165
68.720 21.647715
68.725 21.548103
68.730 21.111807
68.735 20.819386
68.740 20.385767
68.745 19.707834
68.750 19.39592
68.755 19.382311
68.760 19.773748
68.765 20.14106
68.770 20.93154
68.775 21.532101
68.780 21.707878
68.785 21.488579
68.790 21.96633
68.795 22.168337
68.800 22.040121
68.805 21.641836
68.810 20.721952
68.815 19.954388
68.820 19.845949
68.825 19.315559
68.830 19.914312
68.835 20.287323
68.840 20.177675
68.845 21.113276
68.850 21.859819
68.855 22.77319
68.860 22.6728
68.865 21.582851
68.870 21.838644
68.875 21.780502
68.880 21.702852
68.885 21.528645
68.890 20.910095
68.895 21.067688
68.900 21.840885
68.905 21.480078
68.910 21.418802
68.915 21.310844
68.920 20.99564
68.925 21.147369
68.930 20.771385
68.935 20.61561
68.940 21.150013
68.945 21.078789
68.950 21.198004
68.955 21.181679
68.960 20.708557
68.965 20.985075
68.970 20.643824
68.975 21.201525
68.980 21.380167
68.985 21.720428
68.990 22.438463
68.995 22.805202
69.000 23.275394
69.005 23.455357
69.010 23.225433
69.015 22.752752
69.020 22.583269
69.025 22.602825
69.030 22.629856
69.035 22.430826
69.040 23.125317
69.045 23.230305
69.050 23.909977
69.055 24.116917
69.060 24.081194
69.065 24.64896
69.070 24.089901
69.075 23.801285
69.080 24.054834
69.085 24.009254
69.090 24.550913
69.095 24.69035
69.100 25.646059
69.105 26.129179
69.110 26.360348
69.115 26.767466
69.120 27.450289
69.125 27.150652
69.130 26.955164
69.135 25.645365
69.140 25.365299
69.145 24.61565
69.150 23.876232
69.155 23.600996
69.160 23.490751
69.165 23.436062
69.170 24.048443
69.175 24.91853
69.180 25.710108
69.185 26.745909
69.190 26.882296
69.195 27.381632
69.200 27.74453
69.205 27.610353
69.210 27.757004
69.215 28.03196
69.220 27.588421
69.225 27.788456
69.230 26.820274
69.235 26.266138
69.240 26.435802
69.245 26.592901
69.250 26.480246
69.255 26.634468
69.260 27.233118
69.265 28.966667
69.270 29.88759
69.275 29.845648
69.280 29.552006
69.285 30.327238
69.290 30.996367
69.295 30.760975
69.300 30.662565
69.305 30.858812
69.310 30.524082
69.315 30.439608
69.320 29.981224
69.325 30.049599
69.330 30.062639
69.335 29.253511
69.340 29.094296
69.345 29.894852
69.350 30.043861
69.355 29.082651
69.360 29.571402
69.365 29.672602
69.370 30.253477
69.375 30.650585
69.380 31.760754
69.385 32.934105
69.390 33.59272
69.395 33.166172
69.400 33.049767
69.405 33.219772
69.410 32.660229
69.415 31.668545
69.420 32.071083
69.425 32.37962
69.430 32.417362
69.435 33.157505
69.440 33.654518
69.445 34.502956
69.450 34.487949
69.455 34.490623
69.460 34.118286
69.465 34.285633
69.470 33.652172
69.475 33.863926
69.480 34.417419
69.485 34.920471
69.490 35.17495
69.495 35.270924
69.500 35.246655
69.505 35.88142
69.510 35.990162
69.515 35.401997
69.520 35.065624
69.525 35.280476
69.530 35.730698
69.535 35.658989
69.540 35.111427
69.545 35.4035
69.550 36.702732
69.555 36.798473
69.560 36.512035
69.565 36.464993
69.570 37.343098
69.575 38.1632
69.580 37.141842
69.585 36.195702
69.590 35.732201
69.595 35.757568
69.600 35.177753
69.605 34.282776
69.610 33.431465
69.615 33.211224
69.620 32.907913
69.625 32.926186
69.630 32.886292
69.635 32.752434
69.640 32.438919
69.645 32.549923
69.650 32.193184
69.655 31.533558
69.660 32.364983
69.665 31.888384
69.670 31.737783
69.675 31.653101
69.680 32.328362
69.685 33.060917
69.690 33.02256
69.695 32.965725
69.700 33.621815
69.705 33.378887
69.710 33.419437
69.715 32.566608
69.720 32.128399
69.725 32.140877
69.730 31.113119
69.735 31.037378
69.740 31.639101
69.745 31.403305
69.750 31.280014
69.755 31.242041
69.760 30.811958
69.765 30.945398
69.770 30.423168
69.775 29.529051
69.780 29.537212
69.785 28.970083
69.790 28.619728
69.795 28.663435
69.800 29.760727
69.805 29.580669
69.810 29.036192
69.815 28.701151
69.820 29.389132
69.825 29.073099
69.830 27.809532
69.835 26.487522
69.840 26.595421
69.845 26.337833
69.850 26.475599
69.855 26.019976
69.860 25.935724
69.865 26.18187
69.870 25.93635
69.875 25.671595
69.880 25.823793
69.885 25.564825
69.890 25.258301
69.895 24.899866
69.900 24.938259
69.905 25.240223
69.910 24.783136
69.915 24.293316
69.920 24.11235
69.925 24.00172
69.930 23.286098
69.935 22.280693
69.940 21.900829
69.945 22.274342
69.950 21.867502
69.955 21.322378
69.960 21.189417
69.965 21.288277
69.970 21.840818
69.975 21.921698
69.980 21.525612
69.985 21.979311
69.990 22.660707
69.995 22.773991
70.000 22.425505
70.005 21.182234
70.010 20.748302
70.015 20.363373
70.020 19.85548
70.025 19.348398
70.030 19.50349
70.035 19.675093
70.040 19.94194
70.045 19.736799
70.050 19.669823
70.055 19.91165
70.060 19.56353
70.065 19.354664
70.070 19.036997
70.075 18.984337
70.080 19.017492
70.085 19.294561
70.090 19.095169
70.095 19.240067
70.100 19.21917
70.105 19.225992
70.110 19.518543
70.115 19.817436
70.120 19.98827
70.125 20.308767
70.130 20.271229
70.135 20.439489
70.140 20.956587
70.145 21.036709
70.150 21.037666
70.155 20.660791
70.160 20.715296
70.165 20.722151
70.170 20.298615
70.175 19.560005
70.180 19.076998
70.185 18.684347
70.190 18.674089
70.195 18.499058
70.200 18.288143
70.205 18.578556
70.210 18.865534
70.215 18.871746
70.220 19.626169
70.225 19.455873
70.230 19.53426
70.235 19.406469
70.240 18.978714
70.245 18.922749
70.250 18.891497
70.255 18.993341
70.260 18.607613
70.265 18.613276
70.270 19.243225
70.275 19.139114
70.280 19.381653
70.285 19.02162
70.290 18.910337
70.295 19.350645
70.300 19.33794
70.305 19.281918
70.310 19.716778
70.315 20.062256
70.320 19.596695
70.325 19.257477
70.330 18.714277
70.335 18.529177
70.340 18.331623
70.345 18.351608
70.350 18.852509
70.355 19.083023
70.360 19.668848
70.365 19.882935
70.370 20.10236
70.375 20.346127
70.380 20.220562
70.385 19.758499
70.390 20.049128
70.395 19.514441
70.400 19.751255
70.405 19.36342
70.410 19.149553
70.415 19.254555
70.420 19.33856
70.425 18.914585
70.430 19.22938
70.435 19.045063
70.440 19.224798
70.445 18.731529
70.450 18.237236
70.455 18.332491
70.460 18.32752
70.465 18.372156
70.470 18.481726
70.475 18.552404
70.480 18.902914
70.485 19.160845
70.490 19.132776
70.495 19.280453
70.500 19.56502
70.505 19.847811
70.510 19.920326
70.515 20.170938
70.520 20.589109
70.525 20.113514
70.530 20.098766
70.535 19.705835
70.540 19.987694
70.545 20.006519
70.550 19.072802
70.555 18.929283
70.560 18.913214
70.565 18.481739
70.570 18.51022
70.575 17.701519
70.580 16.90003
70.585 17.088823
70.590 17.549631
70.595 17.763794
70.600 17.907825
70.605 17.914022
70.610 17.802557
70.615 17.866665
70.620 18.005756
70.625 18.027647
70.630 18.483259
70.635 18.126263
70.640 18.209093
70.645 18.836157
70.650 19.069769
70.655 18.843616
70.660 18.347275
70.665 18.301548
70.670 18.938501
70.675 18.602264
70.680 18.527693
70.685 18.583738
70.690 18.34198
70.695 18.346249
70.700 17.513214
70.705 16.953064
70.710 17.358908
70.715 17.895864
70.720 17.920364
70.725 18.398321
70.730 18.875643
70.735 19.189249
70.740 19.073967
70.745 18.631775
70.750 17.824112
70.755 17.564526
70.760 16.647011
70.765 16.401892
70.770 16.896065
70.775 17.536345
70.780 17.473276
70.785 17.883778
70.790 17.816149
70.795 18.105844
70.800 18.265364
70.805 17.813999
70.810 17.322306
70.815 17.31941
70.820 17.648275
70.825 17.962893
70.830 18.137032
70.835 17.817478
70.840 18.228289
70.845 18.739361
70.850 18.587816
70.855 17.897137
70.860 17.716843
70.865 18.427582
70.870 18.593403
70.875 17.895109
70.880 17.820728
70.885 18.235573
70.890 18.789459
70.895 18.394377
70.900 17.635035
70.905 17.404009
70.910 17.301617
70.915 16.964144
70.920 17.145599
70.925 17.860359
70.930 18.475887
70.935 18.594419
70.940 18.968035
70.945 19.376678
70.950 19.341242
70.955 19.13693
70.960 18.783152
70.965 19.017567
70.970 19.21452
70.975 19.063082
70.980 18.950186
70.985 19.396755
70.990 19.308367
70.995 18.678144
71.000 18.192789
71.005 17.747272
71.010 17.710821
71.015 18.314411
71.020 18.313749
71.025 18.141405
71.030 18.161184
71.035 18.829826
71.040 19.392906
71.045 18.857941
71.050 17.948755
71.055 17.773453
71.060 17.648497
71.065 17.406052
71.070 16.925787
71.075 17.022503
71.080 17.490513
71.085 18.363262
71.090 18.785107
71.095 18.971149
71.100 19.093412
71.105 19.147339
71.110 19.388426
71.115 19.298058
71.120 18.394136
71.125 18.163902
71.130 18.536373
71.135 18.714312
71.140 18.287136
71.145 17.51757
71.150 17.127995
71.155 17.570242
71.160 17.752441
71.165 17.614033
71.170 17.556664
71.175 17.331366
71.180 17.351236
71.185 17.579967
71.190 17.305447
71.195 16.628082
71.200 16.546938
71.205 16.675167
71.210 17.07752
71.215 17.19297
71.220 17.197948
71.225 17.118505
71.230 17.266596
71.235 17.167736
71.240 17.429375
71.245 18.323792
71.250 18.887947
71.255 18.576149
71.260 18.788891
71.265 19.011448
71.270 19.181265
71.275 18.696196
71.280 18.152395
71.285 17.912197
71.290 17.995827
71.295 17.623028
71.300 17.629688
71.305 17.829346
71.310 17.714676
71.315 17.679562
71.320 17.709311
71.325 17.556597
71.330 17.425768
71.335 17.362795
71.340 17.281921
71.345 17.477732
71.350 17.153269
71.355 17.395969
71.360 17.336269
71.365 17.293915
71.370 17.267778
71.375 17.332434
71.380 17.495674
71.385 17.717434
71.390 17.527914
71.395 17.615582
71.400 17.729725
71.405 17.546539
71.410 17.944534
71.415 18.179134
71.420 17.8382
71.425 17.719065
71.430 17.935398
71.435 18.515202
71.440 18.91571
71.445 18.823204
71.450 18.542219
71.455 18.711794
71.460 19.105598
71.465 18.518421
71.470 17.489628
71.475 16.952198
71.480 16.892925
71.485 17.165373
71.490 17.419695
71.495 17.935715
71.500 18.307657
71.505 19.078136
71.510 18.790936
71.515 19.164249
71.520 18.828001
71.525 18.827168
71.530 18.399206
71.535 18.365688
71.540 18.174202
71.545 18.830261
71.550 18.85891
71.555 19.165943
71.560 18.939432
71.565 18.88678
71.570 18.671099
71.575 18.190912
71.580 17.726572
71.585 17.817396
71.590 18.025759
71.595 18.394918
71.600 18.472477
71.605 18.327253
71.610 17.870277
71.615 17.413141
71.620 16.97979
71.625 16.569595
71.630 16.23892
71.635 17.132252
71.640 18.031828
71.645 17.944469
71.650 18.434706
71.655 18.221384
71.660 18.652502
71.665 18.772678
71.670 17.770777
71.675 17.966297
71.680 18.218363
71.685 17.84833
71.690 17.679634
71.695 17.623278
71.700 17.510117
71.705 17.299814
71.710 17.305882
71.715 17.87219
71.720 17.897739
71.725 17.706543
71.730 17.255312
71.735 17.67005
71.740 18.335335
71.745 17.827612
71.750 17.460207
71.755 17.356623
71.760 17.743092
71.765 18.454525
71.770 18.785002
71.775 18.629967
71.780 18.773615
71.785 18.741747
71.790 19.335703
71.795 19.342766
71.800 19.061203
71.805 18.516954
71.810 18.553059
71.815 18.636583
71.820 18.781048
71.825 18.714289
71.830 18.158644
71.835 17.949497
71.840 18.682104
71.845 18.898392
71.850 19.127308
71.855 19.335625
71.860 19.419458
71.865 19.54973
71.870 18.916382
71.875 18.671768
71.880 18.333342
71.885 18.283213
71.890 18.504263
71.895 18.711212
71.900 19.074223
71.905 19.295521
71.910 19.412878
71.915 19.103106
71.920 18.749577
71.925 18.740332
71.930 18.710794
71.935 19.044298
71.940 18.854578
71.945 18.44314
71.950 18.939817
71.955 18.954042
71.960 18.610716
71.965 18.442015
71.970 18.605982
71.975 18.897598
71.980 19.397644
71.985 19.189806
71.990 18.518179
71.995 19.065947
72.000 19.361959
72.005 19.153954
72.010 18.634079
72.015 18.22471
72.020 18.713238
72.025 18.813894
72.030 18.057909
72.035 17.729908
72.040 17.892267
72.045 18.358854
72.050 18.8081
72.055 18.66604
72.060 18.834215
72.065 18.357628
72.070 18.212694
72.075 17.615147
72.080 16.705914
72.085 16.184391
72.090 15.905362
72.095 16.477972
72.100 16.949186
72.105 17.679371
72.110 18.097849
72.115 18.680885
72.120 19.511507
72.125 19.209276
72.130 18.391476
72.135 18.056395
72.140 17.792967
72.145 17.77478
72.150 17.415524
72.155 16.764347
72.160 17.3195
72.165 17.68564
72.170 17.175865
72.175 16.77529
72.180 16.511066
72.185 16.52994
72.190 16.625551
72.195 16.467367
72.200 16.531073
72.205 16.879599
72.210 16.924845
72.215 16.64983
72.220 16.534349
72.225 16.352646
72.230 16.218426
72.235 16.400167
72.240 16.449982
72.245 16.60454
72.250 17.736423
72.255 17.83363
72.260 17.820471
72.265 17.536167
72.270 17.642715
72.275 17.865023
72.280 17.616764
72.285 16.753538
72.290 16.971888
72.295 16.9699
72.300 16.689587
72.305 16.230139
72.310 16.36446
72.315 16.89308
72.320 16.806921
72.325 17.085831
72.330 17.341736
72.335 18.204945
72.340 18.420187
72.345 17.712528
72.350 17.749487
72.355 17.342798
72.360 17.047621
72.365 17.217897
72.370 16.910563
72.375 16.564859
72.380 16.838669
72.385 16.75037
72.390 17.696684
72.395 17.817263
72.400 17.620708
72.405 17.699604
72.410 18.072573
72.415 17.927286
72.420 17.881844
72.425 17.566784
72.430 17.741396
72.435 17.147959
72.440 16.920103
72.445 16.749931
72.450 17.001175
72.455 17.179865
72.460 16.923388
72.465 17.3323
72.470 18.062677
72.475 18.713408
72.480 19.066242
72.485 18.760675
72.490 18.688021
72.495 18.422832
72.500 17.723064
72.505 17.301304
72.510 16.729368
72.515 16.953396
72.520 16.57094
72.525 16.689459
72.530 16.626095
72.535 16.85511
72.540 17.138998
72.545 17.494446
72.550 17.355864
72.555 17.922031
72.560 17.754292
72.565 18.203711
72.570 17.484303
72.575 17.422373
72.580 17.896048
72.585 18.27499
72.590 18.259174
72.595 18.652773
72.600 18.6936
72.605 19.255547
72.610 18.984806
72.615 18.098564
72.620 17.70006
72.625 17.462402
72.630 17.251629
72.635 17.32795
72.640 17.393768
72.645 17.492338
72.650 17.497124
72.655 18.116072
72.660 18.696804
72.665 18.673355
72.670 18.909914
72.675 18.24889
72.680 18.317463
72.685 18.431688
72.690 17.980837
72.695 17.608576
72.700 16.940769
72.705 16.532026
72.710 16.43717
72.715 16.024578
72.720 16.16131
72.725 16.138313
72.730 16.460142
72.735 16.82555
72.740 17.081978
72.745 17.702669
72.750 17.686104
72.755 17.325161
72.760 17.293587
72.765 16.861824
72.770 17.010176
72.775 17.139917
72.780 17.022949
72.785 16.545464
72.790 16.8489
72.795 17.126984
72.800 17.314939
72.805 17.113888
72.810 16.636017
72.815 16.648342
72.820 17.258045
72.825 16.784204
72.830 16.699795
72.835 16.680676
72.840 16.702332
72.845 17.052492
72.850 17.166803
72.855 17.137997
72.860 17.462084
72.865 17.026415
72.870 16.099762
72.875 15.877536
72.880 15.798633
72.885 16.032003
72.890 15.584457
72.895 15.350224
72.900 15.582749
72.905 17.056671
72.910 17.02363
72.915 16.177237
72.920 15.756878
72.925 16.151234
72.930 16.281033
72.935 15.777078
72.940 15.361865
72.945 15.396
72.950 15.823344
72.955 15.399846
72.960 15.46524
72.965 15.720716
72.970 15.72152
72.975 15.936874
72.980 16.226295
72.985 16.49618
72.990 16.490105
72.995 15.974652
73.000 15.589478
