!@!!GADDS PLOTSO FILE: Chi integration type
!@!!Title/SampleName: map-184
!@!!Comment: ?
!@!!User: Bruker Instrument Administrator
!@!!Site: University of Illinois Chicago
!@!!Frame: map-184_01_000.gfrm
!@!!Wavelengths    1.54184   1.54056   1.54439
!@!!Frame angles: 2Theta: 63.000 Omega: 50.000 Phi: 0.000 Chi: 90.000
!@!!Integration range: 2Theta: 53.000 to 73.000  Gamma: -105.000 to -75.000
!@!!Integration method: bin normalized
!@!N
!@!SS
!@!M
!@!L 0.0 0.0 0.0 0.0
!@!XDegrees
!@!YCounts
53.000 10.281482
53.005 10.414181
53.010 9.890835
53.015 9.045051
53.020 8.807249
53.025 8.297241
53.030 8.499296
53.035 8.498223
53.040 8.584958
53.045 8.599832
53.050 9.4782
53.055 10.290774
53.060 10.394193
53.065 10.251264
53.070 9.902781
53.075 9.752082
53.080 10.391162
53.085 10.410463
53.090 10.092482
53.095 9.776916
53.100 9.717087
53.105 10.457
53.110 10.532429
53.115 10.254651
53.120 9.704439
53.125 9.475212
53.130 9.780572
53.135 9.736567
53.140 9.163358
53.145 8.920774
53.150 8.975312
53.155 9.802048
53.160 10.119333
53.165 9.850126
53.170 9.626518
53.175 9.60548
53.180 9.819107
53.185 9.768396
53.190 9.349793
53.195 9.44371
53.200 9.431306
53.205 9.550324
53.210 10.169407
53.215 10.153402
53.220 10.175488
53.225 10.229045
53.230 10.387159
53.235 10.772064
53.240 10.507384
53.245 9.839801
53.250 9.600437
53.255 9.802366
53.260 9.860948
53.265 9.224899
53.270 9.260951
53.275 9.606998
53.280 10.017267
53.285 9.529976
53.290 9.175745
53.295 9.239012
53.300 9.402993
53.305 9.495021
53.310 9.263247
53.315 8.870464
53.320 9.029581
53.325 9.157811
53.330 9.530359
53.335 9.700727
53.340 9.674532
53.345 10.280574
53.350 11.088305
53.355 11.450101
53.360 11.495838
53.365 11.687452
53.370 11.829035
53.375 11.644199
53.380 11.003735
53.385 10.801261
53.390 10.500912
53.395 10.147473
53.400 9.458761
53.405 9.033745
53.410 8.982841
53.415 9.155583
53.420 9.185327
53.425 8.951192
53.430 9.162663
53.435 9.799227
53.440 10.473078
53.445 10.636513
53.450 10.547812
53.455 10.624609
53.460 11.196838
53.465 11.394441
53.470 11.089842
53.475 10.52066
53.480 10.410053
53.485 9.972408
53.490 9.654762
53.495 9.137168
53.500 8.378359
53.505 8.462862
53.510 8.99712
53.515 9.065011
53.520 8.769275
53.525 8.810657
53.530 9.509356
53.535 9.919015
53.540 9.858625
53.545 9.706344
53.550 9.839986
53.555 10.264896
53.560 9.810937
53.565 9.293086
53.570 8.838384
53.575 8.572531
53.580 8.284583
53.585 8.236744
53.590 8.40768
53.595 9.225942
53.600 9.931169
53.605 10.142119
53.610 10.432455
53.615 10.437981
53.620 10.939084
53.625 10.964661
53.630 10.662252
53.635 10.621798
53.640 10.543309
53.645 10.443059
53.650 10.147254
53.655 10.205085
53.660 10.027028
53.665 9.598654
53.670 9.106484
53.675 9.077496
53.680 9.026463
53.685 9.065452
53.690 8.917556
53.695 9.299018
53.700 9.830838
53.705 10.287129
53.710 10.964824
53.715 11.500813
53.720 11.784343
53.725 11.862009
53.730 11.984274
53.735 11.847453
53.740 11.320292
53.745 11.192673
53.750 10.950304
53.755 10.493991
53.760 10.916105
53.765 11.515467
53.770 11.804227
53.775 11.814307
53.780 11.568372
53.785 11.600625
53.790 11.625626
53.795 10.520769
53.800 10.617949
53.805 10.235992
53.810 10.006359
53.815 9.649249
53.820 9.68072
53.825 9.919509
53.830 10.03227
53.835 9.764178
53.840 10.573314
53.845 11.35727
53.850 11.470241
53.855 11.865237
53.860 12.118732
53.865 11.790419
53.870 11.454915
53.875 11.366046
53.880 11.219274
53.885 11.039387
53.890 10.863183
53.895 10.617155
53.900 10.641683
53.905 10.88405
53.910 10.59903
53.915 10.242479
53.920 10.238333
53.925 9.850838
53.930 10.017576
53.935 10.014739
53.940 9.889452
53.945 10.038334
53.950 10.289957
53.955 10.63033
53.960 11.321835
53.965 11.507236
53.970 11.855638
53.975 11.684054
53.980 11.559872
53.985 11.816025
53.990 11.378307
53.995 11.079319
54.000 10.521247
54.005 10.35044
54.010 10.656782
54.015 10.376156
54.020 10.252198
54.025 10.025267
54.030 10.0068
54.035 10.174257
54.040 10.203593
54.045 10.363979
54.050 10.345004
54.055 10.407857
54.060 10.514659
54.065 10.441071
54.070 10.113897
54.075 9.640041
54.080 9.532174
54.085 9.554268
54.090 9.536947
54.095 9.664001
54.100 9.932394
54.105 10.434533
54.110 10.609449
54.115 10.708967
54.120 10.705035
54.125 10.601855
54.130 10.514463
54.135 10.364893
54.140 10.534823
54.145 10.791735
54.150 10.85105
54.155 11.174325
54.160 11.569999
54.165 11.781786
54.170 11.770693
54.175 11.426926
54.180 11.141889
54.185 10.748207
54.190 10.945922
54.195 10.748668
54.200 10.446925
54.205 10.44838
54.210 10.257966
54.215 10.675603
54.220 10.628621
54.225 10.08668
54.230 10.290789
54.235 10.786263
54.240 10.711761
54.245 10.700964
54.250 10.729857
54.255 10.794
54.260 10.930923
54.265 10.7045
54.270 10.664759
54.275 11.228977
54.280 11.122502
54.285 10.84775
54.290 10.954381
54.295 10.828883
54.300 10.216958
54.305 10.112145
54.310 9.932828
54.315 10.315072
54.320 10.460772
54.325 10.22594
54.330 10.326395
54.335 10.553108
54.340 10.053395
54.345 10.052408
54.350 10.091724
54.355 10.086537
54.360 10.362081
54.365 10.535783
54.370 11.127637
54.375 11.161819
54.380 10.95731
54.385 10.744834
54.390 10.782752
54.395 10.500602
54.400 10.61834
54.405 10.439257
54.410 10.909829
54.415 10.86871
54.420 10.662861
54.425 10.774816
54.430 10.640437
54.435 10.713019
54.440 10.75702
54.445 10.835689
54.450 11.487953
54.455 11.83099
54.460 11.610194
54.465 11.492611
54.470 11.368003
54.475 11.378788
54.480 10.951091
54.485 10.800179
54.490 10.584451
54.495 10.666942
54.500 10.394081
54.505 10.278529
54.510 10.39853
54.515 10.380439
54.520 10.120805
54.525 10.18499
54.530 10.755773
54.535 11.102586
54.540 10.659919
54.545 10.3427
54.550 10.920212
54.555 10.98401
54.560 11.053418
54.565 11.022456
54.570 10.964622
54.575 11.008082
54.580 10.757183
54.585 10.667194
54.590 10.555638
54.595 10.335816
54.600 10.198424
54.605 10.472869
54.610 10.614572
54.615 10.736093
54.620 10.795727
54.625 11.246985
54.630 11.458457
54.635 11.362942
54.640 11.241232
54.645 11.278481
54.650 11.246608
54.655 10.929676
54.660 10.525405
54.665 10.347344
54.670 10.372959
54.675 10.622596
54.680 10.938428
54.685 10.577005
54.690 10.198936
54.695 9.970871
54.700 9.941917
54.705 9.933559
54.710 10.122008
54.715 10.080392
54.720 10.712178
54.725 10.941658
54.730 10.765938
54.735 10.763888
54.740 10.800641
54.745 10.717979
54.750 11.143658
54.755 11.080685
54.760 11.231661
54.765 11.821889
54.770 11.767575
54.775 11.7946
54.780 11.940513
54.785 11.821465
54.790 11.906808
54.795 12.052529
54.800 12.09584
54.805 12.00909
54.810 11.736997
54.815 11.415757
54.820 11.501626
54.825 11.585709
54.830 11.184706
54.835 11.111498
54.840 11.709024
54.845 11.824489
54.850 11.910699
54.855 11.535503
54.860 11.05705
54.865 11.242172
54.870 11.041083
54.875 10.829423
54.880 11.042577
54.885 10.798607
54.890 10.847764
54.895 10.919225
54.900 11.0616
54.905 11.268778
54.910 11.090645
54.915 10.652617
54.920 10.7257
54.925 10.9159
54.930 11.03669
54.935 11.164512
54.940 10.718426
54.945 11.23882
54.950 11.768993
54.955 11.911582
54.960 12.075747
54.965 12.290167
54.970 12.351139
54.975 12.531171
54.980 12.815001
54.985 12.835086
54.990 12.721585
54.995 12.530874
55.000 12.406901
55.005 12.440267
55.010 12.268864
55.015 11.906461
55.020 12.17892
55.025 12.815143
55.030 12.839779
55.035 13.404049
55.040 13.276738
55.045 13.133085
55.050 12.626528
55.055 12.454175
55.060 12.342949
55.065 12.313605
55.070 11.87097
55.075 12.179353
55.080 13.093804
55.085 13.398543
55.090 12.993797
55.095 13.36131
55.100 13.471027
55.105 13.478059
55.110 12.955999
55.115 12.351964
55.120 12.321023
55.125 12.250168
55.130 12.074437
55.135 11.963387
55.140 11.997185
55.145 12.258806
55.150 12.257351
55.155 11.924666
55.160 11.482967
55.165 10.773707
55.170 10.456782
55.175 10.076004
55.180 9.588253
55.185 9.389918
55.190 10.001243
55.195 10.470516
55.200 10.989625
55.205 11.530391
55.210 11.755388
55.215 11.888122
55.220 11.514056
55.225 10.93388
55.230 10.889103
55.235 10.689377
55.240 10.435701
55.245 10.58497
55.250 10.653985
55.255 11.307125
55.260 11.82924
55.265 11.985834
55.270 12.232684
55.275 12.160431
55.280 11.735377
55.285 11.342972
55.290 10.916135
55.295 10.701024
55.300 10.295299
55.305 9.81531
55.310 9.879914
55.315 10.577855
55.320 10.926517
55.325 10.816637
55.330 11.192053
55.335 11.72597
55.340 12.107253
55.345 12.211569
55.350 12.735184
55.355 13.425567
55.360 13.781795
55.365 13.273525
55.370 12.857196
55.375 13.131629
55.380 13.036167
55.385 12.50531
55.390 12.072863
55.395 12.113706
55.400 12.534821
55.405 12.757958
55.410 12.680031
55.415 12.44262
55.420 12.04638
55.425 11.753656
55.430 11.645206
55.435 11.25351
55.440 10.850897
55.445 10.223785
55.450 10.114052
55.455 10.246021
55.460 10.217812
55.465 10.375007
55.470 10.49398
55.475 10.670351
55.480 11.621564
55.485 12.291546
55.490 12.402802
55.495 12.929029
55.500 12.959641
55.505 13.170771
55.510 13.071275
55.515 12.595064
55.520 12.117361
55.525 11.926676
55.530 11.755255
55.535 11.590834
55.540 11.768945
55.545 11.738733
55.550 11.611864
55.555 11.953237
55.560 12.02869
55.565 12.14869
55.570 12.093721
55.575 11.569803
55.580 11.354301
55.585 11.145555
55.590 10.891103
55.595 10.724386
55.600 10.496903
55.605 10.632221
55.610 10.843843
55.615 10.979221
55.620 11.024827
55.625 11.025987
55.630 11.357369
55.635 11.561868
55.640 11.115798
55.645 10.832764
55.650 10.976487
55.655 11.501684
55.660 11.626586
55.665 11.158119
55.670 10.919199
55.675 11.155277
55.680 10.894572
55.685 10.540175
55.690 10.243439
55.695 10.14133
55.700 9.985721
55.705 10.140165
55.710 10.234345
55.715 10.652264
55.720 10.847838
55.725 11.264661
55.730 11.537467
55.735 11.746391
55.740 11.591515
55.745 11.668447
55.750 11.84147
55.755 11.479913
55.760 11.219401
55.765 10.974669
55.770 11.126855
55.775 11.585103
55.780 11.614458
55.785 11.714697
55.790 11.879069
55.795 12.002117
55.800 12.075066
55.805 12.005307
55.810 12.363773
55.815 12.498013
55.820 12.54397
55.825 12.406894
55.830 12.295506
55.835 12.926735
55.840 13.231188
55.845 13.061978
55.850 12.781677
55.855 12.391222
55.860 12.427843
55.865 12.063829
55.870 11.402718
55.875 10.932467
55.880 10.712631
55.885 11.045787
55.890 11.498948
55.895 11.809164
55.900 11.622082
55.905 11.750257
55.910 11.921908
55.915 11.741412
55.920 11.726768
55.925 11.421384
55.930 11.641274
55.935 12.047613
55.940 12.381206
55.945 13.142796
55.950 13.346088
55.955 13.538995
55.960 13.390271
55.965 12.861567
55.970 12.593469
55.975 11.636861
55.980 11.561894
55.985 11.570464
55.990 11.665577
55.995 11.788427
56.000 12.094427
56.005 12.234035
56.010 12.470084
56.015 11.766057
56.020 11.954893
56.025 12.318649
56.030 12.721898
56.035 13.082603
56.040 12.860948
56.045 12.961233
56.050 12.787934
56.055 12.292587
56.060 11.893656
56.065 11.36519
56.070 11.269905
56.075 11.629554
56.080 12.354254
56.085 12.495749
56.090 12.657151
56.095 12.610722
56.100 12.727786
56.105 12.70972
56.110 12.468334
56.115 11.99904
56.120 11.853992
56.125 11.582898
56.130 11.906676
56.135 11.984645
56.140 11.880576
56.145 12.182308
56.150 12.456541
56.155 12.999247
56.160 13.180565
56.165 12.810034
56.170 12.549723
56.175 12.318382
56.180 11.988625
56.185 11.822942
56.190 11.759343
56.195 11.847234
56.200 11.756003
56.205 11.733348
56.210 11.790004
56.215 12.412249
56.220 12.850211
56.225 12.537649
56.230 12.313294
56.235 12.594222
56.240 12.621005
56.245 12.344881
56.250 11.445387
56.255 11.184219
56.260 11.521563
56.265 11.398713
56.270 10.852676
56.275 11.240765
56.280 11.546574
56.285 11.353172
56.290 11.240154
56.295 11.443523
56.300 11.506028
56.305 12.366701
56.310 12.608146
56.315 12.957686
56.320 13.061224
56.325 12.807213
56.330 12.499513
56.335 12.99822
56.340 12.334292
56.345 12.014093
56.350 11.69836
56.355 11.838442
56.360 12.10459
56.365 11.906975
56.370 11.698842
56.375 11.856112
56.380 11.775997
56.385 11.894961
56.390 11.928733
56.395 12.333392
56.400 12.662276
56.405 12.827832
56.410 12.498748
56.415 12.457334
56.420 12.533922
56.425 12.223015
56.430 12.018274
56.435 11.966345
56.440 11.731616
56.445 12.413463
56.450 12.821738
56.455 13.093098
56.460 13.970656
56.465 14.318552
56.470 14.238491
56.475 14.181464
56.480 13.403425
56.485 13.021986
56.490 12.530907
56.495 12.074469
56.500 12.1784
56.505 12.613145
56.510 12.918428
56.515 13.469161
56.520 13.864279
56.525 14.337214
56.530 14.44107
56.535 14.00084
56.540 13.685258
56.545 13.6565
56.550 13.328512
56.555 13.102319
56.560 12.9416
56.565 12.716777
56.570 13.142819
56.575 13.421738
56.580 13.577423
56.585 13.387816
56.590 13.447885
56.595 13.898464
56.600 13.963808
56.605 14.093877
56.610 13.970546
56.615 14.131826
56.620 14.411981
56.625 14.45769
56.630 14.260076
56.635 14.116317
56.640 14.00123
56.645 13.882372
56.650 13.421513
56.655 13.324835
56.660 13.120819
56.665 13.051568
56.670 12.82797
56.675 12.936725
56.680 13.143603
56.685 13.045644
56.690 12.873223
56.695 13.035693
56.700 13.338187
56.705 13.607686
56.710 12.988486
56.715 12.756515
56.720 12.979952
56.725 13.214882
56.730 13.113925
56.735 13.040962
56.740 13.032329
56.745 13.190948
56.750 13.688468
56.755 13.722051
56.760 13.590328
56.765 13.457771
56.770 13.560673
56.775 13.506042
56.780 13.388297
56.785 13.078637
56.790 13.421646
56.795 13.707447
56.800 13.770525
56.805 13.48665
56.810 13.842581
56.815 13.921737
56.820 13.673274
56.825 12.951729
56.830 12.628651
56.835 12.944084
56.840 12.982408
56.845 12.892551
56.850 12.877138
56.855 12.912864
56.860 13.052143
56.865 13.189198
56.870 12.806841
56.875 12.58722
56.880 12.762745
56.885 13.166914
56.890 13.242709
56.895 13.095824
56.900 12.826875
56.905 12.382778
56.910 12.106005
56.915 11.685799
56.920 11.124213
56.925 11.009235
56.930 11.143394
56.935 11.208506
56.940 11.446282
56.945 11.574052
56.950 11.793706
56.955 12.004648
56.960 11.819955
56.965 11.847356
56.970 11.699875
56.975 11.927918
56.980 12.278057
56.985 12.280414
56.990 12.461085
56.995 13.070019
57.000 13.078204
57.005 13.285702
57.010 13.236306
57.015 12.559779
57.020 12.437669
57.025 12.564423
57.030 12.087126
57.035 12.44122
57.040 12.882367
57.045 12.999202
57.050 13.320989
57.055 13.422562
57.060 13.317634
57.065 13.917171
57.070 13.479257
57.075 12.9938
57.080 12.499385
57.085 12.637835
57.090 12.724815
57.095 12.576781
57.100 12.072274
57.105 11.966453
57.110 12.348823
57.115 12.473491
57.120 11.966312
57.125 11.832987
57.130 12.026135
57.135 12.293372
57.140 12.391266
57.145 12.324176
57.150 12.095077
57.155 12.183352
57.160 12.396904
57.165 12.379021
57.170 11.879279
57.175 11.764669
57.180 11.767818
57.185 12.351912
57.190 12.632598
57.195 12.384425
57.200 12.215406
57.205 12.744398
57.210 12.892219
57.215 13.287909
57.220 13.828452
57.225 14.201671
57.230 14.59877
57.235 14.888617
57.240 14.987406
57.245 14.612107
57.250 14.299814
57.255 13.922312
57.260 14.289106
57.265 14.232759
57.270 14.33602
57.275 14.44621
57.280 14.501508
57.285 14.926684
57.290 14.497378
57.295 13.741541
57.300 14.018991
57.305 13.9866
57.310 13.976992
57.315 14.90202
57.320 14.58215
57.325 14.918332
57.330 14.584118
57.335 14.030496
57.340 13.756523
57.345 13.473122
57.350 12.852378
57.355 12.492049
57.360 12.365634
57.365 12.778786
57.370 12.687359
57.375 12.341249
57.380 12.627204
57.385 13.331268
57.390 13.427678
57.395 13.914032
57.400 13.965147
57.405 14.215452
57.410 14.749307
57.415 14.127601
57.420 13.570587
57.425 13.26782
57.430 13.079831
57.435 13.215333
57.440 12.868943
57.445 12.47366
57.450 12.051504
57.455 11.552976
57.460 11.936798
57.465 11.645101
57.470 11.614478
57.475 11.715302
57.480 12.073377
57.485 12.102739
57.490 12.554323
57.495 12.127913
57.500 12.017226
57.505 12.001919
57.510 12.135688
57.515 12.366974
57.520 12.653804
57.525 12.302566
57.530 12.474944
57.535 12.559654
57.540 12.436937
57.545 12.335892
57.550 12.182356
57.555 12.339325
57.560 12.746664
57.565 12.905041
57.570 13.322167
57.575 13.342747
57.580 13.366744
57.585 13.322524
57.590 13.730319
57.595 13.242859
57.600 13.131912
57.605 12.556793
57.610 12.77832
57.615 12.960095
57.620 13.18097
57.625 13.146163
57.630 13.891934
57.635 14.01547
57.640 14.135537
57.645 13.957093
57.650 13.73537
57.655 13.657179
57.660 13.501035
57.665 13.246743
57.670 13.237361
57.675 12.908767
57.680 12.600574
57.685 12.400676
57.690 12.486196
57.695 12.546316
57.700 12.307966
57.705 12.653469
57.710 13.008246
57.715 13.525323
57.720 13.82752
57.725 13.593904
57.730 13.262106
57.735 13.490857
57.740 13.378441
57.745 13.621695
57.750 13.760403
57.755 13.340605
57.760 13.518915
57.765 13.594413
57.770 13.2529
57.775 13.291568
57.780 13.486571
57.785 13.688153
57.790 14.214124
57.795 13.789949
57.800 13.86251
57.805 13.906382
57.810 13.891416
57.815 13.676814
57.820 13.312041
57.825 13.179543
57.830 13.276378
57.835 13.267948
57.840 13.663547
57.845 13.828794
57.850 13.46862
57.855 13.174229
57.860 13.067252
57.865 13.247869
57.870 13.089338
57.875 12.452995
57.880 12.234965
57.885 12.575081
57.890 12.987002
57.895 12.923342
57.900 13.172021
57.905 13.402703
57.910 13.487605
57.915 13.484712
57.920 13.225095
57.925 13.144291
57.930 13.170804
57.935 13.054561
57.940 13.153731
57.945 13.145597
57.950 12.511335
57.955 12.335541
57.960 12.265145
57.965 12.223474
57.970 12.529303
57.975 12.60295
57.980 12.663136
57.985 13.272667
57.990 13.595383
57.995 13.814246
58.000 13.64943
58.005 13.262111
58.010 13.245993
58.015 12.875956
58.020 12.589202
58.025 12.372561
58.030 12.503455
58.035 12.577397
58.040 12.925598
58.045 13.077671
58.050 13.483791
58.055 13.786764
58.060 13.516623
58.065 13.320291
58.070 13.565234
58.075 13.706102
58.080 13.87616
58.085 14.19582
58.090 14.110975
58.095 14.311723
58.100 14.336676
58.105 14.181067
58.110 14.112894
58.115 13.865447
58.120 13.600665
58.125 13.380005
58.130 13.613497
58.135 13.393436
58.140 13.540743
58.145 13.292081
58.150 13.710147
58.155 13.851904
58.160 14.209534
58.165 13.881752
58.170 14.192361
58.175 14.018477
58.180 13.656458
58.185 13.185616
58.190 13.181818
58.195 13.462413
58.200 13.587828
58.205 13.104122
58.210 13.118233
58.215 13.700828
58.220 14.060953
58.225 13.670915
58.230 13.213813
58.235 13.510215
58.240 13.649917
58.245 13.526436
58.250 13.214744
58.255 13.26474
58.260 13.194714
58.265 13.538713
58.270 13.288461
58.275 13.376649
58.280 13.358367
58.285 13.172624
58.290 12.824214
58.295 13.022017
58.300 12.997201
58.305 12.95594
58.310 13.416872
58.315 13.299084
58.320 13.444889
58.325 13.552643
58.330 13.067178
58.335 12.978702
58.340 12.680511
58.345 12.523675
58.350 13.98081
58.355 14.476423
58.360 14.977641
58.365 15.744236
58.370 16.09285
58.375 16.320276
58.380 16.196726
58.385 14.580265
58.390 14.382494
58.395 14.466609
58.400 14.265499
58.405 13.546248
58.410 13.621924
58.415 13.707639
58.420 14.569788
58.425 14.679713
58.430 14.683728
58.435 14.629074
58.440 15.404505
58.445 15.511563
58.450 15.041615
58.455 14.600457
58.460 14.586368
58.465 14.613507
58.470 14.802622
58.475 14.512635
58.480 14.572177
58.485 15.081761
58.490 15.128777
58.495 14.789768
58.500 14.520895
58.505 14.872462
58.510 14.810002
58.515 14.724431
58.520 14.7161
58.525 14.943981
58.530 15.346868
58.535 15.185628
58.540 15.032982
58.545 15.303851
58.550 15.522805
58.555 15.206223
58.560 14.621718
58.565 14.561081
58.570 14.341413
58.575 13.991776
58.580 13.702985
58.585 13.398756
58.590 13.374722
58.595 13.75521
58.600 14.224112
58.605 14.727178
58.610 14.973284
58.615 15.062551
58.620 15.014823
58.625 15.384847
58.630 15.85291
58.635 15.611598
58.640 15.604352
58.645 15.616594
58.650 15.323773
58.655 15.422472
58.660 15.260835
58.665 15.02892
58.670 14.941695
58.675 14.453931
58.680 14.516785
58.685 14.817549
58.690 15.103142
58.695 15.885929
58.700 15.968133
58.705 16.529882
58.710 16.601738
58.715 16.882132
58.720 16.680866
58.725 16.241409
58.730 15.608767
58.735 15.908031
58.740 15.476093
58.745 15.739798
58.750 15.559047
58.755 15.862766
58.760 16.005816
58.765 15.334157
58.770 14.826102
58.775 14.848593
58.780 14.250454
58.785 14.02784
58.790 14.657053
58.795 14.885774
58.800 15.055265
58.805 15.305368
58.810 15.980883
58.815 16.586975
58.820 16.378008
58.825 16.089489
58.830 16.311565
58.835 16.091007
58.840 15.894725
58.845 15.489085
58.850 15.405275
58.855 15.319817
58.860 14.816208
58.865 14.368723
58.870 14.459028
58.875 14.64771
58.880 14.606531
58.885 14.371633
58.890 14.393355
58.895 14.695896
58.900 15.211564
58.905 15.265335
58.910 14.745253
58.915 14.750672
58.920 15.024098
58.925 15.109685
58.930 14.919415
58.935 14.570106
58.940 14.545757
58.945 14.816653
58.950 14.706394
58.955 14.449612
58.960 14.258371
58.965 14.228591
58.970 14.426241
58.975 14.662213
58.980 14.733018
58.985 14.447466
58.990 14.485588
58.995 14.623928
59.000 14.982455
59.005 15.075272
59.010 14.925208
59.015 15.117003
59.020 15.351761
59.025 15.136638
59.030 15.122316
59.035 14.848508
59.040 14.715223
59.045 14.515891
59.050 14.18801
59.055 14.496207
59.060 14.820349
59.065 14.537007
59.070 14.168308
59.075 14.100618
59.080 13.798288
59.085 13.840579
59.090 13.695289
59.095 13.645879
59.100 14.012416
59.105 14.295915
59.110 14.370189
59.115 14.805593
59.120 14.487456
59.125 14.164542
59.130 14.145789
59.135 14.573693
59.140 14.662604
59.145 14.391773
59.150 14.041841
59.155 14.183109
59.160 14.125212
59.165 13.354893
59.170 12.501028
59.175 12.471457
59.180 12.524048
59.185 12.513793
59.190 12.885015
59.195 13.44278
59.200 13.982085
59.205 14.386004
59.210 14.570867
59.215 15.075918
59.220 15.302863
59.225 15.413231
59.230 15.548866
59.235 15.672857
59.240 15.95781
59.245 15.688236
59.250 15.114218
59.255 14.844858
59.260 14.721557
59.265 14.661926
59.270 14.601196
59.275 14.145196
59.280 14.027582
59.285 14.472814
59.290 14.428318
59.295 14.981828
59.300 14.836459
59.305 14.782763
59.310 15.657763
59.315 16.105093
59.320 16.467491
59.325 16.759518
59.330 16.281351
59.335 16.480799
59.340 15.957985
59.345 15.392164
59.350 15.149995
59.355 14.928553
59.360 15.121045
59.365 15.015841
59.370 15.010084
59.375 15.236607
59.380 15.343057
59.385 15.635996
59.390 16.169237
59.395 16.036518
59.400 15.994779
59.405 15.681655
59.410 15.414952
59.415 15.224522
59.420 14.555499
59.425 13.489622
59.430 13.488781
59.435 13.791278
59.440 14.587505
59.445 14.916837
59.450 15.109857
59.455 15.159803
59.460 15.571607
59.465 15.456561
59.470 15.231685
59.475 14.153394
59.480 14.322043
59.485 14.41139
59.490 15.027264
59.495 15.422261
59.500 15.33888
59.505 15.341908
59.510 15.821525
59.515 16.00173
59.520 15.842765
59.525 15.81883
59.530 15.410227
59.535 15.962169
59.540 16.278248
59.545 16.246986
59.550 15.856238
59.555 15.627142
59.560 15.691355
59.565 15.526481
59.570 15.062118
59.575 15.370958
59.580 15.691384
59.585 15.689495
59.590 15.762865
59.595 15.631377
59.600 15.91538
59.605 15.916194
59.610 15.502179
59.615 15.163651
59.620 15.582911
59.625 15.945987
59.630 16.307104
59.635 16.497818
59.640 16.957541
59.645 16.915123
59.650 17.262403
59.655 16.661793
59.660 16.457262
59.665 16.12137
59.670 16.025139
59.675 16.274462
59.680 17.023043
59.685 17.314308
59.690 17.940613
59.695 18.187256
59.700 18.416372
59.705 18.479748
59.710 17.508253
59.715 17.056801
59.720 16.486298
59.725 16.139706
59.730 16.238888
59.735 16.018198
59.740 16.253422
59.745 16.761816
59.750 16.867672
59.755 17.610518
59.760 17.752016
59.765 18.039064
59.770 18.514702
59.775 18.177397
59.780 18.055134
59.785 17.49625
59.790 17.105255
59.795 16.973215
59.800 16.803804
59.805 16.881969
59.810 17.21105
59.815 17.592466
59.820 18.245258
59.825 18.309275
59.830 17.788242
59.835 17.628611
59.840 17.593576
59.845 17.469591
59.850 16.78252
59.855 16.225103
59.860 16.169964
59.865 16.589949
59.870 16.692118
59.875 16.727312
59.880 16.873804
59.885 17.096846
59.890 17.31311
59.895 17.554075
59.900 17.184784
59.905 16.84897
59.910 16.330591
59.915 16.016943
59.920 15.631126
59.925 15.715216
59.930 15.694962
59.935 16.131884
59.940 15.878003
59.945 16.261875
59.950 16.393723
59.955 16.753849
59.960 16.623154
59.965 16.537664
59.970 16.176542
59.975 16.249313
59.980 15.768871
59.985 16.040709
59.990 16.19663
59.995 16.326788
60.000 16.048458
60.005 16.380449
60.010 16.671286
60.015 17.072975
60.020 16.779135
60.025 16.474321
60.030 16.006453
60.035 15.350499
60.040 15.13464
60.045 15.520465
60.050 15.657741
60.055 15.635923
60.060 16.00548
60.065 16.228416
60.070 16.994658
60.075 17.065214
60.080 16.592287
60.085 16.699385
60.090 17.230316
60.095 17.253443
60.100 17.548328
60.105 17.327301
60.110 17.315788
60.115 17.117987
60.120 16.729122
60.125 16.104612
60.130 15.733729
60.135 15.474103
60.140 15.091208
60.145 15.086056
60.150 15.309761
60.155 15.069194
60.160 15.115079
60.165 15.669182
60.170 15.915039
60.175 16.139273
60.180 16.285057
60.185 16.346344
60.190 16.48103
60.195 16.190048
60.200 15.882746
60.205 15.659654
60.210 15.792036
60.215 16.348173
60.220 16.750294
60.225 17.457506
60.230 18.190887
60.235 18.207979
60.240 18.146818
60.245 17.977848
60.250 17.248648
60.255 16.687706
60.260 16.421099
60.265 15.928162
60.270 16.65877
60.275 17.003271
60.280 17.109251
60.285 17.610216
60.290 17.64315
60.295 17.553959
60.300 17.408926
60.305 16.543398
60.310 16.2048
60.315 16.082273
60.320 15.642178
60.325 15.07647
60.330 14.475319
60.335 14.316691
60.340 14.190487
60.345 14.051633
60.350 13.898554
60.355 14.156054
60.360 14.625867
60.365 15.135134
60.370 15.107059
60.375 15.129433
60.380 15.545537
60.385 15.293344
60.390 15.644035
60.395 16.186914
60.400 16.722715
60.405 17.100079
60.410 16.826206
60.415 16.428095
60.420 16.099884
60.425 15.40552
60.430 15.182549
60.435 14.80428
60.440 15.042511
60.445 15.192441
60.450 15.098652
60.455 15.154892
60.460 14.955403
60.465 14.188501
60.470 14.045032
60.475 14.212401
60.480 14.661403
60.485 14.898409
60.490 14.871958
60.495 15.127137
60.500 15.526657
60.505 15.746443
60.510 15.870231
60.515 15.405421
60.520 15.596533
60.525 15.897079
60.530 15.561581
60.535 15.170019
60.540 14.743859
60.545 14.342945
60.550 14.312584
60.555 14.209796
60.560 14.045557
60.565 14.751636
60.570 14.90289
60.575 15.136988
60.580 15.014365
60.585 15.084924
60.590 15.250044
60.595 15.241215
60.600 14.756479
60.605 15.02462
60.610 15.207252
60.615 16.205612
60.620 16.930437
60.625 17.155264
60.630 17.517862
60.635 17.622355
60.640 17.079744
60.645 16.989918
60.650 16.177561
60.655 15.552862
60.660 14.981613
60.665 14.546782
60.670 14.743497
60.675 14.979729
60.680 14.536207
60.685 14.409067
60.690 14.530354
60.695 15.065372
60.700 15.062094
60.705 14.643254
60.710 14.413723
60.715 14.506301
60.720 14.542708
60.725 14.511889
60.730 14.450551
60.735 15.055353
60.740 15.09258
60.745 14.876084
60.750 14.463614
60.755 14.374943
60.760 14.807014
60.765 15.195714
60.770 15.297753
60.775 15.384574
60.780 15.809546
60.785 16.223259
60.790 17.043243
60.795 16.862316
60.800 16.545233
60.805 16.541496
60.810 16.909431
60.815 16.781067
60.820 16.159771
60.825 15.308529
60.830 14.713071
60.835 14.188552
60.840 13.987502
60.845 13.736699
60.850 14.038119
60.855 14.215875
60.860 14.470493
60.865 14.337249
60.870 14.386426
60.875 14.471644
60.880 14.232422
60.885 14.263846
60.890 14.025387
60.895 13.857705
60.900 14.051974
60.905 14.274026
60.910 14.331864
60.915 14.292727
60.920 14.178072
60.925 13.992677
60.930 13.822113
60.935 14.048199
60.940 13.96736
60.945 13.685292
60.950 13.362032
60.955 13.54326
60.960 14.273955
60.965 14.975747
60.970 15.132294
60.975 14.60113
60.980 14.674146
60.985 14.71533
60.990 14.769065
60.995 14.557597
61.000 14.418653
61.005 14.547704
61.010 14.611975
61.015 14.256348
61.020 14.202332
61.025 14.269336
61.030 14.097442
61.035 13.727658
61.040 13.650872
61.045 14.001223
61.050 14.211513
61.055 14.526649
61.060 14.143149
61.065 14.10368
61.070 14.231828
61.075 14.557889
61.080 14.983412
61.085 15.314097
61.090 15.515926
61.095 16.086153
61.100 16.491219
61.105 16.654118
61.110 15.870939
61.115 15.140117
61.120 14.796511
61.125 14.767968
61.130 14.584781
61.135 14.337409
61.140 14.000626
61.145 13.762516
61.150 13.660524
61.155 13.95019
61.160 13.60123
61.165 12.792591
61.170 12.19055
61.175 12.353567
61.180 12.606361
61.185 13.283484
61.190 13.782283
61.195 14.003735
61.200 14.212826
61.205 15.200373
61.210 15.523364
61.215 15.776654
61.220 15.02443
61.225 14.505716
61.230 14.748884
61.235 14.931427
61.240 14.367515
61.245 14.204473
61.250 14.253817
61.255 14.188743
61.260 13.848295
61.265 13.709679
61.270 13.982767
61.275 14.341957
61.280 14.040768
61.285 13.887217
61.290 13.802566
61.295 13.555622
61.300 13.866574
61.305 13.418342
61.310 13.104006
61.315 13.280951
61.320 13.507517
61.325 13.784924
61.330 13.9646
61.335 14.288815
61.340 14.368834
61.345 14.581163
61.350 14.429498
61.355 14.17836
61.360 13.844817
61.365 13.746182
61.370 13.176525
61.375 13.38726
61.380 12.944149
61.385 12.700079
61.390 13.14898
61.395 13.854066
61.400 13.721775
61.405 13.668136
61.410 13.972101
61.415 14.330444
61.420 14.648925
61.425 14.607781
61.430 14.339488
61.435 14.407846
61.440 14.137467
61.445 14.07913
61.450 14.274951
61.455 14.650446
61.460 14.415532
61.465 14.472804
61.470 14.736647
61.475 15.501492
61.480 15.581106
61.485 15.13066
61.490 14.652998
61.495 15.088009
61.500 14.853888
61.505 14.644529
61.510 13.786378
61.515 13.160769
61.520 13.181021
61.525 13.575321
61.530 12.965565
61.535 13.162738
61.540 13.138583
61.545 13.350108
61.550 13.742036
61.555 13.553555
61.560 13.34234
61.565 13.088772
61.570 13.05361
61.575 13.347989
61.580 13.544971
61.585 13.636222
61.590 13.429367
61.595 13.043636
61.600 13.232394
61.605 13.847919
61.610 14.004113
61.615 13.867597
61.620 13.756207
61.625 14.590829
61.630 15.125301
61.635 15.129045
61.640 14.594257
61.645 14.413132
61.650 14.681047
61.655 14.378726
61.660 13.665292
61.665 13.932841
61.670 13.951781
61.675 13.818289
61.680 13.466928
61.685 13.538455
61.690 13.734478
61.695 13.773325
61.700 13.27335
61.705 12.813763
61.710 12.754927
61.715 12.638762
61.720 12.261773
61.725 12.128129
61.730 11.9145
61.735 12.292396
61.740 12.521456
61.745 12.5435
61.750 12.939281
61.755 13.035395
61.760 13.290983
61.765 13.128811
61.770 12.899255
61.775 13.137958
61.780 13.106429
61.785 13.207564
61.790 13.550038
61.795 13.787271
61.800 14.208314
61.805 14.777167
61.810 14.735166
61.815 14.677709
61.820 14.889761
61.825 14.567343
61.830 14.639161
61.835 15.099859
61.840 14.820272
61.845 15.042559
61.850 15.168109
61.855 14.895927
61.860 15.075264
61.865 15.300203
61.870 14.973966
61.875 15.007029
61.880 15.288549
61.885 15.384548
61.890 15.428793
61.895 15.803932
61.900 15.422618
61.905 15.126418
61.910 14.723827
61.915 14.050036
61.920 13.937412
61.925 13.849833
61.930 13.612767
61.935 13.706929
61.940 13.926631
61.945 14.021708
61.950 14.023724
61.955 14.200787
61.960 13.934037
61.965 13.610272
61.970 13.434591
61.975 13.44758
61.980 13.881763
61.985 13.782854
61.990 13.709202
61.995 14.542354
62.000 14.708751
62.005 15.170094
62.010 15.387382
62.015 15.558941
62.020 15.522375
62.025 14.992417
62.030 14.513043
62.035 14.422239
62.040 14.161201
62.045 13.791338
62.050 13.821311
62.055 14.160155
62.060 14.400207
62.065 14.241367
62.070 14.102359
62.075 13.739861
62.080 13.417377
62.085 12.826816
62.090 13.236357
62.095 13.828989
62.100 14.116848
62.105 14.346042
62.110 14.929144
62.115 15.709574
62.120 16.058884
62.125 15.822366
62.130 15.250218
62.135 15.015816
62.140 15.400006
62.145 15.221403
62.150 14.945684
62.155 15.101559
62.160 14.966085
62.165 15.144888
62.170 15.20469
62.175 15.754085
62.180 16.044844
62.185 15.989666
62.190 15.927715
62.195 16.04283
62.200 15.878489
62.205 15.875248
62.210 15.217655
62.215 15.248629
62.220 15.384892
62.225 15.63316
62.230 15.839469
62.235 15.900395
62.240 15.675223
62.245 15.700115
62.250 15.284403
62.255 15.165182
62.260 14.585696
62.265 14.404491
62.270 14.550269
62.275 14.793992
62.280 14.557795
62.285 14.352848
62.290 14.301424
62.295 14.58708
62.300 14.976544
62.305 15.037786
62.310 14.892289
62.315 14.80044
62.320 14.975038
62.325 15.262043
62.330 15.116297
62.335 14.556505
62.340 14.278787
62.345 14.30762
62.350 14.409927
62.355 14.639655
62.360 14.600721
62.365 14.952204
62.370 15.237133
62.375 15.903362
62.380 16.358688
62.385 16.765007
62.390 16.654621
62.395 16.097366
62.400 15.879605
62.405 15.651592
62.410 15.074146
62.415 14.953799
62.420 14.897885
62.425 14.762794
62.430 14.831815
62.435 14.613643
62.440 14.229277
62.445 14.289172
62.450 14.033172
62.455 13.706922
62.460 14.110862
62.465 14.523859
62.470 15.045264
62.475 15.484194
62.480 16.006243
62.485 16.073601
62.490 16.018663
62.495 15.741197
62.500 15.076597
62.505 14.346459
62.510 14.025865
62.515 13.172744
62.520 13.081989
62.525 13.782784
62.530 13.955832
62.535 14.191165
62.540 14.344268
62.545 14.473451
62.550 14.807343
62.555 14.492475
62.560 13.531503
62.565 13.16513
62.570 13.599779
62.575 14.219977
62.580 14.348043
62.585 14.517037
62.590 14.619369
62.595 15.067053
62.600 15.159526
62.605 14.835657
62.610 14.702118
62.615 14.668048
62.620 14.17511
62.625 14.717248
62.630 14.715937
62.635 15.142479
62.640 15.320806
62.645 15.437905
62.650 15.839931
62.655 16.095697
62.660 15.344538
62.665 14.982236
62.670 14.818274
62.675 14.580983
62.680 14.489887
62.685 14.60499
62.690 14.744289
62.695 14.979929
62.700 14.725376
62.705 14.436452
62.710 14.791032
62.715 15.003317
62.720 14.909522
62.725 15.412075
62.730 16.464193
62.735 17.199724
62.740 17.558464
62.745 17.706322
62.750 17.596384
62.755 17.520531
62.760 16.685604
62.765 15.503253
62.770 15.3521
62.775 14.724783
62.780 14.591118
62.785 14.589478
62.790 14.493435
62.795 15.134524
62.800 15.922171
62.805 16.501543
62.810 16.560495
62.815 15.892051
62.820 15.53253
62.825 15.572132
62.830 15.254444
62.835 15.285684
62.840 14.782262
62.845 15.974566
62.850 16.784609
62.855 17.163174
62.860 17.245535
62.865 17.117586
62.870 16.702276
62.875 16.6833
62.880 15.73249
62.885 15.181805
62.890 14.849094
62.895 15.097737
62.900 15.320826
62.905 15.186379
62.910 15.110654
62.915 15.181511
62.920 15.064081
62.925 15.159445
62.930 15.022621
62.935 15.239772
62.940 15.305392
62.945 14.957083
62.950 14.812641
62.955 14.926224
62.960 14.879561
62.965 14.667798
62.970 14.772163
62.975 15.358944
62.980 15.82703
62.985 15.829188
62.990 15.738156
62.995 15.7717
63.000 15.61914
63.005 14.901665
63.010 14.523715
63.015 14.775061
63.020 14.506694
63.025 14.665266
63.030 14.403316
63.035 14.337685
63.040 14.872137
63.045 14.845544
63.050 14.617036
63.055 14.929658
63.060 15.435844
63.065 15.583016
63.070 15.850589
63.075 15.452385
63.080 15.194523
63.085 15.197411
63.090 14.779508
63.095 13.952972
63.100 13.863799
63.105 14.207499
63.110 14.354858
63.115 14.356791
63.120 14.248915
63.125 14.758222
63.130 15.474727
63.135 15.710889
63.140 15.121985
63.145 15.03692
63.150 14.939241
63.155 15.101796
63.160 14.984001
63.165 15.076785
63.170 15.423702
63.175 15.67487
63.180 15.599132
63.185 15.513263
63.190 15.492422
63.195 15.398972
63.200 15.043437
63.205 14.273882
63.210 14.394697
63.215 14.90616
63.220 15.310481
63.225 15.093736
63.230 15.196571
63.235 15.353862
63.240 15.381077
63.245 14.541642
63.250 14.631549
63.255 14.564792
63.260 14.988814
63.265 15.234535
63.270 15.112081
63.275 15.426005
63.280 15.862001
63.285 15.892773
63.290 16.187283
63.295 16.295485
63.300 16.311306
63.305 16.958755
63.310 17.530338
63.315 17.798428
63.320 17.810656
63.325 17.580082
63.330 16.658478
63.335 16.236851
63.340 15.675982
63.345 15.084496
63.350 14.912041
63.355 14.589903
63.360 14.749594
63.365 14.939093
63.370 14.949766
63.375 15.087756
63.380 15.471754
63.385 15.486299
63.390 15.624757
63.395 15.536609
63.400 15.598047
63.405 15.195131
63.410 14.926823
63.415 14.59664
63.420 14.314676
63.425 14.034457
63.430 14.213334
63.435 14.173359
63.440 14.636344
63.445 14.685942
63.450 14.791156
63.455 14.742182
63.460 14.86727
63.465 14.785551
63.470 14.979431
63.475 14.592331
63.480 14.512964
63.485 14.528648
63.490 14.792063
63.495 14.903926
63.500 15.089267
63.505 15.015473
63.510 15.142174
63.515 15.186964
63.520 15.18582
63.525 15.326855
63.530 15.078766
63.535 15.139688
63.540 15.384159
63.545 15.679865
63.550 15.821409
63.555 15.583995
63.560 15.325204
63.565 15.178441
63.570 14.793062
63.575 15.184278
63.580 15.068416
63.585 15.241307
63.590 15.561251
63.595 15.404759
63.600 15.262239
63.605 15.45955
63.610 15.02771
63.615 14.654724
63.620 14.401499
63.625 14.100413
63.630 14.18008
63.635 14.685114
63.640 14.400254
63.645 14.465795
63.650 14.834099
63.655 15.058101
63.660 15.001217
63.665 15.136442
63.670 15.031692
63.675 15.623351
63.680 15.26461
63.685 14.705903
63.690 14.391768
63.695 14.54228
63.700 14.504679
63.705 14.502439
63.710 14.218176
63.715 14.219461
63.720 14.94115
63.725 15.205978
63.730 15.406475
63.735 15.699209
63.740 16.000999
63.745 16.179834
63.750 16.430326
63.755 16.022402
63.760 15.42518
63.765 15.560267
63.770 15.079391
63.775 14.83777
63.780 15.125397
63.785 14.740501
63.790 14.757524
63.795 14.985335
63.800 14.332779
63.805 14.149934
63.810 14.432807
63.815 14.580599
63.820 14.771073
63.825 14.820229
63.830 15.27457
63.835 15.636727
63.840 15.620955
63.845 15.203102
63.850 14.672473
63.855 14.390735
63.860 14.516897
63.865 14.46537
63.870 14.25888
63.875 14.054809
63.880 14.212103
63.885 14.494602
63.890 14.747462
63.895 14.760812
63.900 14.306231
63.905 14.771448
63.910 15.057552
63.915 14.576283
63.920 14.683002
63.925 14.502015
63.930 14.739848
63.935 15.395645
63.940 15.530584
63.945 15.364747
63.950 15.481894
63.955 15.219878
63.960 15.748032
63.965 15.727845
63.970 15.043916
63.975 15.110255
63.980 15.628717
63.985 15.849378
63.990 15.718721
63.995 15.674603
64.000 15.980455
64.005 16.194817
64.010 16.224236
64.015 16.232201
64.020 16.821491
64.025 17.703959
64.030 17.538616
64.035 17.358973
64.040 17.336607
64.045 17.090096
64.050 16.476141
64.055 15.730079
64.060 15.187507
64.065 15.095691
64.070 15.55669
64.075 15.547295
64.080 15.725355
64.085 15.909873
64.090 16.150543
64.095 16.010536
64.100 15.542949
64.105 15.044717
64.110 15.067183
64.115 15.155046
64.120 15.584462
64.125 15.267207
64.130 15.609103
64.135 15.76942
64.140 15.971876
64.145 15.975777
64.150 15.92733
64.155 15.750989
64.160 15.792097
64.165 15.974385
64.170 16.003807
64.175 15.502166
64.180 15.742252
64.185 15.586195
64.190 15.315995
64.195 15.172067
64.200 14.915038
64.205 14.546869
64.210 14.694982
64.215 14.652449
64.220 14.753148
64.225 14.339373
64.230 14.525766
64.235 14.808495
64.240 15.2092
64.245 14.965127
64.250 14.915761
64.255 14.761701
64.260 15.092724
64.265 14.595994
64.270 14.213467
64.275 14.538591
64.280 15.303938
64.285 15.491504
64.290 15.634054
64.295 15.983769
64.300 16.399549
64.305 16.432781
64.310 16.329199
64.315 15.700515
64.320 15.132841
64.325 15.598192
64.330 15.699787
64.335 15.90318
64.340 16.488434
64.345 16.52408
64.350 17.186916
64.355 17.559261
64.360 17.591963
64.365 17.318468
64.370 17.099834
64.375 16.916882
64.380 16.79398
64.385 16.674191
64.390 16.779175
64.395 16.545898
64.400 16.360849
64.405 16.110046
64.410 15.700655
64.415 15.196977
64.420 14.801028
64.425 14.730811
64.430 15.226859
64.435 15.762684
64.440 15.971662
64.445 16.539526
64.450 17.421913
64.455 17.97053
64.460 18.301901
64.465 18.024275
64.470 17.580465
64.475 17.758993
64.480 17.332458
64.485 16.997494
64.490 16.870323
64.495 17.426943
64.500 18.356041
64.505 19.219345
64.510 20.178963
64.515 20.793274
64.520 20.860588
64.525 20.57819
64.530 19.360367
64.535 18.294441
64.540 17.809893
64.545 16.639111
64.550 16.384985
64.555 16.510263
64.560 16.616331
64.565 16.854156
64.570 17.128553
64.575 17.600172
64.580 18.178493
64.585 18.417545
64.590 18.178278
64.595 18.185791
64.600 18.668385
64.605 18.824654
64.610 18.580729
64.615 17.989534
64.620 17.77561
64.625 17.690607
64.630 17.715174
64.635 17.223274
64.640 16.832117
64.645 16.414314
64.650 16.672668
64.655 16.977589
64.660 17.290384
64.665 17.819769
64.670 18.15826
64.675 18.699341
64.680 19.377346
64.685 19.607748
64.690 19.331396
64.695 18.997379
64.700 18.899683
64.705 19.060804
64.710 19.471115
64.715 19.274643
64.720 19.568165
64.725 19.973631
64.730 19.781134
64.735 19.78681
64.740 20.036009
64.745 19.617804
64.750 19.860029
64.755 19.727968
64.760 19.834536
64.765 19.727213
64.770 19.748791
64.775 20.071781
64.780 19.873829
64.785 19.397657
64.790 18.973026
64.795 19.008638
64.800 19.470078
64.805 19.360264
64.810 18.991064
64.815 19.196957
64.820 19.774483
64.825 19.934626
64.830 19.421429
64.835 20.047987
64.840 20.016895
64.845 19.959368
64.850 20.501459
64.855 20.761934
64.860 21.685013
64.865 22.460562
64.870 22.526148
64.875 22.7407
64.880 23.607964
64.885 23.997963
64.890 23.919424
64.895 23.653854
64.900 23.593414
64.905 23.435873
64.910 23.56115
64.915 23.465673
64.920 23.710022
64.925 24.420404
64.930 24.870411
64.935 25.031134
64.940 25.738068
64.945 26.419125
64.950 25.999113
64.955 26.081951
64.960 25.561459
64.965 25.585466
64.970 25.636782
64.975 25.451479
64.980 25.748999
64.985 25.767509
64.990 24.884668
64.995 25.09392
65.000 25.455887
65.005 25.341568
65.010 25.37508
65.015 24.859701
65.020 26.013521
65.025 27.228487
65.030 27.405121
65.035 27.654608
65.040 28.228001
65.045 27.801655
65.050 28.179241
65.055 26.838369
65.060 25.865158
65.065 25.5334
65.070 25.519033
65.075 25.47397
65.080 26.091284
65.085 26.032751
65.090 27.104376
65.095 27.721167
65.100 27.841143
65.105 27.499445
65.110 27.585873
65.115 27.84874
65.120 28.130209
65.125 27.929073
65.130 27.340559
65.135 26.67028
65.140 26.238041
65.145 25.742495
65.150 25.459517
65.155 24.660404
65.160 24.271675
65.165 23.987253
65.170 24.765028
65.175 24.754023
65.180 24.41514
65.185 24.047274
65.190 24.500713
65.195 24.843184
65.200 25.276842
65.205 25.132662
65.210 25.824968
65.215 25.87459
65.220 25.571697
65.225 25.511683
65.230 25.119059
65.235 24.991259
65.240 24.725504
65.245 23.929434
65.250 23.699125
65.255 23.698572
65.260 23.613789
65.265 23.201662
65.270 23.924322
65.275 23.748768
65.280 23.191284
65.285 22.778933
65.290 22.584763
65.295 23.043808
65.300 23.03656
65.305 22.202663
65.310 22.427731
65.315 22.117844
65.320 21.883133
65.325 21.62361
65.330 21.294741
65.335 21.686773
65.340 21.565222
65.345 21.143782
65.350 21.778521
65.355 22.070581
65.360 21.877693
65.365 21.581387
65.370 20.934893
65.375 20.688847
65.380 21.18659
65.385 21.342924
65.390 21.523409
65.395 22.086647
65.400 22.072962
65.405 22.307341
65.410 21.781239
65.415 21.70274
65.420 21.300905
65.425 21.145683
65.430 20.567152
65.435 20.384016
65.440 19.911442
65.445 20.064041
65.450 19.592436
65.455 19.111303
65.460 19.185675
65.465 19.155605
65.470 18.96883
65.475 18.936092
65.480 19.0014
65.485 19.968197
65.490 20.765327
65.495 20.814686
65.500 20.934042
65.505 21.784504
65.510 22.524115
65.515 22.233915
65.520 21.532543
65.525 21.19166
65.530 21.030661
65.535 20.54793
65.540 19.847443
65.545 19.697992
65.550 20.124954
65.555 19.729206
65.560 19.728977
65.565 20.118923
65.570 20.265551
65.575 20.951593
65.580 21.442621
65.585 21.749582
65.590 22.192804
65.595 22.326088
65.600 22.363728
65.605 22.431599
65.610 22.186609
65.615 22.220692
65.620 21.900133
65.625 22.081118
65.630 21.77014
65.635 21.263346
65.640 21.055239
65.645 20.863298
65.650 20.628565
65.655 20.338757
65.660 19.830257
65.665 19.774441
65.670 20.222757
65.675 20.607492
65.680 20.586971
65.685 21.225407
65.690 22.445406
65.695 23.152487
65.700 23.623404
65.705 23.430912
65.710 24.08193
65.715 24.114517
65.720 23.35111
65.725 22.850695
65.730 23.155079
65.735 23.405151
65.740 24.190191
65.745 23.459625
65.750 23.141068
65.755 23.36153
65.760 22.881544
65.765 22.479507
65.770 22.181692
65.775 21.414213
65.780 21.761404
65.785 22.51359
65.790 22.353569
65.795 22.715887
65.800 22.802727
65.805 22.656031
65.810 22.498405
65.815 22.348063
65.820 22.951469
65.825 23.909237
65.830 24.608236
65.835 25.040421
65.840 26.031296
65.845 26.150486
65.850 26.206961
65.855 25.113064
65.860 24.277416
65.865 23.754936
65.870 23.685596
65.875 22.816008
65.880 22.88665
65.885 23.465258
65.890 24.24861
65.895 24.357443
65.900 24.011251
65.905 24.786989
65.910 25.683355
65.915 26.18528
65.920 26.161802
65.925 25.628469
65.930 26.215691
65.935 26.379128
65.940 25.473642
65.945 25.64151
65.950 25.531034
65.955 25.635269
65.960 26.048239
65.965 26.269867
65.970 26.292187
65.975 26.26437
65.980 26.125786
65.985 25.832357
65.990 25.70562
65.995 25.384663
66.000 25.478867
66.005 25.371107
66.010 25.507746
66.015 25.139925
66.020 24.983608
66.025 25.187164
66.030 26.002718
66.035 25.760807
66.040 26.301359
66.045 26.475342
66.050 27.196646
66.055 27.767866
66.060 27.553295
66.065 26.844118
66.070 26.128897
66.075 25.987467
66.080 25.884192
66.085 25.637039
66.090 25.443029
66.095 25.388594
66.100 25.952478
66.105 26.463491
66.110 27.365253
66.115 27.717474
66.120 27.845188
66.125 27.74132
66.130 28.086866
66.135 27.673456
66.140 27.509512
66.145 26.965519
66.150 26.395473
66.155 25.67634
66.160 25.719006
66.165 25.494923
66.170 25.481159
66.175 24.589298
66.180 24.166788
66.185 24.41029
66.190 24.560648
66.195 24.675751
66.200 25.460707
66.205 26.111696
66.210 27.429239
66.215 27.86447
66.220 28.203966
66.225 28.84079
66.230 28.527735
66.235 27.614677
66.240 27.707409
66.245 26.507212
66.250 26.222927
66.255 26.232302
66.260 25.889284
66.265 25.976757
66.270 26.089886
66.275 26.179691
66.280 26.523754
66.285 26.432327
66.290 26.110701
66.295 25.859303
66.300 25.731043
66.305 25.787956
66.310 25.48757
66.315 24.613232
66.320 23.882715
66.325 23.337446
66.330 23.398262
66.335 23.026163
66.340 22.375113
66.345 22.001129
66.350 22.679123
66.355 22.522455
66.360 22.843706
66.365 22.550922
66.370 22.355356
66.375 22.16608
66.380 22.281443
66.385 22.272982
66.390 22.244698
66.395 21.781816
66.400 22.145565
66.405 22.314425
66.410 22.057487
66.415 21.658781
66.420 21.537874
66.425 21.38549
66.430 21.815174
66.435 21.591204
66.440 21.570354
66.445 21.853086
66.450 22.249899
66.455 21.871775
66.460 21.408842
66.465 21.186367
66.470 21.066628
66.475 20.888405
66.480 20.90798
66.485 20.937571
66.490 21.448832
66.495 21.897345
66.500 21.319332
66.505 21.114187
66.510 21.503553
66.515 21.624954
66.520 21.069853
66.525 21.013214
66.530 21.277252
66.535 21.359768
66.540 21.281578
66.545 20.740828
66.550 20.257116
66.555 20.844988
66.560 20.761265
66.565 20.824745
66.570 20.705219
66.575 20.580709
66.580 20.554586
66.585 20.699358
66.590 19.727787
66.595 19.527084
66.600 19.089762
66.605 19.208241
66.610 18.89566
66.615 18.30847
66.620 18.10202
66.625 18.131493
66.630 17.874903
66.635 17.746084
66.640 17.774927
66.645 17.963558
66.650 18.11377
66.655 18.436543
66.660 18.662455
66.665 18.586519
66.670 19.089813
66.675 18.939774
66.680 18.543333
66.685 18.585571
66.690 18.216995
66.695 18.196407
66.700 17.940624
66.705 17.578836
66.710 17.624283
66.715 18.545444
66.720 18.818035
66.725 18.616119
66.730 18.498341
66.735 19.059273
66.740 19.30492
66.745 19.317776
66.750 18.874969
66.755 18.483377
66.760 18.830412
66.765 18.743858
66.770 18.53874
66.775 18.47506
66.780 18.350975
66.785 18.606955
66.790 18.936773
66.795 18.253164
66.800 17.794674
66.805 17.132046
66.810 16.818106
66.815 16.657494
66.820 16.068836
66.825 15.203003
66.830 15.562449
66.835 15.965674
66.840 16.11636
66.845 16.014652
66.850 15.931458
66.855 15.979909
66.860 16.351671
66.865 16.360361
66.870 16.637508
66.875 16.743006
66.880 17.121256
66.885 16.990849
66.890 16.902767
66.895 17.243195
66.900 16.793983
66.905 16.729231
66.910 16.826029
66.915 16.694099
66.920 16.613279
66.925 16.411829
66.930 16.519598
66.935 16.478699
66.940 16.655733
66.945 16.670834
66.950 16.708059
66.955 17.252096
66.960 17.053276
66.965 17.100136
66.970 17.047306
66.975 16.745173
66.980 16.683334
66.985 16.080528
66.990 15.917774
66.995 15.785244
67.000 15.556756
67.005 15.708453
67.010 16.00075
67.015 16.203413
67.020 16.898355
67.025 17.134804
67.030 17.564669
67.035 17.541895
67.040 17.459972
67.045 17.196526
67.050 16.505133
67.055 16.406698
67.060 16.041048
67.065 15.933799
67.070 15.647529
67.075 15.528448
67.080 15.417549
67.085 15.90749
67.090 16.074139
67.095 16.199486
67.100 16.146336
67.105 16.310652
67.110 16.702
67.115 16.904467
67.120 16.864941
67.125 16.854908
67.130 16.695913
67.135 16.744064
67.140 17.007364
67.145 16.523136
67.150 16.489223
67.155 16.325466
67.160 16.706184
67.165 16.553696
67.170 16.070999
67.175 16.259048
67.180 16.37318
67.185 16.268309
67.190 16.438211
67.195 15.614649
67.200 15.389487
67.205 15.532779
67.210 15.136708
67.215 14.952332
67.220 15.205584
67.225 15.638238
67.230 16.054018
67.235 15.863356
67.240 16.055994
67.245 16.615198
67.250 16.690886
67.255 16.356714
67.260 16.181112
67.265 16.607986
67.270 17.214857
67.275 17.387064
67.280 16.891798
67.285 17.207935
67.290 17.026068
67.295 16.935324
67.300 17.265217
67.305 17.244829
67.310 16.679718
67.315 16.180775
67.320 16.084492
67.325 16.423426
67.330 16.200666
67.335 15.238397
67.340 14.889032
67.345 15.245201
67.350 15.322514
67.355 14.621012
67.360 14.530274
67.365 14.821183
67.370 15.145185
67.375 15.670167
67.380 15.572307
67.385 15.426034
67.390 15.874039
67.395 15.788914
67.400 15.792151
67.405 15.679681
67.410 15.325497
67.415 15.660269
67.420 16.386438
67.425 16.290621
67.430 15.768034
67.435 15.783705
67.440 15.867754
67.445 16.580641
67.450 16.963446
67.455 16.84461
67.460 17.488787
67.465 17.509542
67.470 17.263687
67.475 16.80797
67.480 15.86424
67.485 15.755304
67.490 15.605666
67.495 15.903121
67.500 16.453815
67.505 16.448843
67.510 16.985117
67.515 17.65263
67.520 18.074982
67.525 17.789614
67.530 17.27545
67.535 17.359913
67.540 17.697254
67.545 17.57906
67.550 16.774382
67.555 15.913057
67.560 16.140503
67.565 15.605033
67.570 15.006334
67.575 15.076287
67.580 15.618477
67.585 16.096495
67.590 15.950312
67.595 15.862282
67.600 16.221003
67.605 16.084354
67.610 15.757444
67.615 15.817847
67.620 16.00028
67.625 16.466372
67.630 16.811691
67.635 17.145697
67.640 17.852146
67.645 17.551661
67.650 17.656582
67.655 17.550575
67.660 17.545441
67.665 17.56789
67.670 16.991274
67.675 16.41856
67.680 16.534603
67.685 15.627265
67.690 15.785694
67.695 15.742943
67.700 15.810889
67.705 15.939206
67.710 16.019211
67.715 15.928744
67.720 16.672668
67.725 16.52986
67.730 16.257259
67.735 16.075863
67.740 16.497669
67.745 16.487261
67.750 16.895628
67.755 16.923597
67.760 17.168209
67.765 17.902142
67.770 17.841833
67.775 17.861364
67.780 17.684433
67.785 17.115362
67.790 16.666384
67.795 15.881754
67.800 15.38835
67.805 15.852018
67.810 15.784467
67.815 16.159094
67.820 16.509287
67.825 16.440296
67.830 16.392439
67.835 16.568983
67.840 16.386253
67.845 16.289782
67.850 16.371872
67.855 16.239548
67.860 16.637558
67.865 16.749899
67.870 16.438251
67.875 16.119448
67.880 16.550255
67.885 16.418587
67.890 15.988615
67.895 15.982009
67.900 15.742912
67.905 15.938774
67.910 15.858315
67.915 15.583195
67.920 15.771549
67.925 16.159029
67.930 16.266424
67.935 16.314724
67.940 16.023766
67.945 15.682715
67.950 15.292075
67.955 14.915075
67.960 14.847003
67.965 14.78873
67.970 15.149408
67.975 15.130136
67.980 15.495676
67.985 15.617481
67.990 15.881917
67.995 16.443535
68.000 16.834602
68.005 16.975979
68.010 17.574146
68.015 17.292099
68.020 17.32419
68.025 16.92057
68.030 16.319551
68.035 15.8828
68.040 15.792206
68.045 15.65103
68.050 16.330933
68.055 16.378534
68.060 16.672792
68.065 16.533674
68.070 16.590874
68.075 16.285666
68.080 16.396122
68.085 16.053247
68.090 16.254305
68.095 16.4321
68.100 16.646442
68.105 16.570274
68.110 17.002579
68.115 17.193726
68.120 17.458227
68.125 17.806789
68.130 17.122704
68.135 17.229067
68.140 17.200483
68.145 16.762171
68.150 16.334311
68.155 16.031015
68.160 15.650929
68.165 16.198088
68.170 16.544935
68.175 16.864588
68.180 17.295492
68.185 17.80859
68.190 17.868156
68.195 18.001064
68.200 17.719992
68.205 17.306202
68.210 17.164259
68.215 16.766087
68.220 16.240166
68.225 16.240984
68.230 16.167139
68.235 16.294567
68.240 16.529589
68.245 16.226873
68.250 16.269859
68.255 16.306751
68.260 16.473749
68.265 16.207123
68.270 16.156233
68.275 16.268688
68.280 16.148882
68.285 15.857482
68.290 15.645377
68.295 15.414733
68.300 15.849957
68.305 15.414349
68.310 15.148404
68.315 15.417432
68.320 15.83579
68.325 16.245558
68.330 16.506672
68.335 16.539543
68.340 16.789289
68.345 16.557463
68.350 16.074245
68.355 15.544891
68.360 15.472628
68.365 15.560764
68.370 15.704538
68.375 16.296587
68.380 16.416576
68.385 17.225649
68.390 17.347878
68.395 17.857494
68.400 17.953516
68.405 17.741856
68.410 17.460714
68.415 17.343493
68.420 17.307032
68.425 17.031832
68.430 16.103447
68.435 15.754206
68.440 15.301915
68.445 14.985826
68.450 14.721842
68.455 14.729136
68.460 14.66396
68.465 14.830448
68.470 15.075333
68.475 15.7121
68.480 16.127626
68.485 16.530853
68.490 16.96804
68.495 17.077204
68.500 17.409351
68.505 17.026424
68.510 16.988804
68.515 16.782425
68.520 16.513306
68.525 16.566483
68.530 16.634848
68.535 16.411987
68.540 16.458828
68.545 16.12924
68.550 16.11607
68.555 15.979161
68.560 15.556417
68.565 15.016562
68.570 15.211554
68.575 15.367822
68.580 15.905887
68.585 16.387177
68.590 16.656343
68.595 16.963966
68.600 17.198975
68.605 17.529253
68.610 17.216114
68.615 16.658438
68.620 16.448116
68.625 15.60147
68.630 15.379664
68.635 15.043604
68.640 14.51363
68.645 14.639855
68.650 14.643074
68.655 14.994948
68.660 15.154492
68.665 15.210141
68.670 15.781659
68.675 15.976011
68.680 16.218563
68.685 16.245033
68.690 15.633674
68.695 16.225016
68.700 16.086302
68.705 16.256706
68.710 15.920521
68.715 16.023785
68.720 16.129719
68.725 16.733555
68.730 17.300129
68.735 17.14562
68.740 16.994764
68.745 17.114824
68.750 16.823299
68.755 16.783159
68.760 16.977371
68.765 17.392385
68.770 17.890032
68.775 17.615171
68.780 17.354021
68.785 17.171192
68.790 17.060774
68.795 16.422268
68.800 15.903649
68.805 15.733758
68.810 16.238625
68.815 16.525438
68.820 16.758211
68.825 17.023592
68.830 17.247782
68.835 17.092178
68.840 17.336723
68.845 17.521746
68.850 17.717966
68.855 17.895012
68.860 18.007013
68.865 18.262419
68.870 17.9548
68.875 17.97168
68.880 17.404488
68.885 17.437929
68.890 17.278191
68.895 16.80522
68.900 16.712402
68.905 16.940472
68.910 17.078032
68.915 17.375071
68.920 17.23049
68.925 17.005377
68.930 16.86598
68.935 16.50848
68.940 17.278288
68.945 17.10656
68.950 17.173996
68.955 17.615717
68.960 17.93828
68.965 18.314646
68.970 18.512913
68.975 17.973932
68.980 18.563276
68.985 18.44557
68.990 18.392574
68.995 18.641533
69.000 18.860476
69.005 19.383093
69.010 18.998652
69.015 18.500065
69.020 18.218445
69.025 18.198711
69.030 18.289063
69.035 18.579439
69.040 18.437731
69.045 18.34243
69.050 18.323809
69.055 19.077587
69.060 19.148735
69.065 19.073006
69.070 18.989702
69.075 19.142124
69.080 20.231688
69.085 20.567822
69.090 20.837442
69.095 20.763361
69.100 20.382717
69.105 20.473967
69.110 19.726225
69.115 19.147148
69.120 18.880041
69.125 19.145235
69.130 19.896553
69.135 20.124289
69.140 20.570539
69.145 21.199327
69.150 21.202578
69.155 20.808128
69.160 20.395687
69.165 20.190359
69.170 20.288076
69.175 19.784861
69.180 19.960346
69.185 19.932882
69.190 20.022846
69.195 19.457487
69.200 18.658403
69.205 18.428177
69.210 18.70759
69.215 18.793533
69.220 19.035807
69.225 19.058573
69.230 19.510406
69.235 19.626179
69.240 20.18969
69.245 20.454493
69.250 20.160275
69.255 20.388512
69.260 20.786482
69.265 20.673601
69.270 21.329517
69.275 20.420218
69.280 19.992233
69.285 19.662249
69.290 19.398981
69.295 18.540709
69.300 18.490019
69.305 17.547319
69.310 17.143217
69.315 17.415741
69.320 17.669727
69.325 18.197256
69.330 19.145754
69.335 19.787258
69.340 20.709555
69.345 22.172491
69.350 22.542408
69.355 22.644199
69.360 21.882298
69.365 21.117918
69.370 21.07271
69.375 20.809631
69.380 19.625402
69.385 20.196447
69.390 20.821697
69.395 20.919392
69.400 21.131363
69.405 20.73963
69.410 20.422054
69.415 20.042725
69.420 19.564409
69.425 19.614588
69.430 20.720009
69.435 21.019018
69.440 21.492075
69.445 22.567066
69.450 22.927542
69.455 22.413109
69.460 22.082724
69.465 20.708895
69.470 20.135176
69.475 19.67938
69.480 19.447912
69.485 20.081327
69.490 20.25724
69.495 21.166182
69.500 21.86569
69.505 22.739096
69.510 23.214424
69.515 23.731895
69.520 23.216473
69.525 23.235067
69.530 22.531544
69.535 22.279913
69.540 21.793797
69.545 21.15349
69.550 20.618443
69.555 21.146088
69.560 21.573654
69.565 21.297798
69.570 21.205074
69.575 21.609859
69.580 21.504017
69.585 21.663982
69.590 21.750303
69.595 21.622023
69.600 22.448292
69.605 22.906162
69.610 23.158216
69.615 23.458294
69.620 23.188459
69.625 22.404741
69.630 22.16468
69.635 21.733164
69.640 21.059391
69.645 21.0219
69.650 20.698931
69.655 20.553717
69.660 20.802872
69.665 20.449814
69.670 20.290812
69.675 20.345495
69.680 20.528927
69.685 20.553596
69.690 21.075613
69.695 21.497402
69.700 21.881605
69.705 21.925013
69.710 21.954725
69.715 21.903288
69.720 22.309284
69.725 21.690897
69.730 21.370033
69.735 21.551516
69.740 21.556976
69.745 21.240173
69.750 20.95369
69.755 20.470175
69.760 20.271049
69.765 20.50312
69.770 20.39683
69.775 20.790945
69.780 20.842981
69.785 20.952162
69.790 21.103964
69.795 20.960161
69.800 20.905117
69.805 20.734575
69.810 19.749468
69.815 19.305552
69.820 19.00774
69.825 19.224764
69.830 19.701656
69.835 19.844559
69.840 19.796219
69.845 20.125565
69.850 20.361088
69.855 20.276527
69.860 19.754528
69.865 19.0228
69.870 19.185869
69.875 19.529423
69.880 19.50123
69.885 19.242516
69.890 18.725283
69.895 18.975317
69.900 19.114685
69.905 18.360275
69.910 18.016806
69.915 17.723082
69.920 17.764772
69.925 18.027493
69.930 17.691494
69.935 17.429739
69.940 17.447193
69.945 17.783182
69.950 18.336111
69.955 18.734324
69.960 18.670279
69.965 18.982552
69.970 18.860861
69.975 18.511501
69.980 18.061941
69.985 17.970263
69.990 17.431067
69.995 17.187275
70.000 16.790833
70.005 16.051098
70.010 16.013062
70.015 15.363183
70.020 15.216346
70.025 15.249309
70.030 14.84171
70.035 14.943429
70.040 14.967451
70.045 14.742326
70.050 14.793211
70.055 15.202553
70.060 15.30351
70.065 14.897046
70.070 15.083285
70.075 15.756108
70.080 16.705193
70.085 16.945993
70.090 16.849249
70.095 17.146191
70.100 17.806358
70.105 17.718819
70.110 17.399353
70.115 17.017076
70.120 16.705778
70.125 16.430584
70.130 16.742645
70.135 16.397387
70.140 16.706345
70.145 17.061289
70.150 17.278248
70.155 17.704798
70.160 17.471914
70.165 17.125944
70.170 17.364899
70.175 16.56805
70.180 16.513317
70.185 16.254824
70.190 16.140015
70.195 16.142246
70.200 15.631037
70.205 14.779558
70.210 15.185902
70.215 15.311586
70.220 15.112308
70.225 15.138453
70.230 15.568214
70.235 15.823766
70.240 16.186131
70.245 16.113457
70.250 15.993773
70.255 15.896399
70.260 16.070877
70.265 16.230562
70.270 16.911602
70.275 17.327198
70.280 17.160292
70.285 17.216299
70.290 16.911386
70.295 16.790483
70.300 17.227867
70.305 17.138937
70.310 17.155592
70.315 17.892799
70.320 17.404034
70.325 17.47304
70.330 16.896906
70.335 16.415701
70.340 16.023678
70.345 15.433988
70.350 15.167497
70.355 15.165406
70.360 15.898243
70.365 16.217304
70.370 17.062349
70.375 17.555939
70.380 17.744587
70.385 18.384575
70.390 19.00835
70.395 18.706427
70.400 19.016848
70.405 18.625401
70.410 18.707588
70.415 18.683098
70.420 17.956064
70.425 17.559034
70.430 17.488237
70.435 17.263317
70.440 16.954086
70.445 16.315273
70.450 16.793604
70.455 17.361383
70.460 17.266005
70.465 17.260712
70.470 16.932657
70.475 17.25543
70.480 17.490337
70.485 16.782784
70.490 16.532915
70.495 16.480576
70.500 16.438526
70.505 16.303457
70.510 15.78692
70.515 15.841165
70.520 15.550548
70.525 15.865936
70.530 16.304783
70.535 16.140961
70.540 16.203812
70.545 16.045921
70.550 16.005861
70.555 16.322847
70.560 16.36661
70.565 16.303604
70.570 16.473026
70.575 16.647568
70.580 17.234707
70.585 17.184652
70.590 17.200291
70.595 16.640497
70.600 16.480453
70.605 16.371048
70.610 16.462915
70.615 16.794579
70.620 16.496284
70.625 16.191595
70.630 16.924597
70.635 16.78702
70.640 16.259281
70.645 15.93743
70.650 15.249015
70.655 15.327507
70.660 15.230235
70.665 14.487021
70.670 15.170062
70.675 15.508069
70.680 15.43319
70.685 15.41932
70.690 15.474003
70.695 15.67118
70.700 16.195841
70.705 15.803597
70.710 15.527933
70.715 15.61915
70.720 15.29737
70.725 15.831319
70.730 15.735431
70.735 15.0456
70.740 14.66882
70.745 14.573644
70.750 13.997038
70.755 14.210404
70.760 13.583736
70.765 13.414018
70.770 13.707384
70.775 14.521523
70.780 14.751843
70.785 15.031301
70.790 15.091556
70.795 15.303662
70.800 15.31773
70.805 14.72276
70.810 14.704021
70.815 14.880775
70.820 15.168296
70.825 15.165062
70.830 15.479055
70.835 15.348984
70.840 15.561882
70.845 15.841363
70.850 16.34721
70.855 15.647608
70.860 15.273339
70.865 15.334343
70.870 15.473937
70.875 15.512209
70.880 14.727498
70.885 14.192018
70.890 15.156399
70.895 15.356984
70.900 15.828478
70.905 15.813241
70.910 15.762211
70.915 15.885154
70.920 16.014977
70.925 15.536546
70.930 15.153882
70.935 14.709827
70.940 14.874506
70.945 15.193107
70.950 15.328403
70.955 14.977956
70.960 15.457716
70.965 15.443161
70.970 15.792556
70.975 15.932923
70.980 15.922872
70.985 16.127384
70.990 16.027365
70.995 15.450011
71.000 15.408508
71.005 14.861045
71.010 14.803674
71.015 14.524506
71.020 14.419809
71.025 14.721201
71.030 15.197481
71.035 15.516893
71.040 15.886434
71.045 16.406132
71.050 16.76446
71.055 17.049437
71.060 17.081867
71.065 16.611588
71.070 16.7393
71.075 16.349051
71.080 16.16217
71.085 15.85491
71.090 16.028135
71.095 16.274197
71.100 16.212704
71.105 15.821855
71.110 15.085755
71.115 14.532967
71.120 14.638372
71.125 14.825264
71.130 15.272437
71.135 15.284306
71.140 15.408032
71.145 15.726823
71.150 16.083088
71.155 16.088324
71.160 15.734574
71.165 15.859747
71.170 16.024389
71.175 16.081417
71.180 16.288702
71.185 16.680407
71.190 16.529066
71.195 15.274373
71.200 14.742174
71.205 14.755326
71.210 15.111672
71.215 15.033504
71.220 14.494744
71.225 15.018184
71.230 15.800353
71.235 15.227772
71.240 14.996905
71.245 14.940358
71.250 14.821914
71.255 14.7141
71.260 14.487019
71.265 13.923096
71.270 14.102258
71.275 13.692341
71.280 13.357746
71.285 13.847904
71.290 14.006112
71.295 14.350348
71.300 15.200257
71.305 15.368806
71.310 15.893343
71.315 16.310722
71.320 15.991671
71.325 16.161478
71.330 16.423492
71.335 16.320017
71.340 16.299147
71.345 16.06295
71.350 15.630866
71.355 15.416828
71.360 15.433377
71.365 15.015736
71.370 15.043149
71.375 15.043637
71.380 14.914538
71.385 15.023418
71.390 14.361152
71.395 13.950764
71.400 14.159554
71.405 14.057551
71.410 14.128082
71.415 14.173852
71.420 14.233521
71.425 14.559612
71.430 14.812915
71.435 14.753835
71.440 15.012473
71.445 15.094283
71.450 14.995097
71.455 15.626395
71.460 15.760869
71.465 15.731259
71.470 15.89209
71.475 15.634921
71.480 15.735406
71.485 15.817636
71.490 15.97349
71.495 15.629158
71.500 15.369552
71.505 15.285061
71.510 15.333951
71.515 15.17316
71.520 14.746395
71.525 13.962
71.530 14.099681
71.535 13.839781
71.540 14.331589
71.545 14.794413
71.550 15.484652
71.555 15.713334
71.560 16.216787
71.565 16.454813
71.570 16.46837
71.575 15.432492
71.580 14.740833
71.585 14.358335
71.590 14.506836
71.595 13.903022
71.600 13.955017
71.605 13.680584
71.610 13.964038
71.615 14.198008
71.620 13.992524
71.625 13.80125
71.630 13.921245
71.635 13.911518
71.640 14.496748
71.645 14.939133
71.650 14.57573
71.655 14.703713
71.660 14.773499
71.665 14.759217
71.670 14.683405
71.675 14.383593
71.680 14.245859
71.685 14.224666
71.690 14.177491
71.695 14.541102
71.700 14.761642
71.705 14.758107
71.710 14.975651
71.715 14.888491
71.720 15.305101
71.725 15.639526
71.730 15.034623
71.735 14.980575
71.740 15.128096
71.745 14.819745
71.750 14.945884
71.755 14.499709
71.760 14.084435
71.765 14.142247
71.770 14.100981
71.775 14.539453
71.780 14.84606
71.785 15.367972
71.790 15.444635
71.795 15.647367
71.800 15.717043
71.805 15.524934
71.810 15.172542
71.815 14.8634
71.820 14.135853
71.825 13.762414
71.830 13.640502
71.835 13.445666
71.840 13.537472
71.845 14.35807
71.850 14.802989
71.855 15.454021
71.860 15.760161
71.865 16.318953
71.870 16.602819
71.875 16.796614
71.880 16.23382
71.885 16.261778
71.890 16.003275
71.895 15.819057
71.900 15.385587
71.905 14.987847
71.910 14.514845
71.915 14.492184
71.920 14.649918
71.925 14.884173
71.930 14.594378
71.935 14.702007
71.940 14.519069
71.945 14.17367
71.950 13.976889
71.955 13.434897
71.960 13.547142
71.965 13.653705
71.970 14.202286
71.975 14.257672
71.980 14.425395
71.985 14.149814
71.990 14.403492
71.995 14.368343
72.000 13.949285
72.005 13.40964
72.010 13.552895
72.015 14.077591
72.020 15.016935
72.025 14.923315
72.030 14.896467
72.035 15.527582
72.040 15.931361
72.045 16.141396
72.050 15.641575
72.055 15.061502
72.060 15.303968
72.065 15.288499
72.070 15.271183
72.075 15.05086
72.080 14.783952
72.085 14.704964
72.090 14.363132
72.095 14.393769
72.100 14.185525
72.105 13.68272
72.110 14.002411
72.115 14.164774
72.120 14.386429
72.125 14.977215
72.130 15.07724
72.135 15.461931
72.140 15.708826
72.145 15.740434
72.150 15.652848
72.155 15.460724
72.160 15.145184
72.165 14.875055
72.170 15.01422
72.175 15.053391
72.180 14.768628
72.185 14.738639
72.190 14.729473
72.195 14.997081
72.200 14.815621
72.205 15.072958
72.210 15.078518
72.215 14.940748
72.220 14.749408
72.225 14.917032
72.230 14.820841
72.235 14.541857
72.240 14.004539
72.245 14.148437
72.250 14.033255
72.255 13.94958
72.260 13.991311
72.265 14.318869
72.270 15.041404
72.275 15.365459
72.280 15.083243
72.285 15.169006
72.290 14.965791
72.295 14.620888
72.300 14.396803
72.305 13.994993
72.310 13.841438
72.315 14.335448
72.320 14.443635
72.325 14.623222
72.330 14.278089
72.335 14.183371
72.340 14.259178
72.345 14.026843
72.350 14.015311
72.355 13.983031
72.360 13.761267
72.365 14.093594
72.370 14.488375
72.375 14.153722
72.380 14.433781
72.385 14.196575
72.390 14.293408
72.395 14.370146
72.400 14.258044
72.405 14.203616
72.410 14.377836
72.415 14.567876
72.420 14.480955
72.425 14.644794
72.430 14.488383
72.435 14.231691
72.440 13.951644
72.445 13.49738
72.450 13.140482
72.455 13.339011
72.460 13.187767
72.465 13.50524
72.470 14.011629
72.475 14.488601
72.480 14.703078
72.485 14.811963
72.490 14.695843
72.495 14.811461
72.500 14.788654
72.505 14.932757
72.510 15.304488
72.515 15.26338
72.520 15.280794
72.525 15.863562
72.530 15.777519
72.535 15.555981
72.540 14.802629
72.545 14.445843
72.550 14.735187
72.555 14.696301
72.560 14.328864
72.565 14.108407
72.570 14.073407
72.575 14.644595
72.580 14.80878
72.585 15.078825
72.590 15.44281
72.595 15.636462
72.600 16.024397
72.605 16.221306
72.610 16.040174
72.615 15.853273
72.620 15.895308
72.625 15.891801
72.630 16.277866
72.635 15.933777
72.640 15.33123
72.645 15.407054
72.650 15.262276
72.655 14.44951
72.660 14.208523
72.665 14.026885
72.670 14.304677
72.675 14.738993
72.680 14.467869
72.685 14.170798
72.690 14.404927
72.695 14.562241
72.700 14.37782
72.705 13.771623
72.710 13.859735
72.715 13.970868
72.720 14.360803
72.725 14.103589
72.730 13.555979
72.735 13.706571
72.740 13.540931
72.745 13.012844
72.750 12.977828
72.755 12.775958
72.760 12.864314
72.765 12.758982
72.770 12.64058
72.775 12.892478
72.780 13.380953
72.785 13.56335
72.790 13.728145
72.795 14.329879
72.800 14.29525
72.805 14.425621
72.810 14.4005
72.815 14.168679
72.820 14.204526
72.825 13.78143
72.830 14.105432
72.835 14.720713
72.840 14.875559
72.845 15.090528
72.850 15.130768
72.855 14.804952
72.860 14.699184
72.865 14.417267
72.870 14.306154
72.875 13.996327
72.880 13.406536
72.885 13.569877
72.890 13.71165
72.895 13.800888
72.900 13.87215
72.905 13.610966
72.910 13.758407
72.915 14.343135
72.920 14.159978
72.925 14.086129
72.930 13.844338
72.935 13.749577
72.940 14.404366
72.945 14.677464
72.950 14.497215
72.955 14.235304
72.960 14.823162
72.965 15.282414
72.970 15.005768
72.975 14.772627
72.980 14.559011
72.985 15.26764
72.990 15.299877
72.995 14.5706
73.000 13.945813
