!@!!GADDS PLOTSO FILE: Chi integration type
!@!!Title/SampleName: map-cb
!@!!Comment: ?
!@!!User: Bruker Instrument Administrator
!@!!Site: University of Illinois Chicago
!@!!Frame: map-cb_01_000.gfrm
!@!!Wavelengths    1.54184   1.54056   1.54439
!@!!Frame angles: 2Theta: 63.000 Omega: 50.000 Phi: 0.000 Chi: 90.000
!@!!Integration range: 2Theta: 53.000 to 73.000  Gamma: -105.000 to -75.000
!@!!Integration method: bin normalized
!@!N
!@!SS
!@!M
!@!L 0.0 0.0 0.0 0.0
!@!XDegrees
!@!YCounts
53.000 10.564042
53.005 10.2828
53.010 9.905807
53.015 9.624165
53.020 9.581811
53.025 9.780189
53.030 10.205428
53.035 10.277061
53.040 10.206139
53.045 10.220115
53.050 10.299797
53.055 10.287026
53.060 10.201517
53.065 9.580855
53.070 9.527094
53.075 9.444128
53.080 9.04777
53.085 8.998994
53.090 9.188807
53.095 9.080525
53.100 9.21349
53.105 9.083411
53.110 9.097989
53.115 8.629093
53.120 8.354864
53.125 8.264063
53.130 8.805951
53.135 9.297977
53.140 9.863546
53.145 10.155843
53.150 10.715576
53.155 10.822235
53.160 10.954529
53.165 10.514825
53.170 10.695616
53.175 10.615169
53.180 10.259779
53.185 10.146447
53.190 10.100148
53.195 10.183013
53.200 10.203984
53.205 9.810717
53.210 10.151942
53.215 10.156264
53.220 9.827538
53.225 9.670307
53.230 9.887373
53.235 9.808563
53.240 9.357403
53.245 8.869417
53.250 9.115525
53.255 9.241609
53.260 9.012148
53.265 8.693716
53.270 8.397716
53.275 8.649358
53.280 8.660593
53.285 8.717416
53.290 8.819448
53.295 9.183334
53.300 9.20188
53.305 9.153737
53.310 9.121028
53.315 8.931521
53.320 8.621529
53.325 8.204096
53.330 8.20686
53.335 8.560526
53.340 8.748818
53.345 8.704723
53.350 9.059351
53.355 9.373998
53.360 9.508327
53.365 9.099208
53.370 9.003223
53.375 9.033908
53.380 9.517325
53.385 9.595958
53.390 10.090028
53.395 10.278135
53.400 10.419773
53.405 10.439261
53.410 10.311103
53.415 10.002142
53.420 9.688261
53.425 9.458452
53.430 9.749948
53.435 9.467792
53.440 9.613468
53.445 9.54974
53.450 9.217843
53.455 9.471392
53.460 9.621639
53.465 9.276634
53.470 9.57379
53.475 9.51939
53.480 9.830667
53.485 10.051883
53.490 9.902406
53.495 9.868548
53.500 9.995727
53.505 9.612517
53.510 9.518696
53.515 9.802105
53.520 9.645802
53.525 9.197355
53.530 9.373675
53.535 9.288229
53.540 9.308754
53.545 9.437072
53.550 9.212299
53.555 9.064606
53.560 9.136051
53.565 8.942293
53.570 8.860306
53.575 8.980308
53.580 9.137922
53.585 9.841768
53.590 10.154642
53.595 10.275868
53.600 10.517215
53.605 10.566486
53.610 10.232003
53.615 9.951973
53.620 9.8153
53.625 10.529565
53.630 10.872105
53.635 11.160633
53.640 11.17263
53.645 11.202982
53.650 11.330668
53.655 10.976982
53.660 10.585645
53.665 10.616196
53.670 10.561658
53.675 10.94743
53.680 10.820248
53.685 11.028434
53.690 11.20935
53.695 11.054758
53.700 10.524952
53.705 10.358301
53.710 10.369534
53.715 10.461796
53.720 10.254578
53.725 10.04752
53.730 9.613264
53.735 9.808173
53.740 10.029666
53.745 9.985683
53.750 10.072062
53.755 10.020113
53.760 10.412801
53.765 10.722669
53.770 11.044616
53.775 11.124012
53.780 11.081684
53.785 11.150769
53.790 11.563206
53.795 11.765445
53.800 11.200017
53.805 10.753927
53.810 10.652522
53.815 10.539049
53.820 10.52588
53.825 10.3027
53.830 10.092873
53.835 10.118279
53.840 10.10063
53.845 10.143302
53.850 10.143246
53.855 9.515175
53.860 9.40849
53.865 9.870689
53.870 9.916804
53.875 10.284486
53.880 10.335382
53.885 10.438025
53.890 10.780814
53.895 10.243678
53.900 10.117429
53.905 10.235613
53.910 10.116782
53.915 10.246116
53.920 10.788076
53.925 10.831078
53.930 11.352938
53.935 11.585312
53.940 11.693819
53.945 11.698805
53.950 11.635558
53.955 11.316089
53.960 11.331323
53.965 11.186551
53.970 10.773979
53.975 10.558986
53.980 9.929771
53.985 9.782182
53.990 9.78793
53.995 9.936913
54.000 10.083697
54.005 10.384372
54.010 10.588852
54.015 10.732304
54.020 10.551828
54.025 10.294527
54.030 10.369822
54.035 10.465755
54.040 10.063801
54.045 10.184989
54.050 10.491909
54.055 10.674328
54.060 10.64575
54.065 10.425182
54.070 10.440793
54.075 10.657907
54.080 10.678769
54.085 10.648665
54.090 10.713023
54.095 10.524758
54.100 10.115261
54.105 10.419974
54.110 10.870683
54.115 11.039061
54.120 11.314269
54.125 11.674159
54.130 12.025932
54.135 12.783072
54.140 12.839892
54.145 12.683298
54.150 12.544146
54.155 11.468744
54.160 11.571626
54.165 11.100776
54.170 10.770651
54.175 10.21834
54.180 9.661091
54.185 9.82097
54.190 10.12873
54.195 9.991956
54.200 10.372337
54.205 10.191927
54.210 10.244941
54.215 10.35863
54.220 10.332439
54.225 10.550681
54.230 10.720726
54.235 10.277961
54.240 10.62543
54.245 10.988187
54.250 11.022655
54.255 11.236038
54.260 10.839462
54.265 10.643171
54.270 11.055519
54.275 11.005694
54.280 10.872874
54.285 10.700335
54.290 10.553862
54.295 11.082716
54.300 11.139096
54.305 11.007162
54.310 10.545999
54.315 10.886013
54.320 11.246316
54.325 11.185799
54.330 10.608353
54.335 10.383681
54.340 10.265381
54.345 10.555637
54.350 9.923063
54.355 9.806843
54.360 10.423329
54.365 10.596982
54.370 10.575135
54.375 10.878223
54.380 10.69024
54.385 10.700222
54.390 10.502702
54.395 10.185879
54.400 10.254146
54.405 11.027534
54.410 11.163437
54.415 11.123884
54.420 11.274693
54.425 11.494814
54.430 11.653295
54.435 11.817756
54.440 11.520712
54.445 12.107703
54.450 12.687762
54.455 12.839761
54.460 12.878634
54.465 12.933572
54.470 13.002492
54.475 12.646956
54.480 12.378003
54.485 11.696175
54.490 11.500143
54.495 11.34036
54.500 10.934476
54.505 10.068932
54.510 9.691788
54.515 9.640249
54.520 10.369369
54.525 10.589675
54.530 10.591959
54.535 10.67615
54.540 11.407964
54.545 11.290749
54.550 11.476368
54.555 11.327839
54.560 11.265018
54.565 11.44939
54.570 11.637881
54.575 11.893629
54.580 12.453457
54.585 12.455134
54.590 11.895695
54.595 11.570817
54.600 11.248064
54.605 10.744607
54.610 9.985992
54.615 9.635605
54.620 9.501578
54.625 9.645319
54.630 9.599888
54.635 9.709634
54.640 9.535449
54.645 9.846922
54.650 9.779131
54.655 10.042156
54.660 10.55536
54.665 10.81044
54.670 10.97418
54.675 11.249914
54.680 11.360286
54.685 11.25936
54.690 10.853638
54.695 10.7247
54.700 10.644784
54.705 10.659843
54.710 10.552751
54.715 10.632288
54.720 10.774875
54.725 10.982256
54.730 11.314414
54.735 11.701053
54.740 11.598934
54.745 11.237524
54.750 11.131342
54.755 10.985868
54.760 10.589971
54.765 10.466297
54.770 10.111597
54.775 10.252085
54.780 11.220069
54.785 11.404903
54.790 11.69901
54.795 11.600179
54.800 11.040563
54.805 11.099269
54.810 11.143143
54.815 10.384206
54.820 10.371348
54.825 10.419777
54.830 10.996816
54.835 11.326248
54.840 11.340758
54.845 11.189383
54.850 11.330451
54.855 11.189716
54.860 11.342956
54.865 11.244336
54.870 11.317629
54.875 11.644235
54.880 12.023177
54.885 11.839187
54.890 11.530286
54.895 10.915342
54.900 10.763288
54.905 10.985069
54.910 10.918964
54.915 10.965239
54.920 11.276401
54.925 11.437849
54.930 11.436588
54.935 11.411291
54.940 11.271637
54.945 10.924933
54.950 10.777282
54.955 10.640746
54.960 11.031285
54.965 11.548409
54.970 11.53545
54.975 11.620343
54.980 11.928252
54.985 11.860107
54.990 11.64634
54.995 11.919909
55.000 11.949495
55.005 12.59644
55.010 12.790638
55.015 12.607359
55.020 12.849214
55.025 12.633146
55.030 12.500749
55.035 12.43951
55.040 11.654718
55.045 11.16363
55.050 11.016763
55.055 11.352469
55.060 11.863574
55.065 11.388603
55.070 10.898746
55.075 11.000345
55.080 11.130812
55.085 11.159033
55.090 11.170943
55.095 11.238556
55.100 11.663478
55.105 12.447982
55.110 13.021754
55.115 13.405612
55.120 13.074959
55.125 12.069811
55.130 11.839898
55.135 11.63303
55.140 11.165829
55.145 10.723613
55.150 10.537626
55.155 10.758347
55.160 11.227804
55.165 11.411928
55.170 11.611456
55.175 11.939851
55.180 12.355067
55.185 12.37404
55.190 12.360173
55.195 11.720993
55.200 11.454091
55.205 11.330356
55.210 11.100742
55.215 11.046572
55.220 11.085421
55.225 11.49226
55.230 12.024858
55.235 11.982723
55.240 11.931788
55.245 11.545625
55.250 11.821754
55.255 11.643796
55.260 11.255166
55.265 11.234091
55.270 11.093641
55.275 10.668094
55.280 11.033994
55.285 10.671657
55.290 10.905204
55.295 11.664453
55.300 11.311653
55.305 11.425158
55.310 11.837059
55.315 11.676422
55.320 11.429413
55.325 11.131789
55.330 10.963263
55.335 11.612772
55.340 11.781906
55.345 12.299734
55.350 12.498058
55.355 12.961716
55.360 13.251945
55.365 12.784366
55.370 12.635542
55.375 12.296534
55.380 11.996024
55.385 11.82041
55.390 11.484418
55.395 11.675859
55.400 11.992599
55.405 12.388665
55.410 12.987952
55.415 12.793026
55.420 12.963526
55.425 12.929035
55.430 13.257176
55.435 13.106096
55.440 13.232309
55.445 12.657973
55.450 12.720609
55.455 12.979838
55.460 13.264621
55.465 13.226236
55.470 12.930004
55.475 12.457038
55.480 12.553832
55.485 11.949399
55.490 12.024466
55.495 12.130635
55.500 12.105244
55.505 12.344415
55.510 12.084048
55.515 12.418616
55.520 12.896937
55.525 12.558737
55.530 12.071887
55.535 11.614494
55.540 11.41171
55.545 11.783658
55.550 11.541725
55.555 11.30442
55.560 11.291063
55.565 11.444384
55.570 11.806682
55.575 11.868241
55.580 12.134173
55.585 11.875156
55.590 11.927049
55.595 12.120803
55.600 12.078343
55.605 11.96229
55.610 11.836699
55.615 11.542089
55.620 11.636391
55.625 11.700076
55.630 11.667317
55.635 11.441232
55.640 11.690784
55.645 11.9034
55.650 12.057492
55.655 12.436646
55.660 11.91218
55.665 11.72333
55.670 11.712709
55.675 11.172559
55.680 10.653682
55.685 10.896838
55.690 11.218683
55.695 11.194956
55.700 11.110373
55.705 11.513041
55.710 11.563727
55.715 11.994677
55.720 11.711613
55.725 11.248674
55.730 11.724739
55.735 12.330514
55.740 12.463469
55.745 12.421814
55.750 12.079263
55.755 12.310827
55.760 12.424205
55.765 12.256906
55.770 12.244467
55.775 12.743925
55.780 13.47858
55.785 13.745072
55.790 13.41414
55.795 13.531428
55.800 13.966202
55.805 13.678779
55.810 13.118183
55.815 12.828765
55.820 12.786903
55.825 13.093581
55.830 13.051145
55.835 12.923127
55.840 12.831525
55.845 13.082113
55.850 13.226528
55.855 12.989117
55.860 13.163521
55.865 13.202408
55.870 12.991843
55.875 12.999452
55.880 12.540762
55.885 12.042924
55.890 12.181985
55.895 11.867753
55.900 11.889003
55.905 12.026136
55.910 12.018527
55.915 12.762143
55.920 13.544395
55.925 13.589468
55.930 13.336468
55.935 13.527377
55.940 13.410835
55.945 13.068118
55.950 12.469367
55.955 12.753125
55.960 12.860658
55.965 12.544594
55.970 12.092001
55.975 12.143691
55.980 12.727206
55.985 12.864303
55.990 12.487768
55.995 12.813894
56.000 13.546263
56.005 13.665798
56.010 13.267423
56.015 12.952674
56.020 12.543622
56.025 12.221865
56.030 12.315274
56.035 12.038056
56.040 12.099711
56.045 12.438216
56.050 13.326613
56.055 14.143416
56.060 14.270007
56.065 14.242841
56.070 14.604617
56.075 14.430419
56.080 14.043492
56.085 13.441907
56.090 13.029073
56.095 12.66699
56.100 12.366455
56.105 12.347655
56.110 12.477616
56.115 12.401051
56.120 12.063237
56.125 11.873263
56.130 11.78348
56.135 11.901032
56.140 11.872219
56.145 11.791183
56.150 11.910453
56.155 12.526247
56.160 12.914444
56.165 13.04288
56.170 13.289081
56.175 13.351018
56.180 13.132918
56.185 13.073224
56.190 12.38682
56.195 12.53692
56.200 12.702432
56.205 12.858286
56.210 13.067446
56.215 13.641856
56.220 14.154831
56.225 15.098634
56.230 15.345181
56.235 15.500809
56.240 15.338894
56.245 15.229662
56.250 14.738998
56.255 14.119286
56.260 13.776486
56.265 13.81154
56.270 13.80727
56.275 13.812223
56.280 13.581351
56.285 13.282942
56.290 12.923604
56.295 12.674561
56.300 12.310759
56.305 12.070414
56.310 12.275966
56.315 12.435569
56.320 12.866161
56.325 13.120402
56.330 12.917542
56.335 12.747331
56.340 12.853596
56.345 12.933609
56.350 12.999821
56.355 12.793328
56.360 13.074305
56.365 13.296522
56.370 13.40705
56.375 13.860148
56.380 14.074824
56.385 14.309921
56.390 14.196152
56.395 13.958682
56.400 13.709961
56.405 13.502612
56.410 12.905847
56.415 12.200588
56.420 12.324259
56.425 12.703601
56.430 13.023302
56.435 13.07279
56.440 13.213471
56.445 13.394154
56.450 13.546124
56.455 13.246038
56.460 13.405965
56.465 13.007504
56.470 12.93671
56.475 12.928235
56.480 12.875651
56.485 12.70257
56.490 13.159749
56.495 12.908696
56.500 13.193608
56.505 13.325505
56.510 13.305161
56.515 13.712358
56.520 13.969338
56.525 13.629982
56.530 13.698167
56.535 13.924383
56.540 13.749362
56.545 13.266479
56.550 13.03235
56.555 12.8459
56.560 12.417818
56.565 12.261924
56.570 12.322748
56.575 12.8024
56.580 12.950663
56.585 12.924047
56.590 13.446348
56.595 14.173377
56.600 14.100208
56.605 14.013931
56.610 13.955353
56.615 13.819356
56.620 13.404066
56.625 12.880136
56.630 12.459847
56.635 12.824616
56.640 12.65561
56.645 12.739287
56.650 13.36274
56.655 13.473255
56.660 13.553823
56.665 13.869914
56.670 13.449809
56.675 13.095126
56.680 12.942759
56.685 12.919071
56.690 13.093092
56.695 13.383661
56.700 13.446974
56.705 13.918818
56.710 14.139808
56.715 14.096311
56.720 14.11495
56.725 14.059484
56.730 13.536338
56.735 12.897186
56.740 12.751319
56.745 13.091183
56.750 12.619854
56.755 12.545882
56.760 13.026747
56.765 13.553872
56.770 13.890674
56.775 13.748281
56.780 13.332445
56.785 13.225729
56.790 13.302018
56.795 13.038705
56.800 12.702269
56.805 13.109468
56.810 13.674931
56.815 14.188128
56.820 14.571729
56.825 14.426826
56.830 14.429282
56.835 14.750922
56.840 14.431633
56.845 14.122477
56.850 14.137297
56.855 14.295602
56.860 14.615185
56.865 14.627702
56.870 14.572296
56.875 14.694077
56.880 14.529948
56.885 14.779977
56.890 14.610869
56.895 14.525
56.900 14.719828
56.905 14.948146
56.910 14.812231
56.915 15.063574
56.920 14.616812
56.925 14.498436
56.930 14.362656
56.935 13.737496
56.940 13.035977
56.945 13.25072
56.950 13.020374
56.955 13.29215
56.960 13.460389
56.965 13.506257
56.970 13.855534
56.975 14.605236
56.980 14.114038
56.985 13.968637
56.990 13.904338
56.995 13.597971
57.000 13.973663
57.005 13.872721
57.010 13.841995
57.015 14.78588
57.020 14.806499
57.025 14.737102
57.030 14.774323
57.035 14.546262
57.040 14.279142
57.045 13.840136
57.050 13.172596
57.055 13.417464
57.060 13.712503
57.065 14.039132
57.070 14.1912
57.075 14.450562
57.080 15.171954
57.085 15.331224
57.090 14.939438
57.095 14.396398
57.100 14.44703
57.105 14.576076
57.110 14.503124
57.115 13.806878
57.120 13.957438
57.125 14.129101
57.130 14.131799
57.135 13.847322
57.140 13.994783
57.145 14.207658
57.150 14.294488
57.155 14.432843
57.160 14.549628
57.165 14.304718
57.170 14.298705
57.175 14.269013
57.180 14.090715
57.185 13.664899
57.190 13.398343
57.195 13.508083
57.200 14.19795
57.205 14.496486
57.210 14.241995
57.215 14.748243
57.220 15.026494
57.225 14.886356
57.230 14.968568
57.235 14.893274
57.240 14.936471
57.245 14.809529
57.250 14.929402
57.255 15.210962
57.260 15.263084
57.265 15.415895
57.270 15.091292
57.275 14.80158
57.280 14.884924
57.285 14.569345
57.290 14.712094
57.295 14.353862
57.300 14.421267
57.305 14.651938
57.310 14.623791
57.315 14.965048
57.320 15.185391
57.325 14.935267
57.330 15.686493
57.335 15.277331
57.340 15.215449
57.345 15.197904
57.350 14.430714
57.355 14.059584
57.360 13.729418
57.365 13.253784
57.370 13.390247
57.375 13.400514
57.380 13.217137
57.385 13.450589
57.390 13.763944
57.395 14.18959
57.400 14.523187
57.405 14.345888
57.410 14.493089
57.415 14.726425
57.420 14.618818
57.425 14.64876
57.430 14.719386
57.435 14.490284
57.440 14.607868
57.445 14.231027
57.450 14.363042
57.455 14.438936
57.460 14.202106
57.465 14.210765
57.470 14.145987
57.475 13.872982
57.480 14.198601
57.485 14.202203
57.490 14.583035
57.495 14.791943
57.500 14.85189
57.505 14.680436
57.510 14.851843
57.515 15.139235
57.520 14.965044
57.525 14.692779
57.530 14.524307
57.535 14.871896
57.540 15.147981
57.545 15.529544
57.550 15.024457
57.555 15.180101
57.560 15.824059
57.565 16.11907
57.570 16.160101
57.575 16.407551
57.580 16.271698
57.585 16.550041
57.590 16.269686
57.595 15.776891
57.600 15.406532
57.605 15.3227
57.610 15.554245
57.615 15.198734
57.620 15.329984
57.625 15.190625
57.630 15.26049
57.635 15.47935
57.640 15.081861
57.645 15.231961
57.650 15.54861
57.655 15.575919
57.660 15.942369
57.665 15.582553
57.670 15.036228
57.675 14.784446
57.680 14.466402
57.685 14.486225
57.690 14.353918
57.695 14.410772
57.700 15.151874
57.705 15.862415
57.710 16.161163
57.715 16.205149
57.720 16.434595
57.725 16.776937
57.730 17.042986
57.735 17.133377
57.740 16.81885
57.745 16.884771
57.750 16.341452
57.755 16.081881
57.760 15.624841
57.765 15.150621
57.770 14.614226
57.775 14.248174
57.780 14.309037
57.785 14.915448
57.790 15.015546
57.795 14.779872
57.800 14.213432
57.805 13.796792
57.810 14.122194
57.815 14.299994
57.820 13.995621
57.825 13.933228
57.830 14.048935
57.835 15.095072
57.840 15.501438
57.845 15.729794
57.850 15.940657
57.855 16.155336
57.860 16.560873
57.865 16.508041
57.870 16.135262
57.875 16.704065
57.880 16.352566
57.885 16.131897
57.890 16.27454
57.895 16.519413
57.900 17.007877
57.905 16.9967
57.910 16.76421
57.915 17.101076
57.920 16.839806
57.925 16.842476
57.930 16.534595
57.935 15.957474
57.940 15.830376
57.945 16.040663
57.950 16.127506
57.955 15.774282
57.960 15.40494
57.965 15.340102
57.970 15.383023
57.975 15.711388
57.980 15.371696
57.985 15.078527
57.990 15.430809
57.995 15.613737
58.000 16.067196
58.005 16.216473
58.010 16.211267
58.015 16.249376
58.020 16.267483
58.025 16.149324
58.030 16.129591
58.035 16.110235
58.040 15.850189
58.045 15.937636
58.050 16.474779
58.055 17.126522
58.060 17.096382
58.065 16.793516
58.070 17.052706
58.075 17.906837
58.080 17.677881
58.085 17.358099
58.090 16.952513
58.095 17.628157
58.100 17.869997
58.105 17.582754
58.110 17.492157
58.115 17.748362
58.120 17.674673
58.125 17.5958
58.130 16.881128
58.135 16.623369
58.140 16.64868
58.145 16.140902
58.150 16.179474
58.155 15.70134
58.160 15.334103
58.165 15.683253
58.170 16.502565
58.175 17.015409
58.180 17.064363
58.185 16.970505
58.190 17.229473
58.195 17.781071
58.200 18.131958
58.205 17.83083
58.210 18.031891
58.215 18.320927
58.220 18.652105
58.225 18.936245
58.230 18.657164
58.235 18.527401
58.240 17.940397
58.245 17.21409
58.250 17.442673
58.255 17.658484
58.260 17.61492
58.265 17.67429
58.270 18.113001
58.275 18.511381
58.280 18.542301
58.285 18.128628
58.290 18.006525
58.295 18.003962
58.300 17.895792
58.305 17.882847
58.310 18.577526
58.315 19.471859
58.320 19.623636
58.325 19.725304
58.330 20.199656
58.335 20.028008
58.340 19.604029
58.345 18.482456
58.350 18.556232
58.355 19.439207
58.360 20.056641
58.365 19.611092
58.370 19.821674
58.375 20.360729
58.380 21.289389
58.385 21.853786
58.390 21.4606
58.395 21.615688
58.400 22.417927
58.405 22.979366
58.410 23.105766
58.415 23.096991
58.420 23.083263
58.425 23.735762
58.430 24.391994
58.435 25.520227
58.440 26.010557
58.445 26.164993
58.450 26.609726
58.455 27.107016
58.460 27.365288
58.465 26.988663
58.470 26.938772
58.475 26.928217
58.480 27.052248
58.485 27.376245
58.490 27.536638
58.495 27.630991
58.500 28.254581
58.505 28.970636
58.510 29.69117
58.515 30.670601
58.520 30.779972
58.525 30.963743
58.530 31.414774
58.535 31.642067
58.540 31.442389
58.545 31.324806
58.550 31.331367
58.555 31.676044
58.560 32.180023
58.565 32.077957
58.570 32.860035
58.575 33.141052
58.580 32.896076
58.585 33.129906
58.590 32.771393
58.595 33.002087
58.600 33.04274
58.605 32.849007
58.610 32.809284
58.615 33.111664
58.620 32.964619
58.625 33.626068
58.630 34.301167
58.635 34.585182
58.640 34.19075
58.645 33.951664
58.650 34.074574
58.655 33.878254
58.660 33.741947
58.665 33.857002
58.670 33.323967
58.675 33.709526
58.680 34.625961
58.685 34.737926
58.690 34.775097
58.695 34.74213
58.700 34.117363
58.705 33.109936
58.710 32.265976
58.715 31.731541
58.720 31.197466
58.725 31.510445
58.730 31.808138
58.735 31.959234
58.740 32.290657
58.745 31.755806
58.750 31.685722
58.755 31.836542
58.760 31.394169
58.765 30.312038
58.770 29.992952
58.775 29.823484
58.780 29.970858
58.785 29.509218
58.790 29.391897
58.795 29.02422
58.800 28.297199
58.805 27.995415
58.810 28.162951
58.815 27.711369
58.820 26.144712
58.825 25.038599
58.830 24.5861
58.835 24.703411
58.840 23.960571
58.845 23.186975
58.850 22.836927
58.855 23.301666
58.860 23.637468
58.865 23.95451
58.870 23.085621
58.875 22.803043
58.880 22.737062
58.885 22.545519
58.890 22.415134
58.895 22.019363
58.900 21.368999
58.905 20.617502
58.910 20.955008
58.915 20.813709
58.920 20.65196
58.925 20.229656
58.930 20.160639
58.935 20.172247
58.940 20.474417
58.945 19.793331
58.950 19.469259
58.955 18.844334
58.960 18.683176
58.965 18.412752
58.970 18.431427
58.975 18.106998
58.980 18.423414
58.985 18.684
58.990 19.124256
58.995 19.291452
59.000 19.103653
59.005 18.819695
59.010 19.866196
59.015 20.268198
59.020 19.845469
59.025 19.852512
59.030 19.696421
59.035 19.745258
59.040 19.953091
59.045 18.9431
59.050 18.153679
59.055 18.089169
59.060 18.292282
59.065 18.735445
59.070 19.160643
59.075 18.812023
59.080 19.293003
59.085 19.531738
59.090 20.039885
59.095 19.829393
59.100 19.466722
59.105 18.707308
59.110 18.466339
59.115 18.582594
59.120 18.199421
59.125 17.562962
59.130 17.216827
59.135 17.381336
59.140 17.703915
59.145 17.570454
59.150 17.191778
59.155 17.612314
59.160 18.367731
59.165 18.532406
59.170 18.21464
59.175 18.074932
59.180 18.160482
59.185 17.546501
59.190 16.726189
59.195 16.162598
59.200 15.812602
59.205 15.578169
59.210 15.323973
59.215 14.908055
59.220 15.422175
59.225 15.724878
59.230 15.493826
59.235 15.62143
59.240 15.648462
59.245 15.944293
59.250 16.443869
59.255 16.649195
59.260 16.654299
59.265 16.341394
59.270 15.950211
59.275 16.068594
59.280 15.52561
59.285 15.169504
59.290 14.876784
59.295 15.127995
59.300 15.372715
59.305 15.8128
59.310 15.961956
59.315 15.947991
59.320 15.488541
59.325 15.40046
59.330 15.166389
59.335 15.210547
59.340 14.659072
59.345 14.579481
59.350 15.020307
59.355 15.903512
59.360 15.732425
59.365 15.497801
59.370 15.323554
59.375 15.045939
59.380 14.880591
59.385 14.621675
59.390 14.596439
59.395 14.769177
59.400 15.090842
59.405 15.445008
59.410 15.893188
59.415 16.38541
59.420 16.185141
59.425 15.594235
59.430 15.842819
59.435 15.95014
59.440 15.991483
59.445 16.595821
59.450 17.034916
59.455 17.161564
59.460 17.163759
59.465 17.077717
59.470 17.241758
59.475 16.803457
59.480 15.782514
59.485 15.026911
59.490 14.997474
59.495 15.041136
59.500 14.63745
59.505 14.103976
59.510 14.321274
59.515 14.52844
59.520 14.857819
59.525 14.998911
59.530 15.297699
59.535 15.362734
59.540 15.25193
59.545 15.240549
59.550 15.311696
59.555 15.40437
59.560 15.255373
59.565 15.107244
59.570 15.148954
59.575 15.534472
59.580 15.605156
59.585 15.406608
59.590 15.207157
59.595 14.919426
59.600 14.690618
59.605 14.879801
59.610 14.984289
59.615 15.200289
59.620 15.027177
59.625 15.273686
59.630 15.301885
59.635 15.6984
59.640 15.722657
59.645 15.146351
59.650 14.42705
59.655 14.175199
59.660 14.094158
59.665 14.653022
59.670 14.637513
59.675 14.849918
59.680 15.750358
59.685 16.614923
59.690 16.902695
59.695 16.768955
59.700 16.828138
59.705 16.807594
59.710 16.133924
59.715 15.831702
59.720 15.662579
59.725 15.621592
59.730 15.777952
59.735 15.723253
59.740 15.41111
59.745 15.826692
59.750 15.936456
59.755 15.97657
59.760 16.28093
59.765 16.436102
59.770 16.090567
59.775 16.371155
59.780 16.38903
59.785 16.72221
59.790 16.473387
59.795 16.217775
59.800 15.74696
59.805 16.393671
59.810 16.335279
59.815 15.933491
59.820 15.564205
59.825 15.598819
59.830 15.539479
59.835 15.578788
59.840 15.455647
59.845 15.896235
59.850 16.430059
59.855 16.061468
59.860 16.226656
59.865 16.673166
59.870 17.14752
59.875 17.192362
59.880 16.589745
59.885 16.349344
59.890 16.544741
59.895 16.166906
59.900 15.780938
59.905 15.505791
59.910 15.006493
59.915 15.167253
59.920 15.183006
59.925 15.3759
59.930 15.608842
59.935 14.974917
59.940 14.811118
59.945 15.133747
59.950 14.846131
59.955 14.60191
59.960 14.804579
59.965 15.111537
59.970 15.743364
59.975 16.053553
59.980 16.31354
59.985 16.973852
59.990 17.436638
59.995 17.542414
60.000 17.470398
60.005 17.36849
60.010 17.292324
60.015 17.144444
60.020 16.763998
60.025 16.554831
60.030 16.275177
60.035 16.327377
60.040 16.749313
60.045 16.68545
60.050 16.720009
60.055 16.884047
60.060 16.660494
60.065 16.71608
60.070 16.855625
60.075 16.068834
60.080 16.009094
60.085 16.195219
60.090 15.979462
60.095 15.900055
60.100 15.318389
60.105 14.868257
60.110 15.6379
60.115 15.449024
60.120 15.408949
60.125 15.886358
60.130 16.326668
60.135 16.860771
60.140 17.372023
60.145 17.145309
60.150 17.46998
60.155 17.210947
60.160 16.723932
60.165 16.707388
60.170 16.711798
60.175 16.287497
60.180 16.238062
60.185 15.914594
60.190 16.231308
60.195 16.32156
60.200 16.377848
60.205 16.012125
60.210 15.972348
60.215 15.752729
60.220 15.67192
60.225 15.206532
60.230 15.528361
60.235 15.214195
60.240 15.383823
60.245 15.112709
60.250 14.814666
60.255 14.873214
60.260 15.117269
60.265 14.979564
60.270 15.091042
60.275 14.943241
60.280 15.279424
60.285 15.782696
60.290 15.722116
60.295 15.455155
60.300 14.810476
60.305 14.771911
60.310 14.999587
60.315 15.242695
60.320 14.811239
60.325 14.854685
60.330 14.870383
60.335 15.78599
60.340 16.055876
60.345 16.406702
60.350 16.308935
60.355 16.875547
60.360 16.981249
60.365 17.214012
60.370 16.835426
60.375 16.388674
60.380 15.771859
60.385 15.482112
60.390 14.844748
60.395 15.406308
60.400 15.161148
60.405 15.132381
60.410 15.084624
60.415 15.123811
60.420 14.941288
60.425 15.106282
60.430 14.981406
60.435 14.931369
60.440 14.816542
60.445 14.839587
60.450 14.797376
60.455 15.062875
60.460 14.853364
60.465 14.655483
60.470 14.720934
60.475 15.25107
60.480 15.499344
60.485 15.926392
60.490 15.882852
60.495 16.075832
60.500 15.90045
60.505 15.643465
60.510 15.795751
60.515 16.290918
60.520 15.827748
60.525 16.156425
60.530 16.288591
60.535 16.016935
60.540 16.178854
60.545 15.570989
60.550 15.258292
60.555 15.627498
60.560 15.305733
60.565 15.187861
60.570 15.79988
60.575 15.756651
60.580 15.758305
60.585 16.046728
60.590 16.315165
60.595 16.103655
60.600 16.689684
60.605 16.524061
60.610 16.717968
60.615 17.018322
60.620 16.954613
60.625 16.201029
60.630 15.754351
60.635 15.48269
60.640 15.67134
60.645 15.453689
60.650 15.290986
60.655 14.606279
60.660 14.667377
60.665 14.688709
60.670 14.581048
60.675 14.90878
60.680 14.926715
60.685 14.671723
60.690 15.200758
60.695 15.678735
60.700 15.944539
60.705 15.74608
60.710 15.650703
60.715 15.348156
60.720 15.663072
60.725 15.874784
60.730 15.82046
60.735 16.017988
60.740 15.943742
60.745 15.68232
60.750 16.456564
60.755 16.458302
60.760 16.319256
60.765 16.571938
60.770 16.512331
60.775 16.459757
60.780 16.366316
60.785 15.534318
60.790 15.168059
60.795 15.220808
60.800 15.098629
60.805 15.411961
60.810 15.626656
60.815 15.586297
60.820 16.031977
60.825 15.95036
60.830 15.711215
60.835 15.217834
60.840 14.451921
60.845 14.45843
60.850 14.846637
60.855 15.158862
60.860 15.91226
60.865 16.117966
60.870 16.354753
60.875 16.909061
60.880 17.039295
60.885 16.315649
60.890 16.239655
60.895 16.112038
60.900 16.234386
60.905 16.264204
60.910 15.76545
60.915 15.621267
60.920 16.223768
60.925 15.716445
60.930 15.107765
60.935 15.225545
60.940 15.826863
60.945 16.451466
60.950 16.843588
60.955 17.04545
60.960 17.034519
60.965 17.042479
60.970 17.012756
60.975 16.952381
60.980 16.317734
60.985 15.622443
60.990 15.198073
60.995 15.459603
61.000 15.939808
61.005 15.628166
61.010 15.446377
61.015 15.643832
61.020 16.285818
61.025 16.409197
61.030 16.418127
61.035 15.971006
61.040 16.103195
61.045 16.040894
61.050 15.864664
61.055 15.395437
61.060 15.012174
61.065 14.054648
61.070 14.210836
61.075 13.887063
61.080 13.780951
61.085 13.643027
61.090 13.609941
61.095 14.169097
61.100 15.049246
61.105 14.974649
61.110 14.566241
61.115 14.988496
61.120 15.879066
61.125 15.904971
61.130 15.69464
61.135 15.918381
61.140 16.265919
61.145 16.865545
61.150 16.425812
61.155 16.114309
61.160 16.097607
61.165 15.839484
61.170 15.36821
61.175 14.791283
61.180 14.800639
61.185 14.799628
61.190 14.693041
61.195 15.684536
61.200 17.020725
61.205 17.587004
61.210 18.130037
61.215 17.94095
61.220 18.216061
61.225 18.837137
61.230 18.573437
61.235 17.368586
61.240 17.195837
61.245 17.568104
61.250 17.609646
61.255 17.421043
61.260 17.16552
61.265 16.63059
61.270 16.860222
61.275 17.12291
61.280 16.984522
61.285 16.811537
61.290 16.650969
61.295 16.142258
61.300 16.600254
61.305 16.745464
61.310 16.556011
61.315 16.298748
61.320 16.007328
61.325 15.803146
61.330 15.895894
61.335 15.516729
61.340 15.355944
61.345 15.453341
61.350 15.649202
61.355 16.176762
61.360 15.95118
61.365 15.90964
61.370 15.800056
61.375 15.644869
61.380 15.307794
61.385 15.277614
61.390 15.816413
61.395 15.869381
61.400 15.891649
61.405 15.940212
61.410 15.883748
61.415 16.187843
61.420 16.494987
61.425 16.163044
61.430 16.385431
61.435 16.184227
61.440 16.340929
61.445 16.063732
61.450 15.47326
61.455 15.071301
61.460 14.829755
61.465 14.622293
61.470 15.023541
61.475 15.033587
61.480 16.045225
61.485 16.187754
61.490 16.128639
61.495 16.241781
61.500 16.146685
61.505 15.627944
61.510 15.733161
61.515 14.980515
61.520 15.226886
61.525 15.335075
61.530 15.482092
61.535 16.474873
61.540 16.922272
61.545 17.047167
61.550 17.278057
61.555 17.491079
61.560 17.735725
61.565 17.473421
61.570 17.44738
61.575 17.386465
61.580 17.574051
61.585 17.667044
61.590 17.640812
61.595 17.322357
61.600 17.353092
61.605 16.918205
61.610 17.097185
61.615 16.848709
61.620 16.465887
61.625 16.128149
61.630 15.96999
61.635 15.719085
61.640 15.653368
61.645 15.2789
61.650 15.390677
61.655 15.145553
61.660 15.195319
61.665 15.986856
61.670 16.717272
61.675 16.691029
61.680 16.423182
61.685 16.041574
61.690 16.253595
61.695 16.464855
61.700 16.164366
61.705 15.414054
61.710 15.704602
61.715 15.774729
61.720 16.035843
61.725 15.937172
61.730 15.532597
61.735 14.954207
61.740 15.016858
61.745 15.170528
61.750 15.440267
61.755 15.693945
61.760 16.465698
61.765 17.641232
61.770 17.993607
61.775 17.791481
61.780 17.564999
61.785 17.726309
61.790 17.184713
61.795 17.248234
61.800 16.524872
61.805 16.335461
61.810 16.733868
61.815 16.415436
61.820 16.349821
61.825 16.399704
61.830 15.064831
61.835 14.883984
61.840 14.661917
61.845 14.644834
61.850 15.009076
61.855 15.30997
61.860 15.58718
61.865 16.19108
61.870 16.682661
61.875 17.118618
61.880 17.240656
61.885 17.441662
61.890 17.273417
61.895 17.381481
61.900 17.540924
61.905 17.750755
61.910 18.371305
61.915 18.329424
61.920 18.588408
61.925 18.631319
61.930 18.485397
61.935 18.611776
61.940 19.067833
61.945 18.91457
61.950 18.52212
61.955 18.147242
61.960 17.920456
61.965 17.816324
61.970 17.736908
61.975 17.390604
61.980 16.757177
61.985 16.753881
61.990 16.575724
61.995 16.910341
62.000 17.121742
62.005 16.86079
62.010 16.290365
62.015 16.21246
62.020 15.873371
62.025 16.158754
62.030 16.020258
62.035 16.200926
62.040 16.158064
62.045 16.572313
62.050 17.351053
62.055 17.796587
62.060 17.623878
62.065 17.63282
62.070 17.674038
62.075 17.683395
62.080 17.384609
62.085 17.023602
62.090 16.874611
62.095 16.570213
62.100 16.458982
62.105 16.424917
62.110 16.620445
62.115 16.342712
62.120 16.482807
62.125 17.290779
62.130 18.216444
62.135 18.278086
62.140 18.131994
62.145 17.725471
62.150 17.941486
62.155 18.272539
62.160 17.756361
62.165 17.443415
62.170 17.705389
62.175 17.494406
62.180 17.794424
62.185 17.674236
62.190 16.782469
62.195 16.382601
62.200 15.99262
62.205 15.130429
62.210 15.171379
62.215 15.091513
62.220 15.10617
62.225 15.515952
62.230 15.639359
62.235 16.278845
62.240 17.247467
62.245 17.861223
62.250 17.570576
62.255 17.844296
62.260 17.631628
62.265 17.878189
62.270 17.20294
62.275 16.859287
62.280 16.469032
62.285 17.186159
62.290 16.897226
62.295 17.035257
62.300 16.642551
62.305 16.108042
62.310 16.290037
62.315 16.358192
62.320 15.511051
62.325 15.270103
62.330 14.727695
62.335 14.901802
62.340 15.588818
62.345 15.537195
62.350 15.396416
62.355 15.868
62.360 16.571087
62.365 17.365631
62.370 17.697073
62.375 17.648479
62.380 17.200439
62.385 17.197105
62.390 17.058132
62.395 16.780176
62.400 16.515366
62.405 16.642868
62.410 16.785168
62.415 17.24498
62.420 17.192253
62.425 17.092262
62.430 17.388273
62.435 17.173714
62.440 16.942842
62.445 17.065128
62.450 17.264269
62.455 17.558958
62.460 17.842436
62.465 17.64106
62.470 17.377943
62.475 17.08305
62.480 16.432934
62.485 15.923052
62.490 15.734589
62.495 15.889401
62.500 16.113918
62.505 16.595015
62.510 16.922182
62.515 17.173864
62.520 17.39382
62.525 17.257792
62.530 16.66453
62.535 16.315035
62.540 15.997936
62.545 16.003473
62.550 16.190187
62.555 16.332909
62.560 16.788353
62.565 17.360142
62.570 17.399748
62.575 17.437494
62.580 17.437935
62.585 17.521393
62.590 17.020786
62.595 16.642508
62.600 16.25617
62.605 16.414761
62.610 16.555666
62.615 16.029274
62.620 15.374825
62.625 15.156441
62.630 15.143828
62.635 15.44167
62.640 15.197626
62.645 15.084155
62.650 15.300762
62.655 15.613477
62.660 16.428768
62.665 16.856192
62.670 17.020987
62.675 17.687675
62.680 17.766985
62.685 17.925283
62.690 18.346453
62.695 18.25123
62.700 17.655272
62.705 17.245209
62.710 17.286503
62.715 17.581936
62.720 17.835732
62.725 17.470182
62.730 17.539658
62.735 18.06407
62.740 18.184265
62.745 17.898777
62.750 18.101912
62.755 18.142313
62.760 18.196686
62.765 18.195387
62.770 17.876143
62.775 17.421646
62.780 17.382011
62.785 16.82494
62.790 16.886625
62.795 17.155464
62.800 17.334663
62.805 17.433355
62.810 17.70397
62.815 17.621675
62.820 17.896894
62.825 17.852123
62.830 18.213772
62.835 17.940578
62.840 17.954487
62.845 18.006477
62.850 18.093941
62.855 18.046173
62.860 17.542175
62.865 16.929697
62.870 17.001135
62.875 16.820242
62.880 16.64019
62.885 16.215511
62.890 16.299587
62.895 16.242359
62.900 15.918808
62.905 15.521625
62.910 15.622239
62.915 16.00997
62.920 16.886755
62.925 16.838085
62.930 16.889273
62.935 17.435335
62.940 18.23262
62.945 18.459862
62.950 17.968866
62.955 17.170599
62.960 17.025753
62.965 17.213982
62.970 17.323372
62.975 17.414059
62.980 17.759363
62.985 18.665579
62.990 19.09726
62.995 19.099449
63.000 18.830822
63.005 17.816715
63.010 17.172985
63.015 16.857733
63.020 16.376173
63.025 16.13809
63.030 16.520781
63.035 16.37862
63.040 16.286446
63.045 16.443045
63.050 16.523344
63.055 17.098486
63.060 17.427925
63.065 17.326971
63.070 17.398914
63.075 17.513601
63.080 17.331085
63.085 17.146681
63.090 16.954845
63.095 16.525234
63.100 16.702892
63.105 17.33157
63.110 18.224037
63.115 18.718065
63.120 18.784176
63.125 18.77887
63.130 18.554848
63.135 18.217056
63.140 17.50425
63.145 17.04789
63.150 17.053146
63.155 16.92115
63.160 16.623331
63.165 17.056316
63.170 16.811726
63.175 16.747358
63.180 17.056416
63.185 17.43582
63.190 18.134495
63.195 18.483128
63.200 18.356026
63.205 18.384069
63.210 18.514467
63.215 18.008533
63.220 17.620689
63.225 17.082123
63.230 16.553713
63.235 16.743176
63.240 16.727057
63.245 16.793877
63.250 17.437103
63.255 17.35948
63.260 17.752277
63.265 18.344481
63.270 18.37759
63.275 19.053181
63.280 18.996002
63.285 18.400848
63.290 18.786686
63.295 18.370764
63.300 18.618866
63.305 18.796469
63.310 19.299339
63.315 19.69165
63.320 19.679823
63.325 18.87771
63.330 18.355822
63.335 17.732752
63.340 17.541132
63.345 16.739079
63.350 16.390324
63.355 16.695204
63.360 17.727276
63.365 18.542662
63.370 19.09413
63.375 18.908176
63.380 19.13603
63.385 19.35467
63.390 18.650064
63.395 17.643616
63.400 17.140631
63.405 16.965027
63.410 16.863314
63.415 16.341841
63.420 16.904118
63.425 17.652321
63.430 18.22682
63.435 18.760382
63.440 18.566145
63.445 18.938347
63.450 18.998611
63.455 18.81835
63.460 18.57287
63.465 18.349407
63.470 18.124361
63.475 18.238827
63.480 18.270601
63.485 18.476042
63.490 18.421618
63.495 19.35774
63.500 19.489954
63.505 19.796392
63.510 19.724682
63.515 19.440672
63.520 18.885916
63.525 18.238592
63.530 17.256075
63.535 17.135105
63.540 17.062582
63.545 16.82526
63.550 16.809761
63.555 17.228497
63.560 17.411005
63.565 17.880613
63.570 17.81892
63.575 17.592577
63.580 17.801226
63.585 18.525366
63.590 18.795401
63.595 18.628073
63.600 18.872953
63.605 18.618912
63.610 18.736393
63.615 19.298534
63.620 19.389885
63.625 19.523132
63.630 19.621979
63.635 19.210903
63.640 19.29249
63.645 19.314461
63.650 19.018482
63.655 18.777004
63.660 18.774551
63.665 19.179165
63.670 19.41341
63.675 19.867483
63.680 19.747927
63.685 19.683701
63.690 19.666552
63.695 19.52393
63.700 19.446814
63.705 18.68784
63.710 18.304863
63.715 18.073879
63.720 17.927244
63.725 17.609068
63.730 17.524178
63.735 17.270327
63.740 17.656448
63.745 18.121778
63.750 18.301157
63.755 17.817366
63.760 17.754969
63.765 17.596016
63.770 17.331617
63.775 17.698736
63.780 17.555124
63.785 17.969797
63.790 18.485823
63.795 18.932503
63.800 19.13098
63.805 20.020498
63.810 19.898907
63.815 20.107626
63.820 20.47438
63.825 20.585495
63.830 20.699434
63.835 20.795708
63.840 20.834835
63.845 20.961416
63.850 20.47143
63.855 20.720903
63.860 20.719461
63.865 21.102278
63.870 21.285246
63.875 21.179285
63.880 21.250759
63.885 21.470177
63.890 21.2742
63.895 21.293877
63.900 21.009989
63.905 21.236444
63.910 21.792702
63.915 21.747875
63.920 22.256395
63.925 22.327312
63.930 22.731134
63.935 23.019289
63.940 22.954506
63.945 23.366634
63.950 24.488693
63.955 24.637478
63.960 25.31135
63.965 24.955402
63.970 24.755238
63.975 24.831017
63.980 24.066629
63.985 22.970301
63.990 22.633024
63.995 22.895224
64.000 23.644409
64.005 24.438799
64.010 25.311825
64.015 26.017511
64.020 26.591774
64.025 27.068407
64.030 26.683201
64.035 26.485956
64.040 26.211445
64.045 26.120083
64.050 26.059044
64.055 25.909723
64.060 25.79073
64.065 25.636906
64.070 25.777309
64.075 26.212629
64.080 26.709644
64.085 28.297749
64.090 29.477396
64.095 30.905783
64.100 32.211674
64.105 32.398331
64.110 32.886883
64.115 32.918671
64.120 32.23164
64.125 32.120552
64.130 31.17832
64.135 31.420618
64.140 31.759672
64.145 31.562952
64.150 31.541037
64.155 31.653786
64.160 32.076294
64.165 32.629993
64.170 32.875629
64.175 32.942844
64.180 33.656677
64.185 34.625294
64.190 35.576462
64.195 36.736301
64.200 37.274368
64.205 36.908016
64.210 37.444965
64.215 37.527626
64.220 38.431274
64.225 39.708771
64.230 39.237591
64.235 39.71022
64.240 40.727386
64.245 41.101788
64.250 40.693802
64.255 40.671299
64.260 40.810184
64.265 41.193073
64.270 40.743664
64.275 40.083073
64.280 39.342705
64.285 39.809319
64.290 39.606968
64.295 39.001099
64.300 39.124714
64.305 39.239693
64.310 39.946968
64.315 40.420391
64.320 40.576744
64.325 41.405167
64.330 41.778374
64.335 41.810249
64.340 43.356358
64.345 43.892548
64.350 44.330986
64.355 44.871735
64.360 44.683098
64.365 44.22654
64.370 44.1814
64.375 42.567131
64.380 42.244347
64.385 42.096405
64.390 40.990349
64.395 41.08239
64.400 41.428032
64.405 40.756844
64.410 40.767204
64.415 41.332836
64.420 41.334427
64.425 41.20269
64.430 41.0741
64.435 40.372581
64.440 40.297436
64.445 40.041149
64.450 38.885983
64.455 38.570099
64.460 38.018295
64.465 37.736015
64.470 38.50309
64.475 38.70834
64.480 38.446556
64.485 38.272846
64.490 38.531464
64.495 38.855042
64.500 38.55349
64.505 37.980453
64.510 37.050407
64.515 36.806725
64.520 36.994823
64.525 36.541714
64.530 35.866314
64.535 34.822239
64.540 34.153713
64.545 33.923473
64.550 33.878407
64.555 33.119183
64.560 31.944754
64.565 31.039694
64.570 29.629501
64.575 28.980009
64.580 29.016327
64.585 29.144934
64.590 29.295195
64.595 29.527956
64.600 29.583347
64.605 30.132502
64.610 30.234653
64.615 29.513336
64.620 28.428228
64.625 27.307024
64.630 27.375938
64.635 27.074017
64.640 25.745619
64.645 25.616659
64.650 26.554003
64.655 27.000093
64.660 27.376511
64.665 26.589365
64.670 26.629938
64.675 26.781673
64.680 26.076736
64.685 25.178164
64.690 25.131065
64.695 24.957901
64.700 24.902395
64.705 24.933758
64.710 24.912281
64.715 24.48263
64.720 23.44236
64.725 22.153679
64.730 22.028961
64.735 22.050203
64.740 21.93622
64.745 21.868776
64.750 21.812958
64.755 21.855547
64.760 22.203424
64.765 22.078375
64.770 22.081022
64.775 21.268829
64.780 20.410452
64.785 20.253386
64.790 20.47831
64.795 20.060265
64.800 20.455654
64.805 20.782804
64.810 21.622162
64.815 21.856833
64.820 22.039186
64.825 22.69626
64.830 23.617189
64.835 22.887901
64.840 23.005033
64.845 22.929274
64.850 23.513784
64.855 23.482182
64.860 22.842892
64.865 22.377636
64.870 22.524902
64.875 22.197083
64.880 21.541479
64.885 21.191355
64.890 20.944679
64.895 21.110693
64.900 21.437027
64.905 21.689058
64.910 21.517368
64.915 21.918737
64.920 22.230762
64.925 22.10116
64.930 21.566929
64.935 21.860882
64.940 21.818918
64.945 21.730181
64.950 21.638264
64.955 21.966343
64.960 22.257151
64.965 23.16716
64.970 23.045889
64.975 22.803583
64.980 23.059641
64.985 23.618782
64.990 23.603996
64.995 23.577963
65.000 23.136881
65.005 23.116123
65.010 23.633049
65.015 23.780807
65.020 24.238977
65.025 24.21364
65.030 25.077293
65.035 25.750696
65.040 25.688858
65.045 25.682018
65.050 25.352991
65.055 24.357222
65.060 24.38728
65.065 24.067047
65.070 23.999905
65.075 24.725767
65.080 24.893614
65.085 25.831387
65.090 26.981478
65.095 26.987432
65.100 26.362926
65.105 26.320459
65.110 26.364683
65.115 25.8829
65.120 25.477789
65.125 25.156919
65.130 25.723639
65.135 26.31987
65.140 26.315496
65.145 26.186666
65.150 26.835344
65.155 26.443283
65.160 26.753817
65.165 26.636852
65.170 26.838959
65.175 27.308456
65.180 27.420664
65.185 27.961391
65.190 28.766157
65.195 28.878193
65.200 28.498993
65.205 28.590685
65.210 27.874096
65.215 27.396523
65.220 26.271883
65.225 25.954414
65.230 26.176168
65.235 26.37368
65.240 26.387735
65.245 26.99251
65.250 27.607718
65.255 27.913774
65.260 27.935291
65.265 27.655111
65.270 27.343847
65.275 26.984802
65.280 26.726332
65.285 26.365166
65.290 26.183306
65.295 26.175711
65.300 26.480843
65.305 26.846388
65.310 26.90579
65.315 27.401657
65.320 28.192577
65.325 28.750111
65.330 28.237724
65.335 27.924669
65.340 28.474812
65.345 29.000994
65.350 29.24852
65.355 28.443884
65.360 28.172802
65.365 29.4405
65.370 30.524513
65.375 30.736391
65.380 31.316061
65.385 31.336357
65.390 32.426361
65.395 33.656796
65.400 33.121342
65.405 32.887081
65.410 32.687351
65.415 32.155384
65.420 32.363014
65.425 32.182331
65.430 31.143818
65.435 31.009424
65.440 30.974552
65.445 30.926506
65.450 30.909714
65.455 31.160719
65.460 31.198778
65.465 30.979681
65.470 31.194967
65.475 31.588457
65.480 32.521965
65.485 33.422577
65.490 33.521919
65.495 34.091869
65.500 35.182953
65.505 36.080864
65.510 35.999092
65.515 35.336803
65.520 34.800438
65.525 34.938297
65.530 35.060352
65.535 34.718689
65.540 34.876423
65.545 35.526909
65.550 35.992561
65.555 36.077675
65.560 36.299786
65.565 35.821835
65.570 35.623581
65.575 35.738495
65.580 36.989002
65.585 37.445568
65.590 36.822102
65.595 36.718185
65.600 37.053669
65.605 37.769802
65.610 37.380451
65.615 36.153893
65.620 36.805073
65.625 37.559605
65.630 37.599064
65.635 37.97496
65.640 37.520397
65.645 38.486977
65.650 39.255333
65.655 38.402828
65.660 39.172375
65.665 39.966358
65.670 40.133751
65.675 40.952461
65.680 41.24548
65.685 41.488487
65.690 41.808941
65.695 41.096657
65.700 40.642307
65.705 40.483574
65.710 40.349472
65.715 40.096649
65.720 39.722752
65.725 39.801449
65.730 40.307529
65.735 39.704987
65.740 39.379482
65.745 39.437626
65.750 38.608772
65.755 38.786942
65.760 39.018951
65.765 38.40958
65.770 39.057411
65.775 39.027046
65.780 38.485332
65.785 37.789085
65.790 37.526321
65.795 36.962982
65.800 36.802536
65.805 36.498856
65.810 36.582047
65.815 36.684586
65.820 37.286655
65.825 38.088047
65.830 38.802814
65.835 39.060398
65.840 39.796314
65.845 40.769234
65.850 42.03812
65.855 41.231655
65.860 40.034447
65.865 39.457813
65.870 38.702171
65.875 38.068256
65.880 37.178413
65.885 36.938808
65.890 38.35524
65.895 38.275513
65.900 38.49649
65.905 39.496281
65.910 39.248856
65.915 38.615578
65.920 38.03896
65.925 36.856758
65.930 36.359215
65.935 35.776375
65.940 35.755756
65.945 35.458076
65.950 34.913677
65.955 35.003792
65.960 35.429821
65.965 35.64122
65.970 35.253746
65.975 34.775009
65.980 34.486317
65.985 34.421646
65.990 32.558342
65.995 30.808355
66.000 29.828554
66.005 29.418648
66.010 28.607536
66.015 28.490564
66.020 29.047827
66.025 30.055294
66.030 30.403147
66.035 30.959486
66.040 30.762148
66.045 31.314831
66.050 31.167793
66.055 30.435907
66.060 29.548435
66.065 29.63777
66.070 29.658865
66.075 29.561678
66.080 28.791264
66.085 28.172537
66.090 28.282316
66.095 28.481812
66.100 27.862946
66.105 27.101501
66.110 26.541044
66.115 26.668148
66.120 26.344551
66.125 26.408724
66.130 26.274033
66.135 26.274307
66.140 26.822256
66.145 26.908306
66.150 26.562777
66.155 26.490721
66.160 25.736103
66.165 25.717064
66.170 25.330572
66.175 24.599085
66.180 23.806801
66.185 23.403534
66.190 23.391481
66.195 23.802477
66.200 23.995556
66.205 24.472795
66.210 24.771904
66.215 25.015556
66.220 25.263582
66.225 24.962868
66.230 24.716503
66.235 24.318258
66.240 23.084133
66.245 23.022602
66.250 22.99851
66.255 22.823214
66.260 22.730368
66.265 22.460997
66.270 21.995031
66.275 22.084843
66.280 21.724813
66.285 21.68185
66.290 21.721857
66.295 22.076405
66.300 21.949049
66.305 21.874472
66.310 21.534082
66.315 21.446844
66.320 21.387794
66.325 21.379295
66.330 20.615002
66.335 20.455347
66.340 20.679193
66.345 20.812166
66.350 20.918444
66.355 20.70932
66.360 20.410633
66.365 20.403908
66.370 20.381689
66.375 19.862751
66.380 19.728592
66.385 19.281548
66.390 19.314138
66.395 19.388817
66.400 19.372814
66.405 19.261621
66.410 19.432518
66.415 19.121941
66.420 19.306301
66.425 19.26523
66.430 18.925205
66.435 19.637581
66.440 19.829691
66.445 20.052979
66.450 20.015089
66.455 19.372499
66.460 18.780651
66.465 18.868326
66.470 18.728468
66.475 18.622786
66.480 18.467169
66.485 18.725739
66.490 19.413334
66.495 20.023491
66.500 20.255587
66.505 19.968618
66.510 19.711149
66.515 19.685242
66.520 19.256826
66.525 19.305941
66.530 19.459379
66.535 19.44174
66.540 19.399055
66.545 19.325649
66.550 19.240175
66.555 19.531811
66.560 19.895838
66.565 19.946854
66.570 19.860153
66.575 19.735447
66.580 19.932665
66.585 20.085979
66.590 19.967754
66.595 19.412226
66.600 19.042572
66.605 19.06171
66.610 19.569407
66.615 18.794743
66.620 18.511047
66.625 18.594696
66.630 18.687267
66.635 18.504566
66.640 17.90202
66.645 17.830256
66.650 18.568249
66.655 18.790092
66.660 19.25819
66.665 19.078888
66.670 19.214825
66.675 19.333796
66.680 19.136154
66.685 19.035284
66.690 18.828548
66.695 18.081596
66.700 17.835915
66.705 17.854895
66.710 18.235741
66.715 17.986238
66.720 17.427145
66.725 17.329878
66.730 17.657539
66.735 17.923988
66.740 18.093859
66.745 18.33736
66.750 18.891891
66.755 19.069685
66.760 19.007139
66.765 18.251854
66.770 18.45009
66.775 18.573669
66.780 18.340395
66.785 18.300722
66.790 18.921612
66.795 19.526819
66.800 20.109926
66.805 19.932661
66.810 19.970074
66.815 20.059006
66.820 19.924026
66.825 20.018059
66.830 19.950621
66.835 19.775009
66.840 19.777422
66.845 19.670975
66.850 19.473351
66.855 19.428259
66.860 18.733809
66.865 18.540001
66.870 18.128239
66.875 17.913057
66.880 18.034824
66.885 18.203775
66.890 18.226534
66.895 18.495085
66.900 18.768227
66.905 19.279398
66.910 19.3218
66.915 19.244335
66.920 19.750151
66.925 20.124935
66.930 20.247084
66.935 19.871084
66.940 20.139351
66.945 19.693716
66.950 19.466673
66.955 19.168327
66.960 19.0909
66.965 18.945847
66.970 18.563869
66.975 17.980499
66.980 18.64016
66.985 18.601011
66.990 18.551559
66.995 17.911522
67.000 17.957363
67.005 18.756018
67.010 19.830931
67.015 19.885168
67.020 19.521141
67.025 19.140339
67.030 19.719662
67.035 20.36161
67.040 20.274961
67.045 19.530951
67.050 19.218847
67.055 19.120348
67.060 19.246248
67.065 18.933945
67.070 18.224113
67.075 18.024193
67.080 18.422928
67.085 18.568079
67.090 18.599934
67.095 18.736172
67.100 19.271729
67.105 19.680067
67.110 19.625549
67.115 18.973434
67.120 18.815023
67.125 18.639151
67.130 18.493652
67.135 18.265385
67.140 17.920351
67.145 17.920383
67.150 18.664261
67.155 18.822433
67.160 19.153492
67.165 18.991373
67.170 18.434572
67.175 17.967337
67.180 17.661385
67.185 17.730551
67.190 17.910051
67.195 17.930319
67.200 17.819262
67.205 18.4846
67.210 18.82201
67.215 18.7901
67.220 18.372391
67.225 18.291866
67.230 18.399914
67.235 18.356129
67.240 19.093819
67.245 19.662491
67.250 19.527319
67.255 20.200459
67.260 20.164276
67.265 20.479088
67.270 20.895926
67.275 20.173779
67.280 20.145927
67.285 20.367702
67.290 19.446066
67.295 19.395367
67.300 19.207222
67.305 18.477425
67.310 18.519691
67.315 18.21245
67.320 18.590841
67.325 19.222347
67.330 19.202547
67.335 19.213156
67.340 18.914806
67.345 18.292709
67.350 18.12957
67.355 17.397497
67.360 17.626858
67.365 17.774796
67.370 17.36676
67.375 17.99946
67.380 18.610113
67.385 18.567131
67.390 18.635628
67.395 18.415037
67.400 18.519936
67.405 19.157021
67.410 18.953304
67.415 18.74645
67.420 18.894602
67.425 19.315926
67.430 19.138695
67.435 19.389553
67.440 19.226942
67.445 19.729946
67.450 19.941706
67.455 20.138304
67.460 20.365305
67.465 19.928377
67.470 19.881435
67.475 19.705437
67.480 19.501762
67.485 19.514811
67.490 18.796814
67.495 18.639296
67.500 18.736629
67.505 18.430073
67.510 18.667303
67.515 18.674803
67.520 18.366171
67.525 18.524649
67.530 18.278652
67.535 18.306067
67.540 18.418594
67.545 18.331152
67.550 18.840576
67.555 18.911013
67.560 18.600613
67.565 18.726355
67.570 18.561687
67.575 17.935198
67.580 18.21826
67.585 17.889523
67.590 18.447874
67.595 19.008696
67.600 19.181883
67.605 19.346333
67.610 19.449581
67.615 19.029507
67.620 19.194984
67.625 19.372807
67.630 19.277901
67.635 19.60104
67.640 19.364458
67.645 19.655243
67.650 19.625092
67.655 18.94166
67.660 18.348423
67.665 18.545389
67.670 18.321125
67.675 18.562866
67.680 18.362041
67.685 18.038382
67.690 18.123777
67.695 18.490946
67.700 17.687912
67.705 17.886679
67.710 18.340261
67.715 18.654461
67.720 19.252205
67.725 19.506231
67.730 19.097706
67.735 18.820108
67.740 18.189644
67.745 17.839931
67.750 17.79282
67.755 17.526443
67.760 16.584898
67.765 17.229092
67.770 17.81308
67.775 18.909651
67.780 19.283339
67.785 19.074183
67.790 19.296255
67.795 19.991159
67.800 20.288515
67.805 20.233551
67.810 19.308483
67.815 18.909319
67.820 18.737436
67.825 18.809879
67.830 18.468052
67.835 17.981859
67.840 17.983578
67.845 18.174301
67.850 18.653343
67.855 19.226254
67.860 19.546055
67.865 20.234276
67.870 20.506783
67.875 20.442923
67.880 20.368269
67.885 20.44261
67.890 20.269241
67.895 20.436882
67.900 20.591085
67.905 20.566916
67.910 20.469671
67.915 20.546675
67.920 20.59889
67.925 20.701124
67.930 20.87105
67.935 20.283865
67.940 20.008207
67.945 19.655272
67.950 19.19545
67.955 18.401743
67.960 18.341846
67.965 17.965424
67.970 18.538424
67.975 19.61639
67.980 19.888783
67.985 20.029968
67.990 20.113537
67.995 19.920446
68.000 19.99769
68.005 19.385008
68.010 18.851925
68.015 19.059074
68.020 19.432554
68.025 19.387136
68.030 19.031065
68.035 19.430613
68.040 20.017218
68.045 20.026234
68.050 20.375063
68.055 19.883553
68.060 20.237841
68.065 19.85313
68.070 19.174496
68.075 18.432119
68.080 17.925144
68.085 17.45138
68.090 17.695848
68.095 17.760937
68.100 18.49189
68.105 19.285292
68.110 19.660078
68.115 20.060158
68.120 20.140306
68.125 20.255922
68.130 19.741352
68.135 19.398714
68.140 19.299446
68.145 19.144512
68.150 19.59001
68.155 19.625109
68.160 19.841415
68.165 20.036045
68.170 20.26671
68.175 20.670845
68.180 21.46295
68.185 21.569811
68.190 21.774494
68.195 21.603758
68.200 21.48661
68.205 20.503054
68.210 19.66486
68.215 18.856327
68.220 18.800354
68.225 18.476692
68.230 18.591089
68.235 18.971117
68.240 20.029089
68.245 20.394724
68.250 20.661766
68.255 20.235554
68.260 21.237925
68.265 21.129246
68.270 20.739292
68.275 20.409327
68.280 20.491282
68.285 20.515217
68.290 20.385206
68.295 19.802704
68.300 20.522673
68.305 20.850901
68.310 20.914131
68.315 20.803173
68.320 20.671562
68.325 21.049742
68.330 21.665134
68.335 21.543802
68.340 21.984436
68.345 22.291082
68.350 21.979639
68.355 22.524542
68.360 22.357172
68.365 21.906857
68.370 21.683846
68.375 21.459435
68.380 20.947687
68.385 21.35429
68.390 21.666119
68.395 21.672449
68.400 20.965174
68.405 21.007292
68.410 21.139307
68.415 21.920115
68.420 21.936687
68.425 21.68202
68.430 22.239151
68.435 22.781458
68.440 22.578329
68.445 22.540205
68.450 23.263824
68.455 24.097685
68.460 24.245422
68.465 24.282911
68.470 24.67037
68.475 25.225924
68.480 24.825659
68.485 24.10265
68.490 23.67704
68.495 24.104681
68.500 24.525871
68.505 24.75136
68.510 24.718914
68.515 24.916407
68.520 25.34947
68.525 25.796791
68.530 25.732748
68.535 25.556372
68.540 25.608822
68.545 25.939341
68.550 25.856504
68.555 25.659166
68.560 25.535805
68.565 25.731941
68.570 26.572666
68.575 26.649563
68.580 26.891071
68.585 27.026371
68.590 27.161415
68.595 27.073887
68.600 27.211033
68.605 26.811295
68.610 27.9317
68.615 28.500113
68.620 28.656927
68.625 28.534216
68.630 29.214813
68.635 28.872444
68.640 28.868689
68.645 28.296658
68.650 28.536909
68.655 29.174776
68.660 29.931961
68.665 30.03895
68.670 31.255579
68.675 31.94976
68.680 31.687248
68.685 31.390022
68.690 31.036379
68.695 30.878496
68.700 30.346378
68.705 30.725103
68.710 30.399828
68.715 30.535046
68.720 30.329027
68.725 30.474752
68.730 30.6915
68.735 30.464977
68.740 30.435898
68.745 30.582603
68.750 30.854391
68.755 31.397062
68.760 31.614975
68.765 32.609131
68.770 33.102879
68.775 32.199142
68.780 32.054565
68.785 31.790869
68.790 31.647118
68.795 31.811052
68.800 31.546833
68.805 31.890484
68.810 32.360023
68.815 33.081001
68.820 33.48555
68.825 34.129219
68.830 34.42421
68.835 34.729347
68.840 34.601624
68.845 35.411621
68.850 35.786587
68.855 36.377949
68.860 36.666672
68.865 36.098881
68.870 36.036797
68.875 36.132046
68.880 35.093559
68.885 34.683678
68.890 34.331764
68.895 34.314533
68.900 34.716602
68.905 34.656876
68.910 34.65683
68.915 35.229099
68.920 35.508755
68.925 35.328854
68.930 34.923065
68.935 35.051056
68.940 35.540073
68.945 35.55167
68.950 35.279636
68.955 35.747204
68.960 35.683922
68.965 35.77668
68.970 35.532475
68.975 35.430206
68.980 35.738323
68.985 35.948891
68.990 36.143555
68.995 36.401039
69.000 36.21133
69.005 35.901691
69.010 36.235779
69.015 36.247757
69.020 36.14238
69.025 35.208778
69.030 34.749874
69.035 34.816612
69.040 34.965336
69.045 35.103706
69.050 36.007095
69.055 36.287521
69.060 36.352554
69.065 36.933208
69.070 37.997364
69.075 38.020313
69.080 37.384846
69.085 35.774578
69.090 35.350307
69.095 35.140835
69.100 34.774696
69.105 34.552364
69.110 33.365135
69.115 32.810921
69.120 32.272476
69.125 32.431892
69.130 32.612873
69.135 31.768282
69.140 30.883997
69.145 30.510723
69.150 30.52264
69.155 31.295702
69.160 31.087177
69.165 31.182781
69.170 31.855774
69.175 32.212936
69.180 32.518478
69.185 32.746716
69.190 32.635723
69.195 32.690723
69.200 32.287674
69.205 31.343622
69.210 30.8578
69.215 30.742563
69.220 30.335474
69.225 30.437029
69.230 29.70509
69.235 28.780735
69.240 28.977013
69.245 29.275583
69.250 28.195534
69.255 27.282173
69.260 26.771845
69.265 26.618845
69.270 27.275852
69.275 26.743889
69.280 25.92042
69.285 26.213739
69.290 26.077744
69.295 25.217308
69.300 24.839962
69.305 24.261858
69.310 24.350124
69.315 24.623446
69.320 24.111378
69.325 23.295151
69.330 23.634035
69.335 24.380888
69.340 24.207541
69.345 24.21851
69.350 24.236025
69.355 25.124935
69.360 26.326815
69.365 25.876963
69.370 25.249548
69.375 25.323696
69.380 24.95953
69.385 24.718397
69.390 24.351526
69.395 24.211103
69.400 24.434097
69.405 24.632771
69.410 24.235699
69.415 23.975166
69.420 23.89798
69.425 23.183712
69.430 22.969467
69.435 23.542717
69.440 23.819996
69.445 23.979771
69.450 23.977512
69.455 23.460285
69.460 23.344078
69.465 22.479359
69.470 21.852377
69.475 21.575022
69.480 21.242781
69.485 22.019796
69.490 23.184618
69.495 23.90992
69.500 24.257488
69.505 24.320398
69.510 23.941755
69.515 23.684708
69.520 22.793682
69.525 22.531033
69.530 22.696848
69.535 22.345451
69.540 21.657597
69.545 21.336449
69.550 21.31731
69.555 21.058493
69.560 20.467064
69.565 20.444418
69.570 21.126247
69.575 21.469885
69.580 21.735773
69.585 21.310658
69.590 21.080238
69.595 21.095781
69.600 20.518915
69.605 20.076334
69.610 20.051161
69.615 19.822586
69.620 19.566286
69.625 19.367231
69.630 18.770031
69.635 18.914228
69.640 19.052534
69.645 19.378073
69.650 19.871992
69.655 20.199713
69.660 20.192965
69.665 20.020708
69.670 19.740124
69.675 19.37891
69.680 19.482121
69.685 19.712517
69.690 19.694605
69.695 19.725706
69.700 19.882326
69.705 19.591272
69.710 19.454895
69.715 18.930456
69.720 18.54771
69.725 18.385897
69.730 18.511173
69.735 18.558783
69.740 19.223324
69.745 19.303707
69.750 19.446341
69.755 19.56312
69.760 19.859768
69.765 19.732193
69.770 19.870447
69.775 19.251881
69.780 18.940872
69.785 18.725611
69.790 18.834606
69.795 18.917681
69.800 18.946739
69.805 18.020782
69.810 18.286991
69.815 18.24527
69.820 18.369099
69.825 18.377762
69.830 18.138105
69.835 18.5014
69.840 19.05658
69.845 19.202227
69.850 18.48497
69.855 18.374527
69.860 17.969267
69.865 18.514683
69.870 18.652109
69.875 18.630686
69.880 18.791086
69.885 19.382103
69.890 19.117817
69.895 18.710285
69.900 17.735025
69.905 17.984835
69.910 17.169498
69.915 16.897978
69.920 17.022408
69.925 17.046043
69.930 17.481695
69.935 17.868486
69.940 18.000788
69.945 19.589582
69.950 20.248976
69.955 20.412426
69.960 21.004164
69.965 20.842159
69.970 20.304762
69.975 20.342115
69.980 19.841
69.985 19.665541
69.990 19.449139
69.995 18.978502
70.000 18.696714
70.005 18.43816
70.010 17.581612
70.015 16.996559
70.020 16.708607
70.025 17.349401
70.030 17.666681
70.035 17.624863
70.040 18.13858
70.045 18.476582
70.050 18.695759
70.055 18.371237
70.060 17.739113
70.065 17.952332
70.070 18.555048
70.075 18.527773
70.080 18.364332
70.085 18.866058
70.090 18.963375
70.095 18.690529
70.100 18.408356
70.105 18.553669
70.110 18.160709
70.115 18.42948
70.120 18.589542
70.125 18.7304
70.130 19.670897
70.135 20.491014
70.140 20.459028
70.145 20.960279
70.150 20.797539
70.155 20.96204
70.160 21.307543
70.165 21.102819
70.170 20.785892
70.175 20.277929
70.180 20.440575
70.185 20.455002
70.190 20.352894
70.195 19.441853
70.200 18.854609
70.205 18.512188
70.210 18.584602
70.215 19.073393
70.220 18.68679
70.225 18.074352
70.230 18.001045
70.235 18.068604
70.240 18.511051
70.245 17.751146
70.250 16.678406
70.255 16.512545
70.260 17.118872
70.265 18.332851
70.270 17.986254
70.275 17.906263
70.280 17.924574
70.285 18.238306
70.290 19.070215
70.295 18.437376
70.300 17.680407
70.305 18.694822
70.310 19.224346
70.315 20.219481
70.320 20.007538
70.325 19.481302
70.330 19.527292
70.335 19.628752
70.340 18.317257
70.345 17.29635
70.350 16.810177
70.355 16.639503
70.360 16.904284
70.365 17.097595
70.370 16.668638
70.375 16.77215
70.380 17.348736
70.385 18.023306
70.390 18.235126
70.395 18.077223
70.400 18.058489
70.405 18.243761
70.410 19.110907
70.415 19.048027
70.420 18.492559
70.425 18.764458
70.430 19.037075
70.435 19.302799
70.440 19.609299
70.445 20.041752
70.450 20.442137
70.455 20.42683
70.460 20.193798
70.465 19.96254
70.470 20.069977
70.475 20.168699
70.480 19.433523
70.485 19.235596
70.490 19.58079
70.495 19.694942
70.500 20.046888
70.505 19.980375
70.510 19.605284
70.515 18.981897
70.520 18.457577
70.525 18.045135
70.530 18.16054
70.535 18.445837
70.540 18.044094
70.545 18.807089
70.550 18.950151
70.555 19.056486
70.560 19.423662
70.565 19.44672
70.570 18.949562
70.575 19.173782
70.580 18.879644
70.585 19.223181
70.590 19.06316
70.595 18.352415
70.600 18.391302
70.605 18.676495
70.610 18.416063
70.615 17.915253
70.620 18.592941
70.625 18.995081
70.630 19.240454
70.635 18.890358
70.640 18.659889
70.645 18.732437
70.650 18.531918
70.655 17.79258
70.660 16.946394
70.665 16.347647
70.670 16.289261
70.675 16.771872
70.680 16.59918
70.685 16.964169
70.690 17.311413
70.695 18.29681
70.700 18.93947
70.705 19.092041
70.710 18.985371
70.715 19.49819
70.720 19.045408
70.725 18.247276
70.730 18.154533
70.735 17.652838
70.740 16.830711
70.745 16.551687
70.750 16.259172
70.755 17.213362
70.760 17.283546
70.765 17.665888
70.770 18.092634
70.775 18.653475
70.780 18.347591
70.785 18.295729
70.790 18.05072
70.795 18.303442
70.800 17.967833
70.805 17.989532
70.810 18.308041
70.815 19.061438
70.820 19.830925
70.825 20.016762
70.830 20.183886
70.835 20.279264
70.840 20.117916
70.845 20.316257
70.850 19.830957
70.855 18.686281
70.860 18.204844
70.865 17.709143
70.870 17.451944
70.875 17.859642
70.880 17.421633
70.885 17.85994
70.890 18.622057
70.895 18.828024
70.900 18.898447
70.905 18.75359
70.910 18.149988
70.915 17.947636
70.920 17.341234
70.925 16.755344
70.930 16.649149
70.935 16.643873
70.940 16.253408
70.945 16.450569
70.950 16.885088
70.955 16.760454
70.960 17.237999
70.965 17.300341
70.970 17.31077
70.975 17.455421
70.980 17.791265
70.985 17.614187
70.990 17.367874
70.995 17.583448
71.000 17.588846
71.005 17.641182
71.010 17.513674
71.015 17.483301
71.020 17.717052
71.025 17.975855
71.030 17.595736
71.035 17.242294
71.040 17.400938
71.045 17.626656
71.050 17.861834
71.055 18.21096
71.060 18.681583
71.065 19.065075
71.070 19.559042
71.075 19.404129
71.080 19.379818
71.085 19.334072
71.090 19.458935
71.095 18.965572
71.100 18.944372
71.105 19.588997
71.110 19.533012
71.115 19.510448
71.120 19.750469
71.125 19.559286
71.130 19.672684
71.135 19.557852
71.140 18.64966
71.145 18.39205
71.150 18.346134
71.155 18.038458
71.160 18.020121
71.165 17.776529
71.170 17.751173
71.175 17.654001
71.180 17.691345
71.185 17.506004
71.190 17.38442
71.195 17.241476
71.200 16.801743
71.205 16.879074
71.210 17.395742
71.215 17.486443
71.220 17.598581
71.225 17.82922
71.230 17.878511
71.235 18.824331
71.240 18.80689
71.245 18.538324
71.250 18.017168
71.255 18.056614
71.260 17.575203
71.265 17.722881
71.270 17.569986
71.275 17.527643
71.280 17.946375
71.285 17.929361
71.290 17.469639
71.295 17.132524
71.300 16.523874
71.305 16.346222
71.310 16.312098
71.315 15.839494
71.320 16.478045
71.325 17.367439
71.330 17.473448
71.335 17.419437
71.340 17.450487
71.345 17.643429
71.350 17.579252
71.355 16.62151
71.360 16.411774
71.365 17.090288
71.370 17.252806
71.375 17.675224
71.380 18.31324
71.385 18.598188
71.390 18.681425
71.395 18.311035
71.400 18.830166
71.405 19.233223
71.410 18.101353
71.415 17.887238
71.420 18.16955
71.425 19.116932
71.430 18.923311
71.435 18.655634
71.440 18.49192
71.445 18.955116
71.450 19.031479
71.455 18.644503
71.460 18.80488
71.465 19.182686
71.470 18.927563
71.475 19.152351
71.480 18.589056
71.485 18.489788
71.490 18.253288
71.495 17.823364
71.500 17.762173
71.505 17.887808
71.510 17.639702
71.515 17.897139
71.520 18.478149
71.525 18.738626
71.530 18.74877
71.535 18.397717
71.540 18.439592
71.545 19.316414
71.550 19.630888
71.555 19.076904
71.560 18.928087
71.565 18.642862
71.570 18.14974
71.575 17.510599
71.580 16.760447
71.585 16.283157
71.590 16.711508
71.595 17.072439
71.600 18.063482
71.605 18.766148
71.610 18.793068
71.615 18.477364
71.620 18.660849
71.625 18.084061
71.630 17.736137
71.635 17.264252
71.640 17.285444
71.645 17.860872
71.650 18.563417
71.655 18.68202
71.660 18.828827
71.665 18.523972
71.670 19.064074
71.675 19.352089
71.680 19.655499
71.685 19.118696
71.690 18.770523
71.695 19.472128
71.700 19.375738
71.705 19.001568
71.710 18.60697
71.715 18.386635
71.720 18.772623
71.725 18.825274
71.730 18.718063
71.735 18.394176
71.740 18.151602
71.745 17.815588
71.750 17.773827
71.755 17.781097
71.760 17.606754
71.765 17.374163
71.770 17.650789
71.775 18.805294
71.780 19.283373
71.785 19.286959
71.790 19.137541
71.795 19.285358
71.800 19.650438
71.805 19.732578
71.810 19.603607
71.815 19.664343
71.820 19.330925
71.825 18.789425
71.830 18.582083
71.835 18.123526
71.840 17.616165
71.845 16.98982
71.850 16.466866
71.855 17.407509
71.860 17.624434
71.865 17.746395
71.870 18.270691
71.875 18.481495
71.880 18.481483
71.885 18.488291
71.890 18.3577
71.895 18.881519
71.900 18.824017
71.905 18.514294
71.910 18.654654
71.915 18.800018
71.920 18.450415
71.925 18.332058
71.930 17.824255
71.935 17.729221
71.940 17.736847
71.945 17.590719
71.950 18.335135
71.955 18.192646
71.960 18.401669
71.965 18.81295
71.970 18.809305
71.975 18.954094
71.980 18.851839
71.985 18.371164
71.990 18.134449
71.995 17.70685
72.000 17.810097
72.005 17.399414
72.010 17.138365
72.015 16.714884
72.020 17.532532
72.025 17.470541
72.030 17.494152
72.035 17.120012
72.040 16.792959
72.045 16.643869
72.050 16.628103
72.055 15.727975
72.060 15.788512
72.065 15.912033
72.070 16.093075
72.075 16.670145
72.080 16.672865
72.085 16.617561
72.090 16.948999
72.095 17.030569
72.100 17.082785
72.105 17.426943
72.110 17.251148
72.115 17.531475
72.120 17.359514
72.125 17.271664
72.130 17.428324
72.135 17.4734
72.140 17.567446
72.145 17.713842
72.150 17.939968
72.155 18.31945
72.160 18.163839
72.165 17.749228
72.170 17.327253
72.175 16.824848
72.180 16.960262
72.185 17.086969
72.190 17.846485
72.195 18.017181
72.200 18.535471
72.205 19.153793
72.210 19.550135
72.215 18.756247
72.220 18.446281
72.225 18.325195
72.230 18.571135
72.235 18.1994
72.240 17.517027
72.245 18.086422
72.250 18.11961
72.255 18.071945
72.260 18.016071
72.265 17.829626
72.270 18.150417
72.275 18.3195
72.280 17.931675
72.285 17.556698
72.290 17.376444
72.295 17.162947
72.300 17.573633
72.305 17.632399
72.310 17.409668
72.315 17.778545
72.320 18.214407
72.325 18.444309
72.330 18.562515
72.335 18.473637
72.340 18.6276
72.345 18.516382
72.350 18.753393
72.355 19.043772
72.360 18.850386
72.365 18.611742
72.370 18.151222
72.375 18.094498
72.380 18.359125
72.385 18.213158
72.390 17.868546
72.395 17.785906
72.400 17.651937
72.405 17.583574
72.410 17.571789
72.415 17.280394
72.420 17.252972
72.425 17.168636
72.430 17.496576
72.435 17.86175
72.440 17.579212
72.445 17.427248
72.450 17.428165
72.455 17.028803
72.460 17.091537
72.465 17.25005
72.470 16.962011
72.475 17.139265
72.480 17.624846
72.485 17.347736
72.490 17.08938
72.495 16.165356
72.500 15.461615
72.505 15.440315
72.510 14.990594
72.515 14.677949
72.520 15.034103
72.525 15.983487
72.530 16.768703
72.535 17.164108
72.540 17.684397
72.545 18.608284
72.550 18.781208
72.555 18.658234
72.560 18.876598
72.565 18.78067
72.570 18.908041
72.575 18.756432
72.580 18.492201
72.585 18.744211
72.590 19.034307
72.595 18.849331
72.600 19.004824
72.605 18.751995
72.610 18.72793
72.615 18.428566
72.620 18.13554
72.625 18.097609
72.630 17.616611
72.635 17.646025
72.640 17.588928
72.645 18.167231
72.650 18.171261
72.655 18.373034
72.660 18.311369
72.665 18.465818
72.670 18.228439
72.675 18.210331
72.680 17.658621
72.685 18.621742
72.690 18.606689
72.695 19.183878
72.700 18.811255
72.705 18.774986
72.710 18.648144
72.715 18.173315
72.720 17.475986
72.725 17.292387
72.730 17.101213
72.735 17.744846
72.740 17.952236
72.745 18.549866
72.750 18.539541
72.755 18.403025
72.760 18.304127
72.765 18.145121
72.770 18.099171
72.775 17.718548
72.780 17.056786
72.785 17.246387
72.790 17.435234
72.795 16.931934
72.800 16.803366
72.805 16.804956
72.810 16.945227
72.815 17.096699
72.820 16.767403
72.825 16.660915
72.830 16.858339
72.835 17.395716
72.840 17.485504
72.845 17.671066
72.850 18.24806
72.855 18.726849
72.860 19.344364
72.865 19.204159
72.870 18.297134
72.875 17.871325
72.880 17.133667
72.885 16.201942
72.890 15.703025
72.895 15.447151
72.900 15.536534
72.905 15.721893
72.910 16.077993
72.915 16.47364
72.920 16.767912
72.925 16.879009
72.930 16.359701
72.935 16.315647
72.940 16.600538
72.945 16.357492
72.950 16.731136
72.955 16.628908
72.960 16.80558
72.965 17.316582
72.970 17.617249
72.975 17.882696
72.980 18.329615
72.985 18.134039
72.990 18.761522
72.995 18.471014
73.000 18.199402
