!@!!GADDS PLOTSO FILE: Chi integration type
!@!!Title/SampleName: map-9d
!@!!Comment: ?
!@!!User: Bruker Instrument Administrator
!@!!Site: University of Illinois Chicago
!@!!Frame: map-9d_01_000.gfrm
!@!!Wavelengths    1.54184   1.54056   1.54439
!@!!Frame angles: 2Theta: 63.000 Omega: 50.000 Phi: 0.000 Chi: 90.000
!@!!Integration range: 2Theta: 53.000 to 73.000  Gamma: -105.000 to -75.000
!@!!Integration method: bin normalized
!@!N
!@!SS
!@!M
!@!L 0.0 0.0 0.0 0.0
!@!XDegrees
!@!YCounts
53.000 10.603998
53.005 10.402901
53.010 9.86609
53.015 9.084246
53.020 9.14857
53.025 9.117027
53.030 9.182425
53.035 9.153706
53.040 9.00393
53.045 9.181623
53.050 9.345045
53.055 9.366358
53.060 9.453979
53.065 9.394668
53.070 9.602938
53.075 9.551496
53.080 9.592317
53.085 10.207741
53.090 10.351322
53.095 10.722049
53.100 10.846558
53.105 10.815898
53.110 10.528794
53.115 10.166309
53.120 9.59772
53.125 9.356876
53.130 9.443095
53.135 9.348881
53.140 9.194975
53.145 9.294739
53.150 9.658862
53.155 9.822878
53.160 9.830054
53.165 9.451317
53.170 9.59366
53.175 9.558609
53.180 9.642265
53.185 9.269605
53.190 9.090249
53.195 9.096322
53.200 9.073583
53.205 9.551348
53.210 9.650396
53.215 9.401832
53.220 9.409639
53.225 9.506968
53.230 9.616234
53.235 9.372932
53.240 8.882545
53.245 9.150859
53.250 9.726746
53.255 9.773701
53.260 9.490923
53.265 9.405453
53.270 9.678675
53.275 9.466552
53.280 9.287267
53.285 9.283197
53.290 9.472446
53.295 9.865537
53.300 9.996403
53.305 9.956766
53.310 9.978972
53.315 10.254478
53.320 10.499599
53.325 10.933006
53.330 10.546087
53.335 10.429309
53.340 10.794897
53.345 11.112523
53.350 10.911995
53.355 11.066878
53.360 10.842619
53.365 10.995431
53.370 11.352585
53.375 11.50773
53.380 11.465551
53.385 11.980722
53.390 11.582352
53.395 11.921127
53.400 12.060856
53.405 11.420138
53.410 10.892861
53.415 10.426791
53.420 9.60503
53.425 9.39593
53.430 9.178186
53.435 9.045594
53.440 9.07174
53.445 9.098877
53.450 9.521905
53.455 10.069998
53.460 10.533904
53.465 10.368696
53.470 10.563345
53.475 11.016586
53.480 11.539149
53.485 11.608084
53.490 11.130523
53.495 10.337154
53.500 10.830336
53.505 11.31201
53.510 11.23863
53.515 11.16991
53.520 11.321793
53.525 11.534238
53.530 11.749979
53.535 11.451105
53.540 11.052857
53.545 10.895885
53.550 10.579009
53.555 10.326355
53.560 10.582361
53.565 10.448895
53.570 10.364525
53.575 10.283504
53.580 10.004072
53.585 10.056931
53.590 10.306085
53.595 10.353907
53.600 10.766989
53.605 10.672797
53.610 11.015171
53.615 11.342921
53.620 10.931458
53.625 10.534683
53.630 10.293769
53.635 9.852666
53.640 9.701487
53.645 9.243162
53.650 9.548625
53.655 10.070685
53.660 9.937346
53.665 9.939989
53.670 10.236537
53.675 10.461404
53.680 10.773156
53.685 10.556365
53.690 10.073312
53.695 10.367764
53.700 10.504357
53.705 10.290383
53.710 10.388291
53.715 10.300633
53.720 10.416649
53.725 10.124937
53.730 9.70871
53.735 9.691936
53.740 9.803802
53.745 9.621897
53.750 9.440029
53.755 9.705444
53.760 9.847578
53.765 10.164835
53.770 10.17492
53.775 10.45032
53.780 10.41948
53.785 10.261566
53.790 10.270533
53.795 10.764746
53.800 10.87319
53.805 10.868805
53.810 10.553685
53.815 10.792849
53.820 10.858802
53.825 10.822796
53.830 10.492421
53.835 10.715424
53.840 10.717537
53.845 10.958092
53.850 11.148025
53.855 11.162248
53.860 11.110192
53.865 11.37839
53.870 11.340771
53.875 11.645664
53.880 11.630754
53.885 11.779336
53.890 11.665967
53.895 11.382211
53.900 10.91554
53.905 10.609947
53.910 10.346963
53.915 10.170368
53.920 9.97929
53.925 10.568412
53.930 11.289384
53.935 11.77447
53.940 12.3862
53.945 12.504372
53.950 12.722983
53.955 12.575925
53.960 12.091568
53.965 11.91648
53.970 12.245377
53.975 12.066268
53.980 11.417304
53.985 11.013551
53.990 10.943365
53.995 11.233479
54.000 10.905467
54.005 9.74825
54.010 9.620177
54.015 10.246971
54.020 10.735496
54.025 10.715228
54.030 10.54168
54.035 10.634084
54.040 10.690446
54.045 10.940659
54.050 10.622109
54.055 10.647442
54.060 11.283206
54.065 11.838946
54.070 11.888654
54.075 12.181365
54.080 12.330698
54.085 12.312393
54.090 11.637264
54.095 10.892612
54.100 10.35578
54.105 10.440646
54.110 10.011243
54.115 9.843241
54.120 9.788775
54.125 10.224912
54.130 10.230239
54.135 10.360825
54.140 10.606943
54.145 10.850886
54.150 11.199923
54.155 11.382173
54.160 11.543525
54.165 11.7967
54.170 11.388523
54.175 11.313321
54.180 11.049137
54.185 11.011221
54.190 10.631533
54.195 10.450761
54.200 10.095457
54.205 10.204356
54.210 9.971007
54.215 10.06535
54.220 10.125079
54.225 10.427351
54.230 10.927793
54.235 11.15678
54.240 11.056686
54.245 11.627884
54.250 11.799175
54.255 11.829357
54.260 11.894723
54.265 11.486469
54.270 11.478217
54.275 11.586099
54.280 11.319506
54.285 11.191224
54.290 11.088745
54.295 10.679431
54.300 10.865983
54.305 11.034842
54.310 11.084632
54.315 10.54658
54.320 10.964888
54.325 11.157299
54.330 11.334814
54.335 11.49681
54.340 11.662256
54.345 11.8792
54.350 12.179489
54.355 11.875585
54.360 11.995606
54.365 12.069873
54.370 12.191818
54.375 12.27322
54.380 12.30671
54.385 11.896444
54.390 12.215787
54.395 11.865885
54.400 11.534337
54.405 11.383021
54.410 11.235564
54.415 11.6699
54.420 11.839605
54.425 11.533637
54.430 11.47006
54.435 12.15119
54.440 12.036711
54.445 11.990672
54.450 11.64962
54.455 11.426715
54.460 11.827731
54.465 11.909617
54.470 12.334437
54.475 12.538485
54.480 12.15526
54.485 12.104444
54.490 12.32709
54.495 12.208455
54.500 11.947569
54.505 11.155797
54.510 10.628517
54.515 11.054386
54.520 10.873034
54.525 10.323579
54.530 10.322337
54.535 10.468853
54.540 10.458916
54.545 10.911154
54.550 11.141813
54.555 11.578759
54.560 11.867281
54.565 11.856887
54.570 11.7357
54.575 11.918695
54.580 11.84788
54.585 11.758636
54.590 11.757752
54.595 11.89919
54.600 11.671808
54.605 11.716074
54.610 11.905312
54.615 12.02415
54.620 11.978774
54.625 11.871273
54.630 11.871082
54.635 12.22755
54.640 12.301644
54.645 11.543124
54.650 11.043894
54.655 10.878592
54.660 10.605544
54.665 10.542787
54.670 10.132709
54.675 9.901415
54.680 10.215917
54.685 9.888244
54.690 10.275837
54.695 10.408486
54.700 10.128394
54.705 10.395602
54.710 10.980384
54.715 11.081648
54.720 11.843714
54.725 12.24546
54.730 12.087724
54.735 12.455864
54.740 12.409612
54.745 12.1194
54.750 12.188792
54.755 11.550241
54.760 11.718722
54.765 12.078578
54.770 11.894266
54.775 11.571552
54.780 11.270387
54.785 11.078119
54.790 10.834932
54.795 10.871053
54.800 10.950155
54.805 10.934534
54.810 11.042009
54.815 11.296369
54.820 11.402848
54.825 11.427263
54.830 10.470382
54.835 10.169765
54.840 10.277626
54.845 10.68397
54.850 11.013093
54.855 11.302773
54.860 11.631742
54.865 11.977043
54.870 11.953461
54.875 12.1294
54.880 12.548566
54.885 12.35372
54.890 12.516544
54.895 12.579688
54.900 13.035177
54.905 13.463804
54.910 13.092377
54.915 12.6708
54.920 12.803369
54.925 12.421841
54.930 12.167554
54.935 11.65699
54.940 11.155369
54.945 11.495355
54.950 12.086747
54.955 11.98013
54.960 11.866889
54.965 11.764183
54.970 12.291356
54.975 12.815138
54.980 12.390667
54.985 11.850284
54.990 11.59082
54.995 11.823036
55.000 12.195552
55.005 11.729919
55.010 11.743696
55.015 11.641899
55.020 11.446186
55.025 11.78253
55.030 11.974146
55.035 12.183373
55.040 11.883332
55.045 12.15584
55.050 12.357129
55.055 12.700572
55.060 12.914803
55.065 12.255662
55.070 12.180641
55.075 12.465534
55.080 12.564841
55.085 12.626108
55.090 12.33322
55.095 12.39505
55.100 12.835294
55.105 13.153469
55.110 13.189179
55.115 12.714775
55.120 12.548699
55.125 12.513585
55.130 12.493714
55.135 12.114254
55.140 11.797886
55.145 11.456228
55.150 11.557531
55.155 11.619968
55.160 12.015715
55.165 12.122662
55.170 12.257146
55.175 12.30409
55.180 12.438462
55.185 12.399677
55.190 12.072096
55.195 11.851661
55.200 12.013293
55.205 11.893474
55.210 11.958295
55.215 11.875834
55.220 12.178834
55.225 12.125283
55.230 11.864099
55.235 11.780472
55.240 11.636302
55.245 11.599187
55.250 11.605444
55.255 11.497224
55.260 11.71379
55.265 11.889304
55.270 11.529795
55.275 11.24607
55.280 11.414743
55.285 11.440324
55.290 11.44291
55.295 11.080072
55.300 11.20271
55.305 11.685914
55.310 12.05724
55.315 11.875481
55.320 11.890433
55.325 12.421431
55.330 12.688551
55.335 12.508204
55.340 12.460591
55.345 12.305837
55.350 12.52593
55.355 12.466956
55.360 12.046158
55.365 12.03051
55.370 11.835475
55.375 11.415145
55.380 11.789254
55.385 11.905903
55.390 12.452634
55.395 12.713223
55.400 12.202943
55.405 12.362153
55.410 12.659585
55.415 12.457788
55.420 12.101918
55.425 12.327343
55.430 12.355093
55.435 12.576428
55.440 13.09001
55.445 12.577028
55.450 12.871988
55.455 12.728295
55.460 12.339128
55.465 12.928466
55.470 13.680263
55.475 13.892014
55.480 13.923534
55.485 13.720989
55.490 13.690638
55.495 14.062209
55.500 13.855501
55.505 12.835925
55.510 12.383224
55.515 12.229907
55.520 12.320423
55.525 11.696152
55.530 10.736075
55.535 10.923786
55.540 11.528585
55.545 11.77195
55.550 11.95099
55.555 12.252933
55.560 13.124682
55.565 13.856274
55.570 13.939555
55.575 13.962339
55.580 14.422585
55.585 14.689106
55.590 14.563041
55.595 14.579807
55.600 14.034594
55.605 13.410029
55.610 13.475743
55.615 13.249359
55.620 12.710463
55.625 12.486117
55.630 11.84642
55.635 11.702573
55.640 11.616449
55.645 11.065843
55.650 11.21518
55.655 11.790041
55.660 11.817128
55.665 11.693745
55.670 11.792184
55.675 12.017842
55.680 12.197642
55.685 12.424084
55.690 12.246734
55.695 12.470407
55.700 12.93385
55.705 13.096938
55.710 13.443935
55.715 13.415672
55.720 13.10428
55.725 13.507113
55.730 13.65227
55.735 13.723099
55.740 13.125353
55.745 12.851076
55.750 12.791863
55.755 12.130014
55.760 11.965497
55.765 11.863475
55.770 12.482901
55.775 13.251537
55.780 13.542672
55.785 13.557756
55.790 13.642789
55.795 13.016985
55.800 13.284142
55.805 12.974195
55.810 12.812631
55.815 12.619974
55.820 13.170469
55.825 13.65796
55.830 13.808334
55.835 13.265863
55.840 13.158007
55.845 13.36477
55.850 13.470062
55.855 12.941124
55.860 13.250542
55.865 13.438334
55.870 13.925982
55.875 13.9333
55.880 13.062695
55.885 13.019414
55.890 13.271494
55.895 12.787053
55.900 12.324625
55.905 11.835135
55.910 11.694203
55.915 12.080968
55.920 11.588785
55.925 11.583843
55.930 11.830591
55.935 12.000394
55.940 12.47843
55.945 13.176021
55.950 13.382838
55.955 13.866473
55.960 13.690128
55.965 13.727139
55.970 14.077991
55.975 13.539837
55.980 12.831614
55.985 12.425471
55.990 12.456014
55.995 12.627294
56.000 12.681138
56.005 12.301979
56.010 13.077942
56.015 13.820786
56.020 14.144047
56.025 14.363626
56.030 14.721895
56.035 14.821085
56.040 14.332257
56.045 14.295931
56.050 14.035929
56.055 14.252003
56.060 13.766807
56.065 13.645286
56.070 14.048022
56.075 14.342857
56.080 13.394411
56.085 13.036418
56.090 12.780496
56.095 12.610203
56.100 12.017907
56.105 11.2913
56.110 11.232421
56.115 11.965219
56.120 12.156325
56.125 11.943518
56.130 12.12013
56.135 12.402598
56.140 13.162938
56.145 13.00604
56.150 12.077452
56.155 12.179959
56.160 11.955761
56.165 11.871774
56.170 12.097208
56.175 11.809611
56.180 12.100397
56.185 12.497455
56.190 12.70812
56.195 12.894623
56.200 12.973465
56.205 12.93682
56.210 13.141465
56.215 13.570438
56.220 13.778874
56.225 13.660619
56.230 14.101164
56.235 13.962595
56.240 14.109689
56.245 13.692346
56.250 13.3444
56.255 13.722225
56.260 14.280294
56.265 14.008863
56.270 14.162848
56.275 13.753454
56.280 13.864855
56.285 14.111485
56.290 13.827328
56.295 13.660206
56.300 13.782373
56.305 14.142973
56.310 14.752326
56.315 14.645541
56.320 14.571289
56.325 14.388632
56.330 14.416022
56.335 14.187621
56.340 13.603933
56.345 13.535876
56.350 13.438481
56.355 13.222863
56.360 13.55968
56.365 13.871287
56.370 13.92693
56.375 13.606356
56.380 13.128666
56.385 12.814462
56.390 12.345945
56.395 11.46062
56.400 11.114819
56.405 11.200534
56.410 11.657019
56.415 11.983597
56.420 12.970311
56.425 13.613919
56.430 14.099064
56.435 14.27386
56.440 14.47508
56.445 14.511499
56.450 14.57583
56.455 14.061728
56.460 13.841277
56.465 14.013235
56.470 13.773923
56.475 13.488201
56.480 13.272214
56.485 12.67681
56.490 12.986622
56.495 12.921968
56.500 12.619496
56.505 12.997233
56.510 13.770988
56.515 14.266374
56.520 14.976304
56.525 15.283257
56.530 15.561437
56.535 15.924217
56.540 15.729911
56.545 15.387148
56.550 15.366066
56.555 15.069561
56.560 14.307617
56.565 13.900591
56.570 13.77249
56.575 14.173866
56.580 13.91729
56.585 14.095868
56.590 14.42429
56.595 15.052595
56.600 15.24349
56.605 15.049031
56.610 14.354071
56.615 14.252175
56.620 14.283021
56.625 13.845231
56.630 13.657672
56.635 13.341127
56.640 13.027741
56.645 13.475589
56.650 13.611359
56.655 13.560475
56.660 13.576777
56.665 13.354156
56.670 13.542805
56.675 13.956235
56.680 14.004221
56.685 14.17371
56.690 14.329502
56.695 14.591385
56.700 14.82881
56.705 15.007051
56.710 14.966283
56.715 14.768589
56.720 14.486969
56.725 14.815258
56.730 15.303337
56.735 15.344691
56.740 15.330895
56.745 15.863875
56.750 16.243048
56.755 16.257332
56.760 15.60635
56.765 15.19691
56.770 14.677994
56.775 14.445171
56.780 14.054418
56.785 13.762284
56.790 13.668679
56.795 14.094879
56.800 13.658357
56.805 13.896577
56.810 14.172273
56.815 14.391104
56.820 14.817498
56.825 14.604908
56.830 14.580941
56.835 15.265192
56.840 15.085909
56.845 14.434362
56.850 14.010793
56.855 13.605662
56.860 13.724274
56.865 13.728401
56.870 14.103153
56.875 14.644547
56.880 14.947727
56.885 15.176617
56.890 15.603316
56.895 15.644253
56.900 14.955075
56.905 14.45449
56.910 14.245034
56.915 14.571606
56.920 14.727612
56.925 14.641707
56.930 14.41081
56.935 14.23792
56.940 14.274906
56.945 13.960066
56.950 13.394409
56.955 13.493776
56.960 13.600101
56.965 14.119197
56.970 14.204659
56.975 14.170957
56.980 14.758826
56.985 14.87385
56.990 14.652173
56.995 14.14955
57.000 13.992363
57.005 14.372958
57.010 14.746569
57.015 14.34453
57.020 14.262745
57.025 14.089525
57.030 14.058666
57.035 14.354115
57.040 14.794712
57.045 14.71091
57.050 15.169518
57.055 15.536876
57.060 15.418664
57.065 15.497809
57.070 15.158404
57.075 15.107738
57.080 14.889977
57.085 14.305054
57.090 14.375326
57.095 15.109186
57.100 15.597845
57.105 15.492609
57.110 14.40682
57.115 14.615762
57.120 14.687802
57.125 14.050591
57.130 13.62742
57.135 13.240661
57.140 13.556806
57.145 14.311956
57.150 14.303482
57.155 14.118773
57.160 14.153036
57.165 14.063305
57.170 14.339805
57.175 14.204042
57.180 14.313037
57.185 14.249869
57.190 14.61927
57.195 14.493064
57.200 14.233108
57.205 13.861483
57.210 13.779263
57.215 13.650638
57.220 13.879602
57.225 14.363771
57.230 14.817927
57.235 14.968577
57.240 15.102429
57.245 14.958164
57.250 14.889943
57.255 14.423601
57.260 13.929167
57.265 14.112907
57.270 14.526718
57.275 14.291263
57.280 14.534135
57.285 14.905332
57.290 15.152862
57.295 15.7019
57.300 15.956597
57.305 15.980238
57.310 16.158392
57.315 15.804107
57.320 15.654913
57.325 15.330328
57.330 14.633399
57.335 14.481878
57.340 14.257493
57.345 14.375977
57.350 15.33258
57.355 15.074001
57.360 15.207389
57.365 14.857604
57.370 14.870057
57.375 15.370849
57.380 15.634398
57.385 15.931307
57.390 15.79822
57.395 15.586085
57.400 15.645749
57.405 15.106384
57.410 14.615134
57.415 14.022927
57.420 13.077864
57.425 13.442639
57.430 14.301155
57.435 14.562512
57.440 14.771648
57.445 14.814943
57.450 15.036764
57.455 15.070822
57.460 14.964368
57.465 14.92361
57.470 14.746135
57.475 14.73393
57.480 14.94642
57.485 15.206372
57.490 15.623967
57.495 15.566154
57.500 15.359608
57.505 15.831297
57.510 16.021368
57.515 16.323526
57.520 16.525322
57.525 16.542738
57.530 16.770927
57.535 16.821655
57.540 16.842304
57.545 16.806349
57.550 16.067923
57.555 15.670225
57.560 15.628692
57.565 15.0001
57.570 14.718473
57.575 14.278101
57.580 14.253726
57.585 14.524454
57.590 15.025355
57.595 15.035191
57.600 15.785871
57.605 15.853962
57.610 15.506364
57.615 14.773771
57.620 14.508235
57.625 14.306555
57.630 14.592353
57.635 14.694385
57.640 15.117392
57.645 15.767159
57.650 16.251635
57.655 16.716858
57.660 16.175177
57.665 16.149578
57.670 16.095573
57.675 16.304209
57.680 16.351025
57.685 16.557302
57.690 16.593655
57.695 17.130829
57.700 16.543118
57.705 16.014566
57.710 16.067091
57.715 15.811351
57.720 15.934625
57.725 15.300087
57.730 15.598708
57.735 16.347971
57.740 16.408464
57.745 15.999048
57.750 16.033548
57.755 15.615089
57.760 16.21277
57.765 16.048925
57.770 15.752954
57.775 15.818603
57.780 15.931181
57.785 15.92607
57.790 16.150906
57.795 16.248463
57.800 15.907104
57.805 16.11965
57.810 16.041412
57.815 16.436531
57.820 16.64621
57.825 16.598116
57.830 15.967977
57.835 16.262882
57.840 16.468681
57.845 17.152807
57.850 16.677773
57.855 16.385443
57.860 16.186432
57.865 15.901124
57.870 15.548551
57.875 15.013386
57.880 14.40427
57.885 14.327953
57.890 14.432135
57.895 14.743637
57.900 15.432283
57.905 15.621329
57.910 16.269142
57.915 16.55711
57.920 16.716654
57.925 17.29517
57.930 17.577946
57.935 17.176065
57.940 17.49304
57.945 17.448298
57.950 17.787544
57.955 17.428179
57.960 17.10932
57.965 17.379414
57.970 18.032066
57.975 18.125731
57.980 18.356016
57.985 18.382168
57.990 18.691751
57.995 18.430323
58.000 17.914305
58.005 17.768755
58.010 17.07543
58.015 16.281219
58.020 16.146671
58.025 15.999216
58.030 16.363052
58.035 16.524014
58.040 16.374527
58.045 17.096422
58.050 17.895401
58.055 17.984818
58.060 18.354927
58.065 18.125307
58.070 17.9963
58.075 17.608219
58.080 17.539278
58.085 17.81271
58.090 17.656845
58.095 18.057335
58.100 18.027126
58.105 18.061165
58.110 18.563723
58.115 18.510859
58.120 17.75771
58.125 17.227715
58.130 17.34288
58.135 18.12653
58.140 18.462709
58.145 18.143053
58.150 18.204937
58.155 18.543919
58.160 18.915367
58.165 18.483164
58.170 18.103949
58.175 18.501816
58.180 19.525068
58.185 19.645384
58.190 20.236975
58.195 20.119663
58.200 20.419527
58.205 20.345818
58.210 19.974669
58.215 19.606863
58.220 19.415142
58.225 18.983829
58.230 18.9676
58.235 18.908642
58.240 19.260839
58.245 19.565294
58.250 19.901867
58.255 20.125368
58.260 20.631268
58.265 20.989897
58.270 21.093597
58.275 20.700171
58.280 20.470295
58.285 20.11042
58.290 20.545368
58.295 21.025358
58.300 21.265997
58.305 21.440475
58.310 21.924431
58.315 22.740419
58.320 23.451963
58.325 23.636049
58.330 24.024916
58.335 24.780256
58.340 25.316114
58.345 25.229738
58.350 25.662031
58.355 25.663712
58.360 25.404406
58.365 25.027042
58.370 24.740543
58.375 24.929937
58.380 24.69129
58.385 24.415117
58.390 24.714785
58.395 25.487982
58.400 25.961983
58.405 25.973808
58.410 26.55567
58.415 26.91247
58.420 26.748186
58.425 26.68824
58.430 26.226625
58.435 25.946217
58.440 26.588303
58.445 26.425501
58.450 26.815199
58.455 26.57976
58.460 27.264034
58.465 27.168825
58.470 27.025896
58.475 26.236589
58.480 26.107653
58.485 26.26738
58.490 27.467575
58.495 27.658663
58.500 28.342707
58.505 28.41918
58.510 29.100088
58.515 29.447639
58.520 29.499096
58.525 28.323812
58.530 27.244459
58.535 26.989578
58.540 27.687941
58.545 27.281347
58.550 27.104933
58.555 27.37952
58.560 28.276514
58.565 28.489286
58.570 28.62344
58.575 28.395355
58.580 29.101889
58.585 28.708897
58.590 28.858164
58.595 29.747051
58.600 30.482954
58.605 30.237474
58.610 29.769379
58.615 29.537415
58.620 30.112724
58.625 29.760077
58.630 29.541676
58.635 29.609041
58.640 30.434872
58.645 30.651014
58.650 30.231426
58.655 30.985674
58.660 30.985157
58.665 30.126394
58.670 30.127762
58.675 30.036953
58.680 30.100204
58.685 30.302927
58.690 29.892696
58.695 29.998705
58.700 29.663788
58.705 28.730244
58.710 28.725777
58.715 28.841248
58.720 28.097139
58.725 27.1936
58.730 26.589075
58.735 26.476616
58.740 27.359705
58.745 26.876875
58.750 26.537659
58.755 26.134384
58.760 26.355585
58.765 26.503443
58.770 26.089394
58.775 24.970329
58.780 25.163992
58.785 25.255558
58.790 25.53023
58.795 24.719503
58.800 24.501635
58.805 24.67123
58.810 23.93437
58.815 23.730997
58.820 23.157692
58.825 23.168604
58.830 23.831642
58.835 22.947586
58.840 22.253107
58.845 23.056057
58.850 22.780106
58.855 22.723776
58.860 22.344976
58.865 22.123308
58.870 23.36376
58.875 24.012262
58.880 23.336887
58.885 23.154943
58.890 22.901566
58.895 22.660469
58.900 22.822023
58.905 22.102398
58.910 21.324881
58.915 21.431656
58.920 21.367344
58.925 21.426992
58.930 21.515394
58.935 21.594316
58.940 21.175701
58.945 21.150705
58.950 20.651329
58.955 20.918425
58.960 21.620878
58.965 22.205923
58.970 21.683105
58.975 21.547125
58.980 21.319984
58.985 21.76626
58.990 21.154778
58.995 21.02462
59.000 20.397314
59.005 20.16699
59.010 20.14053
59.015 20.04944
59.020 19.886189
59.025 20.027988
59.030 19.894043
59.035 19.875748
59.040 19.922758
59.045 20.647413
59.050 20.949711
59.055 21.221828
59.060 21.525267
59.065 21.156593
59.070 21.091497
59.075 21.211195
59.080 21.312359
59.085 21.275021
59.090 20.595648
59.095 20.575199
59.100 20.450712
59.105 20.580648
59.110 20.326294
59.115 19.722166
59.120 19.738998
59.125 19.956738
59.130 19.237564
59.135 19.540144
59.140 19.764038
59.145 19.861967
59.150 19.774429
59.155 19.728708
59.160 19.547468
59.165 19.684114
59.170 19.327141
59.175 19.264799
59.180 19.006559
59.185 18.424223
59.190 18.049784
59.195 17.838268
59.200 17.73596
59.205 17.607294
59.210 17.043655
59.215 17.083263
59.220 17.518467
59.225 17.01688
59.230 17.029173
59.235 17.028114
59.240 16.999382
59.245 17.177385
59.250 17.600315
59.255 17.42214
59.260 17.665112
59.265 17.486628
59.270 17.114895
59.275 17.247272
59.280 17.370184
59.285 16.903788
59.290 16.666775
59.295 17.172226
59.300 17.270159
59.305 16.928232
59.310 16.709761
59.315 16.914598
59.320 16.94976
59.325 17.123766
59.330 16.780226
59.335 16.85367
59.340 16.823883
59.345 16.74749
59.350 16.21666
59.355 16.090523
59.360 15.896114
59.365 16.069252
59.370 15.955241
59.375 15.906311
59.380 15.748182
59.385 15.954392
59.390 16.518417
59.395 16.889326
59.400 16.756569
59.405 16.94528
59.410 17.405348
59.415 17.609093
59.420 17.281363
59.425 16.804535
59.430 16.711445
59.435 16.279137
59.440 16.556263
59.445 16.539246
59.450 16.44025
59.455 16.857674
59.460 17.336058
59.465 17.448721
59.470 17.966818
59.475 17.370842
59.480 17.034027
59.485 17.233692
59.490 17.21797
59.495 16.384142
59.500 15.886081
59.505 15.523327
59.510 16.173216
59.515 16.158432
59.520 16.344278
59.525 16.289032
59.530 16.513367
59.535 16.844254
59.540 16.839695
59.545 16.646513
59.550 16.797371
59.555 16.166372
59.560 15.539148
59.565 15.652172
59.570 15.669794
59.575 15.393639
59.580 15.187507
59.585 14.965987
59.590 15.191139
59.595 15.50438
59.600 15.451511
59.605 15.499096
59.610 15.725932
59.615 15.913711
59.620 16.418219
59.625 16.374828
59.630 16.255196
59.635 16.047525
59.640 15.804399
59.645 15.866502
59.650 16.06538
59.655 16.018694
59.660 16.616838
59.665 16.476046
59.670 16.28458
59.675 16.353617
59.680 16.423342
59.685 16.348732
59.690 16.08934
59.695 15.528687
59.700 16.476835
59.705 17.273321
59.710 17.167803
59.715 17.185259
59.720 17.088236
59.725 17.445135
59.730 17.771841
59.735 17.403603
59.740 17.355236
59.745 17.648764
59.750 18.326857
59.755 18.378452
59.760 18.528233
59.765 18.529295
59.770 18.757673
59.775 18.698212
59.780 18.219368
59.785 17.445951
59.790 16.831011
59.795 16.570621
59.800 16.820644
59.805 16.742214
59.810 16.071268
59.815 16.254068
59.820 16.640579
59.825 16.825932
59.830 16.8654
59.835 16.55113
59.840 16.018211
59.845 16.026207
59.850 15.915313
59.855 15.716669
59.860 15.331321
59.865 15.093431
59.870 14.735489
59.875 14.837504
59.880 14.754496
59.885 14.517926
59.890 14.424019
59.895 14.826609
59.900 14.894232
59.905 15.29197
59.910 15.078446
59.915 15.371838
59.920 15.481651
59.925 15.58227
59.930 15.245045
59.935 15.622676
59.940 15.659214
59.945 16.39591
59.950 16.634901
59.955 16.650885
59.960 17.123714
59.965 17.619436
59.970 17.59721
59.975 17.0991
59.980 16.708527
59.985 16.67445
59.990 17.008017
59.995 16.403412
60.000 16.150452
60.005 15.864613
60.010 15.894268
60.015 15.776014
60.020 15.940406
60.025 15.216331
60.030 15.374622
60.035 15.564991
60.040 16.083021
60.045 16.444878
60.050 17.086254
60.055 17.505259
60.060 17.837523
60.065 17.474789
60.070 16.97958
60.075 16.694651
60.080 16.522615
60.085 16.094564
60.090 15.665928
60.095 15.720132
60.100 16.284643
60.105 16.857388
60.110 17.156046
60.115 17.11363
60.120 16.839598
60.125 17.320305
60.130 17.642017
60.135 17.695942
60.140 17.630219
60.145 17.528711
60.150 17.833179
60.155 17.912428
60.160 17.312517
60.165 17.021402
60.170 17.143196
60.175 16.874289
60.180 16.700338
60.185 16.8591
60.190 16.712831
60.195 17.032898
60.200 16.732492
60.205 16.62373
60.210 16.914911
60.215 16.71019
60.220 16.455946
60.225 16.520065
60.230 15.976046
60.235 15.753012
60.240 15.40913
60.245 15.119011
60.250 15.127652
60.255 14.788952
60.260 15.028781
60.265 15.36863
60.270 15.910216
60.275 15.902857
60.280 16.030268
60.285 15.810931
60.290 16.123552
60.295 16.095791
60.300 16.38022
60.305 16.569529
60.310 17.146473
60.315 17.358309
60.320 17.373507
60.325 17.39739
60.330 17.350689
60.335 17.568205
60.340 17.473616
60.345 16.763805
60.350 16.504568
60.355 17.13171
60.360 17.06953
60.365 16.61561
60.370 15.928706
60.375 15.720911
60.380 16.288101
60.385 16.56897
60.390 16.496767
60.395 16.810513
60.400 17.317408
60.405 17.797047
60.410 17.945854
60.415 18.09481
60.420 18.336607
60.425 18.249765
60.430 17.866907
60.435 17.752151
60.440 17.705675
60.445 17.069565
60.450 16.682123
60.455 16.501001
60.460 16.581314
60.465 16.651714
60.470 16.446377
60.475 15.934363
60.480 16.538618
60.485 16.448807
60.490 16.474957
60.495 16.936705
60.500 17.119173
60.505 17.656277
60.510 17.740396
60.515 16.842278
60.520 16.576836
60.525 16.121595
60.530 15.400703
60.535 14.837847
60.540 14.493106
60.545 14.733068
60.550 15.226897
60.555 15.237174
60.560 15.299219
60.565 15.727035
60.570 15.893218
60.575 16.081776
60.580 16.309999
60.585 16.801426
60.590 16.938986
60.595 16.995947
60.600 16.701597
60.605 17.262236
60.610 17.384592
60.615 17.120771
60.620 17.117371
60.625 16.729383
60.630 16.145252
60.635 16.113577
60.640 15.929709
60.645 15.556948
60.650 15.64421
60.655 15.995189
60.660 16.074459
60.665 16.175608
60.670 16.073599
60.675 16.142342
60.680 16.30238
60.685 16.035915
60.690 15.550489
60.695 16.038252
60.700 16.215099
60.705 16.698177
60.710 17.031754
60.715 17.190104
60.720 17.141699
60.725 17.66503
60.730 17.507975
60.735 17.452719
60.740 17.224369
60.745 16.891178
60.750 16.837452
60.755 16.753839
60.760 16.233963
60.765 16.291563
60.770 16.378439
60.775 15.458946
60.780 15.60963
60.785 15.576983
60.790 15.172565
60.795 15.486208
60.800 15.945062
60.805 16.077787
60.810 16.520483
60.815 15.977523
60.820 16.23728
60.825 17.205244
60.830 17.373217
60.835 17.38974
60.840 17.487659
60.845 17.50519
60.850 17.635466
60.855 17.806473
60.860 17.05225
60.865 16.475527
60.870 16.126036
60.875 15.773587
60.880 15.456042
60.885 15.265834
60.890 15.317366
60.895 15.887384
60.900 15.883422
60.905 16.21113
60.910 16.651558
60.915 17.015142
60.920 16.898285
60.925 16.41539
60.930 15.840581
60.935 15.78185
60.940 15.783644
60.945 15.64555
60.950 15.623533
60.955 15.964638
60.960 15.854626
60.965 16.291191
60.970 16.584402
60.975 16.606657
60.980 17.023031
60.985 16.876635
60.990 16.891781
60.995 17.168844
61.000 16.471264
61.005 16.491035
61.010 16.352669
61.015 15.789936
61.020 15.411765
61.025 15.123775
61.030 15.335835
61.035 16.100586
61.040 15.836447
61.045 15.778653
61.050 16.233789
61.055 16.828312
61.060 16.818655
61.065 16.609068
61.070 16.70369
61.075 16.755121
61.080 17.132595
61.085 17.144621
61.090 17.034004
61.095 16.971409
61.100 16.648766
61.105 16.366629
61.110 16.26458
61.115 15.377208
61.120 15.106909
61.125 15.441738
61.130 15.830995
61.135 16.374912
61.140 16.618235
61.145 16.903938
61.150 17.126764
61.155 17.274221
61.160 17.147955
61.165 17.406775
61.170 17.208191
61.175 17.002871
61.180 17.042385
61.185 17.064754
61.190 16.700182
61.195 16.531189
61.200 15.918923
61.205 15.854345
61.210 15.485937
61.215 15.309647
61.220 15.800073
61.225 16.321539
61.230 16.79763
61.235 16.929232
61.240 17.270079
61.245 17.410276
61.250 17.6675
61.255 17.888969
61.260 17.527193
61.265 16.929878
61.270 16.946787
61.275 16.82206
61.280 17.053274
61.285 16.80438
61.290 16.553946
61.295 16.540096
61.300 16.719566
61.305 16.724785
61.310 16.652954
61.315 16.685982
61.320 16.603821
61.325 16.900925
61.330 17.196709
61.335 17.769951
61.340 18.079763
61.345 18.202168
61.350 18.557728
61.355 18.356789
61.360 17.845543
61.365 17.247755
61.370 16.449978
61.375 15.79751
61.380 15.812426
61.385 15.546638
61.390 15.601611
61.395 15.87044
61.400 16.564871
61.405 16.953617
61.410 17.053034
61.415 16.712044
61.420 16.653742
61.425 16.589548
61.430 16.38969
61.435 16.418739
61.440 17.017069
61.445 17.113274
61.450 17.477097
61.455 17.704765
61.460 18.131876
61.465 17.924202
61.470 17.601507
61.475 17.040567
61.480 17.245258
61.485 16.991608
61.490 16.849525
61.495 16.859541
61.500 17.148798
61.505 17.111595
61.510 16.758741
61.515 16.325838
61.520 15.788495
61.525 15.570382
61.530 15.517293
61.535 15.94495
61.540 16.138918
61.545 16.464798
61.550 16.816908
61.555 17.223408
61.560 17.476732
61.565 16.829224
61.570 16.308502
61.575 16.73292
61.580 17.307909
61.585 17.555254
61.590 17.774906
61.595 17.788763
61.600 18.278629
61.605 18.515301
61.610 18.784863
61.615 18.376711
61.620 18.200123
61.625 17.890329
61.630 18.098148
61.635 18.0891
61.640 18.083317
61.645 16.984694
61.650 16.477777
61.655 16.473766
61.660 16.639618
61.665 17.088839
61.670 17.041536
61.675 16.749369
61.680 17.243881
61.685 17.341949
61.690 16.758638
61.695 16.330767
61.700 15.971222
61.705 15.863214
61.710 15.742081
61.715 16.348169
61.720 16.506737
61.725 17.086464
61.730 17.287661
61.735 17.092999
61.740 16.89793
61.745 16.811554
61.750 16.085918
61.755 16.306211
61.760 16.160227
61.765 15.815635
61.770 15.741861
61.775 16.086109
61.780 16.268009
61.785 15.659618
61.790 15.649162
61.795 16.324602
61.800 17.094149
61.805 17.409136
61.810 17.656414
61.815 17.73081
61.820 18.55971
61.825 18.922705
61.830 18.53611
61.835 17.844103
61.840 17.879587
61.845 17.536554
61.850 17.883621
61.855 18.183683
61.860 17.965378
61.865 17.789141
61.870 17.574804
61.875 17.598875
61.880 18.189947
61.885 17.693913
61.890 18.04426
61.895 18.074461
61.900 18.387749
61.905 18.714453
61.910 18.2206
61.915 17.938776
61.920 18.028204
61.925 17.30134
61.930 16.988611
61.935 17.261353
61.940 17.456263
61.945 17.413029
61.950 16.851191
61.955 16.748913
61.960 16.866962
61.965 17.160051
61.970 16.837168
61.975 16.518045
61.980 16.970526
61.985 17.681631
61.990 17.393784
61.995 16.764147
62.000 16.193575
62.005 16.230379
62.010 16.840473
62.015 16.809406
62.020 16.473749
62.025 16.846453
62.030 17.010492
62.035 17.352112
62.040 17.189022
62.045 16.842936
62.050 16.826866
62.055 16.711449
62.060 16.629702
62.065 16.993408
62.070 16.83782
62.075 17.12978
62.080 17.286873
62.085 17.621754
62.090 17.778112
62.095 17.80751
62.100 17.082699
62.105 17.062515
62.110 17.082304
62.115 17.116495
62.120 16.755302
62.125 16.8678
62.130 17.140638
62.135 17.320282
62.140 17.357502
62.145 17.215414
62.150 16.963408
62.155 17.428448
62.160 17.51442
62.165 17.72492
62.170 18.494112
62.175 18.582127
62.180 18.34647
62.185 18.391462
62.190 18.103756
62.195 17.648912
62.200 17.277508
62.205 16.85067
62.210 16.996813
62.215 17.130753
62.220 16.935972
62.225 16.629984
62.230 16.650337
62.235 16.730993
62.240 16.710073
62.245 16.020771
62.250 15.896197
62.255 15.916126
62.260 16.353552
62.265 16.482159
62.270 15.958278
62.275 15.608732
62.280 16.100559
62.285 16.232479
62.290 16.343143
62.295 16.548508
62.300 16.777565
62.305 17.392229
62.310 17.654312
62.315 17.492708
62.320 17.472404
62.325 16.942581
62.330 16.225615
62.335 15.993014
62.340 16.100084
62.345 16.420805
62.350 16.5425
62.355 16.13769
62.360 16.926474
62.365 17.515232
62.370 17.982666
62.375 18.171879
62.380 17.860079
62.385 17.569098
62.390 17.737783
62.395 17.485704
62.400 17.550549
62.405 16.971071
62.410 17.162292
62.415 17.713409
62.420 17.744089
62.425 18.003481
62.430 17.857307
62.435 18.006535
62.440 18.444288
62.445 18.641508
62.450 18.659382
62.455 18.754238
62.460 18.880297
62.465 18.808413
62.470 18.613012
62.475 18.330906
62.480 17.910341
62.485 17.130081
62.490 17.155443
62.495 17.069117
62.500 17.362213
62.505 17.116693
62.510 17.332193
62.515 16.842922
62.520 17.340895
62.525 17.223722
62.530 17.021326
62.535 16.835268
62.540 16.873468
62.545 16.49415
62.550 16.904484
62.555 17.016228
62.560 16.86652
62.565 16.836147
62.570 16.681944
62.575 16.540108
62.580 16.518381
62.585 16.456343
62.590 16.265741
62.595 16.497475
62.600 16.669048
62.605 16.844143
62.610 16.614901
62.615 17.032305
62.620 16.878325
62.625 16.924856
62.630 16.952332
62.635 16.849211
62.640 17.114695
62.645 17.606506
62.650 17.428419
62.655 17.812834
62.660 17.697468
62.665 18.012022
62.670 17.842327
62.675 17.935919
62.680 17.918016
62.685 17.535686
62.690 17.621832
62.695 18.14707
62.700 17.519112
62.705 17.700142
62.710 17.679689
62.715 17.718298
62.720 17.741964
62.725 17.788124
62.730 17.849506
62.735 18.019594
62.740 17.624191
62.745 17.358393
62.750 17.889694
62.755 18.320648
62.760 17.550451
62.765 17.297148
62.770 17.725904
62.775 17.967894
62.780 17.781197
62.785 17.25428
62.790 17.360842
62.795 17.505198
62.800 17.656975
62.805 17.772543
62.810 18.210812
62.815 18.530937
62.820 18.536606
62.825 18.751934
62.830 19.674721
62.835 19.635506
62.840 19.740305
62.845 19.563522
62.850 19.481342
62.855 19.3596
62.860 18.990807
62.865 18.396273
62.870 18.161097
62.875 17.701426
62.880 17.849821
62.885 17.435932
62.890 17.314131
62.895 16.813763
62.900 16.154127
62.905 15.880702
62.910 15.638264
62.915 15.992559
62.920 16.314201
62.925 15.978475
62.930 15.587186
62.935 15.50253
62.940 15.97154
62.945 16.01672
62.950 15.644666
62.955 15.834548
62.960 16.396742
62.965 17.046469
62.970 17.773052
62.975 17.704529
62.980 18.147955
62.985 18.524857
62.990 18.669224
62.995 18.347164
63.000 18.53503
63.005 18.599609
63.010 19.272911
63.015 19.097996
63.020 19.146868
63.025 19.331591
63.030 19.449652
63.035 19.45583
63.040 18.803656
63.045 18.476587
63.050 18.613232
63.055 18.386955
63.060 18.326334
63.065 18.412245
63.070 18.36544
63.075 18.854977
63.080 19.074062
63.085 18.85635
63.090 18.320179
63.095 18.031319
63.100 17.507124
63.105 17.599236
63.110 18.187998
63.115 18.174963
63.120 17.573647
63.125 18.115129
63.130 18.644354
63.135 19.220455
63.140 19.564493
63.145 18.859888
63.150 18.424988
63.155 18.789417
63.160 18.209272
63.165 17.754173
63.170 18.549356
63.175 18.537035
63.180 19.101223
63.185 19.357496
63.190 19.450056
63.195 19.99844
63.200 20.516848
63.205 19.867151
63.210 19.550043
63.215 19.282612
63.220 18.689348
63.225 17.425575
63.230 16.814619
63.235 16.777706
63.240 16.518
63.245 16.36994
63.250 16.287537
63.255 16.575541
63.260 17.529793
63.265 17.877132
63.270 17.522093
63.275 17.538166
63.280 17.98098
63.285 18.310957
63.290 18.489344
63.295 18.571331
63.300 19.02725
63.305 19.11208
63.310 19.116541
63.315 19.140469
63.320 19.118378
63.325 19.083887
63.330 19.131475
63.335 18.034161
63.340 17.757607
63.345 17.637125
63.350 16.888302
63.355 16.158979
63.360 16.247818
63.365 16.585863
63.370 17.590317
63.375 17.564861
63.380 18.186382
63.385 18.479603
63.390 18.965805
63.395 19.792891
63.400 19.531189
63.405 19.03492
63.410 19.222298
63.415 18.608807
63.420 18.828558
63.425 18.375521
63.430 18.305096
63.435 18.856743
63.440 19.31122
63.445 19.479288
63.450 19.735859
63.455 20.093033
63.460 20.651377
63.465 20.299797
63.470 19.854961
63.475 19.323502
63.480 19.358614
63.485 19.356537
63.490 19.350002
63.495 19.357183
63.500 19.259476
63.505 18.865067
63.510 18.949081
63.515 18.989313
63.520 19.175316
63.525 19.114397
63.530 19.221266
63.535 19.627703
63.540 20.024536
63.545 20.613607
63.550 20.217199
63.555 19.483791
63.560 19.612465
63.565 19.412615
63.570 18.880978
63.575 18.701757
63.580 18.314095
63.585 18.717972
63.590 19.102219
63.595 18.969299
63.600 18.381437
63.605 18.927992
63.610 19.268511
63.615 19.659967
63.620 19.752943
63.625 20.121153
63.630 20.682762
63.635 21.611212
63.640 21.544973
63.645 21.793209
63.650 21.85972
63.655 22.410568
63.660 22.368238
63.665 22.013618
63.670 22.156151
63.675 21.759333
63.680 21.65617
63.685 21.741707
63.690 21.523422
63.695 21.433367
63.700 20.695202
63.705 20.42531
63.710 20.472961
63.715 20.47994
63.720 20.265863
63.725 20.003872
63.730 20.640642
63.735 21.356905
63.740 21.435682
63.745 21.816137
63.750 21.985672
63.755 22.064518
63.760 22.185591
63.765 22.2812
63.770 22.612257
63.775 22.377502
63.780 22.267471
63.785 22.015139
63.790 22.311975
63.795 22.144947
63.800 21.781067
63.805 21.877398
63.810 21.937414
63.815 22.161198
63.820 22.416183
63.825 22.65085
63.830 22.702291
63.835 23.031889
63.840 23.754725
63.845 23.89253
63.850 23.802792
63.855 23.678974
63.860 23.924103
63.865 24.535444
63.870 24.746033
63.875 24.497578
63.880 25.1259
63.885 25.417038
63.890 25.563612
63.895 25.2195
63.900 25.2017
63.905 25.321953
63.910 26.041822
63.915 25.664406
63.920 25.975138
63.925 25.921736
63.930 26.33872
63.935 26.136156
63.940 26.416985
63.945 26.129236
63.950 26.64834
63.955 27.193436
63.960 28.017639
63.965 28.487799
63.970 29.011185
63.975 29.114773
63.980 29.885748
63.985 30.239307
63.990 29.713644
63.995 29.215105
64.000 29.404772
64.005 30.203094
64.010 31.112413
64.015 31.594692
64.020 32.51265
64.025 33.143913
64.030 33.891308
64.035 34.595787
64.040 33.791992
64.045 32.974556
64.050 32.693066
64.055 33.020763
64.060 33.223011
64.065 32.474567
64.070 31.724998
64.075 32.093678
64.080 32.602852
64.085 32.206718
64.090 31.734112
64.095 31.758419
64.100 32.080921
64.105 32.49189
64.110 32.138962
64.115 32.668892
64.120 32.856884
64.125 31.899427
64.130 31.981647
64.135 31.864595
64.140 31.411413
64.145 31.789499
64.150 31.620092
64.155 31.433859
64.160 32.277691
64.165 32.46413
64.170 32.432812
64.175 32.757256
64.180 32.14249
64.185 31.873369
64.190 32.514809
64.195 31.548018
64.200 31.367617
64.205 31.664415
64.210 32.309147
64.215 32.965176
64.220 32.779232
64.225 33.150951
64.230 33.953568
64.235 34.628834
64.240 35.094379
64.245 34.287838
64.250 34.072884
64.255 34.150654
64.260 33.386528
64.265 33.348022
64.270 33.239761
64.275 32.767242
64.280 33.29438
64.285 33.8386
64.290 33.169025
64.295 33.433743
64.300 33.392437
64.305 32.903275
64.310 32.795349
64.315 32.464375
64.320 32.183594
64.325 32.998173
64.330 32.614544
64.335 32.626392
64.340 32.77935
64.345 33.040359
64.350 32.902889
64.355 32.909355
64.360 32.638962
64.365 33.654053
64.370 33.06958
64.375 33.273399
64.380 32.883327
64.385 32.715851
64.390 32.309528
64.395 33.210663
64.400 32.870781
64.405 32.338192
64.410 31.850941
64.415 31.279808
64.420 30.898663
64.425 30.856037
64.430 30.256752
64.435 30.150604
64.440 30.671825
64.445 30.654947
64.450 30.865776
64.455 31.109636
64.460 30.424706
64.465 30.035873
64.470 29.083946
64.475 29.159325
64.480 28.783194
64.485 28.789335
64.490 28.443596
64.495 28.869455
64.500 28.787798
64.505 28.826426
64.510 28.036629
64.515 27.24843
64.520 27.355331
64.525 27.125416
64.530 27.123753
64.535 26.371401
64.540 26.332294
64.545 27.112938
64.550 27.585173
64.555 27.536734
64.560 27.5802
64.565 27.254114
64.570 27.570366
64.575 27.054327
64.580 26.524094
64.585 26.265102
64.590 25.959242
64.595 25.819197
64.600 25.463062
64.605 25.219042
64.610 25.549025
64.615 25.430305
64.620 25.269533
64.625 24.996496
64.630 24.613245
64.635 24.254957
64.640 24.235054
64.645 23.608267
64.650 23.59761
64.655 23.744232
64.660 24.099373
64.665 24.125919
64.670 24.524654
64.675 24.818298
64.680 24.970245
64.685 24.677944
64.690 24.063917
64.695 23.871468
64.700 23.899818
64.705 23.195787
64.710 22.489946
64.715 22.352848
64.720 22.358862
64.725 23.121426
64.730 23.12229
64.735 23.042526
64.740 23.626549
64.745 23.805239
64.750 24.54081
64.755 24.73406
64.760 23.909058
64.765 23.741411
64.770 23.319569
64.775 21.945684
64.780 21.168699
64.785 20.040501
64.790 20.018505
64.795 20.248642
64.800 20.503479
64.805 21.095379
64.810 21.939747
64.815 22.794973
64.820 23.499382
64.825 23.334715
64.830 23.482698
64.835 23.505106
64.840 23.625923
64.845 23.422388
64.850 23.216385
64.855 22.601582
64.860 22.862125
64.865 22.283949
64.870 22.214941
64.875 22.070642
64.880 22.399019
64.885 22.267673
64.890 22.876434
64.895 22.726894
64.900 23.063192
64.905 22.610235
64.910 22.364929
64.915 21.632509
64.920 21.500368
64.925 21.249166
64.930 20.924366
64.935 20.740885
64.940 21.297188
64.945 22.152588
64.950 22.726093
64.955 23.204557
64.960 23.256754
64.965 23.987478
64.970 23.942068
64.975 23.65539
64.980 23.163778
64.985 23.335121
64.990 23.034298
64.995 23.358341
65.000 23.324896
65.005 23.973072
65.010 24.236679
65.015 24.350531
65.020 24.698021
65.025 24.675041
65.030 24.378672
65.035 24.741529
65.040 24.707329
65.045 25.115664
65.050 25.336596
65.055 25.407658
65.060 25.316647
65.065 24.902868
65.070 24.426014
65.075 23.770769
65.080 23.198717
65.085 22.689243
65.090 22.642618
65.095 22.806917
65.100 23.457113
65.105 23.704716
65.110 24.44791
65.115 24.977167
65.120 25.58357
65.125 25.871822
65.130 25.672104
65.135 25.465668
65.140 25.550766
65.145 25.250387
65.150 24.615818
65.155 23.804876
65.160 23.138288
65.165 22.860434
65.170 22.944599
65.175 22.266392
65.180 21.80031
65.185 21.77076
65.190 22.149693
65.195 22.21167
65.200 22.073849
65.205 21.907112
65.210 22.46104
65.215 22.533642
65.220 22.078354
65.225 21.863754
65.230 21.987423
65.235 21.642279
65.240 21.567757
65.245 20.870142
65.250 21.762594
65.255 22.243736
65.260 22.213657
65.265 22.566965
65.270 22.753361
65.275 22.647474
65.280 22.871977
65.285 22.220676
65.290 22.394899
65.295 22.00312
65.300 21.726719
65.305 22.0347
65.310 22.435593
65.315 22.688015
65.320 22.883078
65.325 22.930239
65.330 22.676983
65.335 22.954388
65.340 23.836992
65.345 24.263737
65.350 24.573088
65.355 24.620375
65.360 25.067091
65.365 25.412134
65.370 25.607477
65.375 25.529016
65.380 25.718058
65.385 25.343519
65.390 25.399271
65.395 25.198343
65.400 25.066751
65.405 24.110945
65.410 23.595421
65.415 23.024162
65.420 22.980852
65.425 23.05208
65.430 23.476999
65.435 24.260412
65.440 24.46162
65.445 24.740587
65.450 24.812477
65.455 25.202198
65.460 24.813763
65.465 24.313168
65.470 23.753633
65.475 23.511889
65.480 22.900139
65.485 23.22209
65.490 22.957691
65.495 23.392704
65.500 23.612608
65.505 23.751957
65.510 23.616199
65.515 23.537567
65.520 23.704235
65.525 24.197287
65.530 23.91313
65.535 24.360781
65.540 24.915833
65.545 25.522224
65.550 25.649004
65.555 25.618221
65.560 25.680185
65.565 25.729134
65.570 26.042122
65.575 26.361084
65.580 27.591425
65.585 27.563696
65.590 26.730331
65.595 26.394638
65.600 25.980677
65.605 25.125114
65.610 24.596106
65.615 24.199583
65.620 24.890076
65.625 25.913435
65.630 25.911135
65.635 26.320787
65.640 26.110981
65.645 26.110569
65.650 26.093576
65.655 26.288153
65.660 26.717932
65.665 27.786522
65.670 28.442566
65.675 28.734743
65.680 28.900517
65.685 28.258333
65.690 27.769274
65.695 27.281248
65.700 26.638649
65.705 26.405485
65.710 26.566788
65.715 26.915112
65.720 27.549587
65.725 27.705999
65.730 27.920315
65.735 27.755548
65.740 27.939791
65.745 28.445755
65.750 28.434082
65.755 28.463495
65.760 28.132376
65.765 28.285486
65.770 29.201761
65.775 29.923471
65.780 29.716267
65.785 30.206116
65.790 30.389032
65.795 31.103876
65.800 30.956915
65.805 30.693201
65.810 30.950516
65.815 31.482922
65.820 31.74243
65.825 32.084728
65.830 32.575756
65.835 33.399471
65.840 33.467854
65.845 32.739262
65.850 32.760689
65.855 33.003941
65.860 33.308895
65.865 33.56847
65.870 33.387524
65.875 33.880917
65.880 34.308933
65.885 34.260544
65.890 33.922726
65.895 33.559288
65.900 33.874664
65.905 34.473366
65.910 34.751999
65.915 35.299881
65.920 35.95034
65.925 36.714901
65.930 36.702057
65.935 36.977295
65.940 36.955349
65.945 36.989403
65.950 36.726215
65.955 36.436714
65.960 36.303047
65.965 36.4053
65.970 36.157707
65.975 36.178162
65.980 36.364334
65.985 35.931129
65.990 35.83926
65.995 35.933521
66.000 36.004925
66.005 35.796021
66.010 35.337261
66.015 34.997047
66.020 35.084164
66.025 35.243103
66.030 35.23074
66.035 34.97839
66.040 34.683254
66.045 34.805832
66.050 34.485909
66.055 34.56765
66.060 34.432312
66.065 35.019688
66.070 35.338711
66.075 35.812939
66.080 36.026947
66.085 36.720856
66.090 37.287651
66.095 37.80093
66.100 37.587219
66.105 37.33342
66.110 37.318871
66.115 37.390244
66.120 37.390388
66.125 37.494816
66.130 37.874916
66.135 38.420612
66.140 39.707474
66.145 39.79353
66.150 39.408535
66.155 39.302784
66.160 39.064949
66.165 38.878685
66.170 38.579399
66.175 37.858677
66.180 37.634346
66.185 37.619534
66.190 37.536568
66.195 37.546154
66.200 36.809982
66.205 36.268234
66.210 36.658245
66.215 37.420998
66.220 37.925331
66.225 37.756927
66.230 37.229191
66.235 37.901913
66.240 38.272274
66.245 37.849823
66.250 37.296089
66.255 37.307961
66.260 37.156425
66.265 38.482201
66.270 38.237621
66.275 37.637173
66.280 37.569336
66.285 37.458351
66.290 36.897274
66.295 36.696587
66.300 35.468311
66.305 35.31599
66.310 35.102718
66.315 34.626408
66.320 34.213112
66.325 33.842625
66.330 34.617878
66.335 34.411568
66.340 34.888847
66.345 35.326534
66.350 35.329926
66.355 35.469158
66.360 36.204704
66.365 35.163658
66.370 34.682846
66.375 33.805283
66.380 33.483124
66.385 32.830795
66.390 32.619205
66.395 32.169624
66.400 32.094196
66.405 32.002773
66.410 32.382214
66.415 32.070648
66.420 32.182568
66.425 31.894176
66.430 31.655516
66.435 32.282082
66.440 32.508392
66.445 31.99036
66.450 32.0681
66.455 30.955278
66.460 30.120714
66.465 29.259758
66.470 28.707218
66.475 28.65041
66.480 28.5184
66.485 28.989082
66.490 29.613314
66.495 29.885834
66.500 30.165705
66.505 29.844753
66.510 29.134077
66.515 28.233746
66.520 27.880615
66.525 28.072775
66.530 27.878609
66.535 27.142305
66.540 26.38851
66.545 25.670567
66.550 25.671827
66.555 25.077587
66.560 24.669882
66.565 24.759308
66.570 24.683281
66.575 24.964045
66.580 25.427963
66.585 24.903143
66.590 24.69158
66.595 24.03134
66.600 23.607668
66.605 23.797525
66.610 23.771008
66.615 23.107769
66.620 23.157251
66.625 23.549702
66.630 23.30307
66.635 23.402308
66.640 23.607697
66.645 23.573154
66.650 23.755491
66.655 23.452744
66.660 22.750025
66.665 22.678379
66.670 22.205364
66.675 21.783543
66.680 21.653584
66.685 21.195208
66.690 20.85675
66.695 20.766659
66.700 20.632799
66.705 21.054176
66.710 21.283676
66.715 21.627794
66.720 21.829962
66.725 21.693871
66.730 21.811413
66.735 21.703922
66.740 20.945129
66.745 20.503635
66.750 20.619684
66.755 20.326286
66.760 20.260885
66.765 19.857044
66.770 19.610458
66.775 20.525324
66.780 20.450403
66.785 20.079437
66.790 19.781042
66.795 19.519541
66.800 20.373011
66.805 20.624775
66.810 20.083353
66.815 19.909559
66.820 19.334579
66.825 19.415224
66.830 20.403767
66.835 19.940462
66.840 19.899618
66.845 20.12517
66.850 20.130501
66.855 20.500969
66.860 20.97912
66.865 20.463625
66.870 20.860384
66.875 21.344872
66.880 21.893621
66.885 22.259047
66.890 21.707178
66.895 21.200714
66.900 21.132895
66.905 20.727669
66.910 20.463694
66.915 20.220156
66.920 20.062683
66.925 20.115482
66.930 20.174625
66.935 19.861671
66.940 19.539623
66.945 19.464355
66.950 19.068966
66.955 19.233767
66.960 19.202929
66.965 18.998117
66.970 18.859058
66.975 18.750252
66.980 18.079063
66.985 17.783058
66.990 17.911087
66.995 18.289364
67.000 18.020916
67.005 18.055353
67.010 18.688044
67.015 18.874294
67.020 18.938644
67.025 19.060505
67.030 19.181717
67.035 19.644564
67.040 19.55295
67.045 19.14296
67.050 19.493086
67.055 19.652899
67.060 19.675547
67.065 19.881992
67.070 21.165876
67.075 21.830322
67.080 22.04084
67.085 22.047375
67.090 22.066034
67.095 21.786551
67.100 21.647402
67.105 20.337347
67.110 19.609995
67.115 19.08024
67.120 18.961714
67.125 19.543285
67.130 19.278214
67.135 19.023247
67.140 19.119226
67.145 19.642992
67.150 19.752291
67.155 20.001799
67.160 19.597092
67.165 19.492622
67.170 19.514797
67.175 19.142639
67.180 18.54546
67.185 18.847633
67.190 19.00885
67.195 19.054392
67.200 19.555481
67.205 20.359106
67.210 21.211227
67.215 21.774147
67.220 21.566132
67.225 21.011091
67.230 20.866264
67.235 20.590483
67.240 19.615091
67.245 19.163763
67.250 18.73111
67.255 18.613836
67.260 18.969404
67.265 19.033678
67.270 19.129684
67.275 19.11677
67.280 19.011372
67.285 19.227865
67.290 19.697001
67.295 19.840319
67.300 19.555382
67.305 19.415375
67.310 19.060658
67.315 18.703531
67.320 18.446775
67.325 17.782885
67.330 17.777031
67.335 18.026077
67.340 18.528847
67.345 19.105131
67.350 19.439054
67.355 19.190557
67.360 19.133186
67.365 18.980955
67.370 18.997021
67.375 19.033689
67.380 19.73105
67.385 20.103193
67.390 20.039803
67.395 19.927656
67.400 19.99972
67.405 20.113943
67.410 20.434641
67.415 19.991434
67.420 20.068909
67.425 20.906286
67.430 21.180784
67.435 21.039204
67.440 20.170933
67.445 20.097914
67.450 19.855597
67.455 20.015205
67.460 19.43368
67.465 19.529762
67.470 20.223955
67.475 20.819128
67.480 21.066769
67.485 21.388222
67.490 21.263279
67.495 22.108114
67.500 22.563686
67.505 21.929626
67.510 22.03422
67.515 22.437716
67.520 22.705915
67.525 22.850866
67.530 22.462275
67.535 21.429441
67.540 21.293726
67.545 20.400463
67.550 19.715675
67.555 19.106812
67.560 17.9858
67.565 17.894377
67.570 17.978952
67.575 17.641768
67.580 17.692513
67.585 17.60453
67.590 18.087727
67.595 18.785255
67.600 18.469542
67.605 18.733118
67.610 19.368977
67.615 19.738729
67.620 20.197857
67.625 20.15457
67.630 20.150827
67.635 20.376804
67.640 20.691765
67.645 20.525455
67.650 20.847967
67.655 20.862089
67.660 20.505493
67.665 20.264668
67.670 20.327803
67.675 20.152771
67.680 20.282537
67.685 20.202051
67.690 19.308409
67.695 19.406389
67.700 19.475245
67.705 19.555872
67.710 19.639458
67.715 19.373009
67.720 19.153946
67.725 19.673147
67.730 19.868656
67.735 20.154028
67.740 20.102098
67.745 20.061365
67.750 19.93782
67.755 19.664982
67.760 19.250418
67.765 18.898001
67.770 18.717096
67.775 18.862244
67.780 18.224766
67.785 18.18804
67.790 18.445021
67.795 18.511087
67.800 18.629271
67.805 18.172827
67.810 17.784809
67.815 17.983387
67.820 17.950935
67.825 17.464716
67.830 17.543867
67.835 17.793398
67.840 18.164473
67.845 17.836906
67.850 17.711245
67.855 17.707787
67.860 18.12228
67.865 18.206964
67.870 18.323027
67.875 18.805534
67.880 19.043308
67.885 19.042065
67.890 19.055811
67.895 19.372917
67.900 19.533068
67.905 19.623377
67.910 19.323618
67.915 19.923615
67.920 19.782642
67.925 19.26507
67.930 19.115499
67.935 18.949924
67.940 18.894943
67.945 18.80838
67.950 18.681713
67.955 19.182739
67.960 19.360344
67.965 19.229979
67.970 18.979248
67.975 19.098204
67.980 19.317003
67.985 19.030855
67.990 19.104038
67.995 18.953659
68.000 19.331827
68.005 19.910049
68.010 19.344206
68.015 19.419706
68.020 20.061993
68.025 20.12747
68.030 19.970686
68.035 19.602676
68.040 19.491375
68.045 19.803366
68.050 19.932606
68.055 19.340265
68.060 19.732681
68.065 20.182909
68.070 19.80549
68.075 19.95146
68.080 20.153784
68.085 20.405642
68.090 20.910574
68.095 20.815155
68.100 20.95075
68.105 21.701326
68.110 21.625525
68.115 21.111835
68.120 20.895081
68.125 20.533869
68.130 20.129627
68.135 19.766386
68.140 19.137852
68.145 19.309233
68.150 20.004276
68.155 19.877399
68.160 20.046247
68.165 19.698896
68.170 19.368408
68.175 19.487755
68.180 18.668297
68.185 18.133196
68.190 18.660526
68.195 19.648485
68.200 19.888319
68.205 19.86504
68.210 19.803513
68.215 20.853413
68.220 20.23708
68.225 19.822277
68.230 19.443737
68.235 19.40082
68.240 19.569439
68.245 20.308613
68.250 20.169111
68.255 20.334412
68.260 20.2724
68.265 20.495966
68.270 20.767382
68.275 20.580141
68.280 19.611208
68.285 19.314434
68.290 18.775171
68.295 18.447561
68.300 18.024357
68.305 18.110746
68.310 18.029526
68.315 17.959101
68.320 17.814207
68.325 18.346889
68.330 18.422897
68.335 19.568291
68.340 20.10878
68.345 20.420729
68.350 21.14114
68.355 21.601862
68.360 21.589931
68.365 21.720562
68.370 20.845381
68.375 20.256468
68.380 19.984915
68.385 20.081095
68.390 20.43222
68.395 20.308296
68.400 19.530346
68.405 19.272886
68.410 19.543608
68.415 19.792789
68.420 19.172726
68.425 19.433849
68.430 19.655228
68.435 19.76112
68.440 20.283697
68.445 20.20359
68.450 20.031385
68.455 20.518278
68.460 20.221336
68.465 20.495441
68.470 20.442127
68.475 20.440426
68.480 20.302864
68.485 20.471029
68.490 20.780933
68.495 20.827705
68.500 20.881041
68.505 20.696859
68.510 21.231592
68.515 21.452356
68.520 20.742121
68.525 20.40074
68.530 20.435848
68.535 20.292656
68.540 20.239212
68.545 19.594883
68.550 19.49975
68.555 19.834644
68.560 20.080956
68.565 20.13233
68.570 20.469597
68.575 20.629236
68.580 20.705738
68.585 21.505527
68.590 21.586676
68.595 21.041225
68.600 20.694736
68.605 20.335918
68.610 20.935411
68.615 21.25849
68.620 20.892363
68.625 21.502159
68.630 22.291512
68.635 23.36698
68.640 23.435843
68.645 23.000828
68.650 23.227398
68.655 23.173483
68.660 22.937489
68.665 22.498196
68.670 22.351736
68.675 22.491444
68.680 22.673367
68.685 22.665146
68.690 22.236822
68.695 22.023258
68.700 21.693979
68.705 22.183451
68.710 22.137522
68.715 22.132771
68.720 22.241665
68.725 22.971046
68.730 23.383131
68.735 23.587587
68.740 23.480434
68.745 23.485456
68.750 23.189747
68.755 23.982115
68.760 24.544186
68.765 24.93652
68.770 25.596077
68.775 25.629459
68.780 26.20965
68.785 26.064272
68.790 25.031796
68.795 25.432486
68.800 25.46966
68.805 24.955822
68.810 25.377657
68.815 25.628189
68.820 26.030622
68.825 26.185375
68.830 25.772655
68.835 25.722389
68.840 25.955921
68.845 25.250324
68.850 25.178715
68.855 25.043175
68.860 25.603928
68.865 25.314209
68.870 26.103556
68.875 26.165661
68.880 26.759768
68.885 27.274803
68.890 27.581429
68.895 27.834387
68.900 28.348394
68.905 28.477663
68.910 28.775089
68.915 28.849422
68.920 28.927298
68.925 28.753941
68.930 28.567234
68.935 28.090847
68.940 27.55946
68.945 27.784815
68.950 27.8922
68.955 27.855564
68.960 28.272718
68.965 27.867687
68.970 28.569275
68.975 29.335464
68.980 29.042185
68.985 29.165449
68.990 29.252411
68.995 29.281954
69.000 30.019323
69.005 30.063534
69.010 29.641176
69.015 29.408073
69.020 28.633976
69.025 28.917305
69.030 29.025108
69.035 29.216232
69.040 29.265665
69.045 29.27858
69.050 30.11105
69.055 30.553135
69.060 30.371611
69.065 30.330919
69.070 29.913017
69.075 29.733137
69.080 30.142727
69.085 30.974062
69.090 31.451654
69.095 31.626205
69.100 32.144447
69.105 32.733147
69.110 33.457676
69.115 34.207951
69.120 34.381584
69.125 35.245113
69.130 36.106014
69.135 35.733418
69.140 35.640202
69.145 35.74744
69.150 34.205662
69.155 33.994396
69.160 33.233044
69.165 32.488415
69.170 33.030491
69.175 32.649361
69.180 32.532154
69.185 33.44627
69.190 33.211052
69.195 33.576241
69.200 33.66188
69.205 33.767818
69.210 34.456039
69.215 33.917728
69.220 34.101589
69.225 34.238628
69.230 33.691647
69.235 33.275818
69.240 32.793255
69.245 33.270653
69.250 33.299103
69.255 32.731678
69.260 33.275394
69.265 33.639191
69.270 33.901119
69.275 33.725956
69.280 33.129875
69.285 33.916885
69.290 33.725136
69.295 33.526241
69.300 33.66798
69.305 34.25716
69.310 35.954308
69.315 36.09375
69.320 36.372139
69.325 36.15242
69.330 35.445229
69.335 35.439743
69.340 35.276134
69.345 34.573421
69.350 34.74551
69.355 34.832005
69.360 34.816418
69.365 34.91423
69.370 35.257488
69.375 35.688351
69.380 35.497875
69.385 35.323093
69.390 34.688137
69.395 34.767967
69.400 34.929855
69.405 33.715664
69.410 32.968643
69.415 33.26812
69.420 32.315136
69.425 32.468212
69.430 33.046345
69.435 33.17704
69.440 33.714066
69.445 33.693165
69.450 33.416615
69.455 33.878582
69.460 33.049679
69.465 32.252636
69.470 32.097294
69.475 31.888456
69.480 31.718542
69.485 31.614859
69.490 31.123413
69.495 31.545393
69.500 31.309351
69.505 31.111109
69.510 31.164156
69.515 30.819208
69.520 30.433771
69.525 30.698515
69.530 30.354654
69.535 30.512829
69.540 30.485556
69.545 30.569731
69.550 30.729851
69.555 30.826283
69.560 31.114639
69.565 31.102459
69.570 31.535759
69.575 31.432892
69.580 30.74231
69.585 31.103773
69.590 31.553886
69.595 31.519379
69.600 30.473234
69.605 29.594793
69.610 29.263044
69.615 28.935307
69.620 27.929764
69.625 27.987471
69.630 28.098429
69.635 28.307318
69.640 28.865534
69.645 28.743292
69.650 29.009052
69.655 28.854101
69.660 28.159716
69.665 28.04916
69.670 28.1134
69.675 28.01359
69.680 27.936195
69.685 28.408218
69.690 28.445156
69.695 28.656118
69.700 28.654987
69.705 28.616819
69.710 28.09514
69.715 28.158978
69.720 28.244093
69.725 28.118017
69.730 27.127401
69.735 27.004906
69.740 27.478371
69.745 27.783144
69.750 27.292969
69.755 26.551456
69.760 26.848902
69.765 27.195782
69.770 26.935955
69.775 26.155649
69.780 25.408886
69.785 25.28722
69.790 25.143064
69.795 24.715973
69.800 24.205843
69.805 23.915974
69.810 24.349134
69.815 25.025068
69.820 24.905596
69.825 24.987894
69.830 25.376795
69.835 25.501289
69.840 25.221178
69.845 25.108629
69.850 25.104008
69.855 25.547857
69.860 25.348408
69.865 25.184923
69.870 24.955532
69.875 24.898212
69.880 24.240633
69.885 23.209486
69.890 22.057825
69.895 21.834301
69.900 21.274551
69.905 20.78289
69.910 20.666676
69.915 20.333075
69.920 20.378086
69.925 20.269466
69.930 20.386297
69.935 20.698322
69.940 20.924698
69.945 21.077311
69.950 21.908321
69.955 22.274839
69.960 22.071804
69.965 21.597492
69.970 22.002575
69.975 22.112373
69.980 21.815359
69.985 21.246548
69.990 21.425779
69.995 21.387148
70.000 21.490353
70.005 21.194914
70.010 21.032194
70.015 20.831238
70.020 21.070784
70.025 21.198151
70.030 20.651812
70.035 20.735788
70.040 20.105412
70.045 19.586378
70.050 19.570147
70.055 18.877773
70.060 18.992914
70.065 19.765162
70.070 19.556892
70.075 19.924917
70.080 19.996756
70.085 20.331955
70.090 20.743519
70.095 20.679077
70.100 20.356604
70.105 19.864454
70.110 19.991253
70.115 20.594841
70.120 20.536238
70.125 20.112675
70.130 20.177042
70.135 19.880791
70.140 20.489695
70.145 20.610073
70.150 20.169327
70.155 20.12467
70.160 20.399288
70.165 20.28186
70.170 20.45282
70.175 20.877605
70.180 20.895916
70.185 21.073214
70.190 20.354618
70.195 20.136168
70.200 19.970387
70.205 19.867432
70.210 19.044044
70.215 18.928339
70.220 19.012552
70.225 19.527308
70.230 19.428194
70.235 19.100813
70.240 19.027258
70.245 18.995623
70.250 18.952168
70.255 18.673424
70.260 19.161785
70.265 18.843567
70.270 18.647844
70.275 18.531771
70.280 18.565186
70.285 19.066666
70.290 19.191345
70.295 18.940445
70.300 19.682232
70.305 20.263023
70.310 20.340553
70.315 19.795828
70.320 19.223778
70.325 19.466972
70.330 19.105841
70.335 18.700651
70.340 18.297161
70.345 18.867987
70.350 19.319242
70.355 19.487288
70.360 19.480967
70.365 19.824938
70.370 20.602581
70.375 20.66284
70.380 20.577343
70.385 20.918522
70.390 21.118698
70.395 21.334736
70.400 21.607416
70.405 21.07807
70.410 20.470724
70.415 19.940184
70.420 19.209578
70.425 18.948214
70.430 18.693989
70.435 18.266602
70.440 18.069996
70.445 18.362482
70.450 17.992529
70.455 17.989239
70.460 18.030121
70.465 18.371218
70.470 18.193737
70.475 17.673843
70.480 17.29948
70.485 17.649487
70.490 17.745129
70.495 17.089001
70.500 17.225706
70.505 18.162586
70.510 19.558626
70.515 19.847258
70.520 19.931343
70.525 20.237286
70.530 20.232128
70.535 19.785042
70.540 20.111313
70.545 19.799828
70.550 19.792637
70.555 19.239466
70.560 19.073032
70.565 19.393856
70.570 19.385986
70.575 18.136024
70.580 18.396505
70.585 18.698517
70.590 18.927023
70.595 19.046783
70.600 19.08256
70.605 19.338564
70.610 19.80131
70.615 19.312107
70.620 19.163551
70.625 19.387119
70.630 19.512175
70.635 19.031574
70.640 18.674656
70.645 18.100437
70.650 17.621075
70.655 17.950766
70.660 17.661131
70.665 17.058544
70.670 17.245926
70.675 17.408295
70.680 17.581049
70.685 18.099638
70.690 18.285591
70.695 18.426104
70.700 18.480543
70.705 18.457903
70.710 18.365421
70.715 18.895676
70.720 18.937872
70.725 18.681921
70.730 18.227596
70.735 18.077091
70.740 17.96019
70.745 17.703356
70.750 17.388145
70.755 17.486769
70.760 17.453108
70.765 18.210972
70.770 18.25927
70.775 18.599007
70.780 18.919304
70.785 18.351347
70.790 18.286484
70.795 18.578619
70.800 18.831093
70.805 18.972715
70.810 19.005384
70.815 19.356499
70.820 20.03986
70.825 19.597595
70.830 19.198578
70.835 18.740475
70.840 18.754099
70.845 18.968937
70.850 18.432699
70.855 18.288265
70.860 18.869234
70.865 19.194616
70.870 18.868835
70.875 18.845045
70.880 19.483549
70.885 19.785551
70.890 19.484846
70.895 19.123335
70.900 19.074652
70.905 19.475723
70.910 19.054668
70.915 17.962452
70.920 18.465313
70.925 18.637074
70.930 18.526148
70.935 18.53857
70.940 18.190821
70.945 18.659643
70.950 18.739592
70.955 18.26074
70.960 17.543112
70.965 17.423649
70.970 17.374334
70.975 17.591536
70.980 17.937149
70.985 18.510754
70.990 18.543097
70.995 18.467691
71.000 19.008429
71.005 19.175814
71.010 18.752279
71.015 18.189249
71.020 17.311775
71.025 17.760185
71.030 18.545355
71.035 18.421978
71.040 18.247469
71.045 18.224442
71.050 18.295683
71.055 18.169815
71.060 17.671801
71.065 18.029831
71.070 18.364614
71.075 18.435841
71.080 18.653355
71.085 18.833723
71.090 19.90435
71.095 20.386171
71.100 19.244301
71.105 18.89028
71.110 18.798174
71.115 18.871775
71.120 19.37014
71.125 19.101198
71.130 18.690962
71.135 18.728815
71.140 18.893085
71.145 19.170328
71.150 18.603495
71.155 18.044353
71.160 17.727013
71.165 18.085125
71.170 18.022938
71.175 18.149555
71.180 17.941414
71.185 17.908592
71.190 17.665941
71.195 17.370165
71.200 16.621487
71.205 16.640455
71.210 16.565704
71.215 16.384886
71.220 16.875553
71.225 17.20529
71.230 17.811241
71.235 18.100344
71.240 18.442863
71.245 18.168089
71.250 18.669544
71.255 19.051062
71.260 19.12569
71.265 19.338919
71.270 19.318537
71.275 19.282217
71.280 19.942123
71.285 19.677452
71.290 19.567131
71.295 19.726316
71.300 19.567915
71.305 19.647335
71.310 19.217964
71.315 18.626354
71.320 18.833305
71.325 18.963573
71.330 18.459269
71.335 18.221933
71.340 18.168367
71.345 18.931707
71.350 19.279261
71.355 19.123999
71.360 19.085869
71.365 20.383516
71.370 20.51577
71.375 20.849033
71.380 20.354696
71.385 19.905479
71.390 19.428877
71.395 19.366264
71.400 18.452732
71.405 18.11165
71.410 17.866243
71.415 18.06554
71.420 18.512447
71.425 18.289572
71.430 18.049013
71.435 18.608677
71.440 18.631998
71.445 18.227777
71.450 18.191423
71.455 18.171207
71.460 18.632689
71.465 18.110783
71.470 17.648577
71.475 17.298473
71.480 17.48765
71.485 17.487251
71.490 17.365931
71.495 17.061985
71.500 17.138899
71.505 17.868589
71.510 18.137062
71.515 18.306496
71.520 18.345833
71.525 18.774406
71.530 19.149136
71.535 18.957132
71.540 19.190113
71.545 19.397245
71.550 19.829588
71.555 19.769556
71.560 19.540144
71.565 19.403374
71.570 18.784111
71.575 18.787558
71.580 18.146519
71.585 17.273129
71.590 16.753162
71.595 16.828066
71.600 16.939264
71.605 17.138641
71.610 16.929672
71.615 17.144115
71.620 17.459923
71.625 17.460484
71.630 17.336451
71.635 17.381161
71.640 17.558517
71.645 17.78146
71.650 18.037241
71.655 18.122198
71.660 18.015711
71.665 17.93931
71.670 18.226908
71.675 18.293539
71.680 18.223576
71.685 17.56764
71.690 17.390791
71.695 17.639198
71.700 17.900984
71.705 18.183645
71.710 18.45776
71.715 18.766245
71.720 19.240536
71.725 19.343664
71.730 19.423141
71.735 19.393816
71.740 18.84535
71.745 18.553699
71.750 18.62426
71.755 18.700832
71.760 18.901531
71.765 18.937624
71.770 18.671316
71.775 19.170124
71.780 19.101053
71.785 19.175428
71.790 18.994093
71.795 18.67424
71.800 18.681602
71.805 19.276302
71.810 18.897608
71.815 18.720299
71.820 18.043718
71.825 17.663561
71.830 18.386292
71.835 18.45067
71.840 18.340593
71.845 18.167162
71.850 18.198486
71.855 18.384966
71.860 18.181459
71.865 18.041977
71.870 17.613365
71.875 18.335609
71.880 18.975399
71.885 19.669762
71.890 19.884396
71.895 19.657022
71.900 19.203466
71.905 19.048641
71.910 18.490908
71.915 17.876173
71.920 17.64187
71.925 17.747841
71.930 17.675728
71.935 17.809214
71.940 18.055412
71.945 18.162567
71.950 18.795225
71.955 18.684654
71.960 18.484509
71.965 18.650965
71.970 18.684929
71.975 18.380486
71.980 17.818247
71.985 18.307468
71.990 18.20261
71.995 18.714184
72.000 18.98572
72.005 18.832769
72.010 19.163855
72.015 18.968916
72.020 18.735245
72.025 18.767229
72.030 18.379595
72.035 17.91062
72.040 17.618343
72.045 17.349329
72.050 16.684668
72.055 16.255341
72.060 15.894315
72.065 15.862257
72.070 16.260765
72.075 16.920988
72.080 17.468147
72.085 18.295589
72.090 18.765251
72.095 18.813803
72.100 18.907787
72.105 18.645475
72.110 18.218216
72.115 18.009928
72.120 17.692068
72.125 17.960592
72.130 18.634083
72.135 19.311127
72.140 19.012428
72.145 18.859701
72.150 18.365248
72.155 18.395403
72.160 18.152922
72.165 17.557713
72.170 16.895254
72.175 17.330589
72.180 17.649483
72.185 18.229452
72.190 18.341091
72.195 18.252293
72.200 19.194563
72.205 19.87705
72.210 20.0285
72.215 20.001499
72.220 19.577711
72.225 19.824747
72.230 20.443731
72.235 19.970308
72.240 19.215139
72.245 19.775419
72.250 19.578726
72.255 19.51371
72.260 19.04841
72.265 17.972261
72.270 17.98485
72.275 18.322336
72.280 18.068441
72.285 18.403658
72.290 18.182625
72.295 18.375067
72.300 18.84074
72.305 19.140465
72.310 18.592237
72.315 18.482428
72.320 17.890741
72.325 17.733414
72.330 17.78417
72.335 18.00478
72.340 17.722494
72.345 17.646748
72.350 17.133003
72.355 17.6241
72.360 17.701635
72.365 17.653095
72.370 17.376247
72.375 17.379488
72.380 17.796379
72.385 17.902357
72.390 17.769581
72.395 18.164701
72.400 17.695589
72.405 17.638573
72.410 17.59001
72.415 17.132776
72.420 17.350574
72.425 17.232626
72.430 17.287027
72.435 17.677965
72.440 17.825529
72.445 18.37014
72.450 19.491848
72.455 19.375826
72.460 18.830467
72.465 18.982252
72.470 18.941877
72.475 18.720224
72.480 18.294992
72.485 17.713972
72.490 18.053898
72.495 18.124586
72.500 17.851622
72.505 17.807978
72.510 17.558937
72.515 17.26453
72.520 17.517109
72.525 18.065077
72.530 18.737417
72.535 18.455294
72.540 18.630154
72.545 18.958963
72.550 19.01931
72.555 18.757885
72.560 18.975786
72.565 19.28591
72.570 19.311016
72.575 19.682087
72.580 19.984369
72.585 19.952038
72.590 20.02109
72.595 18.702641
72.600 18.216318
72.605 18.33292
72.610 17.831944
72.615 17.310902
72.620 17.056561
72.625 17.211056
72.630 17.892971
72.635 17.84613
72.640 17.68754
72.645 17.188118
72.650 17.117733
72.655 17.459507
72.660 17.0877
72.665 17.772223
72.670 17.997021
72.675 18.52853
72.680 18.957523
72.685 19.28997
72.690 18.778528
72.695 18.642767
72.700 18.148386
72.705 17.958759
72.710 17.328417
72.715 17.332537
72.720 17.072731
72.725 17.189905
72.730 17.020254
72.735 16.699512
72.740 16.446035
72.745 16.584295
72.750 16.615919
72.755 16.773445
72.760 17.158789
72.765 17.791134
72.770 17.822052
72.775 17.795067
72.780 17.670345
72.785 17.734491
72.790 17.47872
72.795 16.542255
72.800 16.153435
72.805 16.457457
72.810 16.661106
72.815 16.574255
72.820 16.372194
72.825 16.457245
72.830 16.877275
72.835 17.118778
72.840 17.154093
72.845 17.563177
72.850 17.811514
72.855 18.554224
72.860 18.006615
72.865 18.28072
72.870 18.130611
72.875 17.803833
72.880 17.121628
72.885 16.648575
72.890 16.253973
72.895 16.545446
72.900 16.854239
72.905 17.349554
72.910 17.696434
72.915 18.224947
72.920 19.088646
72.925 19.614616
72.930 19.335793
72.935 18.744984
72.940 18.573067
72.945 18.533882
72.950 18.073994
72.955 17.609524
72.960 17.275002
72.965 17.359821
72.970 17.48373
72.975 17.164902
72.980 16.93816
72.985 16.461767
72.990 16.901369
72.995 16.728052
73.000 16.931168
