!@!!GADDS PLOTSO FILE: Chi integration type
!@!!Title/SampleName: map-13
!@!!Comment: ?
!@!!User: Bruker Instrument Administrator
!@!!Site: University of Illinois Chicago
!@!!Frame: map-13_01_000.gfrm
!@!!Wavelengths    1.54184   1.54056   1.54439
!@!!Frame angles: 2Theta: 63.000 Omega: 50.000 Phi: 0.000 Chi: 90.000
!@!!Integration range: 2Theta: 53.000 to 73.000  Gamma: -105.000 to -75.000
!@!!Integration method: bin normalized
!@!N
!@!SS
!@!M
!@!L 0.0 0.0 0.0 0.0
!@!XDegrees
!@!YCounts
53.000 7.938081
53.005 7.306534
53.010 7.032426
53.015 7.117538
53.020 7.034251
53.025 7.28121
53.030 7.152267
53.035 6.959847
53.040 7.045037
53.045 7.444175
53.050 7.548014
53.055 7.765446
53.060 7.720252
53.065 8.125365
53.070 8.138017
53.075 7.822235
53.080 7.607675
53.085 8.193716
53.090 8.200657
53.095 8.370039
53.100 8.116914
53.105 8.336785
53.110 8.623987
53.115 8.335196
53.120 8.000544
53.125 8.184714
53.130 7.89427
53.135 7.996844
53.140 7.931894
53.145 7.50775
53.150 6.957793
53.155 7.005267
53.160 7.358494
53.165 7.461241
53.170 7.338057
53.175 7.291399
53.180 7.815253
53.185 8.350238
53.190 8.1752
53.195 7.983134
53.200 8.230618
53.205 8.105406
53.210 8.098189
53.215 8.088865
53.220 8.191059
53.225 8.164295
53.230 8.302713
53.235 8.095029
53.240 7.941787
53.245 8.036909
53.250 7.73155
53.255 7.81657
53.260 8.882315
53.265 9.077602
53.270 9.566336
53.275 9.920724
53.280 9.897306
53.285 10.13003
53.290 10.055618
53.295 9.698494
53.300 9.823546
53.305 9.779764
53.310 9.954973
53.315 9.525183
53.320 8.999704
53.325 8.217498
53.330 7.870736
53.335 7.830093
53.340 7.559157
53.345 7.342859
53.350 7.788285
53.355 8.202386
53.360 8.728092
53.365 8.938838
53.370 8.809678
53.375 8.59166
53.380 8.592707
53.385 9.083381
53.390 8.50703
53.395 7.635677
53.400 7.181279
53.405 7.168199
53.410 7.446301
53.415 7.407986
53.420 7.150978
53.425 7.831553
53.430 8.231583
53.435 8.6678
53.440 9.155238
53.445 9.340334
53.450 9.009491
53.455 8.411758
53.460 8.251713
53.465 8.064633
53.470 7.573832
53.475 7.208592
53.480 7.121171
53.485 7.655769
53.490 8.424776
53.495 8.660316
53.500 8.530711
53.505 8.816595
53.510 9.045816
53.515 8.981906
53.520 8.885983
53.525 8.488856
53.530 8.254686
53.535 8.13038
53.540 8.002029
53.545 7.883471
53.550 8.073738
53.555 8.153635
53.560 8.419557
53.565 8.666407
53.570 8.718987
53.575 8.509668
53.580 8.148524
53.585 8.163376
53.590 8.024596
53.595 8.016032
53.600 8.262869
53.605 8.497086
53.610 8.614659
53.615 9.053241
53.620 9.01529
53.625 8.973681
53.630 8.961703
53.635 8.707768
53.640 8.874901
53.645 9.232153
53.650 9.285861
53.655 9.536881
53.660 9.798597
53.665 9.400233
53.670 9.453533
53.675 9.621417
53.680 9.64756
53.685 9.269368
53.690 8.883595
53.695 8.793098
53.700 8.783536
53.705 8.570977
53.710 8.283978
53.715 8.096958
53.720 8.487329
53.725 8.640326
53.730 8.954528
53.735 9.203259
53.740 9.412372
53.745 9.385758
53.750 9.5554
53.755 9.085407
53.760 8.351699
53.765 7.716958
53.770 7.463391
53.775 7.242246
53.780 7.376449
53.785 7.181656
53.790 7.785057
53.795 8.624372
53.800 9.314696
53.805 9.880312
53.810 10.189805
53.815 10.111919
53.820 10.143192
53.825 10.586082
53.830 10.500177
53.835 10.280144
53.840 10.020982
53.845 9.925432
53.850 10.097177
53.855 9.86577
53.860 9.346976
53.865 9.242901
53.870 8.91074
53.875 8.924573
53.880 8.978189
53.885 9.215254
53.890 9.369482
53.895 9.281408
53.900 8.993032
53.905 9.096128
53.910 8.875802
53.915 8.973618
53.920 8.682827
53.925 8.678596
53.930 8.669759
53.935 9.028913
53.940 9.491668
53.945 9.51977
53.950 9.417292
53.955 9.665557
53.960 10.040501
53.965 10.351171
53.970 10.39254
53.975 10.24689
53.980 10.195701
53.985 10.628943
53.990 10.793653
53.995 10.821308
54.000 10.680708
54.005 10.748008
54.010 10.741465
54.015 10.468741
54.020 10.309886
54.025 10.520922
54.030 10.056108
54.035 10.167301
54.040 10.043707
54.045 10.111302
54.050 10.128612
54.055 9.718174
54.060 9.147357
54.065 8.84358
54.070 8.484529
54.075 8.32938
54.080 8.39526
54.085 8.356286
54.090 8.533165
54.095 8.899878
54.100 9.863294
54.105 9.857865
54.110 10.111818
54.115 10.445569
54.120 10.567451
54.125 10.370514
54.130 9.625807
54.135 9.31624
54.140 9.895778
54.145 9.763748
54.150 9.382713
54.155 9.018973
54.160 9.521276
54.165 9.930156
54.170 9.727464
54.175 9.389
54.180 9.4761
54.185 9.408654
54.190 9.382651
54.195 9.115458
54.200 8.970447
54.205 8.915784
54.210 8.653185
54.215 8.453281
54.220 8.505237
54.225 8.858402
54.230 8.540843
54.235 8.923915
54.240 9.080305
54.245 9.248702
54.250 9.529168
54.255 9.283744
54.260 9.063118
54.265 9.218188
54.270 9.237774
54.275 9.553899
54.280 9.32368
54.285 8.852483
54.290 9.066189
54.295 9.499122
54.300 9.681625
54.305 9.328795
54.310 9.39356
54.315 9.693076
54.320 10.228957
54.325 10.245095
54.330 10.580741
54.335 11.086976
54.340 11.018038
54.345 11.035239
54.350 10.95738
54.355 10.466238
54.360 10.498855
54.365 10.15966
54.370 9.787174
54.375 9.737853
54.380 9.74638
54.385 10.142061
54.390 10.330469
54.395 10.168126
54.400 10.206885
54.405 10.032702
54.410 9.971406
54.415 10.222554
54.420 10.097451
54.425 10.293691
54.430 10.262691
54.435 9.967588
54.440 10.206258
54.445 10.336229
54.450 9.804492
54.455 9.600375
54.460 9.887684
54.465 10.197373
54.470 9.965117
54.475 9.842563
54.480 9.922979
54.485 10.176545
54.490 9.983693
54.495 9.75353
54.500 9.618766
54.505 9.796867
54.510 9.604938
54.515 10.110864
54.520 10.18221
54.525 10.024326
54.530 9.700411
54.535 9.56337
54.540 9.709283
54.545 9.606737
54.550 9.119477
54.555 8.937814
54.560 9.356104
54.565 9.409671
54.570 9.353418
54.575 9.867494
54.580 9.513018
54.585 9.612205
54.590 9.690384
54.595 9.562871
54.600 9.795576
54.605 9.721975
54.610 9.503019
54.615 10.109038
54.620 10.594552
54.625 10.301064
54.630 10.162271
54.635 9.815494
54.640 9.74999
54.645 9.573905
54.650 9.509444
54.655 9.139272
54.660 9.49508
54.665 9.802069
54.670 10.190552
54.675 10.325548
54.680 9.607722
54.685 9.425037
54.690 9.388209
54.695 9.046787
54.700 9.191408
54.705 9.178308
54.710 9.127691
54.715 9.650486
54.720 9.85777
54.725 9.897552
54.730 10.141057
54.735 9.736502
54.740 10.0609
54.745 10.628943
54.750 10.636938
54.755 10.184361
54.760 9.848033
54.765 9.641528
54.770 9.949062
54.775 9.952895
54.780 10.091227
54.785 10.172642
54.790 10.457638
54.795 10.977283
54.800 11.03445
54.805 10.873909
54.810 10.464679
54.815 9.984073
54.820 9.736876
54.825 9.761154
54.830 9.380209
54.835 9.391859
54.840 9.482316
54.845 9.708319
54.850 9.880645
54.855 10.155822
54.860 10.033161
54.865 9.906377
54.870 9.812289
54.875 9.931422
54.880 10.052137
54.885 9.812583
54.890 9.840955
54.895 10.13983
54.900 10.339003
54.905 10.428818
54.910 10.721456
54.915 11.087022
54.920 11.290061
54.925 11.431264
54.930 11.072277
54.935 10.813099
54.940 10.533226
54.945 10.351396
54.950 10.313744
54.955 10.267263
54.960 10.537382
54.965 10.741039
54.970 11.263542
54.975 11.385097
54.980 11.117172
54.985 11.166211
54.990 11.313297
54.995 11.140616
55.000 11.106136
55.005 11.17653
55.010 11.203466
55.015 11.365557
55.020 10.897319
55.025 10.312143
55.030 10.450675
55.035 10.304153
55.040 9.870904
55.045 9.824334
55.050 10.102064
55.055 10.498496
55.060 10.844083
55.065 10.577418
55.070 10.753016
55.075 10.993595
55.080 10.932471
55.085 10.923729
55.090 10.727602
55.095 11.301483
55.100 11.543316
55.105 11.518552
55.110 11.517891
55.115 11.033866
55.120 10.673231
55.125 11.201066
55.130 11.177695
55.135 11.239913
55.140 11.545298
55.145 11.615523
55.150 11.939619
55.155 11.570984
55.160 10.425113
55.165 10.146533
55.170 10.028153
55.175 10.10748
55.180 10.197988
55.185 10.259999
55.190 10.674409
55.195 10.72715
55.200 10.516185
55.205 10.341169
55.210 9.889581
55.215 9.83849
55.220 9.426197
55.225 9.325511
55.230 9.859071
55.235 10.220304
55.240 10.820833
55.245 11.21869
55.250 11.357303
55.255 11.778225
55.260 11.932771
55.265 11.525595
55.270 11.271546
55.275 10.853744
55.280 10.790695
55.285 10.615297
55.290 10.214255
55.295 10.276204
55.300 10.734192
55.305 10.974209
55.310 10.872719
55.315 10.399674
55.320 10.428223
55.325 10.73622
55.330 10.762821
55.335 10.443238
55.340 10.283983
55.345 10.308106
55.350 10.887274
55.355 11.539213
55.360 11.297382
55.365 10.903462
55.370 10.709114
55.375 10.830691
55.380 10.858123
55.385 9.890626
55.390 9.671491
55.395 9.652403
55.400 9.683181
55.405 9.452507
55.410 9.234433
55.415 9.332115
55.420 9.450654
55.425 9.482866
55.430 9.613587
55.435 9.639749
55.440 9.642195
55.445 9.901371
55.450 9.689071
55.455 9.903835
55.460 9.963674
55.465 9.896457
55.470 10.235263
55.475 10.600638
55.480 10.928279
55.485 11.454418
55.490 11.138988
55.495 10.900334
55.500 10.994754
55.505 11.098152
55.510 10.782005
55.515 10.708406
55.520 10.477103
55.525 10.806146
55.530 11.022926
55.535 10.854678
55.540 10.566862
55.545 10.574292
55.550 10.407247
55.555 10.371986
55.560 10.210795
55.565 10.426553
55.570 10.766091
55.575 11.222246
55.580 11.143154
55.585 11.384775
55.590 11.850513
55.595 11.840228
55.600 11.577077
55.605 11.497342
55.610 11.41469
55.615 11.320985
55.620 11.124731
55.625 10.979754
55.630 11.072534
55.635 11.378968
55.640 11.290126
55.645 11.380053
55.650 11.479511
55.655 11.346911
55.660 11.77328
55.665 11.634135
55.670 11.320655
55.675 11.132073
55.680 11.006387
55.685 11.232783
55.690 11.354493
55.695 10.925342
55.700 10.991016
55.705 11.414083
55.710 11.261235
55.715 11.024126
55.720 10.752087
55.725 10.70818
55.730 10.811063
55.735 11.006246
55.740 10.468506
55.745 10.39718
55.750 10.52677
55.755 10.180988
55.760 10.306434
55.765 10.163695
55.770 10.366153
55.775 10.812562
55.780 10.793421
55.785 10.77727
55.790 10.883691
55.795 10.768188
55.800 10.761756
55.805 11.066497
55.810 11.195984
55.815 10.82351
55.820 10.776011
55.825 10.602951
55.830 10.446819
55.835 10.357272
55.840 9.48986
55.845 9.921232
55.850 10.656086
55.855 10.534921
55.860 10.65228
55.865 11.092323
55.870 11.017045
55.875 11.564184
55.880 11.614517
55.885 11.691861
55.890 12.12442
55.895 12.244615
55.900 12.205606
55.905 12.450094
55.910 12.031178
55.915 11.838065
55.920 11.74391
55.925 11.824429
55.930 12.051639
55.935 12.209504
55.940 12.451222
55.945 12.417768
55.950 12.282263
55.955 12.020644
55.960 12.226498
55.965 11.932659
55.970 11.411123
55.975 11.104034
55.980 11.004088
55.985 11.205692
55.990 11.048626
55.995 10.622037
56.000 10.8228
56.005 11.034593
56.010 10.842734
56.015 10.967069
56.020 11.146939
56.025 11.425561
56.030 11.592917
56.035 11.276455
56.040 10.886074
56.045 11.009237
56.050 11.002332
56.055 10.945456
56.060 10.835191
56.065 10.990657
56.070 11.200784
56.075 11.687077
56.080 12.039538
56.085 12.05406
56.090 11.896912
56.095 11.79863
56.100 11.830321
56.105 11.872711
56.110 12.174209
56.115 12.789894
56.120 12.957516
56.125 12.616118
56.130 12.285525
56.135 11.925993
56.140 11.932708
56.145 11.772729
56.150 10.633749
56.155 10.669096
56.160 11.054115
56.165 11.117021
56.170 11.304565
56.175 10.92118
56.180 10.331966
56.185 10.564876
56.190 10.423671
56.195 10.360129
56.200 10.375613
56.205 10.435498
56.210 10.605823
56.215 10.948647
56.220 11.028664
56.225 11.187355
56.230 11.519569
56.235 12.093107
56.240 12.372401
56.245 12.978327
56.250 13.259582
56.255 13.40277
56.260 13.29713
56.265 13.23845
56.270 12.990376
56.275 12.854684
56.280 12.252711
56.285 12.063723
56.290 12.052848
56.295 11.663557
56.300 11.409825
56.305 11.042462
56.310 10.734527
56.315 10.801124
56.320 10.7422
56.325 10.911594
56.330 11.704083
56.335 12.343775
56.340 13.180711
56.345 13.514783
56.350 13.386087
56.355 13.139894
56.360 12.74546
56.365 12.056848
56.370 11.203314
56.375 10.966063
56.380 10.924229
56.385 10.951368
56.390 11.582323
56.395 11.456843
56.400 11.481464
56.405 11.427443
56.410 10.870905
56.415 10.817124
56.420 10.956528
56.425 10.547529
56.430 10.59514
56.435 10.613816
56.440 10.26077
56.445 10.360357
56.450 10.551693
56.455 10.294878
56.460 10.874206
56.465 11.105542
56.470 11.342514
56.475 11.853638
56.480 12.041729
56.485 11.966808
56.490 12.700289
56.495 12.498051
56.500 12.43755
56.505 12.461596
56.510 12.009163
56.515 12.09384
56.520 12.028386
56.525 11.084235
56.530 11.116946
56.535 11.072591
56.540 11.061228
56.545 11.32206
56.550 11.159603
56.555 11.418608
56.560 11.960792
56.565 12.026052
56.570 12.406953
56.575 12.409888
56.580 12.701649
56.585 13.441001
56.590 13.497035
56.595 13.715875
56.600 13.806649
56.605 13.997597
56.610 13.628636
56.615 13.580584
56.620 13.644125
56.625 14.001915
56.630 14.12279
56.635 13.669765
56.640 13.359653
56.645 13.492248
56.650 12.803166
56.655 12.262503
56.660 12.088659
56.665 12.063871
56.670 12.894888
56.675 12.986964
56.680 13.114314
56.685 13.203834
56.690 13.371375
56.695 13.618765
56.700 13.202176
56.705 12.938844
56.710 13.278888
56.715 13.304163
56.720 13.954314
56.725 13.638882
56.730 13.839683
56.735 14.062711
56.740 13.655193
56.745 13.688079
56.750 13.844897
56.755 13.513395
56.760 13.675874
56.765 12.631309
56.770 12.551174
56.775 12.588109
56.780 12.564295
56.785 12.399596
56.790 12.472088
56.795 12.514578
56.800 12.672498
56.805 12.633613
56.810 12.90494
56.815 12.938816
56.820 12.861434
56.825 12.209185
56.830 11.73254
56.835 11.383109
56.840 11.27031
56.845 11.077221
56.850 11.201707
56.855 11.15072
56.860 11.426636
56.865 12.004066
56.870 12.383207
56.875 12.61752
56.880 12.680794
56.885 12.779348
56.890 12.627321
56.895 12.916395
56.900 13.029924
56.905 12.798884
56.910 12.961539
56.915 12.889627
56.920 12.428917
56.925 12.788302
56.930 12.552504
56.935 12.475493
56.940 12.414115
56.945 11.994016
56.950 11.678219
56.955 11.669378
56.960 11.53567
56.965 11.626498
56.970 11.374198
56.975 11.367463
56.980 11.676321
56.985 12.145774
56.990 12.25655
56.995 12.183608
57.000 11.785109
57.005 12.010301
57.010 12.170317
57.015 12.190557
57.020 12.377285
57.025 12.780899
57.030 13.21667
57.035 13.504565
57.040 13.785997
57.045 13.804257
57.050 13.763113
57.055 13.833191
57.060 13.975934
57.065 14.080628
57.070 14.317014
57.075 14.479141
57.080 14.446316
57.085 14.633019
57.090 14.108034
57.095 13.162985
57.100 12.687233
57.105 12.531337
57.110 12.572791
57.115 12.86821
57.120 13.194794
57.125 13.822418
57.130 14.322669
57.135 14.38798
57.140 14.107568
57.145 13.558387
57.150 13.534542
57.155 13.194036
57.160 12.785563
57.165 12.696948
57.170 12.635492
57.175 12.745244
57.180 13.085744
57.185 12.469986
57.190 12.207821
57.195 12.781042
57.200 13.322469
57.205 13.516828
57.210 13.323984
57.215 13.164269
57.220 13.72101
57.225 13.53307
57.230 13.184853
57.235 12.849319
57.240 12.83647
57.245 13.469219
57.250 14.060467
57.255 14.128756
57.260 14.522913
57.265 14.706125
57.270 14.588811
57.275 14.897986
57.280 14.116927
57.285 13.654067
57.290 13.631188
57.295 13.39534
57.300 13.490815
57.305 13.977623
57.310 13.737681
57.315 13.92824
57.320 13.964013
57.325 14.132652
57.330 13.958458
57.335 13.963359
57.340 13.699532
57.345 13.71007
57.350 13.912877
57.355 13.884809
57.360 14.161201
57.365 14.802731
57.370 14.923806
57.375 15.333664
57.380 15.730063
57.385 15.751591
57.390 15.168394
57.395 14.719827
57.400 14.52167
57.405 13.82577
57.410 13.476413
57.415 13.196973
57.420 13.028716
57.425 13.178264
57.430 13.050522
57.435 12.679577
57.440 12.945602
57.445 13.024638
57.450 12.984019
57.455 13.017351
57.460 13.125344
57.465 13.021645
57.470 13.233309
57.475 13.473447
57.480 13.451024
57.485 13.405205
57.490 13.319882
57.495 13.154277
57.500 13.369175
57.505 13.482049
57.510 12.996988
57.515 13.233168
57.520 13.759101
57.525 14.093416
57.530 13.814598
57.535 13.736061
57.540 13.64132
57.545 13.626412
57.550 13.570972
57.555 13.013505
57.560 13.031336
57.565 13.118719
57.570 13.218777
57.575 13.218262
57.580 13.211984
57.585 13.672243
57.590 13.951265
57.595 14.291776
57.600 14.856761
57.605 15.018288
57.610 15.380181
57.615 15.060438
57.620 14.252351
57.625 13.968491
57.630 13.571139
57.635 12.984831
57.640 13.040146
57.645 13.101476
57.650 13.249661
57.655 13.67121
57.660 14.13245
57.665 14.11382
57.670 13.925404
57.675 13.377543
57.680 13.052181
57.685 13.271728
57.690 13.263935
57.695 13.106076
57.700 13.397723
57.705 13.622803
57.710 13.467682
57.715 13.197257
57.720 12.6301
57.725 12.426391
57.730 12.458555
57.735 12.736326
57.740 12.430295
57.745 12.749876
57.750 13.525372
57.755 13.830525
57.760 13.708989
57.765 13.729835
57.770 13.274393
57.775 14.038578
57.780 14.098053
57.785 13.754962
57.790 13.509468
57.795 13.46415
57.800 13.60708
57.805 13.647659
57.810 13.119519
57.815 12.897088
57.820 13.239157
57.825 13.628199
57.830 13.155317
57.835 12.908496
57.840 13.334535
57.845 13.706842
57.850 13.986177
57.855 13.85074
57.860 13.753714
57.865 14.235673
57.870 14.748845
57.875 14.319133
57.880 14.187032
57.885 14.400892
57.890 14.322239
57.895 14.398088
57.900 14.295429
57.905 13.628114
57.910 13.834681
57.915 13.611045
57.920 13.559856
57.925 13.86966
57.930 13.96247
57.935 14.037785
57.940 13.941719
57.945 13.558757
57.950 13.320608
57.955 13.389867
57.960 13.314909
57.965 13.219885
57.970 12.989835
57.975 13.648888
57.980 14.362136
57.985 14.385603
57.990 14.130463
57.995 14.300995
58.000 14.416902
58.005 14.590835
58.010 14.841098
58.015 15.497419
58.020 15.497567
58.025 14.980712
58.030 15.15247
58.035 15.352687
58.040 15.031324
58.045 14.217174
58.050 13.799217
58.055 14.091313
58.060 14.622712
58.065 14.845827
58.070 14.779926
58.075 15.420736
58.080 16.037714
58.085 16.031807
58.090 16.299356
58.095 16.607378
58.100 15.960438
58.105 15.83971
58.110 15.432493
58.115 15.175482
58.120 15.686646
58.125 15.308716
58.130 14.699419
58.135 14.508776
58.140 14.865091
58.145 15.032084
58.150 14.738391
58.155 14.187157
58.160 14.203781
58.165 14.228227
58.170 14.310863
58.175 14.017935
58.180 14.502082
58.185 14.69677
58.190 14.8193
58.195 14.701501
58.200 14.810214
58.205 14.595196
58.210 14.09077
58.215 13.966732
58.220 14.126577
58.225 13.993926
58.230 14.366898
58.235 14.566034
58.240 15.109163
58.245 15.864955
58.250 15.779046
58.255 15.21751
58.260 14.848299
58.265 14.704832
58.270 14.39929
58.275 13.93781
58.280 13.579314
58.285 12.894638
58.290 13.005692
58.295 13.430689
58.300 13.503597
58.305 14.136495
58.310 14.2467
58.315 14.026545
58.320 14.021397
58.325 14.259164
58.330 14.299303
58.335 14.014574
58.340 14.111241
58.345 14.596763
58.350 14.173544
58.355 14.298689
58.360 14.120384
58.365 14.373791
58.370 14.305749
58.375 14.316943
58.380 13.660995
58.385 14.05809
58.390 14.101881
58.395 14.333529
58.400 14.304941
58.405 14.22499
58.410 13.661132
58.415 14.037498
58.420 14.355363
58.425 14.7335
58.430 14.534625
58.435 14.292603
58.440 14.741999
58.445 15.060255
58.450 14.789566
58.455 14.612914
58.460 14.29936
58.465 14.371627
58.470 13.985953
58.475 13.971594
58.480 14.013968
58.485 14.444023
58.490 14.761204
58.495 15.189146
58.500 15.268611
58.505 15.967146
58.510 15.819505
58.515 15.807748
58.520 15.868663
58.525 15.496871
58.530 14.74185
58.535 14.762659
58.540 14.859469
58.545 14.52336
58.550 14.566361
58.555 14.423623
58.560 14.44642
58.565 14.813891
58.570 14.218564
58.575 13.637183
58.580 13.89883
58.585 13.787086
58.590 13.855193
58.595 13.755155
58.600 13.722394
58.605 13.979449
58.610 14.257564
58.615 14.221987
58.620 13.893353
58.625 13.888014
58.630 14.235183
58.635 14.613434
58.640 15.003785
58.645 14.969798
58.650 15.198547
58.655 15.499691
58.660 15.676623
58.665 15.872951
58.670 15.459501
58.675 15.52267
58.680 15.649436
58.685 15.367238
58.690 15.454991
58.695 15.632094
58.700 15.132433
58.705 15.468508
58.710 15.095672
58.715 14.509639
58.720 14.284972
58.725 14.190833
58.730 13.52159
58.735 12.796468
58.740 12.719401
58.745 13.521841
58.750 14.1677
58.755 14.13522
58.760 14.127492
58.765 14.954654
58.770 15.693138
58.775 15.471919
58.780 14.955445
58.785 15.304341
58.790 15.888767
58.795 16.023561
58.800 15.397479
58.805 15.344492
58.810 14.95056
58.815 14.727824
58.820 14.229218
58.825 14.065581
58.830 14.038933
58.835 14.597309
58.840 14.458369
58.845 15.140359
58.850 15.360707
58.855 15.522739
58.860 15.685291
58.865 15.551094
58.870 15.349998
58.875 15.324591
58.880 14.765827
58.885 14.403832
58.890 14.275515
58.895 14.050499
58.900 14.339293
58.905 14.168435
58.910 14.080933
58.915 14.238881
58.920 14.40643
58.925 14.298841
58.930 13.826744
58.935 13.348397
58.940 13.356051
58.945 13.611366
58.950 13.771257
58.955 13.655603
58.960 14.164163
58.965 14.442406
58.970 14.558099
58.975 15.228396
58.980 15.703955
58.985 16.317816
58.990 16.16223
58.995 15.546474
59.000 15.414428
59.005 15.836306
59.010 15.87183
59.015 15.253448
59.020 15.005663
59.025 15.324227
59.030 15.659088
59.035 15.922668
59.040 15.794868
59.045 15.657783
59.050 15.948304
59.055 15.883032
59.060 15.781892
59.065 16.162447
59.070 16.39216
59.075 15.724286
59.080 15.466322
59.085 15.157158
59.090 14.976698
59.095 14.961545
59.100 14.17817
59.105 13.825556
59.110 13.961046
59.115 13.559296
59.120 13.489964
59.125 13.68209
59.130 14.225784
59.135 14.78826
59.140 15.194884
59.145 15.240239
59.150 15.101854
59.155 15.440516
59.160 15.539679
59.165 15.147394
59.170 15.085068
59.175 14.959888
59.180 15.303834
59.185 16.06666
59.190 15.697227
59.195 15.38755
59.200 15.146368
59.205 14.590416
59.210 14.344272
59.215 14.289702
59.220 14.511097
59.225 14.963924
59.230 15.188375
59.235 15.301688
59.240 15.568012
59.245 16.04121
59.250 15.823528
59.255 15.669776
59.260 15.288721
59.265 15.203821
59.270 15.4363
59.275 15.436775
59.280 15.228584
59.285 15.820818
59.290 15.476658
59.295 15.471107
59.300 15.457744
59.305 15.53478
59.310 15.290047
59.315 14.885669
59.320 14.369796
59.325 14.478816
59.330 14.864611
59.335 14.732223
59.340 14.337118
59.345 14.259932
59.350 14.548365
59.355 14.836742
59.360 15.170862
59.365 15.086754
59.370 15.698668
59.375 15.91992
59.380 16.056761
59.385 15.999875
59.390 16.012068
59.395 15.972515
59.400 15.696218
59.405 14.996758
59.410 15.13504
59.415 15.424866
59.420 15.653638
59.425 15.559281
59.430 15.674859
59.435 15.892122
59.440 16.420135
59.445 16.955364
59.450 16.906925
59.455 17.035812
59.460 17.89591
59.465 17.354355
59.470 17.474998
59.475 17.304441
59.480 17.41169
59.485 18.024385
59.490 18.067369
59.495 16.970448
59.500 16.956928
59.505 17.255424
59.510 17.532246
59.515 16.781628
59.520 16.132673
59.525 16.378286
59.530 17.228245
59.535 17.320961
59.540 17.041382
59.545 17.109552
59.550 17.232368
59.555 17.18222
59.560 17.236423
59.565 17.078987
59.570 16.959856
59.575 16.635063
59.580 16.408382
59.585 16.412504
59.590 16.178364
59.595 15.149652
59.600 14.870954
59.605 14.418659
59.610 14.238396
59.615 14.045864
59.620 14.048157
59.625 14.089769
59.630 14.359631
59.635 14.487426
59.640 15.313677
59.645 16.283861
59.650 16.638477
59.655 16.553688
59.660 16.871153
59.665 17.367237
59.670 17.598892
59.675 17.346539
59.680 16.747822
59.685 16.725292
59.690 17.194973
59.695 17.116564
59.700 16.817057
59.705 16.743374
59.710 17.175604
59.715 17.087788
59.720 17.08934
59.725 16.884335
59.730 16.928547
59.735 17.089228
59.740 16.911966
59.745 16.63134
59.750 16.72961
59.755 16.450047
59.760 16.825127
59.765 17.04781
59.770 17.311758
59.775 18.048901
59.780 18.221241
59.785 18.706528
59.790 18.67255
59.795 18.810436
59.800 18.719965
59.805 18.262142
59.810 17.741182
59.815 17.439415
59.820 17.7794
59.825 17.573132
59.830 17.63382
59.835 17.454147
59.840 17.648333
59.845 17.852068
59.850 18.095406
59.855 18.118307
59.860 18.641029
59.865 18.367409
59.870 18.259092
59.875 18.12837
59.880 17.911671
59.885 17.432184
59.890 17.415081
59.895 17.48531
59.900 17.369711
59.905 17.969469
59.910 18.136694
59.915 18.394114
59.920 18.252907
59.925 17.990412
59.930 17.701435
59.935 17.731281
59.940 17.701654
59.945 17.587685
59.950 18.232216
59.955 18.570173
59.960 18.199476
59.965 18.65403
59.970 19.326426
59.975 19.337027
59.980 19.4666
59.985 19.138315
59.990 19.520681
59.995 20.175762
60.000 20.185383
60.005 19.908506
60.010 20.450903
60.015 20.595215
60.020 20.447968
60.025 20.80789
60.030 20.559061
60.035 20.636837
60.040 20.790571
60.045 20.362532
60.050 20.434889
60.055 20.719254
60.060 20.291708
60.065 19.995388
60.070 20.006294
60.075 20.039774
60.080 19.745787
60.085 20.1982
60.090 20.150497
60.095 20.554354
60.100 20.85714
60.105 21.054604
60.110 21.464323
60.115 21.374176
60.120 20.890001
60.125 21.17231
60.130 21.016909
60.135 21.232559
60.140 20.719198
60.145 20.574766
60.150 21.43469
60.155 22.416609
60.160 21.796524
60.165 21.759872
60.170 21.838753
60.175 22.093922
60.180 21.78895
60.185 21.262768
60.190 20.534971
60.195 20.64159
60.200 20.817223
60.205 21.026165
60.210 20.968456
60.215 20.644609
60.220 20.316004
60.225 20.639444
60.230 20.657574
60.235 20.838898
60.240 20.678444
60.245 20.403276
60.250 20.620308
60.255 20.441748
60.260 21.062595
60.265 20.838041
60.270 20.320799
60.275 20.255949
60.280 20.409559
60.285 20.698923
60.290 21.105865
60.295 20.405651
60.300 20.588783
60.305 20.89146
60.310 21.417467
60.315 21.711214
60.320 21.687176
60.325 21.596548
60.330 21.502222
60.335 21.546274
60.340 22.080191
60.345 21.892885
60.350 21.200266
60.355 21.203714
60.360 21.553526
60.365 21.88559
60.370 22.057034
60.375 21.409843
60.380 21.390388
60.385 21.850342
60.390 21.999731
60.395 21.755745
60.400 21.200823
60.405 20.882105
60.410 20.972975
60.415 21.194204
60.420 20.804073
60.425 20.334501
60.430 20.020763
60.435 19.856876
60.440 19.763947
60.445 19.580515
60.450 19.323515
60.455 19.920902
60.460 20.076708
60.465 20.148132
60.470 20.453749
60.475 20.590023
60.480 20.742765
60.485 20.592829
60.490 20.789951
60.495 21.46471
60.500 21.674839
60.505 21.906464
60.510 21.696363
60.515 21.848944
60.520 22.091337
60.525 22.066643
60.530 21.818562
60.535 21.895737
60.540 21.838327
60.545 21.801369
60.550 21.238546
60.555 20.884129
60.560 20.526215
60.565 20.188984
60.570 19.572449
60.575 19.760078
60.580 19.750158
60.585 19.949173
60.590 20.116535
60.595 19.774229
60.600 19.270689
60.605 19.559027
60.610 19.147615
60.615 19.140303
60.620 19.210978
60.625 19.402983
60.630 20.017534
60.635 20.608139
60.640 20.224039
60.645 19.982494
60.650 20.282677
60.655 20.117374
60.660 19.641382
60.665 19.398075
60.670 19.248859
60.675 19.630054
60.680 19.878557
60.685 19.842163
60.690 19.341324
60.695 19.251726
60.700 19.192636
60.705 19.499329
60.710 19.066614
60.715 18.779318
60.720 18.419638
60.725 18.606003
60.730 18.522715
60.735 18.623665
60.740 18.366093
60.745 18.457455
60.750 18.915709
60.755 19.594225
60.760 20.31027
60.765 20.594971
60.770 20.643999
60.775 20.561314
60.780 20.288889
60.785 19.918045
60.790 19.123087
60.795 18.846445
60.800 18.000175
60.805 17.507265
60.810 17.680964
60.815 18.281605
60.820 18.521912
60.825 19.01132
60.830 19.184725
60.835 19.857407
60.840 19.825712
60.845 20.163755
60.850 20.04998
60.855 19.699827
60.860 18.825367
60.865 18.739752
60.870 18.259579
60.875 18.167953
60.880 18.06254
60.885 17.75182
60.890 17.249058
60.895 16.790504
60.900 16.654749
60.905 16.540956
60.910 16.735008
60.915 16.348875
60.920 16.502216
60.925 17.041315
60.930 18.026535
60.935 18.100191
60.940 18.17622
60.945 18.045042
60.950 17.919846
60.955 17.962303
60.960 18.452566
60.965 18.148155
60.970 18.078091
60.975 18.346231
60.980 18.069818
60.985 17.89444
60.990 17.608826
60.995 17.025242
61.000 16.733208
61.005 16.836468
61.010 16.892792
61.015 17.539106
61.020 17.365026
61.025 16.757921
61.030 17.012053
61.035 17.247562
61.040 17.201077
61.045 16.706411
61.050 16.646362
61.055 16.614445
61.060 16.993685
61.065 16.887651
61.070 16.75308
61.075 16.550974
61.080 16.646034
61.085 16.634693
61.090 16.702578
61.095 16.461937
61.100 15.520457
61.105 15.243628
61.110 15.559728
61.115 15.555484
61.120 15.337715
61.125 15.189604
61.130 15.446504
61.135 16.602091
61.140 16.772694
61.145 16.44179
61.150 16.376717
61.155 16.417503
61.160 16.353035
61.165 16.061981
61.170 15.648934
61.175 15.785315
61.180 16.337936
61.185 16.986961
61.190 16.965691
61.195 17.142879
61.200 17.408434
61.205 17.482843
61.210 17.390562
61.215 17.187548
61.220 16.88052
61.225 17.767143
61.230 18.371531
61.235 18.280293
61.240 18.229328
61.245 18.501465
61.250 18.527845
61.255 18.568752
61.260 18.076056
61.265 17.759636
61.270 17.364044
61.275 16.931765
61.280 16.628569
61.285 16.951065
61.290 16.662453
61.295 16.406851
61.300 16.108913
61.305 16.342319
61.310 16.162622
61.315 16.638046
61.320 16.25535
61.325 16.298159
61.330 16.448721
61.335 17.242455
61.340 17.825928
61.345 18.433397
61.350 17.918869
61.355 17.976789
61.360 18.017035
61.365 18.195934
61.370 17.923573
61.375 17.922083
61.380 18.303671
61.385 18.37855
61.390 18.188282
61.395 17.890886
61.400 18.002495
61.405 17.649206
61.410 16.840569
61.415 16.517015
61.420 16.499807
61.425 15.988097
61.430 16.072556
61.435 15.958056
61.440 16.544855
61.445 16.808996
61.450 16.463169
61.455 16.679863
61.460 16.978018
61.465 17.099186
61.470 17.361595
61.475 17.517359
61.480 17.856821
61.485 18.351938
61.490 18.75412
61.495 19.333548
61.500 19.605703
61.505 19.409435
61.510 19.27116
61.515 19.276745
61.520 19.019417
61.525 18.836504
61.530 18.442881
61.535 18.054035
61.540 18.097288
61.545 17.679823
61.550 17.791006
61.555 18.078102
61.560 18.123932
61.565 18.432264
61.570 18.702665
61.575 19.217783
61.580 19.415751
61.585 19.690834
61.590 19.468309
61.595 19.286339
61.600 19.52483
61.605 19.32086
61.610 19.016504
61.615 18.508018
61.620 18.46117
61.625 18.299067
61.630 17.799341
61.635 17.336201
61.640 17.082626
61.645 16.623011
61.650 16.80114
61.655 16.383966
61.660 16.471363
61.665 16.585373
61.670 16.589031
61.675 16.503412
61.680 16.097376
61.685 16.100031
61.690 15.664347
61.695 15.24588
61.700 15.327295
61.705 15.264853
61.710 15.864462
61.715 16.451971
61.720 16.108505
61.725 16.49159
61.730 16.878328
61.735 17.012175
61.740 16.962568
61.745 16.360783
61.750 15.64952
61.755 15.626483
61.760 15.91552
61.765 16.060431
61.770 16.078928
61.775 16.213079
61.780 16.532852
61.785 17.363817
61.790 17.426481
61.795 17.227749
61.800 17.343414
61.805 17.049129
61.810 17.154247
61.815 16.969503
61.820 16.224798
61.825 16.017199
61.830 16.048447
61.835 16.094582
61.840 16.255003
61.845 16.182495
61.850 16.418297
61.855 17.212717
61.860 17.648058
61.865 17.879616
61.870 17.853346
61.875 18.006283
61.880 17.956085
61.885 17.905653
61.890 18.039154
61.895 17.757589
61.900 17.450207
61.905 17.413704
61.910 17.660057
61.915 17.695543
61.920 17.682714
61.925 17.499264
61.930 17.967369
61.935 17.825344
61.940 17.975977
61.945 17.915962
61.950 18.0471
61.955 17.716248
61.960 17.257013
61.965 16.640497
61.970 16.99964
61.975 16.894302
61.980 16.440327
61.985 16.681715
61.990 17.104172
61.995 17.408556
62.000 17.41777
62.005 16.885494
62.010 16.790394
62.015 16.458115
62.020 16.24124
62.025 16.528994
62.030 16.483761
62.035 17.305222
62.040 17.575073
62.045 17.773245
62.050 17.804626
62.055 16.99017
62.060 17.016363
62.065 17.194071
62.070 16.453341
62.075 16.540367
62.080 16.672918
62.085 17.515467
62.090 17.941448
62.095 17.008411
62.100 16.692627
62.105 16.90678
62.110 16.752474
62.115 16.939701
62.120 17.380016
62.125 17.959803
62.130 18.53978
62.135 19.127842
62.140 19.25897
62.145 19.303837
62.150 18.759901
62.155 18.194902
62.160 18.141582
62.165 18.491901
62.170 18.40856
62.175 18.745544
62.180 18.676729
62.185 18.909977
62.190 18.94051
62.195 18.861671
62.200 18.183586
62.205 17.656252
62.210 17.05987
62.215 16.999149
62.220 16.426157
62.225 16.294603
62.230 16.196512
62.235 16.315365
62.240 16.483999
62.245 16.723085
62.250 17.253668
62.255 17.911587
62.260 17.637709
62.265 17.324589
62.270 17.222759
62.275 17.020752
62.280 17.237736
62.285 16.387747
62.290 15.883254
62.295 16.037745
62.300 16.1651
62.305 16.437105
62.310 16.335316
62.315 15.596154
62.320 15.806207
62.325 15.69129
62.330 15.648357
62.335 15.565725
62.340 15.209466
62.345 15.28234
62.350 15.527022
62.355 15.327063
62.360 14.944099
62.365 14.819928
62.370 14.746568
62.375 14.237901
62.380 14.004572
62.385 13.916471
62.390 14.28833
62.395 14.797174
62.400 15.407937
62.405 15.834037
62.410 17.151953
62.415 18.130941
62.420 18.499891
62.425 18.307327
62.430 18.03438
62.435 17.602955
62.440 17.374006
62.445 17.170839
62.450 17.196388
62.455 17.412785
62.460 18.011343
62.465 18.132435
62.470 17.977598
62.475 17.985107
62.480 17.901072
62.485 17.35198
62.490 16.925297
62.495 16.596846
62.500 16.48045
62.505 17.235371
62.510 17.256399
62.515 16.813395
62.520 17.063465
62.525 17.143446
62.530 17.202551
62.535 17.090103
62.540 16.238167
62.545 16.451084
62.550 16.031361
62.555 15.393761
62.560 15.37182
62.565 15.540906
62.570 15.692333
62.575 15.999044
62.580 15.878451
62.585 16.78064
62.590 16.824102
62.595 16.639658
62.600 16.406881
62.605 16.16135
62.610 15.552996
62.615 15.565323
62.620 15.101658
62.625 15.260526
62.630 15.202065
62.635 15.626258
62.640 15.88534
62.645 16.20713
62.650 16.111536
62.655 16.081863
62.660 16.271774
62.665 16.71459
62.670 16.744205
62.675 17.004787
62.680 17.720377
62.685 17.742489
62.690 17.471556
62.695 16.905594
62.700 16.915125
62.705 17.113626
62.710 16.958632
62.715 16.363934
62.720 16.324018
62.725 17.219688
62.730 18.111187
62.735 17.932577
62.740 17.9249
62.745 18.129276
62.750 18.511206
62.755 19.038897
62.760 19.408213
62.765 18.641722
62.770 18.416323
62.775 17.595533
62.780 17.356108
62.785 17.144863
62.790 16.775169
62.795 16.547121
62.800 16.839287
62.805 16.861258
62.810 17.447929
62.815 17.724592
62.820 17.998331
62.825 17.91674
62.830 17.854706
62.835 17.784277
62.840 18.116016
62.845 17.704433
62.850 17.48786
62.855 17.701002
62.860 17.712547
62.865 17.561285
62.870 17.506479
62.875 17.325544
62.880 17.273336
62.885 16.997421
62.890 16.759993
62.895 16.825361
62.900 16.440706
62.905 16.431578
62.910 16.21817
62.915 16.373133
62.920 16.375769
62.925 15.991487
62.930 15.845414
62.935 16.03154
62.940 16.048788
62.945 16.066002
62.950 16.218992
62.955 16.688194
62.960 16.777325
62.965 16.684843
62.970 17.18745
62.975 17.480494
62.980 17.518185
62.985 18.074158
62.990 18.204126
62.995 18.498739
63.000 18.733313
63.005 18.097914
63.010 17.612659
63.015 17.284184
63.020 16.757093
63.025 16.541096
63.030 16.368391
63.035 16.241819
63.040 16.147444
63.045 16.164465
63.050 16.445625
63.055 16.191057
63.060 15.645194
63.065 15.614747
63.070 15.843983
63.075 16.718962
63.080 17.10449
63.085 17.077324
63.090 16.761585
63.095 16.776241
63.100 16.43465
63.105 16.268354
63.110 15.775521
63.115 15.615008
63.120 15.73972
63.125 16.210983
63.130 16.424891
63.135 16.581976
63.140 15.948482
63.145 15.671944
63.150 15.728394
63.155 15.521435
63.160 15.138125
63.165 15.222507
63.170 15.885533
63.175 16.751314
63.180 17.509869
63.185 17.213467
63.190 17.036732
63.195 17.0819
63.200 17.025694
63.205 16.171946
63.210 15.528068
63.215 15.327571
63.220 15.940661
63.225 16.23634
63.230 16.485083
63.235 16.826475
63.240 17.436394
63.245 17.804317
63.250 17.841829
63.255 17.826525
63.260 18.190699
63.265 18.136412
63.270 18.31638
63.275 18.049395
63.280 17.859726
63.285 18.202671
63.290 18.158205
63.295 17.803799
63.300 17.572693
63.305 17.1681
63.310 17.904095
63.315 18.717793
63.320 18.16143
63.325 18.179176
63.330 18.073652
63.335 18.512985
63.340 18.63884
63.345 17.590622
63.350 16.203537
63.355 16.555368
63.360 16.105122
63.365 16.169247
63.370 16.052851
63.375 15.879228
63.380 16.501726
63.385 17.298513
63.390 17.534872
63.395 17.742115
63.400 17.852459
63.405 17.638409
63.410 17.769325
63.415 17.689234
63.420 17.571394
63.425 17.883863
63.430 18.328924
63.435 18.372131
63.440 18.468742
63.445 18.515564
63.450 18.786236
63.455 18.227472
63.460 17.324024
63.465 16.999004
63.470 17.404293
63.475 17.739956
63.480 17.955187
63.485 18.062185
63.490 18.500431
63.495 18.650145
63.500 18.705275
63.505 17.720703
63.510 17.021774
63.515 16.663637
63.520 16.464134
63.525 16.74085
63.530 16.801231
63.535 16.861551
63.540 17.579485
63.545 17.683935
63.550 17.775221
63.555 18.058483
63.560 17.635075
63.565 17.318657
63.570 16.850525
63.575 16.387182
63.580 16.455101
63.585 15.548014
63.590 14.804669
63.595 14.649956
63.600 15.003022
63.605 15.555891
63.610 16.015348
63.615 16.541203
63.620 17.62978
63.625 18.253633
63.630 18.464964
63.635 19.122179
63.640 19.030462
63.645 18.997995
63.650 19.004827
63.655 18.685312
63.660 18.300411
63.665 17.852522
63.670 17.336273
63.675 17.616772
63.680 17.341873
63.685 16.797295
63.690 16.759979
63.695 16.923023
63.700 17.698942
63.705 17.6373
63.710 17.147007
63.715 17.237141
63.720 17.662094
63.725 17.77837
63.730 17.823389
63.735 17.086502
63.740 16.626816
63.745 16.762974
63.750 16.861677
63.755 16.733147
63.760 16.486349
63.765 15.981728
63.770 15.802235
63.775 16.177271
63.780 16.657526
63.785 16.439054
63.790 16.087261
63.795 16.34103
63.800 17.397253
63.805 17.655352
63.810 17.646296
63.815 17.374929
63.820 17.917223
63.825 18.407154
63.830 18.148336
63.835 18.171032
63.840 18.722555
63.845 18.442986
63.850 18.256704
63.855 17.578003
63.860 17.346296
63.865 17.553526
63.870 16.803755
63.875 16.153572
63.880 16.367186
63.885 16.636002
63.890 17.291836
63.895 17.290836
63.900 17.055197
63.905 17.411587
63.910 17.571276
63.915 16.899931
63.920 16.516609
63.925 16.076864
63.930 16.235655
63.935 15.882538
63.940 15.62858
63.945 16.017529
63.950 16.54158
63.955 17.191668
63.960 17.476667
63.965 17.656818
63.970 17.953001
63.975 18.10524
63.980 17.924377
63.985 18.044502
63.990 17.874311
63.995 18.076891
64.000 18.291277
64.005 19.104294
64.010 19.439642
64.015 19.772369
64.020 20.107662
64.025 20.538187
64.030 20.064457
64.035 19.938534
64.040 19.467684
64.045 19.2481
64.050 19.294554
64.055 18.735134
64.060 17.968525
64.065 18.115299
64.070 18.359823
64.075 18.22262
64.080 18.065365
64.085 17.966902
64.090 17.986004
64.095 17.717871
64.100 17.373016
64.105 17.038
64.110 17.119463
64.115 17.457426
64.120 17.887398
64.125 18.147343
64.130 18.1901
64.135 18.448345
64.140 18.453506
64.145 18.37291
64.150 17.600716
64.155 16.491146
64.160 15.988753
64.165 15.900516
64.170 15.673992
64.175 15.748292
64.180 16.108578
64.185 16.361868
64.190 16.620173
64.195 17.09004
64.200 17.351507
64.205 17.237118
64.210 17.307961
64.215 16.780886
64.220 16.252407
64.225 16.365515
64.230 16.062344
64.235 15.961656
64.240 16.160273
64.245 16.080818
64.250 16.367723
64.255 17.034575
64.260 17.556437
64.265 17.894178
64.270 17.756222
64.275 17.812576
64.280 18.232965
64.285 18.664261
64.290 19.100359
64.295 19.084162
64.300 19.246895
64.305 19.144182
64.310 18.789352
64.315 18.712967
64.320 18.19644
64.325 17.754444
64.330 17.373173
64.335 17.132656
64.340 17.423296
64.345 17.45797
64.350 17.504631
64.355 18.056227
64.360 18.603624
64.365 18.994852
64.370 19.42333
64.375 19.369514
64.380 19.239012
64.385 19.279232
64.390 18.840193
64.395 18.227762
64.400 18.15205
64.405 17.919201
64.410 18.161139
64.415 18.148554
64.420 17.86673
64.425 17.385139
64.430 16.919285
64.435 17.135651
64.440 18.00296
64.445 18.156902
64.450 18.007534
64.455 18.067636
64.460 18.386755
64.465 18.65527
64.470 18.43432
64.475 18.130253
64.480 18.268415
64.485 18.83478
64.490 19.391958
64.495 19.664173
64.500 20.497679
64.505 20.312639
64.510 19.779779
64.515 19.357655
64.520 18.888575
64.525 18.8363
64.530 18.763741
64.535 19.32366
64.540 19.097252
64.545 19.023315
64.550 19.404205
64.555 19.603575
64.560 19.119392
64.565 19.23983
64.570 18.782789
64.575 18.640587
64.580 18.786209
64.585 18.968016
64.590 18.462311
64.595 18.620487
64.600 18.017466
64.605 17.975016
64.610 18.606354
64.615 18.470066
64.620 17.843996
64.625 18.065855
64.630 17.872936
64.635 17.87854
64.640 17.585684
64.645 16.627121
64.650 16.15427
64.655 15.862331
64.660 15.817488
64.665 16.143087
64.670 16.665668
64.675 17.441334
64.680 17.938557
64.685 18.230581
64.690 18.417904
64.695 18.581615
64.700 18.640156
64.705 18.249401
64.710 17.891315
64.715 18.299381
64.720 18.50227
64.725 18.552431
64.730 18.094099
64.735 17.786835
64.740 17.972363
64.745 18.494034
64.750 18.490635
64.755 19.024057
64.760 19.247478
64.765 19.861399
64.770 20.165775
64.775 19.619183
64.780 18.881811
64.785 18.570002
64.790 18.471201
64.795 18.493155
64.800 18.542343
64.805 18.322933
64.810 18.620018
64.815 19.07415
64.820 19.214663
64.825 18.415358
64.830 18.762346
64.835 18.746799
64.840 19.075373
64.845 18.967932
64.850 18.382515
64.855 18.378819
64.860 18.578648
64.865 18.600004
64.870 18.732075
64.875 18.640301
64.880 18.588034
64.885 19.471464
64.890 19.595013
64.895 19.543913
64.900 19.570364
64.905 19.509407
64.910 19.633717
64.915 19.677294
64.920 19.429861
64.925 19.952791
64.930 20.064014
64.935 19.986031
64.940 20.101301
64.945 19.87775
64.950 20.231571
64.955 20.443085
64.960 20.319189
64.965 20.704208
64.970 20.736866
64.975 20.85663
64.980 21.30949
64.985 21.97304
64.990 22.54888
64.995 22.830853
65.000 22.803921
65.005 22.371403
65.010 22.664391
65.015 22.232006
65.020 21.938595
65.025 21.424051
65.030 20.910028
65.035 21.333103
65.040 22.092136
65.045 21.926607
65.050 22.249229
65.055 21.550903
65.060 21.1873
65.065 21.952263
65.070 21.840023
65.075 21.143362
65.080 21.363861
65.085 21.8067
65.090 21.713644
65.095 21.759239
65.100 21.214228
65.105 21.242485
65.110 22.035557
65.115 21.792082
65.120 21.325029
65.125 21.434889
65.130 22.196981
65.135 22.251623
65.140 22.323879
65.145 22.046528
65.150 22.476437
65.155 22.40119
65.160 22.535709
65.165 22.389824
65.170 22.329182
65.175 22.222406
65.180 21.682123
65.185 21.509773
65.190 21.838739
65.195 21.772991
65.200 21.757671
65.205 21.665941
65.210 22.002956
65.215 22.376493
65.220 22.619173
65.225 22.616175
65.230 22.815916
65.235 22.649384
65.240 22.828501
65.245 22.364082
65.250 22.203703
65.255 22.25337
65.260 22.60457
65.265 22.636229
65.270 22.196287
65.275 21.974037
65.280 21.887678
65.285 21.135843
65.290 20.503031
65.295 20.215643
65.300 20.296261
65.305 20.79331
65.310 21.097982
65.315 21.467205
65.320 21.663223
65.325 21.883305
65.330 21.844887
65.335 21.38965
65.340 20.912851
65.345 20.552895
65.350 20.142662
65.355 20.591362
65.360 20.791306
65.365 21.21595
65.370 21.904606
65.375 22.262245
65.380 22.005762
65.385 22.593351
65.390 22.423643
65.395 22.4403
65.400 22.521559
65.405 22.445917
65.410 23.557655
65.415 24.171427
65.420 23.788321
65.425 23.784241
65.430 23.737047
65.435 23.244009
65.440 23.036341
65.445 22.674126
65.450 22.819714
65.455 23.111389
65.460 23.83276
65.465 24.41395
65.470 25.583633
65.475 25.862547
65.480 25.687656
65.485 25.932337
65.490 26.601534
65.495 26.368282
65.500 26.275494
65.505 25.977116
65.510 26.214806
65.515 26.167576
65.520 26.465963
65.525 26.522255
65.530 26.672009
65.535 26.494125
65.540 26.6756
65.545 26.529024
65.550 26.654411
65.555 26.839947
65.560 26.784843
65.565 27.124104
65.570 27.36817
65.575 27.646482
65.580 27.927431
65.585 28.659723
65.590 29.292236
65.595 29.289406
65.600 29.203192
65.605 29.16222
65.610 29.62887
65.615 30.267296
65.620 30.100374
65.625 30.430235
65.630 30.898783
65.635 31.264851
65.640 31.779741
65.645 31.553661
65.650 31.065752
65.655 30.986788
65.660 30.36618
65.665 30.086733
65.670 30.518639
65.675 30.563992
65.680 31.070925
65.685 31.315781
65.690 32.434959
65.695 32.316776
65.700 32.358936
65.705 32.363064
65.710 32.640594
65.715 33.446743
65.720 33.66901
65.725 33.674088
65.730 34.682091
65.735 35.005085
65.740 34.752743
65.745 34.640472
65.750 34.349274
65.755 34.890148
65.760 34.544979
65.765 34.730072
65.770 35.473301
65.775 35.695332
65.780 35.477829
65.785 35.279808
65.790 34.951065
65.795 34.997704
65.800 35.188969
65.805 34.515621
65.810 34.307152
65.815 34.149757
65.820 34.317661
65.825 34.403858
65.830 35.055004
65.835 35.234722
65.840 35.964001
65.845 36.679771
65.850 37.152061
65.855 37.276768
65.860 37.200607
65.865 36.815628
65.870 36.177853
65.875 36.245865
65.880 36.446049
65.885 37.080036
65.890 37.673256
65.895 37.561981
65.900 38.036072
65.905 38.299191
65.910 37.985374
65.915 37.917385
65.920 37.849926
65.925 38.681171
65.930 39.412216
65.935 39.903679
65.940 40.192078
65.945 39.940132
65.950 40.002575
65.955 40.100891
65.960 38.700943
65.965 38.789963
65.970 38.231316
65.975 38.06041
65.980 38.385487
65.985 38.432541
65.990 38.182758
65.995 38.867195
66.000 37.766689
66.005 37.326126
66.010 37.583744
66.015 37.292637
66.020 37.219082
66.025 36.782471
66.030 36.13422
66.035 36.084801
66.040 36.356289
66.045 35.635216
66.050 35.369724
66.055 34.525322
66.060 34.60701
66.065 35.08609
66.070 35.005444
66.075 34.6087
66.080 35.534359
66.085 36.056137
66.090 36.286839
66.095 36.417625
66.100 36.278278
66.105 35.873856
66.110 35.545338
66.115 35.461163
66.120 35.329754
66.125 35.176468
66.130 35.02018
66.135 35.294323
66.140 35.347019
66.145 34.864685
66.150 33.697613
66.155 33.401978
66.160 33.574997
66.165 33.401653
66.170 33.472843
66.175 34.258385
66.180 34.445251
66.185 35.223759
66.190 35.097866
66.195 35.170517
66.200 34.31683
66.205 33.625797
66.210 33.678089
66.215 33.583843
66.220 33.21125
66.225 33.304852
66.230 32.89912
66.235 33.692604
66.240 33.555614
66.245 33.657143
66.250 33.946274
66.255 34.342751
66.260 34.338928
66.265 34.168697
66.270 33.974251
66.275 33.802254
66.280 33.295269
66.285 32.997665
66.290 32.677624
66.295 32.310516
66.300 32.248577
66.305 31.947266
66.310 31.34111
66.315 30.430023
66.320 29.923384
66.325 29.853479
66.330 30.641954
66.335 30.881247
66.340 30.634151
66.345 30.602497
66.350 30.41391
66.355 30.579353
66.360 30.032558
66.365 29.069101
66.370 28.71454
66.375 28.139862
66.380 28.776266
66.385 28.954653
66.390 28.637733
66.395 29.193333
66.400 29.759819
66.405 29.659731
66.410 29.040758
66.415 28.583714
66.420 28.485798
66.425 28.255932
66.430 27.970245
66.435 27.7694
66.440 28.265348
66.445 28.379475
66.450 28.217173
66.455 28.630936
66.460 27.980373
66.465 27.920126
66.470 28.519629
66.475 28.791119
66.480 30.074406
66.485 30.352657
66.490 30.209188
66.495 30.307293
66.500 29.048479
66.505 28.261482
66.510 28.106588
66.515 27.320034
66.520 27.673544
66.525 27.74221
66.530 27.656403
66.535 28.063725
66.540 27.45536
66.545 27.246056
66.550 26.807293
66.555 26.234724
66.560 26.090956
66.565 26.818222
66.570 27.419859
66.575 27.270838
66.580 26.896967
66.585 26.517712
66.590 26.107315
66.595 25.862164
66.600 25.805714
66.605 25.952692
66.610 25.898695
66.615 25.928888
66.620 25.933786
66.625 26.600845
66.630 27.370489
66.635 27.085409
66.640 26.420263
66.645 26.914
66.650 26.57478
66.655 26.77977
66.660 25.855618
66.665 25.177832
66.670 25.400581
66.675 25.433878
66.680 25.911959
66.685 26.376429
66.690 26.045128
66.695 25.884768
66.700 25.55102
66.705 25.348349
66.710 25.236891
66.715 24.581804
66.720 24.55084
66.725 24.504768
66.730 24.791441
66.735 24.769966
66.740 24.492577
66.745 24.540678
66.750 25.04845
66.755 25.311155
66.760 25.416737
66.765 25.454779
66.770 25.222027
66.775 25.265406
66.780 25.349062
66.785 24.829523
66.790 24.932951
66.795 24.894537
66.800 24.599197
66.805 24.871002
66.810 24.952227
66.815 24.537155
66.820 23.985395
66.825 23.363735
66.830 23.742214
66.835 23.177246
66.840 23.43581
66.845 23.100943
66.850 22.770588
66.855 22.718294
66.860 22.692354
66.865 22.607874
66.870 23.155201
66.875 23.384251
66.880 23.543663
66.885 23.365948
66.890 22.99836
66.895 22.941212
66.900 22.830297
66.905 23.132105
66.910 23.503027
66.915 23.600718
66.920 24.01767
66.925 24.884609
66.930 24.506041
66.935 23.718847
66.940 23.225636
66.945 22.946344
66.950 22.508293
66.955 22.559153
66.960 21.808489
66.965 22.373793
66.970 23.110537
66.975 22.687622
66.980 22.353491
66.985 22.501183
66.990 22.263889
66.995 22.324633
67.000 21.241749
67.005 21.553186
67.010 21.90802
67.015 21.635071
67.020 21.537405
67.025 21.40925
67.030 21.844053
67.035 22.991533
67.040 22.573666
67.045 22.714025
67.050 22.948599
67.055 22.950388
67.060 22.871115
67.065 22.881262
67.070 22.716467
67.075 22.86071
67.080 21.983902
67.085 21.54109
67.090 21.417175
67.095 21.693277
67.100 21.711634
67.105 21.305128
67.110 20.902567
67.115 21.163208
67.120 21.727404
67.125 21.901714
67.130 21.148899
67.135 20.648169
67.140 20.963516
67.145 21.354721
67.150 22.10063
67.155 21.854898
67.160 21.754154
67.165 22.234434
67.170 22.235384
67.175 22.23526
67.180 21.853918
67.185 21.814981
67.190 22.278261
67.195 22.931492
67.200 22.490887
67.205 22.189526
67.210 21.770258
67.215 21.892082
67.220 21.736895
67.225 21.129694
67.230 21.091539
67.235 21.613157
67.240 21.554424
67.245 21.946741
67.250 21.476713
67.255 21.20817
67.260 21.070894
67.265 20.92909
67.270 21.069284
67.275 20.658142
67.280 20.447233
67.285 21.116402
67.290 21.459635
67.295 21.429916
67.300 21.310997
67.305 21.460899
67.310 21.848751
67.315 22.199123
67.320 22.03072
67.325 21.863096
67.330 22.21069
67.335 22.271729
67.340 22.489305
67.345 22.894869
67.350 22.642338
67.355 22.262833
67.360 22.176781
67.365 21.596313
67.370 21.580606
67.375 21.387383
67.380 20.869974
67.385 21.35969
67.390 21.185335
67.395 21.066597
67.400 21.477751
67.405 21.563265
67.410 21.462149
67.415 21.835663
67.420 21.517273
67.425 21.927973
67.430 22.574699
67.435 22.66482
67.440 22.619383
67.445 22.584703
67.450 22.347061
67.455 22.312626
67.460 21.65946
67.465 20.967415
67.470 20.688717
67.475 20.418293
67.480 20.494799
67.485 20.792217
67.490 21.145718
67.495 21.570709
67.500 22.195192
67.505 22.845404
67.510 23.36832
67.515 23.446512
67.520 23.246868
67.525 23.204771
67.530 23.320303
67.535 22.52034
67.540 21.77903
67.545 22.305479
67.550 22.263292
67.555 22.340628
67.560 22.257809
67.565 22.234621
67.570 22.856283
67.575 22.410219
67.580 21.705185
67.585 21.90011
67.590 22.146931
67.595 21.884638
67.600 22.081848
67.605 22.273914
67.610 22.729849
67.615 23.040836
67.620 22.416351
67.625 22.449987
67.630 22.847002
67.635 22.640123
67.640 22.052832
67.645 21.344524
67.650 20.897617
67.655 20.912592
67.660 20.32325
67.665 19.991678
67.670 20.040487
67.675 20.114544
67.680 20.618433
67.685 20.983166
67.690 21.328753
67.695 22.025871
67.700 21.576176
67.705 21.275537
67.710 21.461121
67.715 21.333696
67.720 20.734589
67.725 20.066357
67.730 19.733255
67.735 20.433958
67.740 20.62208
67.745 20.465895
67.750 20.650177
67.755 20.933651
67.760 21.15192
67.765 21.35194
67.770 21.415798
67.775 21.870825
67.780 21.548704
67.785 21.225897
67.790 21.164066
67.795 20.806297
67.800 20.378984
67.805 20.035233
67.810 19.75141
67.815 20.171398
67.820 20.009262
67.825 19.733582
67.830 20.35264
67.835 20.266911
67.840 19.900257
67.845 19.962183
67.850 20.239935
67.855 20.56464
67.860 20.804682
67.865 20.5056
67.870 21.064976
67.875 21.710136
67.880 21.643938
67.885 21.229429
67.890 21.203606
67.895 20.951643
67.900 21.128992
67.905 21.260281
67.910 21.329885
67.915 21.704882
67.920 21.377441
67.925 21.395927
67.930 21.674206
67.935 22.043518
67.940 21.504627
67.945 20.76889
67.950 20.502331
67.955 20.839388
67.960 20.847155
67.965 20.613585
67.970 20.524942
67.975 20.632069
67.980 21.07239
67.985 21.317602
67.990 21.283401
67.995 21.409002
68.000 20.701773
68.005 20.11331
68.010 20.435083
68.015 20.690224
68.020 20.972271
68.025 20.87604
68.030 20.892773
68.035 21.479954
68.040 21.630924
68.045 21.392797
68.050 21.123423
68.055 20.784245
68.060 21.386168
68.065 21.662779
68.070 21.567816
68.075 21.563435
68.080 21.50469
68.085 21.558723
68.090 21.211164
68.095 20.368406
68.100 20.643314
68.105 20.75514
68.110 21.389444
68.115 21.489407
68.120 21.89262
68.125 22.550455
68.130 22.774881
68.135 22.190044
68.140 21.363815
68.145 21.003592
68.150 21.105019
68.155 21.34329
68.160 21.732134
68.165 22.128582
68.170 22.503839
68.175 22.954206
68.180 23.025126
68.185 22.806366
68.190 22.125761
68.195 21.231213
68.200 20.915939
68.205 20.392403
68.210 20.496803
68.215 20.233948
68.220 20.446239
68.225 20.832876
68.230 21.005816
68.235 20.402058
68.240 20.535278
68.245 20.538441
68.250 20.494738
68.255 19.738258
68.260 19.529121
68.265 19.98744
68.270 20.69492
68.275 20.96468
68.280 20.526894
68.285 20.336105
68.290 20.600931
68.295 21.231619
68.300 21.329494
68.305 20.912352
68.310 20.739054
68.315 20.886761
68.320 20.614536
68.325 20.421959
68.330 19.779373
68.335 20.094898
68.340 20.528538
68.345 20.83209
68.350 21.241192
68.355 21.735771
68.360 21.766722
68.365 21.626064
68.370 21.487032
68.375 21.546154
68.380 22.012932
68.385 22.610422
68.390 22.500351
68.395 22.137379
68.400 21.864403
68.405 21.699802
68.410 21.317354
68.415 20.598913
68.420 20.242777
68.425 20.144657
68.430 21.067432
68.435 21.784603
68.440 21.764986
68.445 22.184324
68.450 21.745361
68.455 21.693136
68.460 22.253349
68.465 22.099852
68.470 21.734987
68.475 21.305103
68.480 21.437141
68.485 21.200306
68.490 21.022146
68.495 20.640234
68.500 20.285709
68.505 20.410416
68.510 20.242231
68.515 19.828495
68.520 20.264971
68.525 20.672787
68.530 20.962
68.535 20.65505
68.540 19.86183
68.545 20.225914
68.550 20.198103
68.555 20.55245
68.560 20.495964
68.565 21.293472
68.570 22.189146
68.575 23.219955
68.580 22.889589
68.585 23.087971
68.590 22.278461
68.595 21.199408
68.600 19.651844
68.605 19.380075
68.610 18.922733
68.615 19.164179
68.620 19.097628
68.625 19.610371
68.630 20.218729
68.635 20.859528
68.640 20.892324
68.645 20.880604
68.650 20.759237
68.655 20.483627
68.660 20.23905
68.665 20.326218
68.670 20.233383
68.675 20.756603
68.680 21.430439
68.685 21.852579
68.690 22.205566
68.695 22.012077
68.700 21.892597
68.705 21.585667
68.710 21.194677
68.715 21.520121
68.720 21.980045
68.725 22.462267
68.730 22.897861
68.735 23.29892
68.740 23.278574
68.745 23.372013
68.750 23.25746
68.755 22.617476
68.760 23.446144
68.765 23.842041
68.770 23.882509
68.775 24.069649
68.780 23.600801
68.785 23.509356
68.790 24.111925
68.795 22.650396
68.800 22.428291
68.805 22.5709
68.810 23.030136
68.815 23.234032
68.820 23.205225
68.825 23.076569
68.830 23.033361
68.835 23.046135
68.840 23.099106
68.845 22.98481
68.850 22.694866
68.855 22.495155
68.860 22.212006
68.865 21.631697
68.870 20.810555
68.875 20.428446
68.880 20.304243
68.885 20.736158
68.890 21.227793
68.895 21.555107
68.900 23.226492
68.905 23.852549
68.910 23.862673
68.915 23.715061
68.920 23.771614
68.925 23.234066
68.930 23.091969
68.935 23.216623
68.940 23.419428
68.945 22.979845
68.950 23.302456
68.955 22.802141
68.960 23.186373
68.965 23.165281
68.970 22.634396
68.975 23.078682
68.980 23.515507
68.985 23.553598
68.990 23.695766
68.995 23.5221
69.000 23.38212
69.005 24.167553
69.010 24.847273
69.015 24.939854
69.020 24.7815
69.025 24.526379
69.030 25.077597
69.035 25.340206
69.040 24.857004
69.045 24.217499
69.050 24.591635
69.055 24.807756
69.060 24.807133
69.065 24.020252
69.070 23.313648
69.075 22.606073
69.080 23.026041
69.085 22.866472
69.090 23.088226
69.095 23.187151
69.100 24.09083
69.105 24.627163
69.110 25.428909
69.115 24.633699
69.120 24.259792
69.125 24.887838
69.130 25.578072
69.135 25.534536
69.140 25.650314
69.145 25.474443
69.150 26.194227
69.155 25.779799
69.160 25.027945
69.165 24.739096
69.170 25.322151
69.175 25.830236
69.180 25.753826
69.185 26.591436
69.190 27.185457
69.195 27.294365
69.200 26.899294
69.205 26.742577
69.210 27.032694
69.215 27.674095
69.220 26.947611
69.225 26.530355
69.230 26.633938
69.235 26.288744
69.240 26.217228
69.245 25.497633
69.250 25.225891
69.255 25.463366
69.260 25.984329
69.265 26.017416
69.270 25.941172
69.275 26.414665
69.280 26.751255
69.285 26.643932
69.290 27.226322
69.295 27.359102
69.300 28.193054
69.305 28.191071
69.310 27.489136
69.315 27.028519
69.320 26.977247
69.325 26.398861
69.330 26.606024
69.335 26.808491
69.340 27.008711
69.345 27.124094
69.350 26.76296
69.355 27.322203
69.360 28.175253
69.365 28.66275
69.370 28.35874
69.375 27.987682
69.380 28.848402
69.385 29.382309
69.390 28.872559
69.395 28.297766
69.400 28.243814
69.405 29.231785
69.410 30.174192
69.415 29.891529
69.420 30.129789
69.425 30.851557
69.430 30.515701
69.435 29.387442
69.440 28.966541
69.445 28.835762
69.450 29.237604
69.455 28.232723
69.460 27.666056
69.465 27.603811
69.470 28.077826
69.475 28.60561
69.480 28.86397
69.485 28.843357
69.490 29.208416
69.495 29.2164
69.500 29.529394
69.505 29.240614
69.510 28.114128
69.515 27.011175
69.520 27.2992
69.525 27.559624
69.530 27.693922
69.535 27.673452
69.540 27.728296
69.545 28.88225
69.550 29.1373
69.555 28.24201
69.560 27.558893
69.565 27.452681
69.570 28.062862
69.575 28.350714
69.580 27.671558
69.585 27.486544
69.590 27.481375
69.595 26.906342
69.600 26.321981
69.605 25.905052
69.610 26.646084
69.615 27.544565
69.620 28.135824
69.625 29.054882
69.630 29.958128
69.635 30.805847
69.640 30.568132
69.645 29.563744
69.650 28.982256
69.655 29.106342
69.660 28.649963
69.665 27.996803
69.670 28.001272
69.675 28.402067
69.680 28.360495
69.685 28.30615
69.690 28.00351
69.695 28.316092
69.700 28.607742
69.705 28.088039
69.710 27.462435
69.715 27.369585
69.720 27.303904
69.725 27.079468
69.730 27.178057
69.735 26.871872
69.740 27.100939
69.745 27.650419
69.750 27.835846
69.755 27.927097
69.760 27.595671
69.765 27.181822
69.770 27.157368
69.775 26.500614
69.780 25.253622
69.785 24.526537
69.790 24.819559
69.795 25.220856
69.800 25.909302
69.805 26.321877
69.810 26.370661
69.815 27.230631
69.820 27.654966
69.825 26.836933
69.830 26.709705
69.835 26.81074
69.840 26.541445
69.845 26.631432
69.850 26.245518
69.855 26.261171
69.860 26.055996
69.865 25.178944
69.870 24.657314
69.875 24.73625
69.880 24.750734
69.885 25.027822
69.890 25.572323
69.895 25.923244
69.900 26.475918
69.905 26.215826
69.910 25.337267
69.915 25.141525
69.920 24.874918
69.925 24.061871
69.930 23.789709
69.935 23.256168
69.940 23.580381
69.945 23.793276
69.950 23.457558
69.955 22.97331
69.960 22.618959
69.965 22.934877
69.970 22.136021
69.975 21.639687
69.980 21.666386
69.985 21.785521
69.990 21.948381
69.995 21.808064
70.000 21.524914
70.005 21.529169
70.010 20.760578
70.015 20.624847
70.020 21.071667
70.025 21.239227
70.030 21.474825
70.035 21.520586
70.040 21.638947
70.045 21.846382
70.050 21.427273
70.055 20.894188
70.060 20.713896
70.065 20.359667
70.070 20.263464
70.075 20.444818
70.080 20.220135
70.085 20.542936
70.090 20.286278
70.095 20.306326
70.100 19.550619
70.105 19.862579
70.110 20.218018
70.115 20.882137
70.120 20.947113
70.125 21.37896
70.130 21.217285
70.135 21.617125
70.140 22.009224
70.145 21.900175
70.150 22.028198
70.155 21.921963
70.160 22.175034
70.165 21.903479
70.170 21.732889
70.175 21.461773
70.180 20.677986
70.185 20.172852
70.190 19.872805
70.195 19.884905
70.200 20.541353
70.205 20.536427
70.210 20.847031
70.215 21.67717
70.220 21.474997
70.225 20.969805
70.230 20.317785
70.235 20.262356
70.240 20.70348
70.245 20.025497
70.250 19.381916
70.255 19.394449
70.260 19.493696
70.265 20.130035
70.270 19.276937
70.275 18.1474
70.280 17.740755
70.285 17.707832
70.290 18.056925
70.295 18.170898
70.300 17.856472
70.305 18.318403
70.310 19.508247
70.315 20.126249
70.320 20.194027
70.325 20.445272
70.330 20.346792
70.335 20.011106
70.340 20.613714
70.345 20.212473
70.350 20.879663
70.355 20.838074
70.360 20.295372
70.365 20.275866
70.370 20.265415
70.375 19.859749
70.380 19.521507
70.385 18.91497
70.390 19.135368
70.395 19.346701
70.400 19.58333
70.405 19.607353
70.410 19.5172
70.415 19.381369
70.420 18.893166
70.425 19.063738
70.430 18.984701
70.435 19.056711
70.440 19.444817
70.445 19.983572
70.450 20.028757
70.455 20.0793
70.460 20.176596
70.465 20.36285
70.470 20.432558
70.475 20.011497
70.480 19.661222
70.485 19.668762
70.490 19.815868
70.495 19.678383
70.500 19.428673
70.505 18.979856
70.510 19.425209
70.515 19.61269
70.520 19.605095
70.525 18.872673
70.530 18.188446
70.535 18.277788
70.540 18.417625
70.545 18.356451
70.550 18.481802
70.555 18.933716
70.560 20.23794
70.565 20.350086
70.570 20.548378
70.575 20.050499
70.580 20.346891
70.585 20.095608
70.590 20.094629
70.595 19.483635
70.600 18.921967
70.605 19.033527
70.610 19.239952
70.615 19.201809
70.620 19.769423
70.625 19.656401
70.630 20.12678
70.635 20.486866
70.640 20.40666
70.645 20.073721
70.650 19.5793
70.655 19.118866
70.660 19.318996
70.665 19.23966
70.670 19.036249
70.675 18.622276
70.680 18.531073
70.685 18.709991
70.690 19.210546
70.695 19.172489
70.700 19.256577
70.705 19.488396
70.710 19.990555
70.715 19.977249
70.720 19.877918
70.725 19.538717
70.730 20.174038
70.735 20.499458
70.740 20.542572
70.745 20.039482
70.750 20.588936
70.755 20.526188
70.760 20.190926
70.765 19.594324
70.770 19.425838
70.775 19.71843
70.780 19.561462
70.785 19.231445
70.790 19.056597
70.795 18.886795
70.800 19.253942
70.805 19.317488
70.810 19.420252
70.815 20.094873
70.820 20.357697
70.825 20.54788
70.830 20.159321
70.835 20.004375
70.840 20.551334
70.845 20.029558
70.850 19.581469
70.855 19.085064
70.860 18.891893
70.865 19.338177
70.870 19.064318
70.875 18.581158
70.880 18.868181
70.885 19.523664
70.890 19.91321
70.895 19.875322
70.900 19.202066
70.905 19.123011
70.910 19.388945
70.915 19.43811
70.920 18.908405
70.925 18.597448
70.930 18.59429
70.935 18.911688
70.940 18.853437
70.945 18.698387
70.950 19.258371
70.955 19.234369
70.960 19.556164
70.965 19.338053
70.970 18.912029
70.975 19.099667
70.980 19.139315
70.985 18.744879
70.990 18.743568
70.995 18.477364
71.000 18.907736
71.005 19.277122
71.010 19.152252
71.015 19.249432
71.020 19.563839
71.025 19.889202
71.030 20.02766
71.035 19.932701
71.040 19.400282
71.045 19.012854
71.050 18.6134
71.055 18.028805
71.060 17.545408
71.065 17.896372
71.070 17.863594
71.075 18.061415
71.080 17.816664
71.085 17.855577
71.090 17.829901
71.095 18.081072
71.100 17.707539
71.105 17.836704
71.110 18.216175
71.115 18.600803
71.120 18.220449
71.125 18.742403
71.130 18.982639
71.135 19.268011
71.140 19.3818
71.145 19.365509
71.150 19.652157
71.155 20.048616
71.160 20.285324
71.165 19.620087
71.170 19.334021
71.175 19.437809
71.180 19.232122
71.185 18.686808
71.190 17.922134
71.195 17.417263
71.200 17.67815
71.205 18.128504
71.210 18.120926
71.215 18.160406
71.220 18.777191
71.225 18.958904
71.230 19.140099
71.235 19.34342
71.240 18.935911
71.245 18.88793
71.250 18.548851
71.255 18.889359
71.260 19.27541
71.265 19.590328
71.270 19.452095
71.275 19.301121
71.280 19.095089
71.285 19.310738
71.290 18.711798
71.295 18.57411
71.300 18.548037
71.305 18.30011
71.310 18.472046
71.315 18.656206
71.320 18.848547
71.325 18.94343
71.330 18.702911
71.335 18.245684
71.340 18.757044
71.345 19.080339
71.350 19.067726
71.355 18.825163
71.360 18.849558
71.365 18.856958
71.370 18.805664
71.375 19.266529
71.380 19.055225
71.385 19.17605
71.390 19.080055
71.395 19.22937
71.400 19.315908
71.405 19.217392
71.410 18.94916
71.415 18.818945
71.420 18.802183
71.425 18.787518
71.430 18.290783
71.435 17.598541
71.440 17.13624
71.445 16.976234
71.450 17.007641
71.455 17.042843
71.460 17.000849
71.465 17.4578
71.470 18.0781
71.475 18.452951
71.480 18.707809
71.485 19.021135
71.490 18.57622
71.495 18.395248
71.500 18.907492
71.505 19.069769
71.510 19.579159
71.515 19.554193
71.520 19.405743
71.525 19.465027
71.530 20.062168
71.535 19.720028
71.540 19.479097
71.545 19.043005
71.550 18.747896
71.555 18.814119
71.560 19.038309
71.565 18.945976
71.570 18.631844
71.575 17.840197
71.580 17.922335
71.585 17.87373
71.590 17.939003
71.595 17.401114
71.600 17.130407
71.605 17.338728
71.610 17.816242
71.615 17.54775
71.620 17.41189
71.625 16.880499
71.630 16.972483
71.635 16.839031
71.640 17.333841
71.645 17.553875
71.650 17.371647
71.655 17.648394
71.660 18.003477
71.665 18.463831
71.670 18.437008
71.675 18.512218
71.680 18.873987
71.685 19.483137
71.690 19.458202
71.695 19.204889
71.700 19.290672
71.705 18.678539
71.710 17.973812
71.715 16.9636
71.720 16.645493
71.725 17.191999
71.730 17.325575
71.735 17.482767
71.740 18.081358
71.745 17.756788
71.750 17.713438
71.755 17.177858
71.760 17.335426
71.765 17.297091
71.770 17.580072
71.775 17.623846
71.780 17.760857
71.785 18.998377
71.790 19.365675
71.795 19.198177
71.800 19.230742
71.805 18.724094
71.810 19.252789
71.815 19.590992
71.820 19.104616
71.825 19.337627
71.830 19.388189
71.835 19.07502
71.840 19.51399
71.845 19.28602
71.850 19.13269
71.855 19.113026
71.860 18.625719
71.865 18.98312
71.870 19.359711
71.875 19.5755
71.880 19.106155
71.885 18.882988
71.890 18.54278
71.895 18.622223
71.900 18.546991
71.905 17.762623
71.910 17.432018
71.915 18.131941
71.920 18.063236
71.925 18.029629
71.930 17.610098
71.935 17.873419
71.940 17.992029
71.945 17.923172
71.950 17.271156
71.955 17.190502
71.960 17.629368
71.965 18.069187
71.970 17.767792
71.975 17.774118
71.980 18.496439
71.985 18.72583
71.990 18.409082
71.995 18.191538
72.000 18.021236
72.005 18.129665
72.010 18.346056
72.015 18.354866
72.020 18.891768
72.025 19.447578
72.030 19.690498
72.035 19.574837
72.040 19.752335
72.045 19.735445
72.050 19.749407
72.055 19.737602
72.060 19.816252
72.065 19.738792
72.070 20.155798
72.075 19.80913
72.080 19.365223
72.085 19.404371
72.090 19.566452
72.095 19.054924
72.100 18.813219
72.105 18.701962
72.110 19.071611
72.115 19.109482
72.120 18.927565
72.125 18.649469
72.130 19.074339
72.135 19.667625
72.140 19.660221
72.145 19.327438
72.150 19.587421
72.155 19.777004
72.160 20.331352
72.165 20.147226
72.170 20.020058
72.175 20.419853
72.180 20.391747
72.185 20.424789
72.190 20.233425
72.195 19.445841
72.200 18.796532
72.205 18.369095
72.210 18.093855
72.215 18.127253
72.220 18.238735
72.225 18.411388
72.230 18.697121
72.235 18.870651
72.240 18.348469
72.245 18.542294
72.250 18.807831
72.255 18.570629
72.260 18.558924
72.265 18.694777
72.270 18.682089
72.275 18.780107
72.280 18.832825
72.285 18.207714
72.290 17.874302
72.295 17.896412
72.300 17.682133
72.305 17.796425
72.310 17.202538
72.315 17.76326
72.320 18.107622
72.325 18.126427
72.330 18.361542
72.335 18.942205
72.340 19.050375
72.345 19.362707
72.350 18.673105
72.355 18.580257
72.360 18.792053
72.365 18.28005
72.370 18.138203
72.375 18.696106
72.380 18.329556
72.385 17.839354
72.390 17.574131
72.395 16.962387
72.400 17.250042
72.405 17.249439
72.410 16.715879
72.415 17.172035
72.420 17.423851
72.425 17.410082
72.430 18.22628
72.435 18.597952
72.440 18.720348
72.445 19.135538
72.450 19.049957
72.455 19.490833
72.460 19.577877
72.465 19.007225
72.470 18.9275
72.475 18.859859
72.480 18.651201
72.485 18.930635
72.490 19.081547
72.495 19.313078
72.500 19.61512
72.505 19.555374
72.510 19.263876
72.515 19.256199
72.520 19.340155
72.525 19.275763
72.530 18.663639
72.535 18.307428
72.540 18.025709
72.545 18.290344
72.550 18.140509
72.555 17.608934
72.560 17.458447
72.565 17.739466
72.570 17.766809
72.575 17.807451
72.580 17.374939
72.585 17.368111
72.590 16.932951
72.595 16.9097
72.600 17.000769
72.605 17.321453
72.610 17.711842
72.615 17.753485
72.620 18.302229
72.625 18.432842
72.630 18.359892
72.635 17.693985
72.640 17.71521
72.645 17.624893
72.650 17.746698
72.655 18.059464
72.660 18.430401
72.665 19.164854
72.670 19.436188
72.675 19.383642
72.680 18.947166
72.685 18.328968
72.690 18.046974
72.695 17.791883
72.700 17.005163
72.705 17.096422
72.710 16.984953
72.715 17.394655
72.720 17.024473
72.725 16.97225
72.730 17.221582
72.735 17.709045
72.740 17.808369
72.745 18.408638
72.750 18.72085
72.755 18.480379
72.760 17.729391
72.765 17.542215
72.770 17.025805
72.775 16.851084
72.780 16.097658
72.785 16.054934
72.790 16.136221
72.795 16.193802
72.800 16.519617
72.805 16.080147
72.810 16.034904
72.815 15.879866
72.820 15.496569
72.825 16.833916
72.830 17.687592
72.835 17.885983
72.840 18.004292
72.845 18.417173
72.850 18.978998
72.855 19.231432
72.860 18.410553
72.865 17.709112
72.870 17.472425
72.875 17.663403
72.880 17.360929
72.885 17.152796
72.890 16.893089
72.895 16.842754
72.900 17.224007
72.905 17.126896
72.910 16.516403
72.915 16.145767
72.920 16.08544
72.925 16.020721
72.930 15.854046
72.935 15.753689
72.940 16.027222
72.945 16.578468
72.950 16.762388
72.955 16.766251
72.960 16.896399
72.965 16.87249
72.970 16.56996
72.975 16.382771
72.980 16.501314
72.985 16.808077
72.990 17.442327
72.995 17.554319
73.000 17.866203
