!@!!GADDS PLOTSO FILE: Chi integration type
!@!!Title/SampleName: map-39
!@!!Comment: ?
!@!!User: Bruker Instrument Administrator
!@!!Site: University of Illinois Chicago
!@!!Frame: map-39_01_000.gfrm
!@!!Wavelengths    1.54184   1.54056   1.54439
!@!!Frame angles: 2Theta: 63.000 Omega: 50.000 Phi: 0.000 Chi: 90.000
!@!!Integration range: 2Theta: 53.000 to 73.000  Gamma: -105.000 to -75.000
!@!!Integration method: bin normalized
!@!N
!@!SS
!@!M
!@!L 0.0 0.0 0.0 0.0
!@!XDegrees
!@!YCounts
53.000 9.303354
53.005 9.569686
53.010 9.660906
53.015 9.821373
53.020 9.822422
53.025 10.257668
53.030 10.084356
53.035 10.211185
53.040 10.310065
53.045 10.251839
53.050 10.01878
53.055 9.958773
53.060 10.002835
53.065 10.555538
53.070 10.342934
53.075 10.248703
53.080 10.561522
53.085 11.226781
53.090 11.640693
53.095 11.397592
53.100 11.068296
53.105 11.189075
53.110 10.919641
53.115 10.692169
53.120 10.009932
53.125 9.413129
53.130 9.441201
53.135 10.007363
53.140 10.337
53.145 10.87928
53.150 10.938647
53.155 10.964959
53.160 11.144479
53.165 11.163845
53.170 10.73815
53.175 9.978009
53.180 9.448539
53.185 9.642994
53.190 9.758941
53.195 9.311427
53.200 9.037091
53.205 9.129269
53.210 9.676184
53.215 9.897861
53.220 10.025878
53.225 10.365344
53.230 10.509444
53.235 10.198433
53.240 9.893249
53.245 9.355335
53.250 9.550082
53.255 9.331204
53.260 9.073507
53.265 9.028054
53.270 9.687145
53.275 9.879428
53.280 10.084153
53.285 9.519994
53.290 9.343259
53.295 9.158351
53.300 8.983891
53.305 9.056347
53.310 9.464455
53.315 9.358556
53.320 9.290784
53.325 9.802683
53.330 10.317766
53.335 10.59328
53.340 10.616208
53.345 10.645642
53.350 11.309979
53.355 11.640517
53.360 11.634974
53.365 11.473682
53.370 11.134219
53.375 10.731662
53.380 10.695386
53.385 10.518882
53.390 10.405067
53.395 10.256128
53.400 10.112492
53.405 10.076344
53.410 9.997749
53.415 10.494415
53.420 10.818093
53.425 11.252831
53.430 11.70149
53.435 11.749739
53.440 11.700559
53.445 11.649059
53.450 10.969073
53.455 10.74752
53.460 10.38983
53.465 10.202308
53.470 10.557919
53.475 10.938876
53.480 11.446271
53.485 12.464468
53.490 12.340524
53.495 12.864343
53.500 12.975842
53.505 12.48271
53.510 12.503898
53.515 12.084781
53.520 11.379149
53.525 11.206953
53.530 10.384976
53.535 10.411526
53.540 10.775696
53.545 10.490174
53.550 10.366606
53.555 10.628551
53.560 10.475383
53.565 10.890832
53.570 10.733603
53.575 10.491121
53.580 10.392323
53.585 10.627337
53.590 10.927257
53.595 11.029275
53.600 11.146503
53.605 11.514348
53.610 11.990635
53.615 11.845701
53.620 11.468113
53.625 11.435696
53.630 11.581185
53.635 11.377006
53.640 11.027554
53.645 11.157499
53.650 11.394311
53.655 11.401478
53.660 11.303808
53.665 11.50325
53.670 11.418547
53.675 11.241308
53.680 10.983498
53.685 11.523837
53.690 11.645828
53.695 11.595506
53.700 11.752575
53.705 12.295045
53.710 12.28962
53.715 11.728395
53.720 11.415484
53.725 10.843501
53.730 10.396538
53.735 9.97818
53.740 9.822181
53.745 9.843851
53.750 10.058776
53.755 9.864415
53.760 10.059052
53.765 10.223985
53.770 10.588093
53.775 10.171494
53.780 10.160247
53.785 10.314223
53.790 10.344043
53.795 10.17472
53.800 10.260299
53.805 10.333969
53.810 10.632227
53.815 10.401957
53.820 10.383363
53.825 10.867969
53.830 10.882325
53.835 10.634855
53.840 10.800673
53.845 11.072664
53.850 11.283529
53.855 10.734576
53.860 10.176315
53.865 10.410687
53.870 10.627532
53.875 10.530408
53.880 10.484409
53.885 10.887886
53.890 11.669179
53.895 12.441789
53.900 12.453282
53.905 12.277208
53.910 12.578202
53.915 12.618696
53.920 12.322628
53.925 11.7221
53.930 11.353904
53.935 11.500117
53.940 11.728634
53.945 11.209322
53.950 11.13678
53.955 11.178776
53.960 11.398299
53.965 11.201464
53.970 11.107229
53.975 10.741152
53.980 11.149616
53.985 11.392078
53.990 11.419837
53.995 11.239396
54.000 10.861654
54.005 10.246715
54.010 10.466787
54.015 10.302661
54.020 9.730408
54.025 9.573839
54.030 9.414222
54.035 10.033479
54.040 10.56618
54.045 10.742586
54.050 10.824583
54.055 11.040957
54.060 11.534373
54.065 12.156672
54.070 11.915372
54.075 11.557106
54.080 11.527555
54.085 11.903507
54.090 11.700859
54.095 11.253924
54.100 11.305538
54.105 11.263088
54.110 10.819216
54.115 10.222076
54.120 10.098969
54.125 10.509667
54.130 10.49968
54.135 10.299066
54.140 10.624614
54.145 11.215964
54.150 11.660372
54.155 11.624354
54.160 11.981537
54.165 11.814959
54.170 11.444353
54.175 11.092962
54.180 11.048462
54.185 10.963457
54.190 10.696737
54.195 10.266083
54.200 10.703074
54.205 10.630227
54.210 10.109171
54.215 9.871683
54.220 9.89816
54.225 9.740221
54.230 9.865803
54.235 10.074448
54.240 10.12706
54.245 10.516135
54.250 10.541504
54.255 10.695171
54.260 11.051105
54.265 10.985647
54.270 10.938796
54.275 11.457574
54.280 11.683733
54.285 12.094748
54.290 12.182034
54.295 12.028968
54.300 12.269851
54.305 12.783541
54.310 12.683299
54.315 12.494191
54.320 12.174587
54.325 12.22753
54.330 12.034487
54.335 12.093632
54.340 12.050206
54.345 12.544271
54.350 12.994757
54.355 13.104059
54.360 13.217644
54.365 13.590858
54.370 13.277202
54.375 12.737861
54.380 12.385146
54.385 12.037151
54.390 12.043319
54.395 11.89547
54.400 11.203329
54.405 10.974279
54.410 10.824584
54.415 11.403554
54.420 11.689426
54.425 11.920995
54.430 12.078162
54.435 12.805317
54.440 13.478177
54.445 13.016001
54.450 12.806848
54.455 12.548111
54.460 12.549319
54.465 12.403989
54.470 12.261522
54.475 12.089284
54.480 12.210029
54.485 12.039827
54.490 12.585732
54.495 12.59136
54.500 12.491776
54.505 12.127742
54.510 12.192571
54.515 12.325685
54.520 12.253962
54.525 11.358317
54.530 11.317756
54.535 11.65905
54.540 12.44775
54.545 13.161345
54.550 13.486386
54.555 13.491668
54.560 14.059501
54.565 14.190574
54.570 14.340349
54.575 14.035172
54.580 13.162006
54.585 12.699195
54.590 12.576545
54.595 12.032288
54.600 11.743883
54.605 10.982404
54.610 10.547808
54.615 11.113389
54.620 11.051409
54.625 10.786246
54.630 11.028432
54.635 10.861364
54.640 11.002615
54.645 11.490715
54.650 11.918914
54.655 12.134468
54.660 12.387649
54.665 12.59355
54.670 12.731431
54.675 12.757639
54.680 12.538211
54.685 12.310474
54.690 12.91626
54.695 13.312476
54.700 13.478523
54.705 13.748132
54.710 13.844098
54.715 14.114403
54.720 13.734452
54.725 13.455638
54.730 13.458391
54.735 13.596589
54.740 13.708892
54.745 13.284484
54.750 12.956574
54.755 13.037215
54.760 13.021772
54.765 12.63734
54.770 12.173374
54.775 11.674073
54.780 11.459058
54.785 11.01617
54.790 11.083814
54.795 10.74087
54.800 10.635657
54.805 10.910242
54.810 11.358484
54.815 11.79422
54.820 11.828445
54.825 11.977249
54.830 12.167812
54.835 12.39843
54.840 12.036597
54.845 11.927923
54.850 11.679847
54.855 12.179092
54.860 11.684752
54.865 11.783239
54.870 12.154035
54.875 12.340548
54.880 12.762431
54.885 13.003651
54.890 13.113975
54.895 13.520877
54.900 13.234335
54.905 12.815862
54.910 13.036038
54.915 12.804961
54.920 12.80696
54.925 12.907434
54.930 13.083145
54.935 13.159935
54.940 13.158705
54.945 13.116123
54.950 13.320184
54.955 13.455561
54.960 13.638017
54.965 13.419555
54.970 13.216146
54.975 13.103805
54.980 12.647769
54.985 12.594673
54.990 12.504907
54.995 11.954059
55.000 12.011642
55.005 12.492869
55.010 12.574503
55.015 13.170302
55.020 12.945931
55.025 12.601715
55.030 12.393397
55.035 12.166199
55.040 11.870822
55.045 11.30391
55.050 10.678448
55.055 10.677838
55.060 11.065709
55.065 11.167223
55.070 10.917418
55.075 11.30998
55.080 11.395103
55.085 11.627069
55.090 11.574283
55.095 11.198099
55.100 11.051687
55.105 11.551105
55.110 11.433161
55.115 11.436868
55.120 11.094766
55.125 11.227066
55.130 11.575627
55.135 12.067111
55.140 12.521021
55.145 12.394912
55.150 12.860337
55.155 13.31947
55.160 13.357464
55.165 13.307596
55.170 12.588387
55.175 12.181828
55.180 13.018624
55.185 12.814391
55.190 12.551538
55.195 12.390297
55.200 12.510527
55.205 12.769272
55.210 12.412759
55.215 12.394066
55.220 12.366489
55.225 12.030618
55.230 12.13754
55.235 12.317714
55.240 12.392491
55.245 12.554394
55.250 12.432452
55.255 12.462344
55.260 12.440741
55.265 12.104313
55.270 12.198436
55.275 12.178394
55.280 12.238229
55.285 12.330189
55.290 12.505815
55.295 12.993583
55.300 12.698668
55.305 12.496009
55.310 12.250329
55.315 12.117166
55.320 11.725543
55.325 12.068161
55.330 12.154101
55.335 12.539286
55.340 12.951527
55.345 13.122283
55.350 13.119515
55.355 13.085939
55.360 13.088712
55.365 12.929522
55.370 12.744986
55.375 12.693992
55.380 12.606611
55.385 12.060351
55.390 11.695605
55.395 11.730465
55.400 12.112967
55.405 11.950983
55.410 11.872829
55.415 12.211519
55.420 12.545315
55.425 12.678253
55.430 12.75183
55.435 12.267529
55.440 12.339176
55.445 11.972779
55.450 11.87771
55.455 11.847883
55.460 11.519881
55.465 11.463138
55.470 12.439231
55.475 12.668355
55.480 12.320555
55.485 12.07908
55.490 12.157796
55.495 12.257019
55.500 12.027058
55.505 11.638421
55.510 12.173335
55.515 12.854495
55.520 13.306787
55.525 13.601348
55.530 13.285209
55.535 13.026755
55.540 12.230686
55.545 11.412689
55.550 11.145949
55.555 11.04922
55.560 10.86849
55.565 11.547757
55.570 11.856276
55.575 12.460052
55.580 13.066588
55.585 13.128225
55.590 13.230076
55.595 13.175922
55.600 12.747163
55.605 12.627745
55.610 12.438944
55.615 12.370327
55.620 12.175142
55.625 12.418375
55.630 12.69615
55.635 13.102731
55.640 13.425861
55.645 13.614299
55.650 13.714334
55.655 13.826527
55.660 13.698483
55.665 13.197904
55.670 12.729851
55.675 12.256554
55.680 12.129292
55.685 11.960242
55.690 12.138015
55.695 12.151811
55.700 12.750686
55.705 12.536923
55.710 12.411123
55.715 12.086691
55.720 12.16564
55.725 11.785175
55.730 11.567852
55.735 11.309615
55.740 12.043092
55.745 12.157581
55.750 12.177298
55.755 11.977388
55.760 11.947072
55.765 12.130507
55.770 12.439806
55.775 12.496631
55.780 12.986992
55.785 13.233406
55.790 13.354767
55.795 13.650088
55.800 13.645016
55.805 13.752348
55.810 13.457501
55.815 13.372288
55.820 13.585503
55.825 13.86885
55.830 13.682965
55.835 13.88708
55.840 13.444212
55.845 13.650829
55.850 13.297025
55.855 13.440737
55.860 13.012732
55.865 13.165334
55.870 13.375746
55.875 13.684058
55.880 13.656326
55.885 13.893983
55.890 13.690643
55.895 13.406857
55.900 13.022923
55.905 12.28159
55.910 12.298175
55.915 12.336382
55.920 12.553041
55.925 12.845797
55.930 13.106716
55.935 13.230564
55.940 13.804429
55.945 14.360386
55.950 15.000171
55.955 14.814998
55.960 14.607627
55.965 14.516271
55.970 15.023718
55.975 14.349337
55.980 13.444841
55.985 13.298203
55.990 13.475943
55.995 13.853044
56.000 13.916563
56.005 13.698191
56.010 13.657716
56.015 13.92347
56.020 13.927766
56.025 13.908488
56.030 13.882382
56.035 14.119071
56.040 14.044013
56.045 14.225401
56.050 14.014441
56.055 13.417474
56.060 13.129607
56.065 12.796492
56.070 12.575811
56.075 12.481445
56.080 12.526819
56.085 12.382482
56.090 12.419268
56.095 12.326681
56.100 12.636765
56.105 13.048969
56.110 13.260763
56.115 13.480038
56.120 13.902307
56.125 14.466224
56.130 14.852406
56.135 14.757277
56.140 14.575752
56.145 14.746997
56.150 15.008954
56.155 15.242636
56.160 14.927175
56.165 14.78235
56.170 14.344665
56.175 14.355383
56.180 14.29507
56.185 13.519203
56.190 12.872141
56.195 13.148025
56.200 13.422328
56.205 14.21225
56.210 13.995384
56.215 13.525312
56.220 14.077001
56.225 14.762049
56.230 14.686685
56.235 14.316799
56.240 13.979026
56.245 14.508772
56.250 14.829926
56.255 14.330942
56.260 14.06319
56.265 14.118918
56.270 13.821507
56.275 13.383636
56.280 13.225288
56.285 13.544903
56.290 13.840219
56.295 13.695548
56.300 13.286317
56.305 13.392484
56.310 13.493358
56.315 13.445006
56.320 13.651434
56.325 13.908731
56.330 13.929214
56.335 14.423427
56.340 14.678744
56.345 14.884379
56.350 14.646312
56.355 14.211837
56.360 14.279947
56.365 13.998955
56.370 13.789351
56.375 13.847017
56.380 14.184987
56.385 14.891077
56.390 14.933525
56.395 14.61218
56.400 14.850963
56.405 14.315516
56.410 13.633479
56.415 13.374867
56.420 13.545418
56.425 14.081468
56.430 14.38767
56.435 14.560272
56.440 15.252144
56.445 15.222265
56.450 14.779219
56.455 13.807848
56.460 13.509089
56.465 13.522519
56.470 13.335685
56.475 13.312069
56.480 14.107147
56.485 14.907342
56.490 15.166899
56.495 15.29275
56.500 15.751513
56.505 15.964281
56.510 15.907905
56.515 15.382312
56.520 15.667418
56.525 15.738016
56.530 15.46724
56.535 15.104121
56.540 15.43816
56.545 15.43253
56.550 15.111039
56.555 14.710581
56.560 15.09614
56.565 14.742783
56.570 14.139376
56.575 13.70449
56.580 13.725692
56.585 13.804232
56.590 13.306105
56.595 12.803969
56.600 13.246688
56.605 13.609236
56.610 13.6528
56.615 13.658417
56.620 13.541421
56.625 13.782155
56.630 14.205327
56.635 14.321582
56.640 14.515669
56.645 14.264625
56.650 14.260257
56.655 14.683034
56.660 14.978647
56.665 15.212991
56.670 15.097616
56.675 15.109112
56.680 15.115216
56.685 15.070004
56.690 14.477433
56.695 14.080143
56.700 13.858813
56.705 13.867555
56.710 14.347007
56.715 15.109172
56.720 15.380441
56.725 16.102671
56.730 16.346718
56.735 16.329102
56.740 16.079613
56.745 15.861542
56.750 15.846871
56.755 15.249804
56.760 14.778788
56.765 14.60343
56.770 14.521573
56.775 14.614767
56.780 14.599718
56.785 14.548593
56.790 14.802148
56.795 14.451236
56.800 14.812718
56.805 15.248429
56.810 15.710015
56.815 16.023096
56.820 15.936352
56.825 16.320621
56.830 16.750143
56.835 16.234076
56.840 15.912947
56.845 14.772932
56.850 14.156846
56.855 14.474582
56.860 14.308372
56.865 14.559216
56.870 15.451557
56.875 15.424202
56.880 16.054522
56.885 16.14588
56.890 16.07148
56.895 16.188063
56.900 15.78158
56.905 15.162014
56.910 15.532908
56.915 15.768696
56.920 15.519669
56.925 15.285655
56.930 15.216381
56.935 15.22511
56.940 14.972112
56.945 14.544532
56.950 14.20463
56.955 14.546763
56.960 15.13891
56.965 15.133649
56.970 14.72562
56.975 14.80128
56.980 14.728787
56.985 14.526648
56.990 14.334657
56.995 13.689163
57.000 13.457721
57.005 14.208353
57.010 14.499206
57.015 14.934057
57.020 14.941211
57.025 14.742722
57.030 14.556285
57.035 14.170021
57.040 13.609298
57.045 13.459475
57.050 13.094232
57.055 13.507645
57.060 13.657086
57.065 13.495128
57.070 14.161316
57.075 14.350893
57.080 14.480027
57.085 14.569794
57.090 14.440225
57.095 14.81051
57.100 15.18803
57.105 15.19318
57.110 15.230634
57.115 14.976374
57.120 14.616177
57.125 15.00954
57.130 15.107542
57.135 15.153833
57.140 14.689035
57.145 14.329385
57.150 14.873591
57.155 14.856464
57.160 14.19901
57.165 14.118365
57.170 13.956302
57.175 14.338905
57.180 13.902279
57.185 13.554656
57.190 13.613789
57.195 13.999232
57.200 13.999648
57.205 13.875463
57.210 13.715685
57.215 14.087008
57.220 14.685946
57.225 14.731687
57.230 14.304832
57.235 14.148663
57.240 14.426611
57.245 14.295894
57.250 13.886351
57.255 13.404756
57.260 13.490313
57.265 13.526283
57.270 14.10212
57.275 13.96444
57.280 14.274913
57.285 14.834662
57.290 14.847805
57.295 14.700667
57.300 14.527566
57.305 14.381103
57.310 14.963113
57.315 15.257092
57.320 14.953739
57.325 15.361032
57.330 15.8234
57.335 15.689944
57.340 15.449331
57.345 15.081339
57.350 15.084928
57.355 14.994765
57.360 14.665198
57.365 14.787169
57.370 15.189609
57.375 15.412591
57.380 15.442425
57.385 15.094632
57.390 15.052946
57.395 14.945556
57.400 14.5858
57.405 14.26716
57.410 14.396939
57.415 14.569641
57.420 15.26508
57.425 15.110466
57.430 15.223924
57.435 15.932911
57.440 15.833577
57.445 15.121727
57.450 14.663353
57.455 14.503456
57.460 14.666322
57.465 14.20257
57.470 13.626808
57.475 13.781345
57.480 14.325494
57.485 14.845407
57.490 15.173211
57.495 15.920693
57.500 16.065098
57.505 16.184795
57.510 16.103224
57.515 15.79146
57.520 14.905643
57.525 14.077249
57.530 13.816921
57.535 14.431795
57.540 14.882721
57.545 15.192595
57.550 15.656446
57.555 15.60271
57.560 15.472283
57.565 15.171005
57.570 14.788739
57.575 14.836473
57.580 14.648676
57.585 15.023453
57.590 15.717175
57.595 15.876952
57.600 16.145407
57.605 15.930688
57.610 15.718213
57.615 15.755763
57.620 15.179584
57.625 16.27717
57.630 17.076881
57.635 17.015041
57.640 16.400871
57.645 16.024342
57.650 16.000111
57.655 16.200985
57.660 14.761295
57.665 14.277428
57.670 14.524633
57.675 15.236024
57.680 16.029997
57.685 16.10153
57.690 16.485161
57.695 17.305895
57.700 16.975277
57.705 16.410694
57.710 16.555641
57.715 15.635165
57.720 15.355992
57.725 15.095557
57.730 14.766125
57.735 15.090105
57.740 15.087763
57.745 14.716096
57.750 14.883181
57.755 14.893117
57.760 14.47823
57.765 14.35834
57.770 14.81123
57.775 15.431883
57.780 15.519314
57.785 16.508554
57.790 16.700562
57.795 16.926273
57.800 17.128586
57.805 16.873325
57.810 16.537519
57.815 16.451674
57.820 15.806766
57.825 15.705261
57.830 15.753787
57.835 15.810068
57.840 15.676716
57.845 15.878641
57.850 16.121197
57.855 15.94571
57.860 16.04353
57.865 15.93069
57.870 16.029448
57.875 16.095835
57.880 16.324146
57.885 16.596214
57.890 17.088457
57.895 17.421539
57.900 17.443855
57.905 17.383854
57.910 17.418808
57.915 16.959785
57.920 16.721033
57.925 16.165203
57.930 15.916162
57.935 15.723914
57.940 15.524209
57.945 15.28976
57.950 15.174566
57.955 15.294849
57.960 15.438224
57.965 14.61249
57.970 14.055148
57.975 13.778918
57.980 14.253237
57.985 14.563974
57.990 14.493707
57.995 14.741039
58.000 15.807471
58.005 16.230642
58.010 16.592672
58.015 16.262722
58.020 16.070698
58.025 15.403666
58.030 15.033904
58.035 15.087169
58.040 15.142292
58.045 15.211796
58.050 15.46432
58.055 15.559427
58.060 16.232378
58.065 15.867116
58.070 15.955868
58.075 16.718298
58.080 16.867805
58.085 16.477308
58.090 16.186867
58.095 16.168091
58.100 16.161213
58.105 16.376719
58.110 15.867018
58.115 15.874964
58.120 16.147552
58.125 15.995513
58.130 15.775539
58.135 16.064844
58.140 15.960651
58.145 15.903408
58.150 15.92096
58.155 15.478769
58.160 15.458334
58.165 15.283269
58.170 14.932223
58.175 14.95268
58.180 14.839676
58.185 14.924414
58.190 15.096875
58.195 15.12954
58.200 15.42476
58.205 15.427722
58.210 15.077459
58.215 15.289521
58.220 14.821107
58.225 15.27425
58.230 15.42191
58.235 15.631701
58.240 15.644233
58.245 15.454668
58.250 14.98869
58.255 15.097989
58.260 15.492036
58.265 15.545785
58.270 15.887353
58.275 15.612651
58.280 15.715815
58.285 15.792172
58.290 15.754172
58.295 15.471318
58.300 15.539157
58.305 15.238827
58.310 15.510094
58.315 15.73273
58.320 15.713437
58.325 15.846041
58.330 15.733123
58.335 15.7212
58.340 15.937844
58.345 15.728747
58.350 15.769613
58.355 15.612704
58.360 15.442983
58.365 15.81356
58.370 16.40867
58.375 16.931381
58.380 17.006857
58.385 16.617542
58.390 16.461601
58.395 16.851257
58.400 17.052544
58.405 16.459078
58.410 16.021669
58.415 16.094322
58.420 16.09436
58.425 16.650106
58.430 16.215696
58.435 15.414193
58.440 15.211927
58.445 15.501991
58.450 15.796526
58.455 16.052839
58.460 15.874137
58.465 16.095776
58.470 16.156719
58.475 16.29357
58.480 16.184208
58.485 16.202076
58.490 16.856709
58.495 16.761648
58.500 16.254219
58.505 16.314484
58.510 16.289173
58.515 16.071484
58.520 15.796693
58.525 15.312538
58.530 15.830938
58.535 15.936774
58.540 16.103239
58.545 16.079229
58.550 16.273809
58.555 16.222607
58.560 15.389928
58.565 15.112719
58.570 15.65568
58.575 16.583721
58.580 16.604628
58.585 16.669781
58.590 16.857315
58.595 17.361137
58.600 17.571272
58.605 17.525568
58.610 16.72617
58.615 16.780699
58.620 16.688841
58.625 16.768394
58.630 17.403143
58.635 17.562489
58.640 17.650476
58.645 17.396833
58.650 17.016367
58.655 17.139046
58.660 17.337172
58.665 16.488121
58.670 16.110918
58.675 15.698932
58.680 15.688842
58.685 16.035509
58.690 16.352871
58.695 16.720304
58.700 16.866474
58.705 16.789637
58.710 16.516926
58.715 16.423527
58.720 16.07284
58.725 15.455471
58.730 15.377547
58.735 15.686877
58.740 15.997596
58.745 17.050411
58.750 17.671812
58.755 17.787828
58.760 18.614042
58.765 18.010759
58.770 17.847727
58.775 17.634134
58.780 17.160343
58.785 16.895815
58.790 16.845877
58.795 16.510157
58.800 16.775434
58.805 16.554527
58.810 16.595716
58.815 16.127298
58.820 16.310741
58.825 16.526192
58.830 16.427784
58.835 16.160248
58.840 16.492785
58.845 16.864681
58.850 17.217081
58.855 17.557922
58.860 17.036533
58.865 16.742674
58.870 16.698627
58.875 16.556829
58.880 16.048204
58.885 15.935143
58.890 15.548818
58.895 15.981294
58.900 16.67107
58.905 17.319086
58.910 17.461281
58.915 17.516701
58.920 17.584948
58.925 17.591438
58.930 17.989002
58.935 17.950096
58.940 18.494236
58.945 18.656702
58.950 18.936481
58.955 18.680557
58.960 18.278421
58.965 17.777781
58.970 16.899723
58.975 15.919002
58.980 15.632886
58.985 15.156754
58.990 15.637636
58.995 15.592196
59.000 15.251472
59.005 15.478874
59.010 15.509096
59.015 16.291895
59.020 16.784927
59.025 16.749403
59.030 17.147869
59.035 17.606861
59.040 17.785856
59.045 18.054087
59.050 17.507259
59.055 17.195477
59.060 17.878496
59.065 18.345089
59.070 18.179972
59.075 17.931179
59.080 17.683258
59.085 17.143156
59.090 17.279871
59.095 17.053209
59.100 17.127325
59.105 17.370888
59.110 17.314449
59.115 17.130878
59.120 17.224518
59.125 16.516006
59.130 16.333847
59.135 15.664045
59.140 15.526603
59.145 15.734256
59.150 15.521687
59.155 15.418967
59.160 15.812867
59.165 16.18581
59.170 16.621428
59.175 16.994419
59.180 17.035892
59.185 17.851551
59.190 18.294302
59.195 18.429213
59.200 18.213602
59.205 18.206995
59.210 18.272089
59.215 18.118826
59.220 18.143478
59.225 18.492184
59.230 18.807419
59.235 18.905558
59.240 18.516249
59.245 19.079834
59.250 19.187485
59.255 19.042871
59.260 18.748037
59.265 18.562487
59.270 18.967043
59.275 18.894524
59.280 18.447664
59.285 18.561369
59.290 18.143557
59.295 17.95097
59.300 17.893932
59.305 17.33647
59.310 17.260418
59.315 16.948072
59.320 17.072815
59.325 17.565975
59.330 17.813314
59.335 17.682102
59.340 17.51615
59.345 17.372131
59.350 17.597279
59.355 17.825672
59.360 18.036051
59.365 17.798695
59.370 17.980633
59.375 18.629467
59.380 18.916218
59.385 18.862949
59.390 19.126257
59.395 19.006334
59.400 18.25543
59.405 17.554337
59.410 17.080935
59.415 17.030268
59.420 17.171768
59.425 16.613333
59.430 16.628777
59.435 17.624056
59.440 17.80393
59.445 17.574879
59.450 17.512337
59.455 17.18222
59.460 17.336256
59.465 17.535917
59.470 17.136467
59.475 17.597439
59.480 18.015268
59.485 18.400484
59.490 18.741837
59.495 18.590252
59.500 18.064699
59.505 18.11425
59.510 18.344145
59.515 18.551901
59.520 18.592081
59.525 18.638613
59.530 18.819149
59.535 18.845198
59.540 18.509729
59.545 18.632063
59.550 18.592344
59.555 18.251545
59.560 18.134071
59.565 17.611088
59.570 18.320511
59.575 18.725187
59.580 17.928015
59.585 17.730158
59.590 18.00333
59.595 18.235025
59.600 18.8113
59.605 18.232534
59.610 17.771128
59.615 17.972084
59.620 18.02976
59.625 17.867924
59.630 17.747063
59.635 17.900278
59.640 17.974205
59.645 17.953783
59.650 17.790916
59.655 17.915682
59.660 17.627012
59.665 17.645947
59.670 17.579782
59.675 17.408813
59.680 17.376114
59.685 17.679562
59.690 17.492943
59.695 17.377745
59.700 17.906078
59.705 18.280289
59.710 18.856258
59.715 18.929588
59.720 19.176752
59.725 19.555874
59.730 19.971043
59.735 19.585033
59.740 19.223171
59.745 19.615602
59.750 20.479708
59.755 20.436499
59.760 20.296047
59.765 20.044136
59.770 19.819296
59.775 19.938374
59.780 19.986509
59.785 19.396292
59.790 19.160135
59.795 19.551296
59.800 19.640091
59.805 19.421663
59.810 19.238354
59.815 19.141472
59.820 19.547615
59.825 20.294552
59.830 20.539768
59.835 20.90431
59.840 21.057924
59.845 20.85297
59.850 20.549959
59.855 20.215229
59.860 19.762434
59.865 19.524385
59.870 19.459637
59.875 20.211668
59.880 20.121729
59.885 20.164804
59.890 20.03125
59.895 19.836376
59.900 19.203588
59.905 18.688911
59.910 18.288754
59.915 18.900654
59.920 18.935726
59.925 19.522654
59.930 19.938795
59.935 20.657528
59.940 21.015547
59.945 20.94034
59.950 20.698015
59.955 20.984083
59.960 20.895247
59.965 20.475227
59.970 20.207701
59.975 20.706213
59.980 20.321865
59.985 20.608784
59.990 20.192839
59.995 19.807598
60.000 20.054441
60.005 19.77599
60.010 19.979622
60.015 20.877541
60.020 20.736164
60.025 21.287077
60.030 21.452473
60.035 21.426081
60.040 21.658812
60.045 22.290274
60.050 23.103701
60.055 22.924438
60.060 22.291628
60.065 22.356544
60.070 23.074722
60.075 23.565086
60.080 23.185551
60.085 22.942827
60.090 23.755739
60.095 24.580324
60.100 24.476725
60.105 24.245089
60.110 24.238905
60.115 23.777449
60.120 23.876373
60.125 23.736099
60.130 24.152018
60.135 24.235481
60.140 23.903244
60.145 23.554047
60.150 23.692705
60.155 23.48056
60.160 23.288429
60.165 22.482603
60.170 22.402132
60.175 22.436417
60.180 22.025261
60.185 21.635464
60.190 21.300093
60.195 21.399805
60.200 22.071285
60.205 22.057199
60.210 22.091759
60.215 22.033777
60.220 22.590378
60.225 22.800852
60.230 22.988506
60.235 22.912987
60.240 23.134527
60.245 23.164738
60.250 23.669962
60.255 23.71512
60.260 23.315985
60.265 22.374212
60.270 21.615614
60.275 22.028566
60.280 22.939104
60.285 22.996548
60.290 22.428761
60.295 22.130558
60.300 22.503422
60.305 22.9653
60.310 22.743444
60.315 22.567566
60.320 22.113844
60.325 22.480473
60.330 22.991179
60.335 22.946609
60.340 22.611572
60.345 22.055838
60.350 21.526585
60.355 21.563108
60.360 21.207617
60.365 21.1241
60.370 21.452497
60.375 21.390823
60.380 21.482027
60.385 21.959736
60.390 22.501293
60.395 23.184933
60.400 23.299196
60.405 22.816891
60.410 22.959961
60.415 23.259933
60.420 22.513628
60.425 21.890444
60.430 21.744873
60.435 21.707268
60.440 21.659876
60.445 21.450455
60.450 20.959496
60.455 21.542601
60.460 21.735888
60.465 21.922352
60.470 22.144405
60.475 22.472923
60.480 22.242167
60.485 22.373419
60.490 21.777742
60.495 21.63068
60.500 21.013754
60.505 21.297312
60.510 20.918354
60.515 20.524441
60.520 20.205208
60.525 20.35533
60.530 20.1887
60.535 19.554018
60.540 19.470448
60.545 19.965736
60.550 20.516293
60.555 20.848234
60.560 21.152283
60.565 21.843655
60.570 22.268904
60.575 21.984087
60.580 21.703487
60.585 21.463404
60.590 20.767082
60.595 20.958986
60.600 20.933664
60.605 21.018696
60.610 20.988548
60.615 21.555138
60.620 22.287903
60.625 22.903639
60.630 22.544525
60.635 22.183544
60.640 21.706154
60.645 21.616522
60.650 21.101788
60.655 19.976799
60.660 19.439522
60.665 18.89908
60.670 18.715187
60.675 18.561319
60.680 18.579453
60.685 18.41214
60.690 18.93343
60.695 19.455173
60.700 19.918268
60.705 20.621389
60.710 21.008768
60.715 20.951651
60.720 21.028757
60.725 20.840853
60.730 20.722509
60.735 19.927282
60.740 19.083487
60.745 18.903048
60.750 19.246235
60.755 19.371815
60.760 19.568491
60.765 19.826101
60.770 20.434082
60.775 21.106863
60.780 21.119373
60.785 20.524479
60.790 20.247383
60.795 19.792011
60.800 19.578287
60.805 19.708975
60.810 18.995821
60.815 18.878635
60.820 18.78474
60.825 18.925703
60.830 19.154295
60.835 19.037697
60.840 18.934021
60.845 19.509329
60.850 19.77618
60.855 20.175642
60.860 20.275122
60.865 20.660553
60.870 20.530499
60.875 20.056664
60.880 19.19841
60.885 19.132326
60.890 19.296988
60.895 19.332218
60.900 19.81035
60.905 19.994406
60.910 19.943804
60.915 20.401308
60.920 20.185705
60.925 19.894146
60.930 19.733402
60.935 18.897303
60.940 18.843489
60.945 18.949703
60.950 18.649042
60.955 18.685146
60.960 18.456211
60.965 18.223465
60.970 17.982964
60.975 17.738609
60.980 17.419523
60.985 17.145132
60.990 16.997486
60.995 16.813326
61.000 16.771706
61.005 16.628716
61.010 16.754171
61.015 16.833973
61.020 16.706774
61.025 16.785898
61.030 17.217468
61.035 17.33564
61.040 17.499071
61.045 17.889328
61.050 18.122229
61.055 18.475121
61.060 18.208868
61.065 18.118334
61.070 18.153439
61.075 17.668196
61.080 17.290482
61.085 17.667206
61.090 17.949657
61.095 18.351135
61.100 18.330956
61.105 18.191734
61.110 18.362852
61.115 18.615494
61.120 18.373978
61.125 18.533363
61.130 18.799864
61.135 18.674725
61.140 18.676868
61.145 18.478775
61.150 18.030264
61.155 17.984741
61.160 17.976231
61.165 17.190001
61.170 17.33209
61.175 17.366766
61.180 17.131243
61.185 17.078564
61.190 17.107052
61.195 16.731106
61.200 17.259699
61.205 17.747663
61.210 18.352955
61.215 18.813885
61.220 19.058275
61.225 19.601963
61.230 19.567947
61.235 18.797182
61.240 18.312883
61.245 18.37536
61.250 18.622786
61.255 18.790134
61.260 18.178625
61.265 18.027418
61.270 18.211498
61.275 18.366562
61.280 18.183043
61.285 18.108629
61.290 18.074337
61.295 18.01058
61.300 18.228052
61.305 18.410833
61.310 17.758526
61.315 17.526531
61.320 17.26639
61.325 16.678877
61.330 16.59
61.335 16.575697
61.340 16.177128
61.345 16.373564
61.350 16.36179
61.355 16.71076
61.360 16.809912
61.365 17.237217
61.370 17.15914
61.375 17.364969
61.380 17.357912
61.385 16.971069
61.390 16.703861
61.395 16.749153
61.400 16.748646
61.405 17.169012
61.410 17.607216
61.415 17.93158
61.420 17.686209
61.425 17.593733
61.430 17.609081
61.435 17.711498
61.440 17.478689
61.445 17.75061
61.450 18.132984
61.455 18.308397
61.460 18.617357
61.465 18.523382
61.470 18.807417
61.475 19.057337
61.480 18.262812
61.485 18.066422
61.490 18.341518
61.495 18.091169
61.500 17.64226
61.505 16.736353
61.510 16.736233
61.515 16.94507
61.520 16.727468
61.525 16.925932
61.530 17.201662
61.535 17.980083
61.540 18.206728
61.545 18.046743
61.550 17.96452
61.555 18.191755
61.560 18.31477
61.565 18.253872
61.570 17.82663
61.575 17.610317
61.580 17.649546
61.585 17.621206
61.590 17.336548
61.595 17.323488
61.600 17.215885
61.605 17.369751
61.610 18.075109
61.615 18.21616
61.620 18.587257
61.625 18.603813
61.630 17.929701
61.635 17.500673
61.640 17.676805
61.645 17.726622
61.650 17.519258
61.655 17.527489
61.660 17.614872
61.665 17.940081
61.670 18.012096
61.675 18.280668
61.680 17.928162
61.685 18.045645
61.690 17.592644
61.695 17.386282
61.700 17.243698
61.705 17.138338
61.710 16.408577
61.715 15.85828
61.720 15.508943
61.725 15.778917
61.730 16.215788
61.735 16.903324
61.740 17.190952
61.745 17.236639
61.750 17.015682
61.755 16.381327
61.760 16.191965
61.765 15.820364
61.770 15.634672
61.775 15.814025
61.780 15.936045
61.785 16.296499
61.790 16.719791
61.795 16.891682
61.800 17.140902
61.805 17.08427
61.810 17.039564
61.815 17.535295
61.820 18.053329
61.825 18.779802
61.830 18.675138
61.835 18.134327
61.840 17.934383
61.845 18.108509
61.850 17.652523
61.855 17.685696
61.860 17.927727
61.865 18.023535
61.870 18.207008
61.875 18.866955
61.880 18.711977
61.885 18.993931
61.890 18.527275
61.895 18.239038
61.900 18.900478
61.905 19.049871
61.910 18.25996
61.915 18.132042
61.920 17.865713
61.925 17.700592
61.930 17.405634
61.935 17.107763
61.940 17.348803
61.945 17.930218
61.950 17.898741
61.955 18.076487
61.960 18.408062
61.965 18.20277
61.970 18.103197
61.975 17.775412
61.980 17.796722
61.985 17.553524
61.990 17.782564
61.995 17.599129
62.000 18.030109
62.005 18.357531
62.010 18.121075
62.015 18.190615
62.020 18.124371
62.025 17.402748
62.030 17.241201
62.035 16.869947
62.040 16.733406
62.045 16.822447
62.050 16.841042
62.055 17.034452
62.060 17.864876
62.065 18.401003
62.070 18.584667
62.075 18.250948
62.080 18.535597
62.085 18.771622
62.090 19.301571
62.095 18.967089
62.100 18.393167
62.105 18.914968
62.110 19.38048
62.115 19.115723
62.120 18.850096
62.125 18.523367
62.130 18.625294
62.135 19.097912
62.140 18.989836
62.145 19.236103
62.150 19.118261
62.155 19.576136
62.160 19.957211
62.165 19.553083
62.170 19.196198
62.175 19.01936
62.180 18.562244
62.185 18.261597
62.190 17.97658
62.195 18.312683
62.200 18.60335
62.205 18.474703
62.210 18.122211
62.215 18.044243
62.220 17.782139
62.225 16.767941
62.230 16.175535
62.235 16.265209
62.240 15.934078
62.245 15.910974
62.250 16.266392
62.255 16.638651
62.260 17.078247
62.265 17.1166
62.270 17.304642
62.275 17.472498
62.280 17.619532
62.285 17.890253
62.290 18.253077
62.295 18.061649
62.300 17.72934
62.305 17.748131
62.310 17.490183
62.315 17.514938
62.320 17.685471
62.325 17.680687
62.330 18.056944
62.335 17.839188
62.340 17.301685
62.345 17.994604
62.350 17.873861
62.355 16.999348
62.360 16.68438
62.365 16.96825
62.370 17.373556
62.375 17.43668
62.380 17.021061
62.385 17.528475
62.390 18.306648
62.395 18.558683
62.400 18.390776
62.405 18.554855
62.410 18.50185
62.415 18.015675
62.420 17.765732
62.425 17.805582
62.430 18.105097
62.435 18.015663
62.440 18.349939
62.445 18.539824
62.450 19.053148
62.455 19.218771
62.460 19.328632
62.465 19.208807
62.470 20.036909
62.475 20.110411
62.480 21.002855
62.485 20.926229
62.490 20.635099
62.495 19.786814
62.500 19.661083
62.505 19.26631
62.510 19.298082
62.515 19.305605
62.520 19.281645
62.525 19.12332
62.530 19.227325
62.535 18.73381
62.540 18.19969
62.545 18.159962
62.550 17.499968
62.555 16.704952
62.560 16.467222
62.565 16.167244
62.570 16.297346
62.575 16.859785
62.580 16.884886
62.585 16.872746
62.590 17.080326
62.595 17.636602
62.600 17.56529
62.605 17.292055
62.610 16.864222
62.615 16.301451
62.620 16.186237
62.625 16.70285
62.630 16.850315
62.635 17.506716
62.640 17.838007
62.645 17.993944
62.650 18.430672
62.655 18.447252
62.660 18.015715
62.665 17.625174
62.670 17.062197
62.675 16.721151
62.680 16.621008
62.685 16.52216
62.690 17.008312
62.695 17.669268
62.700 18.080776
62.705 18.747139
62.710 19.311602
62.715 19.525154
62.720 19.586849
62.725 19.425165
62.730 19.791197
62.735 19.956089
62.740 19.60022
62.745 19.338493
62.750 18.984201
62.755 18.3895
62.760 18.18157
62.765 18.007832
62.770 17.531796
62.775 17.421911
62.780 17.654785
62.785 18.046022
62.790 18.460367
62.795 18.928339
62.800 19.00913
62.805 19.574064
62.810 19.420372
62.815 19.217405
62.820 19.464781
62.825 19.667114
62.830 19.71962
62.835 19.451311
62.840 19.664032
62.845 20.21666
62.850 20.241587
62.855 20.080042
62.860 20.174496
62.865 19.393829
62.870 19.021347
62.875 18.633245
62.880 18.236187
62.885 17.920946
62.890 17.131828
62.895 16.694899
62.900 17.111176
62.905 16.757704
62.910 16.45779
62.915 16.295017
62.920 16.454674
62.925 16.853189
62.930 17.115181
62.935 17.33157
62.940 17.819921
62.945 18.195944
62.950 18.120764
62.955 18.036097
62.960 18.213232
62.965 17.793661
62.970 17.476444
62.975 17.604897
62.980 17.671225
62.985 18.134979
62.990 18.681297
62.995 18.778999
63.000 19.132948
63.005 19.155323
63.010 18.805719
63.015 18.77066
63.020 18.954905
63.025 18.895323
63.030 18.707283
63.035 18.490717
63.040 18.105398
63.045 17.786627
63.050 17.475826
63.055 17.209146
63.060 17.141142
63.065 17.213091
63.070 17.075674
63.075 17.111887
63.080 17.311092
63.085 17.087172
63.090 16.693563
63.095 15.945505
63.100 15.747968
63.105 15.964618
63.110 15.892851
63.115 15.957469
63.120 15.978433
63.125 16.56399
63.130 17.276646
63.135 17.13744
63.140 17.319365
63.145 18.152815
63.150 18.654947
63.155 18.62517
63.160 18.597158
63.165 18.658728
63.170 19.226929
63.175 19.406496
63.180 19.681242
63.185 19.368755
63.190 19.510103
63.195 19.167389
63.200 18.227169
63.205 17.369402
63.210 17.088379
63.215 16.403681
63.220 16.604223
63.225 16.592669
63.230 16.828896
63.235 17.406944
63.240 18.037443
63.245 17.793964
63.250 17.329222
63.255 16.699705
63.260 16.473162
63.265 16.42108
63.270 16.730877
63.275 16.005718
63.280 15.875834
63.285 16.353559
63.290 16.705503
63.295 17.360559
63.300 17.332226
63.305 17.315828
63.310 18.009275
63.315 18.455229
63.320 18.578697
63.325 18.854433
63.330 18.621614
63.335 18.822386
63.340 18.814735
63.345 18.870375
63.350 18.679462
63.355 18.594145
63.360 18.454161
63.365 18.248009
63.370 18.434654
63.375 18.345356
63.380 18.398998
63.385 18.554173
63.390 18.448997
63.395 18.688059
63.400 18.865906
63.405 18.918964
63.410 18.949131
63.415 18.431965
63.420 18.588652
63.425 18.761934
63.430 18.975136
63.435 18.747612
63.440 18.47982
63.445 18.665615
63.450 19.228481
63.455 19.539209
63.460 19.463972
63.465 18.717932
63.470 18.917763
63.475 18.818411
63.480 18.832043
63.485 18.2087
63.490 17.939566
63.495 17.42988
63.500 17.608074
63.505 17.722647
63.510 17.908213
63.515 17.626131
63.520 17.531403
63.525 17.273979
63.530 17.710636
63.535 18.063774
63.540 18.414991
63.545 17.896172
63.550 18.226889
63.555 18.940437
63.560 19.027502
63.565 19.315886
63.570 18.862894
63.575 18.859217
63.580 19.204472
63.585 19.178724
63.590 18.904171
63.595 18.584887
63.600 18.466839
63.605 18.475876
63.610 17.486599
63.615 17.414776
63.620 16.977852
63.625 17.176922
63.630 17.334774
63.635 16.866644
63.640 17.390619
63.645 17.517433
63.650 17.459604
63.655 17.90049
63.660 18.21932
63.665 18.628172
63.670 18.812828
63.675 18.468454
63.680 18.996168
63.685 19.071564
63.690 18.390099
63.695 17.975863
63.700 18.015896
63.705 18.142714
63.710 18.130058
63.715 17.795244
63.720 18.087637
63.725 18.419823
63.730 19.017857
63.735 19.361584
63.740 19.146812
63.745 19.227127
63.750 19.353718
63.755 19.304396
63.760 19.224985
63.765 18.604076
63.770 18.760658
63.775 19.475723
63.780 19.349241
63.785 19.693598
63.790 19.672663
63.795 19.280857
63.800 18.593927
63.805 17.934689
63.810 17.112761
63.815 17.813404
63.820 17.651176
63.825 17.927404
63.830 18.438457
63.835 18.991083
63.840 19.047356
63.845 19.561775
63.850 19.123444
63.855 18.735348
63.860 18.454695
63.865 18.354956
63.870 17.771282
63.875 17.226616
63.880 16.513624
63.885 16.706064
63.890 16.893415
63.895 17.086617
63.900 17.283583
63.905 17.256256
63.910 17.067959
63.915 17.103373
63.920 17.469532
63.925 17.368271
63.930 17.629606
63.935 17.622456
63.940 17.907345
63.945 19.105106
63.950 19.590923
63.955 19.696205
63.960 20.462234
63.965 20.569538
63.970 21.327816
63.975 21.558458
63.980 21.198536
63.985 20.514475
63.990 20.314281
63.995 20.077217
64.000 20.057302
64.005 19.287809
64.010 19.446217
64.015 20.220978
64.020 20.95425
64.025 20.447016
64.030 19.999592
64.035 19.916321
64.040 20.120192
64.045 19.574148
64.050 18.99964
64.055 18.726341
64.060 19.096151
64.065 19.418354
64.070 19.52969
64.075 20.072226
64.080 20.262974
64.085 20.34407
64.090 20.785826
64.095 20.441011
64.100 19.892801
64.105 19.244896
64.110 18.429193
64.115 19.225786
64.120 19.298649
64.125 18.896418
64.130 18.832607
64.135 19.404953
64.140 20.436131
64.145 20.430155
64.150 19.729383
64.155 19.501909
64.160 19.397211
64.165 19.526014
64.170 19.435682
64.175 19.475607
64.180 19.687063
64.185 19.499411
64.190 19.473701
64.195 19.448702
64.200 19.639437
64.205 19.259342
64.210 19.232683
64.215 19.135588
64.220 19.0509
64.225 19.078371
64.230 18.964483
64.235 18.707561
64.240 19.043844
64.245 18.988583
64.250 19.06267
64.255 19.548748
64.260 19.833363
64.265 19.966099
64.270 20.14613
64.275 19.922579
64.280 19.68981
64.285 19.509489
64.290 20.136398
64.295 20.280457
64.300 19.983984
64.305 19.716497
64.310 19.25366
64.315 19.689137
64.320 19.503052
64.325 19.125778
64.330 19.288593
64.335 19.565407
64.340 19.944723
64.345 20.497211
64.350 20.261835
64.355 20.193712
64.360 19.643682
64.365 19.259855
64.370 19.511721
64.375 19.476952
64.380 19.567612
64.385 20.297323
64.390 20.938532
64.395 21.092894
64.400 20.840542
64.405 20.617826
64.410 20.808271
64.415 20.535002
64.420 20.054987
64.425 19.866169
64.430 19.864031
64.435 20.034094
64.440 20.415863
64.445 20.173893
64.450 19.722025
64.455 19.808054
64.460 20.466497
64.465 20.932537
64.470 20.856506
64.475 20.196472
64.480 20.092329
64.485 19.995848
64.490 19.855766
64.495 19.283001
64.500 19.365788
64.505 20.017504
64.510 20.888348
64.515 20.939884
64.520 21.081326
64.525 21.188557
64.530 20.675735
64.535 19.943016
64.540 19.517801
64.545 19.106771
64.550 19.228231
64.555 19.378214
64.560 19.393009
64.565 19.541012
64.570 19.74999
64.575 19.178606
64.580 18.996412
64.585 19.605076
64.590 19.140945
64.595 19.005394
64.600 18.695623
64.605 18.792299
64.610 19.290512
64.615 19.264334
64.620 18.629101
64.625 18.742968
64.630 18.529451
64.635 19.208334
64.640 19.748178
64.645 19.921402
64.650 19.81716
64.655 19.53277
64.660 19.59919
64.665 19.714615
64.670 19.358967
64.675 18.291599
64.680 18.255346
64.685 18.340288
64.690 18.682369
64.695 18.496723
64.700 19.09223
64.705 19.594231
64.710 20.742844
64.715 20.973757
64.720 20.8556
64.725 20.584404
64.730 20.388142
64.735 20.414253
64.740 19.750181
64.745 18.717096
64.750 18.985527
64.755 19.473669
64.760 20.184519
64.765 20.595852
64.770 20.479549
64.775 20.916178
64.780 21.234177
64.785 20.997126
64.790 20.603445
64.795 19.952423
64.800 19.69013
64.805 19.653946
64.810 20.186329
64.815 20.327751
64.820 20.622313
64.825 21.121082
64.830 22.092749
64.835 22.489264
64.840 22.404409
64.845 22.161175
64.850 22.339539
64.855 21.947556
64.860 21.770224
64.865 21.31057
64.870 20.83576
64.875 21.039379
64.880 21.125162
64.885 20.607231
64.890 20.552011
64.895 20.824484
64.900 20.877108
64.905 21.063974
64.910 20.801882
64.915 20.141773
64.920 20.308847
64.925 20.231773
64.930 20.047441
64.935 20.338789
64.940 20.825916
64.945 21.366701
64.950 21.800797
64.955 22.714018
64.960 23.105169
64.965 23.155209
64.970 23.070696
64.975 22.621277
64.980 22.039854
64.985 21.698717
64.990 22.181992
64.995 22.458717
65.000 22.211933
65.005 21.939489
65.010 22.327507
65.015 23.228399
65.020 24.026981
65.025 22.940454
65.030 22.592951
65.035 22.902903
65.040 23.587234
65.045 23.041735
65.050 22.808119
65.055 22.478168
65.060 22.657904
65.065 22.848166
65.070 23.297815
65.075 22.778341
65.080 23.016951
65.085 22.720581
65.090 22.347549
65.095 22.915359
65.100 22.862038
65.105 22.792875
65.110 22.872732
65.115 23.236202
65.120 23.37392
65.125 24.283678
65.130 24.405275
65.135 24.731363
65.140 24.596714
65.145 24.985964
65.150 24.998442
65.155 25.120075
65.160 24.417225
65.165 24.098358
65.170 23.972065
65.175 23.910089
65.180 24.058651
65.185 24.021875
65.190 24.272692
65.195 24.216354
65.200 24.238674
65.205 24.562376
65.210 24.229097
65.215 23.820309
65.220 23.535442
65.225 23.297068
65.230 23.31436
65.235 23.042604
65.240 22.660421
65.245 22.769758
65.250 22.664352
65.255 22.738415
65.260 22.881147
65.265 23.27821
65.270 23.661673
65.275 23.861654
65.280 24.020807
65.285 23.905277
65.290 23.895288
65.295 24.231823
65.300 23.852341
65.305 24.575069
65.310 25.104002
65.315 24.91057
65.320 25.206934
65.325 25.307447
65.330 25.167032
65.335 25.576952
65.340 24.803686
65.345 24.641808
65.350 24.821634
65.355 24.417118
65.360 23.744093
65.365 23.564594
65.370 23.531147
65.375 22.944981
65.380 22.972723
65.385 23.700384
65.390 24.635635
65.395 25.194241
65.400 25.543732
65.405 24.737604
65.410 25.314276
65.415 25.55814
65.420 25.275946
65.425 25.179695
65.430 25.313816
65.435 25.853855
65.440 27.047667
65.445 26.517311
65.450 26.58696
65.455 25.769524
65.460 25.739855
65.465 25.868534
65.470 26.069151
65.475 26.128677
65.480 26.088215
65.485 25.942209
65.490 26.293797
65.495 26.503061
65.500 26.050039
65.505 25.936108
65.510 26.403883
65.515 26.931807
65.520 27.208931
65.525 27.59429
65.530 27.781698
65.535 28.07111
65.540 28.136372
65.545 28.27389
65.550 28.21541
65.555 28.218458
65.560 28.420725
65.565 28.486517
65.570 29.088062
65.575 29.142809
65.580 29.61084
65.585 30.476669
65.590 30.786945
65.595 31.080116
65.600 31.115932
65.605 30.378021
65.610 30.678234
65.615 30.876574
65.620 31.672787
65.625 32.291916
65.630 32.40535
65.635 32.614101
65.640 33.305538
65.645 33.398666
65.650 32.912949
65.655 32.374485
65.660 31.870474
65.665 32.053009
65.670 32.41457
65.675 33.002182
65.680 33.433441
65.685 33.229973
65.690 33.765453
65.695 34.15168
65.700 34.151783
65.705 34.057682
65.710 34.049923
65.715 34.903656
65.720 35.357918
65.725 35.259655
65.730 35.844193
65.735 36.569439
65.740 36.639156
65.745 36.055878
65.750 36.033234
65.755 36.883167
65.760 37.539829
65.765 37.461147
65.770 36.835102
65.775 37.090347
65.780 38.018196
65.785 37.447327
65.790 37.335758
65.795 37.323879
65.800 37.879093
65.805 38.290672
65.810 38.122166
65.815 37.505054
65.820 37.028137
65.825 36.817608
65.830 36.252224
65.835 35.498875
65.840 35.368793
65.845 35.658272
65.850 36.37693
65.855 36.417988
65.860 36.508549
65.865 36.381577
65.870 36.974133
65.875 37.639751
65.880 38.038506
65.885 38.384506
65.890 39.181992
65.895 39.044163
65.900 39.583332
65.905 39.000786
65.910 38.331734
65.915 37.914864
65.920 38.571171
65.925 39.765846
65.930 40.293522
65.935 40.791351
65.940 41.408428
65.945 41.884258
65.950 41.818504
65.955 40.696171
65.960 39.57246
65.965 39.14212
65.970 38.562927
65.975 38.803551
65.980 39.179653
65.985 39.149616
65.990 38.549866
65.995 38.063831
66.000 38.552433
66.005 39.033531
66.010 39.800804
66.015 39.684723
66.020 39.491638
66.025 39.979618
66.030 40.603001
66.035 39.556454
66.040 37.814289
66.045 37.169964
66.050 37.036812
66.055 36.974495
66.060 36.887466
66.065 37.229271
66.070 38.014198
66.075 39.11491
66.080 39.144238
66.085 38.991905
66.090 38.523777
66.095 38.087395
66.100 37.338646
66.105 37.469254
66.110 37.499863
66.115 37.140808
66.120 36.677193
66.125 36.749924
66.130 36.973583
66.135 36.316635
66.140 36.087364
66.145 36.15443
66.150 35.528908
66.155 35.881294
66.160 36.559113
66.165 36.048302
66.170 35.08366
66.175 34.445797
66.180 34.558224
66.185 34.655067
66.190 34.48764
66.195 34.32914
66.200 35.92358
66.205 37.934402
66.210 38.260693
66.215 37.048119
66.220 37.329945
66.225 37.271065
66.230 37.061699
66.235 36.81876
66.240 35.594723
66.245 34.493168
66.250 33.954456
66.255 34.057487
66.260 34.585339
66.265 34.583748
66.270 33.526451
66.275 32.989746
66.280 33.81385
66.285 34.219391
66.290 33.783249
66.295 33.026474
66.300 32.490616
66.305 32.187622
66.310 32.161488
66.315 31.708567
66.320 31.603926
66.325 32.05209
66.330 32.999271
66.335 32.754753
66.340 32.716286
66.345 33.530613
66.350 32.809357
66.355 32.75909
66.360 32.882893
66.365 32.991386
66.370 33.041103
66.375 33.021549
66.380 32.531109
66.385 33.017433
66.390 33.091957
66.395 32.368847
66.400 31.51145
66.405 31.90452
66.410 31.955244
66.415 31.104898
66.420 30.733883
66.425 30.0438
66.430 30.001074
66.435 29.381786
66.440 28.81472
66.445 28.972528
66.450 29.583454
66.455 29.570885
66.460 29.322802
66.465 28.855259
66.470 28.857683
66.475 28.329248
66.480 28.279356
66.485 28.783583
66.490 28.767513
66.495 29.233541
66.500 29.808849
66.505 30.888203
66.510 31.419785
66.515 30.729799
66.520 30.594734
66.525 30.622866
66.530 29.748085
66.535 29.57925
66.540 28.94117
66.545 28.517918
66.550 28.496754
66.555 28.192001
66.560 27.940493
66.565 28.200769
66.570 27.72838
66.575 27.301628
66.580 27.120234
66.585 26.842138
66.590 26.44953
66.595 26.853312
66.600 26.841915
66.605 27.296719
66.610 27.529604
66.615 27.916319
66.620 27.401646
66.625 27.153856
66.630 26.538462
66.635 25.881918
66.640 25.443701
66.645 25.217152
66.650 25.160362
66.655 25.630447
66.660 25.237139
66.665 25.262909
66.670 25.635653
66.675 25.547575
66.680 25.406384
66.685 25.409365
66.690 25.106108
66.695 26.060179
66.700 26.285336
66.705 26.331793
66.710 25.95093
66.715 25.878082
66.720 25.843155
66.725 26.418556
66.730 26.407623
66.735 26.366299
66.740 26.634954
66.745 26.5149
66.750 26.68075
66.755 27.101196
66.760 26.321529
66.765 26.030519
66.770 25.874763
66.775 25.267719
66.780 25.508078
66.785 25.272869
66.790 24.858147
66.795 25.3599
66.800 25.156303
66.805 24.943373
66.810 24.981651
66.815 25.262068
66.820 25.158842
66.825 24.348116
66.830 23.975563
66.835 23.336735
66.840 23.116217
66.845 22.758684
66.850 22.19519
66.855 22.284054
66.860 22.810585
66.865 22.665831
66.870 22.570557
66.875 22.563061
66.880 22.509155
66.885 22.787491
66.890 22.651964
66.895 22.32439
66.900 21.939192
66.905 21.750229
66.910 22.403788
66.915 22.714882
66.920 21.542896
66.925 21.276785
66.930 21.381214
66.935 22.145657
66.940 22.997887
66.945 23.511532
66.950 23.912884
66.955 24.823774
66.960 25.19388
66.965 26.202734
66.970 26.422956
66.975 26.444426
66.980 26.264099
66.985 25.63566
66.990 25.433979
66.995 25.33099
67.000 24.859552
67.005 25.412338
67.010 25.158876
67.015 24.986048
67.020 25.38343
67.025 25.345068
67.030 25.365622
67.035 25.522789
67.040 25.087881
67.045 24.978386
67.050 25.15415
67.055 25.603487
67.060 26.289167
67.065 26.178638
67.070 25.979525
67.075 26.336052
67.080 25.785271
67.085 25.781139
67.090 25.378801
67.095 24.795181
67.100 24.520952
67.105 23.592112
67.110 23.245766
67.115 23.405825
67.120 23.477634
67.125 23.224247
67.130 23.614929
67.135 24.005419
67.140 24.0571
67.145 23.602213
67.150 23.533249
67.155 23.51623
67.160 23.836149
67.165 23.476206
67.170 23.541018
67.175 23.536499
67.180 23.757925
67.185 23.609243
67.190 23.196375
67.195 22.578783
67.200 22.708883
67.205 22.306295
67.210 22.315498
67.215 22.842424
67.220 22.88608
67.225 22.790752
67.230 22.792124
67.235 22.395729
67.240 23.094234
67.245 22.791965
67.250 22.515894
67.255 22.656488
67.260 23.411369
67.265 23.979908
67.270 23.796097
67.275 23.381626
67.280 23.839701
67.285 23.324509
67.290 22.875322
67.295 22.65019
67.300 22.820364
67.305 22.913334
67.310 23.075031
67.315 22.537664
67.320 22.68652
67.325 22.476486
67.330 22.21726
67.335 22.206654
67.340 22.718569
67.345 22.711161
67.350 22.544956
67.355 22.183804
67.360 22.356949
67.365 22.084438
67.370 21.806059
67.375 21.559307
67.380 21.646166
67.385 21.864258
67.390 22.049181
67.395 22.097939
67.400 22.484049
67.405 21.938818
67.410 21.16818
67.415 20.741652
67.420 20.844309
67.425 20.682423
67.430 20.674124
67.435 20.488741
67.440 20.340693
67.445 20.577259
67.450 21.205776
67.455 21.669594
67.460 21.722189
67.465 21.37743
67.470 20.97784
67.475 21.172977
67.480 21.400187
67.485 21.761824
67.490 21.808104
67.495 21.774992
67.500 22.349922
67.505 22.751497
67.510 22.916027
67.515 23.654922
67.520 23.852533
67.525 23.802948
67.530 23.76124
67.535 23.856222
67.540 24.47971
67.545 24.619268
67.550 24.180288
67.555 24.044844
67.560 24.251343
67.565 24.844271
67.570 24.371052
67.575 24.657658
67.580 24.083702
67.585 23.844557
67.590 23.871233
67.595 24.025078
67.600 23.874821
67.605 23.829994
67.610 23.621201
67.615 24.395224
67.620 24.459997
67.625 24.081749
67.630 23.800919
67.635 23.460962
67.640 23.522097
67.645 23.196749
67.650 22.732716
67.655 22.046103
67.660 22.120378
67.665 21.846272
67.670 21.949781
67.675 21.679735
67.680 21.817404
67.685 22.096334
67.690 22.696285
67.695 22.141665
67.700 22.252317
67.705 22.08527
67.710 22.050991
67.715 21.730354
67.720 21.29315
67.725 20.898464
67.730 20.877502
67.735 20.935995
67.740 20.805254
67.745 20.127804
67.750 20.036661
67.755 20.329149
67.760 20.571577
67.765 20.672832
67.770 21.154097
67.775 21.3512
67.780 21.556288
67.785 21.641111
67.790 20.787788
67.795 20.543238
67.800 20.576752
67.805 20.329401
67.810 20.572386
67.815 20.565506
67.820 20.948965
67.825 21.744324
67.830 22.439083
67.835 21.78787
67.840 20.811001
67.845 20.801516
67.850 20.802961
67.855 20.274509
67.860 20.521114
67.865 20.360353
67.870 20.874384
67.875 21.160225
67.880 20.805122
67.885 21.060228
67.890 21.064301
67.895 21.138298
67.900 20.891932
67.905 21.414001
67.910 22.126978
67.915 22.241173
67.920 22.074377
67.925 22.295816
67.930 22.324728
67.935 22.489332
67.940 21.979937
67.945 22.109928
67.950 22.463009
67.955 22.950975
67.960 23.24703
67.965 22.708235
67.970 22.899065
67.975 22.716122
67.980 21.763144
67.985 21.704285
67.990 20.953678
67.995 20.235804
68.000 20.097569
68.005 19.8841
68.010 20.206989
68.015 20.471291
68.020 20.453295
68.025 20.80393
68.030 20.90999
68.035 20.483044
68.040 20.267675
68.045 20.398781
68.050 20.89703
68.055 20.724192
68.060 20.830669
68.065 21.290249
68.070 21.891022
68.075 22.419956
68.080 22.796362
68.085 22.599571
68.090 22.579498
68.095 22.402866
68.100 22.583584
68.105 22.228645
68.110 22.055939
68.115 21.432598
68.120 21.550081
68.125 21.601406
68.130 21.204248
68.135 20.362858
68.140 20.224524
68.145 20.162775
68.150 20.365789
68.155 20.041275
68.160 20.294279
68.165 20.48068
68.170 20.663952
68.175 21.284866
68.180 21.136467
68.185 21.365988
68.190 22.007233
68.195 22.159992
68.200 22.447985
68.205 22.719841
68.210 22.062607
68.215 22.260632
68.220 21.838507
68.225 21.483171
68.230 21.082262
68.235 20.840515
68.240 20.579105
68.245 21.067915
68.250 21.227791
68.255 21.501984
68.260 21.895821
68.265 22.169544
68.270 22.789032
68.275 23.183134
68.280 22.911577
68.285 22.47657
68.290 22.30057
68.295 21.78363
68.300 21.746696
68.305 21.558735
68.310 21.618353
68.315 21.744118
68.320 21.953936
68.325 21.15727
68.330 21.176767
68.335 21.226276
68.340 20.920849
68.345 21.010973
68.350 21.252403
68.355 21.527046
68.360 21.80562
68.365 21.59734
68.370 21.103746
68.375 21.424913
68.380 21.35128
68.385 21.162933
68.390 21.731081
68.395 22.475904
68.400 23.407795
68.405 24.202896
68.410 24.105795
68.415 23.698618
68.420 23.718596
68.425 23.681339
68.430 24.031116
68.435 23.095568
68.440 22.554232
68.445 22.770077
68.450 23.180695
68.455 22.662697
68.460 21.990919
68.465 21.188692
68.470 21.965681
68.475 21.681974
68.480 21.588169
68.485 22.191248
68.490 22.648666
68.495 22.535093
68.500 23.022467
68.505 22.875633
68.510 23.135277
68.515 23.228796
68.520 22.851025
68.525 22.893049
68.530 23.278925
68.535 23.244991
68.540 23.263399
68.545 22.734667
68.550 22.3946
68.555 22.282978
68.560 22.275656
68.565 21.608795
68.570 20.879402
68.575 20.437424
68.580 20.695011
68.585 20.62821
68.590 20.303812
68.595 20.356619
68.600 20.963177
68.605 21.950363
68.610 22.564215
68.615 23.117805
68.620 23.132416
68.625 22.317028
68.630 22.170916
68.635 21.544498
68.640 20.886967
68.645 20.676888
68.650 20.418909
68.655 21.135004
68.660 22.057404
68.665 22.170044
68.670 22.616846
68.675 22.35162
68.680 21.823391
68.685 22.432587
68.690 22.605728
68.695 22.421675
68.700 22.083282
68.705 22.15168
68.710 22.36124
68.715 22.692535
68.720 22.931097
68.725 23.070364
68.730 22.865009
68.735 23.393606
68.740 23.531477
68.745 23.510372
68.750 23.299095
68.755 22.593193
68.760 22.693056
68.765 23.353558
68.770 23.107254
68.775 23.439304
68.780 23.596245
68.785 23.44116
68.790 22.845476
68.795 23.215174
68.800 23.497766
68.805 23.501982
68.810 23.896614
68.815 23.76082
68.820 24.283978
68.825 24.722265
68.830 24.20359
68.835 24.601271
68.840 24.619665
68.845 24.022232
68.850 24.579599
68.855 24.701874
68.860 24.266287
68.865 23.843746
68.870 23.7568
68.875 23.830269
68.880 24.177238
68.885 24.058113
68.890 23.454315
68.895 23.779161
68.900 23.968351
68.905 23.510468
68.910 23.248301
68.915 23.015524
68.920 22.7255
68.925 22.73835
68.930 22.377779
68.935 22.676043
68.940 23.305744
68.945 23.028828
68.950 23.186548
68.955 23.862049
68.960 24.53196
68.965 24.830961
68.970 24.356611
68.975 24.505209
68.980 25.417168
68.985 25.728033
68.990 25.738342
68.995 26.177305
69.000 26.981928
69.005 27.195074
69.010 27.202265
69.015 26.730806
69.020 26.290129
69.025 26.413273
69.030 25.625637
69.035 25.368429
69.040 25.679008
69.045 26.170988
69.050 26.029314
69.055 26.483192
69.060 26.286259
69.065 27.273254
69.070 26.962341
69.075 26.284361
69.080 25.965481
69.085 26.280903
69.090 26.144257
69.095 26.451319
69.100 26.16736
69.105 26.710407
69.110 27.608616
69.115 28.054123
69.120 26.911806
69.125 26.980345
69.130 26.803112
69.135 26.270655
69.140 25.646959
69.145 24.715509
69.150 25.120756
69.155 26.163395
69.160 25.91424
69.165 25.839882
69.170 26.172407
69.175 26.594482
69.180 27.237444
69.185 26.377455
69.190 26.464052
69.195 25.926857
69.200 25.88496
69.205 26.169785
69.210 26.259237
69.215 26.104149
69.220 26.638718
69.225 27.074553
69.230 28.186266
69.235 28.171658
69.240 28.057364
69.245 28.22694
69.250 28.82659
69.255 28.964958
69.260 28.352156
69.265 27.962904
69.270 28.720839
69.275 28.826012
69.280 28.281433
69.285 28.062231
69.290 28.773951
69.295 29.451265
69.300 29.721384
69.305 29.838339
69.310 30.462997
69.315 30.969851
69.320 31.088791
69.325 30.02457
69.330 29.889265
69.335 29.163729
69.340 28.32865
69.345 27.787998
69.350 27.847851
69.355 27.90645
69.360 27.871193
69.365 27.975697
69.370 28.832329
69.375 29.56068
69.380 30.056496
69.385 29.851749
69.390 29.832418
69.395 30.09947
69.400 30.277048
69.405 30.391857
69.410 30.767023
69.415 31.330559
69.420 31.316036
69.425 31.291824
69.430 31.247009
69.435 31.618443
69.440 31.667051
69.445 31.041479
69.450 30.830605
69.455 30.755369
69.460 31.482155
69.465 31.988323
69.470 30.764372
69.475 30.742186
69.480 30.733494
69.485 30.566036
69.490 30.927536
69.495 30.27446
69.500 29.964705
69.505 29.825188
69.510 29.567822
69.515 29.689466
69.520 29.592943
69.525 30.10211
69.530 30.536283
69.535 30.41724
69.540 30.582277
69.545 30.598597
69.550 30.330919
69.555 29.614729
69.560 28.913834
69.565 28.845512
69.570 29.780849
69.575 30.602699
69.580 30.231527
69.585 29.606955
69.590 30.152107
69.595 29.947411
69.600 29.197433
69.605 28.673805
69.610 28.417265
69.615 28.497454
69.620 28.967966
69.625 28.996017
69.630 29.139311
69.635 29.281763
69.640 28.739178
69.645 28.508551
69.650 28.577621
69.655 29.029831
69.660 28.770691
69.665 28.427101
69.670 28.574587
69.675 28.247091
69.680 27.68861
69.685 27.615517
69.690 27.126408
69.695 27.093819
69.700 27.672621
69.705 27.839575
69.710 27.940542
69.715 27.891356
69.720 27.992933
69.725 28.394411
69.730 28.534758
69.735 27.984047
69.740 28.176432
69.745 28.451906
69.750 28.648928
69.755 28.334635
69.760 28.44449
69.765 28.111958
69.770 28.314819
69.775 28.153881
69.780 28.236622
69.785 27.949686
69.790 28.06288
69.795 27.419268
69.800 26.870007
69.805 26.588495
69.810 26.306673
69.815 26.382542
69.820 26.591995
69.825 26.246122
69.830 26.233219
69.835 26.56278
69.840 26.423536
69.845 26.810881
69.850 26.441538
69.855 26.403353
69.860 26.052025
69.865 26.347326
69.870 26.264702
69.875 26.016571
69.880 25.549032
69.885 25.68434
69.890 25.726936
69.895 25.939734
69.900 26.20562
69.905 25.266697
69.910 24.914709
69.915 24.958086
69.920 24.648581
69.925 24.145895
69.930 23.04837
69.935 22.970615
69.940 23.26086
69.945 23.134468
69.950 23.075481
69.955 22.918512
69.960 23.029814
69.965 23.275908
69.970 22.450396
69.975 22.100878
69.980 21.558254
69.985 21.264774
69.990 21.558453
69.995 21.606888
70.000 21.535164
70.005 21.675184
70.010 21.631207
70.015 22.101875
70.020 22.002644
70.025 22.18795
70.030 22.039185
70.035 22.048058
70.040 22.410431
70.045 22.276527
70.050 22.942013
70.055 23.010786
70.060 22.644039
70.065 22.218418
70.070 22.255064
70.075 22.55612
70.080 22.802998
70.085 22.570633
70.090 22.565851
70.095 21.975513
70.100 21.894695
70.105 22.324154
70.110 22.517645
70.115 22.747246
70.120 22.497751
70.125 23.452257
70.130 24.578005
70.135 25.003328
70.140 24.059769
70.145 23.707638
70.150 23.218433
70.155 22.576721
70.160 21.413942
70.165 20.849104
70.170 20.482801
70.175 20.532202
70.180 20.657385
70.185 20.06889
70.190 20.197947
70.195 20.983696
70.200 21.060017
70.205 20.648123
70.210 20.911459
70.215 21.29945
70.220 21.950006
70.225 22.212246
70.230 21.90386
70.235 22.161251
70.240 22.957203
70.245 22.864323
70.250 22.367393
70.255 22.774298
70.260 23.189011
70.265 23.834309
70.270 24.479509
70.275 24.093281
70.280 24.324238
70.285 23.973232
70.290 23.033043
70.295 22.441618
70.300 21.050806
70.305 20.964521
70.310 20.776108
70.315 20.519823
70.320 20.702448
70.325 20.877361
70.330 20.662764
70.335 20.672207
70.340 20.812063
70.345 21.117229
70.350 21.08717
70.355 21.098856
70.360 20.980078
70.365 21.556536
70.370 21.281187
70.375 20.852583
70.380 21.025417
70.385 21.605989
70.390 22.2651
70.395 22.591606
70.400 23.209682
70.405 23.594191
70.410 23.329361
70.415 22.543257
70.420 22.072262
70.425 21.45583
70.430 21.168434
70.435 20.595842
70.440 20.144554
70.445 19.747732
70.450 19.71409
70.455 19.574717
70.460 19.839287
70.465 19.719666
70.470 20.358017
70.475 20.772482
70.480 21.408991
70.485 22.101583
70.490 21.981312
70.495 20.984871
70.500 20.849497
70.505 20.650814
70.510 19.993818
70.515 19.545149
70.520 19.154335
70.525 19.846794
70.530 20.487186
70.535 20.181116
70.540 20.014238
70.545 20.102312
70.550 20.679583
70.555 20.581438
70.560 20.143995
70.565 20.401566
70.570 20.491348
70.575 20.193502
70.580 20.702673
70.585 20.459154
70.590 20.394068
70.595 20.539747
70.600 20.212482
70.605 20.841555
70.610 21.314051
70.615 21.569321
70.620 22.070705
70.625 22.266514
70.630 22.373833
70.635 22.72337
70.640 22.294771
70.645 21.159109
70.650 19.877043
70.655 19.429499
70.660 19.542053
70.665 18.83156
70.670 18.327913
70.675 18.628246
70.680 19.376545
70.685 19.478867
70.690 19.572109
70.695 19.068041
70.700 19.385876
70.705 19.981689
70.710 20.248117
70.715 20.470467
70.720 20.413429
70.725 20.511253
70.730 20.815277
70.735 20.930456
70.740 20.383366
70.745 19.819304
70.750 20.331221
70.755 20.543102
70.760 20.361076
70.765 20.274693
70.770 20.244999
70.775 20.605904
70.780 20.589844
70.785 19.945103
70.790 19.776981
70.795 20.321293
70.800 20.506851
70.805 20.23852
70.810 19.561872
70.815 19.257355
70.820 19.65098
70.825 19.838188
70.830 19.615433
70.835 19.504185
70.840 19.568239
70.845 19.752153
70.850 19.803234
70.855 19.223156
70.860 19.022646
70.865 19.337915
70.870 18.897406
70.875 19.323858
70.880 19.72636
70.885 20.609949
70.890 21.27318
70.895 20.637299
70.900 20.812714
70.905 20.665831
70.910 20.443777
70.915 20.12483
70.920 19.075417
70.925 18.970886
70.930 19.21163
70.935 19.47047
70.940 19.585659
70.945 19.399359
70.950 19.68432
70.955 20.296457
70.960 20.275875
70.965 19.863024
70.970 19.716799
70.975 19.954168
70.980 19.23806
70.985 18.845047
70.990 18.729414
70.995 19.408735
71.000 20.301067
71.005 19.710583
71.010 19.568964
71.015 20.48596
71.020 20.952745
71.025 21.089802
71.030 20.320333
71.035 20.058285
71.040 20.609365
71.045 20.505466
71.050 20.145342
71.055 19.661776
71.060 19.892229
71.065 19.854464
71.070 19.561914
71.075 19.142054
71.080 19.048841
71.085 19.147873
71.090 19.009829
71.095 18.555061
71.100 18.300171
71.105 18.560658
71.110 18.65921
71.115 19.092367
71.120 19.070198
71.125 19.275024
71.130 19.540138
71.135 19.300867
71.140 19.090923
71.145 19.013287
71.150 18.867319
71.155 18.921238
71.160 18.890463
71.165 19.339952
71.170 20.100092
71.175 20.799217
71.180 21.408018
71.185 20.975527
71.190 20.588732
71.195 20.55566
71.200 20.156185
71.205 19.748259
71.210 19.197058
71.215 18.627771
71.220 18.842489
71.225 19.08687
71.230 19.640265
71.235 20.272785
71.240 21.088043
71.245 21.286053
71.250 21.612633
71.255 21.886045
71.260 21.646448
71.265 21.3325
71.270 20.553404
71.275 20.034508
71.280 19.976646
71.285 19.958525
71.290 19.752041
71.295 19.400736
71.300 18.981165
71.305 19.26898
71.310 19.566355
71.315 20.050051
71.320 20.466141
71.325 20.769007
71.330 21.328815
71.335 21.532955
71.340 21.222446
71.345 21.385164
71.350 21.934862
71.355 22.148369
71.360 22.351357
71.365 21.233488
71.370 20.718256
71.375 19.980858
71.380 19.276373
71.385 18.800705
71.390 18.65748
71.395 18.341175
71.400 18.635496
71.405 19.118437
71.410 19.420424
71.415 19.60457
71.420 19.419785
71.425 19.106443
71.430 18.953716
71.435 19.323669
71.440 19.091864
71.445 18.942614
71.450 19.090673
71.455 18.764603
71.460 18.708639
71.465 18.634491
71.470 18.854532
71.475 19.145952
71.480 19.283367
71.485 19.042959
71.490 19.056549
71.495 19.82008
71.500 19.640051
71.505 19.690218
71.510 19.523041
71.515 19.259569
71.520 19.422064
71.525 20.036772
71.530 19.833281
71.535 20.161285
71.540 20.03203
71.545 20.530298
71.550 20.769587
71.555 20.582457
71.560 20.110291
71.565 20.431843
71.570 20.999584
71.575 20.878569
71.580 20.762192
71.585 21.094461
71.590 20.8878
71.595 20.632601
71.600 20.307741
71.605 20.077147
71.610 20.069139
71.615 19.609446
71.620 19.44611
71.625 19.483406
71.630 19.5854
71.635 19.342768
71.640 19.468086
71.645 19.003319
71.650 18.979103
71.655 18.863251
71.660 18.592392
71.665 18.696665
71.670 18.310728
71.675 18.528711
71.680 18.518488
71.685 18.134069
71.690 18.46245
71.695 18.422716
71.700 18.27277
71.705 18.449635
71.710 18.180698
71.715 18.145924
71.720 18.352417
71.725 17.977129
71.730 18.460472
71.735 18.321209
71.740 18.24202
71.745 18.496078
71.750 18.797152
71.755 18.584648
71.760 18.839922
71.765 18.693228
71.770 19.003372
71.775 18.768826
71.780 18.941547
71.785 19.032677
71.790 19.02701
71.795 19.103231
71.800 19.925327
71.805 20.342588
71.810 21.559893
71.815 21.462959
71.820 21.756485
71.825 21.991499
71.830 21.866962
71.835 21.408308
71.840 21.19595
71.845 20.841146
71.850 20.676777
71.855 20.751232
71.860 20.606998
71.865 20.808016
71.870 20.986752
71.875 20.984354
71.880 20.569828
71.885 20.57872
71.890 20.700668
71.895 20.575333
71.900 20.419245
71.905 20.056128
71.910 20.552534
71.915 21.057375
71.920 20.221592
71.925 19.702391
71.930 19.924913
71.935 19.357208
71.940 19.004398
71.945 17.72377
71.950 17.567774
71.955 18.178064
71.960 18.65423
71.965 18.283218
71.970 18.514463
71.975 18.655926
71.980 19.387503
71.985 19.965298
71.990 19.579084
71.995 19.01399
72.000 19.187239
72.005 19.39649
72.010 19.811937
72.015 19.493839
72.020 18.967005
72.025 19.36635
72.030 20.295988
72.035 20.334389
72.040 20.199411
72.045 19.497198
72.050 19.097202
72.055 19.268383
72.060 19.041172
72.065 18.78174
72.070 19.026716
72.075 19.116022
72.080 20.02412
72.085 19.657816
72.090 19.46339
72.095 19.078056
72.100 18.159353
72.105 17.843325
72.110 17.860226
72.115 18.2563
72.120 18.708874
72.125 18.918259
72.130 19.138735
72.135 19.074699
72.140 19.306742
72.145 18.725592
72.150 18.273155
72.155 18.422941
72.160 18.352753
72.165 18.636177
72.170 18.811695
72.175 18.962332
72.180 18.841055
72.185 18.749771
72.190 18.812296
72.195 19.133718
72.200 19.581419
72.205 19.691744
72.210 19.138422
72.215 19.122503
72.220 18.718048
72.225 18.647905
72.230 18.409597
72.235 18.61916
72.240 18.971315
72.245 19.948111
72.250 20.174021
72.255 20.431925
72.260 20.586855
72.265 20.579853
72.270 19.688412
72.275 19.240419
72.280 18.46262
72.285 18.411186
72.290 18.017225
72.295 18.361012
72.300 18.116926
72.305 17.753859
72.310 17.615252
72.315 17.636799
72.320 17.578777
72.325 17.90406
72.330 17.795675
72.335 18.213091
72.340 18.822882
72.345 19.798693
72.350 20.226851
72.355 20.638027
72.360 20.136496
72.365 20.031904
72.370 20.009314
72.375 19.999813
72.380 19.547543
72.385 19.317818
72.390 19.198042
72.395 19.412264
72.400 19.61902
72.405 19.672235
72.410 19.638863
72.415 19.559723
72.420 19.405027
72.425 19.214422
72.430 19.548401
72.435 19.241219
72.440 19.359842
72.445 19.487499
72.450 20.05505
72.455 20.074308
72.460 20.107227
72.465 20.421381
72.470 19.892437
72.475 19.803974
72.480 19.530794
72.485 19.014566
72.490 19.052794
72.495 18.343216
72.500 18.030031
72.505 18.287739
72.510 18.129148
72.515 17.949873
72.520 18.455786
72.525 19.063555
72.530 19.755287
72.535 19.862869
72.540 19.728449
72.545 19.420641
72.550 19.676918
72.555 19.054071
72.560 18.100815
72.565 17.452883
72.570 17.136078
72.575 17.293304
72.580 17.53372
72.585 17.279856
72.590 17.868704
72.595 18.183073
72.600 18.561054
72.605 18.969942
72.610 19.086641
72.615 19.070099
72.620 19.37323
72.625 18.921179
72.630 18.308168
72.635 18.455019
72.640 18.003298
72.645 17.724878
72.650 17.184254
72.655 16.484678
72.660 17.55121
72.665 18.32448
72.670 17.672667
72.675 17.674143
72.680 17.287659
72.685 17.239891
72.690 17.479475
72.695 16.85062
72.700 17.070881
72.705 17.368362
72.710 17.793205
72.715 18.462587
72.720 18.687872
72.725 17.941957
72.730 17.626501
72.735 17.061092
72.740 16.893087
72.745 16.141485
72.750 16.248457
72.755 16.393715
72.760 16.540171
72.765 16.701429
72.770 16.788074
72.775 17.446102
72.780 17.622557
72.785 17.629744
72.790 17.401855
72.795 17.58622
72.800 17.631985
72.805 17.978247
72.810 17.907948
72.815 18.464087
72.820 18.325958
72.825 18.435009
72.830 18.451933
72.835 18.225079
72.840 17.567106
72.845 17.120125
72.850 16.688179
72.855 16.633127
72.860 16.109205
72.865 16.056023
72.870 15.85974
72.875 15.915278
72.880 15.528408
72.885 15.430584
72.890 15.798766
72.895 16.330667
72.900 17.001001
72.905 17.367985
72.910 17.435863
72.915 17.558475
72.920 17.76799
72.925 17.620541
72.930 17.70031
72.935 17.412016
72.940 17.901377
72.945 18.343401
72.950 18.296177
72.955 17.88011
72.960 17.406309
72.965 16.559061
72.970 16.06909
72.975 16.184996
72.980 16.365328
72.985 16.733179
72.990 17.078384
72.995 17.422869
73.000 17.942726
