!@!!GADDS PLOTSO FILE: Chi integration type
!@!!Title/SampleName: map-146
!@!!Comment: ?
!@!!User: Bruker Instrument Administrator
!@!!Site: University of Illinois Chicago
!@!!Frame: map-146_01_000.gfrm
!@!!Wavelengths    1.54184   1.54056   1.54439
!@!!Frame angles: 2Theta: 63.000 Omega: 50.000 Phi: 0.000 Chi: 90.000
!@!!Integration range: 2Theta: 53.000 to 73.000  Gamma: -105.000 to -75.000
!@!!Integration method: bin normalized
!@!N
!@!SS
!@!M
!@!L 0.0 0.0 0.0 0.0
!@!XDegrees
!@!YCounts
53.000 8.698616
53.005 8.362325
53.010 7.849217
53.015 7.968186
53.020 8.256172
53.025 8.114384
53.030 8.175776
53.035 8.219333
53.040 8.442063
53.045 8.614144
53.050 8.383128
53.055 8.206876
53.060 8.753262
53.065 8.849099
53.070 8.973335
53.075 9.395749
53.080 10.120673
53.085 10.708344
53.090 10.848101
53.095 10.500638
53.100 10.694878
53.105 10.458546
53.110 10.156344
53.115 9.939429
53.120 9.880581
53.125 10.186742
53.130 10.129723
53.135 9.86729
53.140 9.724962
53.145 9.763761
53.150 9.631808
53.155 9.576447
53.160 9.514956
53.165 9.732655
53.170 10.254062
53.175 10.599918
53.180 11.055464
53.185 11.217232
53.190 10.917056
53.195 10.502252
53.200 10.659795
53.205 10.455034
53.210 9.99357
53.215 9.475856
53.220 9.280349
53.225 9.026906
53.230 8.906016
53.235 8.764958
53.240 8.425133
53.245 8.56179
53.250 8.116561
53.255 7.770992
53.260 7.832038
53.265 7.702753
53.270 7.711719
53.275 7.834881
53.280 8.029825
53.285 8.76826
53.290 8.951961
53.295 9.234761
53.300 9.29072
53.305 9.562617
53.310 9.886699
53.315 9.867948
53.320 9.89246
53.325 10.258048
53.330 10.368079
53.335 10.538051
53.340 10.437132
53.345 10.234612
53.350 10.766147
53.355 11.204021
53.360 11.582998
53.365 11.78385
53.370 11.587789
53.375 11.979212
53.380 11.620667
53.385 11.140639
53.390 10.673094
53.395 10.045585
53.400 10.190453
53.405 9.922565
53.410 9.513632
53.415 10.1759
53.420 10.406054
53.425 10.678068
53.430 10.560713
53.435 10.378678
53.440 10.402435
53.445 10.512383
53.450 9.785587
53.455 9.418908
53.460 9.246876
53.465 9.090117
53.470 9.194663
53.475 9.562432
53.480 9.533193
53.485 9.705804
53.490 9.818259
53.495 10.329469
53.500 10.541499
53.505 10.52241
53.510 10.346365
53.515 10.168311
53.520 9.998552
53.525 10.340648
53.530 10.170777
53.535 9.963405
53.540 9.749117
53.545 9.896096
53.550 10.132454
53.555 9.807905
53.560 9.815704
53.565 10.108269
53.570 10.384362
53.575 10.776258
53.580 10.774324
53.585 10.797209
53.590 10.686559
53.595 10.497894
53.600 10.282325
53.605 9.766394
53.610 9.476131
53.615 9.467545
53.620 9.493904
53.625 9.782489
53.630 9.537642
53.635 9.450457
53.640 10.044742
53.645 10.624696
53.650 10.686769
53.655 10.715432
53.660 10.815473
53.665 11.031507
53.670 10.966249
53.675 10.423301
53.680 9.879878
53.685 10.130553
53.690 10.340192
53.695 10.467126
53.700 10.931855
53.705 11.304063
53.710 11.547139
53.715 11.554788
53.720 11.202047
53.725 11.387827
53.730 11.394729
53.735 11.229053
53.740 11.320208
53.745 11.357871
53.750 11.237036
53.755 11.161077
53.760 10.563205
53.765 10.671847
53.770 10.863628
53.775 10.611718
53.780 10.688117
53.785 10.96853
53.790 11.135586
53.795 11.523266
53.800 11.270023
53.805 10.609345
53.810 11.063416
53.815 10.833184
53.820 10.711921
53.825 10.59636
53.830 10.449807
53.835 10.88984
53.840 11.337021
53.845 11.161162
53.850 11.103201
53.855 11.306694
53.860 11.098932
53.865 10.877445
53.870 10.741855
53.875 10.392939
53.880 10.442346
53.885 10.484738
53.890 10.137863
53.895 9.983319
53.900 9.479844
53.905 9.210014
53.910 9.324639
53.915 9.540624
53.920 9.509202
53.925 9.477711
53.930 10.09615
53.935 10.257066
53.940 10.136685
53.945 9.914203
53.950 10.012772
53.955 10.059733
53.960 10.54765
53.965 10.572236
53.970 10.616877
53.975 10.496546
53.980 10.768334
53.985 10.98193
53.990 11.023236
53.995 10.272955
54.000 9.661264
54.005 9.733989
54.010 10.071768
54.015 9.878761
54.020 9.432766
54.025 9.723296
54.030 10.357319
54.035 11.019054
54.040 11.280492
54.045 10.681996
54.050 10.702049
54.055 10.900679
54.060 11.17835
54.065 10.890345
54.070 10.843052
54.075 10.586824
54.080 10.634966
54.085 10.283286
54.090 9.951451
54.095 9.89018
54.100 10.088128
54.105 10.121926
54.110 10.252836
54.115 10.653876
54.120 11.166475
54.125 11.308986
54.130 11.054094
54.135 10.866388
54.140 10.76584
54.145 11.099158
54.150 10.940286
54.155 11.155205
54.160 11.481015
54.165 11.814428
54.170 12.596609
54.175 12.709158
54.180 12.312966
54.185 12.519461
54.190 11.739389
54.195 11.264424
54.200 11.137926
54.205 10.585309
54.210 10.017914
54.215 9.815511
54.220 9.941966
54.225 10.264099
54.230 10.461821
54.235 10.747401
54.240 11.245858
54.245 11.42613
54.250 11.73175
54.255 11.533792
54.260 11.435573
54.265 11.476247
54.270 10.948545
54.275 10.657319
54.280 11.18786
54.285 10.928892
54.290 11.467302
54.295 11.5512
54.300 11.185037
54.305 11.6948
54.310 11.748457
54.315 11.732763
54.320 11.785539
54.325 11.382442
54.330 11.371184
54.335 11.315646
54.340 10.553204
54.345 10.333357
54.350 10.296522
54.355 10.564103
54.360 10.818678
54.365 10.468809
54.370 10.816301
54.375 10.939572
54.380 10.816672
54.385 10.576078
54.390 10.340328
54.395 10.240767
54.400 10.197227
54.405 10.090387
54.410 10.389839
54.415 10.485859
54.420 10.443364
54.425 9.943368
54.430 9.925824
54.435 10.305682
54.440 10.472858
54.445 10.826543
54.450 10.762857
54.455 11.000463
54.460 11.719697
54.465 11.888733
54.470 11.831534
54.475 11.234615
54.480 10.842085
54.485 10.955307
54.490 10.797215
54.495 10.860407
54.500 10.625857
54.505 10.546635
54.510 10.850268
54.515 11.248438
54.520 11.378122
54.525 11.257907
54.530 11.252982
54.535 11.773427
54.540 12.262543
54.545 12.113451
54.550 11.892094
54.555 12.032402
54.560 12.641806
54.565 12.528469
54.570 12.207719
54.575 12.431757
54.580 12.531684
54.585 12.721802
54.590 12.876883
54.595 12.399775
54.600 12.030024
54.605 11.874989
54.610 10.996245
54.615 10.44051
54.620 10.24792
54.625 10.402113
54.630 10.653156
54.635 10.659215
54.640 10.932824
54.645 11.6847
54.650 12.067893
54.655 11.719028
54.660 11.467831
54.665 11.202204
54.670 11.250058
54.675 11.370089
54.680 11.218483
54.685 11.745512
54.690 11.895105
54.695 11.64421
54.700 12.013133
54.705 11.7645
54.710 11.91029
54.715 11.761908
54.720 11.52288
54.725 11.617447
54.730 11.527493
54.735 11.206498
54.740 10.750455
54.745 10.498599
54.750 10.570458
54.755 10.489479
54.760 10.534683
54.765 10.860901
54.770 11.363992
54.775 11.76749
54.780 11.767824
54.785 11.863007
54.790 11.778356
54.795 12.221295
54.800 12.486205
54.805 12.810238
54.810 13.498002
54.815 13.313613
54.820 13.509641
54.825 13.999607
54.830 13.546962
54.835 13.286422
54.840 12.381113
54.845 11.933475
54.850 12.018776
54.855 11.571164
54.860 11.197719
54.865 11.069543
54.870 11.349235
54.875 11.740529
54.880 12.17863
54.885 12.549051
54.890 12.746224
54.895 12.701524
54.900 12.916118
54.905 13.000801
54.910 13.321003
54.915 12.971097
54.920 12.793174
54.925 12.675613
54.930 12.465114
54.935 12.156816
54.940 11.574683
54.945 11.37746
54.950 11.159753
54.955 11.141063
54.960 11.054032
54.965 11.029558
54.970 11.004457
54.975 10.972671
54.980 11.057155
54.985 11.203305
54.990 10.952129
54.995 10.916086
55.000 10.500039
55.005 10.232329
55.010 10.366858
55.015 10.043275
55.020 9.778714
55.025 10.077905
55.030 10.217408
55.035 10.760766
55.040 11.206569
55.045 11.291472
55.050 11.313232
55.055 11.931314
55.060 12.249674
55.065 12.600981
55.070 12.681847
55.075 13.044058
55.080 13.537619
55.085 13.322754
55.090 13.192203
55.095 13.290874
55.100 13.023148
55.105 12.807796
55.110 11.950374
55.115 11.795662
55.120 12.145532
55.125 11.888083
55.130 12.457375
55.135 13.351554
55.140 13.830438
55.145 14.168837
55.150 13.963164
55.155 13.395502
55.160 13.188391
55.165 12.536174
55.170 11.986157
55.175 11.603645
55.180 11.567301
55.185 11.813051
55.190 12.133249
55.195 12.099011
55.200 11.757546
55.205 12.055006
55.210 11.923918
55.215 11.91441
55.220 12.588553
55.225 12.496725
55.230 12.394609
55.235 12.99121
55.240 13.116008
55.245 13.227061
55.250 13.294718
55.255 12.334541
55.260 12.290827
55.265 12.288213
55.270 11.600595
55.275 11.26488
55.280 11.106381
55.285 11.247651
55.290 11.785389
55.295 11.604753
55.300 11.463886
55.305 11.717203
55.310 11.597196
55.315 11.51005
55.320 11.091269
55.325 11.011371
55.330 11.142436
55.335 10.286188
55.340 10.220383
55.345 10.504492
55.350 10.884091
55.355 11.037604
55.360 11.126842
55.365 11.767193
55.370 12.885355
55.375 13.113925
55.380 13.293156
55.385 13.213906
55.390 13.477339
55.395 13.66114
55.400 13.24347
55.405 13.006261
55.410 12.93719
55.415 12.838918
55.420 12.879679
55.425 13.223785
55.430 12.990717
55.435 12.847654
55.440 12.918898
55.445 12.732068
55.450 12.810129
55.455 12.554245
55.460 12.227407
55.465 12.515945
55.470 12.456478
55.475 12.635839
55.480 12.185089
55.485 11.906223
55.490 12.175282
55.495 11.63603
55.500 11.585954
55.505 11.674179
55.510 11.965296
55.515 12.424299
55.520 12.55279
55.525 12.077505
55.530 12.195338
55.535 12.545358
55.540 12.430882
55.545 12.068472
55.550 11.874587
55.555 12.119007
55.560 12.837856
55.565 12.720531
55.570 12.187059
55.575 12.206082
55.580 12.578637
55.585 12.586944
55.590 12.496744
55.595 11.927764
55.600 12.25395
55.605 12.451854
55.610 11.861078
55.615 11.404088
55.620 11.187459
55.625 11.04846
55.630 11.042674
55.635 10.602202
55.640 10.491529
55.645 11.220874
55.650 11.400485
55.655 11.199999
55.660 11.185633
55.665 11.194409
55.670 12.057368
55.675 12.71452
55.680 12.836473
55.685 13.386763
55.690 13.349898
55.695 13.428803
55.700 13.12098
55.705 12.507752
55.710 11.990987
55.715 11.942051
55.720 12.438869
55.725 12.649577
55.730 12.675415
55.735 12.375484
55.740 11.973781
55.745 11.545904
55.750 11.181452
55.755 10.601114
55.760 10.865399
55.765 11.056493
55.770 11.677434
55.775 11.977969
55.780 12.450074
55.785 12.85536
55.790 12.837703
55.795 12.744006
55.800 12.840589
55.805 12.988979
55.810 13.613296
55.815 13.87937
55.820 14.129394
55.825 14.302132
55.830 14.338351
55.835 14.710978
55.840 14.836483
55.845 14.123856
55.850 13.74276
55.855 13.009578
55.860 12.962573
55.865 13.009166
55.870 12.318077
55.875 12.366427
55.880 12.189959
55.885 12.007531
55.890 12.35235
55.895 12.364251
55.900 12.263676
55.905 12.373939
55.910 12.352214
55.915 12.725946
55.920 13.264947
55.925 13.607075
55.930 13.973373
55.935 14.303343
55.940 14.538348
55.945 14.219905
55.950 13.777062
55.955 13.13825
55.960 12.546905
55.965 12.307457
55.970 11.956534
55.975 12.221491
55.980 12.634038
55.985 13.294492
55.990 13.433353
55.995 13.591401
56.000 13.258895
56.005 13.004152
56.010 12.525312
56.015 11.926877
56.020 12.132081
56.025 12.036872
56.030 12.402859
56.035 12.902387
56.040 12.898557
56.045 13.070802
56.050 13.468818
56.055 13.397996
56.060 13.557556
56.065 13.630625
56.070 13.379699
56.075 13.763589
56.080 13.72792
56.085 13.417674
56.090 13.011364
56.095 12.667215
56.100 11.96616
56.105 11.788086
56.110 12.119293
56.115 11.974138
56.120 12.106728
56.125 12.456429
56.130 12.615864
56.135 12.829582
56.140 12.648504
56.145 12.112247
56.150 12.736251
56.155 13.110586
56.160 13.14527
56.165 12.904088
56.170 13.23581
56.175 13.192887
56.180 13.157683
56.185 12.679563
56.190 12.421604
56.195 12.965576
56.200 13.448204
56.205 13.679459
56.210 14.048218
56.215 14.394896
56.220 14.543477
56.225 14.034863
56.230 13.704984
56.235 14.174232
56.240 14.2199
56.245 14.037588
56.250 13.867326
56.255 14.223019
56.260 14.804754
56.265 14.386487
56.270 13.818812
56.275 13.96994
56.280 13.817872
56.285 13.781418
56.290 13.876892
56.295 13.226145
56.300 13.06043
56.305 12.92713
56.310 12.937366
56.315 13.005627
56.320 12.819322
56.325 12.267698
56.330 12.586622
56.335 12.668732
56.340 12.732121
56.345 12.756701
56.350 12.902672
56.355 12.642425
56.360 12.537149
56.365 12.7324
56.370 12.848675
56.375 12.697642
56.380 12.42789
56.385 12.31342
56.390 12.384147
56.395 13.113935
56.400 12.955782
56.405 12.885574
56.410 13.272055
56.415 13.770371
56.420 14.097146
56.425 13.950818
56.430 13.79679
56.435 13.800485
56.440 14.013147
56.445 13.397511
56.450 12.568191
56.455 12.274942
56.460 12.353114
56.465 12.273922
56.470 12.657514
56.475 12.576316
56.480 13.103031
56.485 13.348447
56.490 14.042301
56.495 14.347248
56.500 14.229863
56.505 14.436899
56.510 14.548359
56.515 14.235035
56.520 14.166158
56.525 13.787233
56.530 13.305429
56.535 13.256514
56.540 13.040946
56.545 13.390459
56.550 14.254029
56.555 14.107452
56.560 14.396022
56.565 14.778352
56.570 14.769209
56.575 14.810513
56.580 14.473879
56.585 13.737039
56.590 13.962216
56.595 14.27802
56.600 14.132163
56.605 14.239118
56.610 13.934218
56.615 14.441695
56.620 14.814381
56.625 14.559904
56.630 14.121919
56.635 14.067423
56.640 13.915833
56.645 14.051175
56.650 13.617445
56.655 13.547805
56.660 13.859201
56.665 13.84652
56.670 14.172566
56.675 14.668659
56.680 14.812266
56.685 15.351457
56.690 15.51743
56.695 15.27971
56.700 15.523595
56.705 15.201399
56.710 14.945265
56.715 14.875317
56.720 14.360036
56.725 14.440992
56.730 14.189865
56.735 13.991066
56.740 14.200611
56.745 14.079371
56.750 14.307692
56.755 14.232318
56.760 14.026597
56.765 14.310811
56.770 14.458853
56.775 14.035585
56.780 13.947333
56.785 13.617017
56.790 13.693071
56.795 14.451664
56.800 15.063404
56.805 15.482751
56.810 15.960051
56.815 15.742941
56.820 16.00349
56.825 15.896943
56.830 15.043045
56.835 14.959925
56.840 14.82719
56.845 14.832238
56.850 14.448174
56.855 14.327906
56.860 14.554083
56.865 14.085081
56.870 13.30974
56.875 13.451633
56.880 13.211599
56.885 13.501005
56.890 13.297315
56.895 13.196872
56.900 13.631254
56.905 14.41449
56.910 14.535786
56.915 14.598501
56.920 14.326186
56.925 14.131396
56.930 14.233571
56.935 14.236641
56.940 13.701791
56.945 13.67314
56.950 14.181362
56.955 14.624342
56.960 14.925992
56.965 15.033759
56.970 15.102665
56.975 15.31291
56.980 15.737759
56.985 15.963489
56.990 15.653752
56.995 15.942709
57.000 15.914228
57.005 15.785428
57.010 15.43529
57.015 14.944214
57.020 14.715878
57.025 15.064596
57.030 15.230238
57.035 15.362892
57.040 14.734015
57.045 14.605789
57.050 14.353428
57.055 14.419618
57.060 13.919118
57.065 13.670429
57.070 13.760197
57.075 14.175579
57.080 14.340208
57.085 14.541543
57.090 14.580425
57.095 14.127295
57.100 13.622976
57.105 13.318403
57.110 13.117878
57.115 12.548882
57.120 11.68687
57.125 11.892834
57.130 12.260693
57.135 12.733483
57.140 12.962679
57.145 13.587079
57.150 13.821835
57.155 14.047205
57.160 13.728149
57.165 14.009101
57.170 14.137114
57.175 14.348336
57.180 14.016421
57.185 13.902952
57.190 13.825358
57.195 13.969829
57.200 14.005516
57.205 14.224732
57.210 14.648944
57.215 14.949749
57.220 15.389261
57.225 15.413451
57.230 15.298833
57.235 14.923623
57.240 14.313021
57.245 13.615049
57.250 13.37109
57.255 13.419032
57.260 13.352803
57.265 13.386392
57.270 13.744869
57.275 13.614402
57.280 13.950511
57.285 14.253115
57.290 14.474957
57.295 15.046
57.300 14.877254
57.305 14.875395
57.310 14.989309
57.315 15.798746
57.320 15.086494
57.325 14.506829
57.330 14.320092
57.335 14.119121
57.340 13.999674
57.345 14.245728
57.350 13.724572
57.355 14.306451
57.360 14.782288
57.365 15.184222
57.370 15.679141
57.375 15.697362
57.380 15.171698
57.385 14.759396
57.390 14.338827
57.395 14.581243
57.400 14.062168
57.405 14.094447
57.410 13.770203
57.415 13.895882
57.420 14.49639
57.425 14.955497
57.430 13.933909
57.435 13.732608
57.440 14.029616
57.445 14.706713
57.450 15.085443
57.455 15.19221
57.460 15.307622
57.465 15.849194
57.470 15.68692
57.475 15.364238
57.480 15.082304
57.485 14.713888
57.490 14.170243
57.495 14.093019
57.500 14.560811
57.505 14.98533
57.510 15.080698
57.515 15.43414
57.520 15.311389
57.525 15.540251
57.530 16.033905
57.535 16.403063
57.540 16.547255
57.545 16.549868
57.550 16.759724
57.555 16.862316
57.560 16.914457
57.565 16.874767
57.570 16.348373
57.575 16.043182
57.580 15.587628
57.585 15.301404
57.590 15.195123
57.595 15.025842
57.600 14.349679
57.605 14.185032
57.610 14.607133
57.615 14.579046
57.620 14.804551
57.625 15.296679
57.630 15.128778
57.635 15.245783
57.640 14.961672
57.645 14.775552
57.650 14.943604
57.655 14.443036
57.660 14.538235
57.665 14.718557
57.670 14.173294
57.675 14.508591
57.680 14.748167
57.685 14.959042
57.690 14.779536
57.695 14.449393
57.700 14.350847
57.705 14.718552
57.710 14.190854
57.715 13.948829
57.720 14.346766
57.725 14.885696
57.730 15.031552
57.735 14.955647
57.740 14.653859
57.745 14.582282
57.750 14.333143
57.755 13.882077
57.760 13.09878
57.765 13.234157
57.770 13.265689
57.775 13.87509
57.780 13.762071
57.785 13.577789
57.790 13.43186
57.795 14.031586
57.800 14.063321
57.805 14.272312
57.810 14.343384
57.815 15.183418
57.820 15.206481
57.825 15.361978
57.830 15.201031
57.835 15.149724
57.840 15.2506
57.845 15.308434
57.850 15.644232
57.855 16.217854
57.860 16.10714
57.865 15.81145
57.870 15.276375
57.875 15.134494
57.880 14.7505
57.885 13.969724
57.890 13.629251
57.895 13.768094
57.900 14.309846
57.905 14.85566
57.910 14.91619
57.915 14.956526
57.920 14.914576
57.925 14.789117
57.930 14.557802
57.935 13.939672
57.940 13.862813
57.945 13.990698
57.950 14.253614
57.955 14.247453
57.960 14.537333
57.965 14.829062
57.970 15.297737
57.975 15.467585
57.980 15.29537
57.985 15.873072
57.990 16.358381
57.995 16.209154
58.000 15.983622
58.005 15.835856
58.010 15.669957
58.015 15.693178
58.020 15.217746
58.025 15.219856
58.030 15.564955
58.035 16.016626
58.040 16.233229
58.045 15.939763
58.050 15.967144
58.055 16.193192
58.060 16.407724
58.065 16.168346
58.070 16.433537
58.075 17.26219
58.080 17.586565
58.085 17.959059
58.090 18.120426
58.095 17.715021
58.100 17.869097
58.105 17.492134
58.110 17.114016
58.115 17.118233
58.120 16.421494
58.125 16.226265
58.130 16.477514
58.135 17.037813
58.140 16.889185
58.145 16.577538
58.150 16.400778
58.155 16.638939
58.160 16.064152
58.165 16.188154
58.170 16.113966
58.175 15.756315
58.180 15.849353
58.185 15.80852
58.190 15.703762
58.195 15.681945
58.200 15.229825
58.205 14.935664
58.210 14.576921
58.215 14.457109
58.220 14.44063
58.225 14.693774
58.230 15.123846
58.235 14.966225
58.240 14.777677
58.245 14.88937
58.250 15.109291
58.255 15.195119
58.260 14.920539
58.265 14.787129
58.270 14.898255
58.275 15.403422
58.280 16.148664
58.285 16.376837
58.290 16.398369
58.295 16.271706
58.300 16.379353
58.305 16.537392
58.310 16.410343
58.315 15.493332
58.320 15.15389
58.325 15.158503
58.330 14.967455
58.335 15.142797
58.340 15.143264
58.345 15.044027
58.350 15.101341
58.355 15.46722
58.360 15.60876
58.365 15.600084
58.370 15.365394
58.375 15.61261
58.380 16.011551
58.385 16.309921
58.390 15.876981
58.395 15.843235
58.400 15.754052
58.405 15.83841
58.410 15.833611
58.415 15.530393
58.420 15.202558
58.425 14.972292
58.430 14.606034
58.435 14.978182
58.440 14.712856
58.445 14.271902
58.450 14.643092
58.455 14.721609
58.460 15.063515
58.465 15.330171
58.470 15.122137
58.475 15.219748
58.480 15.399693
58.485 15.169341
58.490 15.971564
58.495 16.229038
58.500 16.378342
58.505 16.605139
58.510 16.508123
58.515 16.610979
58.520 16.595791
58.525 16.325769
58.530 16.667488
58.535 16.61799
58.540 16.61194
58.545 16.506285
58.550 16.215483
58.555 16.090858
58.560 16.180664
58.565 16.175434
58.570 16.186918
58.575 15.926347
58.580 15.933998
58.585 15.861446
58.590 15.484672
58.595 14.961666
58.600 14.543572
58.605 15.075684
58.610 15.324678
58.615 16.187069
58.620 17.357073
58.625 18.346424
58.630 19.162931
58.635 19.150785
58.640 18.673559
58.645 19.044308
58.650 18.921024
58.655 18.257032
58.660 17.332611
58.665 16.912855
58.670 17.34687
58.675 17.555901
58.680 16.708782
58.685 16.259865
58.690 16.429359
58.695 17.18718
58.700 16.920004
58.705 16.29117
58.710 16.71637
58.715 16.78129
58.720 16.460396
58.725 16.295662
58.730 15.523592
58.735 15.84045
58.740 16.311487
58.745 16.084274
58.750 15.901807
58.755 15.876701
58.760 15.936259
58.765 16.140791
58.770 16.230806
58.775 16.324018
58.780 16.287004
58.785 16.901377
58.790 16.966213
58.795 17.052048
58.800 17.213461
58.805 16.631826
58.810 16.115232
58.815 16.085918
58.820 16.050861
58.825 16.376228
58.830 16.172604
58.835 16.458927
58.840 16.880461
58.845 17.594927
58.850 17.406013
58.855 17.311796
58.860 17.025787
58.865 17.570532
58.870 17.409712
58.875 17.208679
58.880 16.709497
58.885 17.063541
58.890 17.717836
58.895 18.17856
58.900 18.030924
58.905 18.098858
58.910 18.098539
58.915 18.104475
58.920 17.553579
58.925 16.891567
58.930 16.957096
58.935 17.069445
58.940 16.53499
58.945 16.31263
58.950 16.824722
58.955 17.246315
58.960 17.33913
58.965 17.359634
58.970 17.002264
58.975 17.134367
58.980 17.808275
58.985 17.39319
58.990 17.335287
58.995 17.690189
59.000 17.591274
59.005 17.781134
59.010 18.246748
59.015 18.167444
59.020 18.473989
59.025 18.684704
59.030 18.509237
59.035 18.293806
59.040 18.158255
59.045 17.530302
59.050 17.026346
59.055 16.752506
59.060 16.582378
59.065 16.360273
59.070 16.698341
59.075 17.408918
59.080 18.367533
59.085 18.276442
59.090 18.091606
59.095 18.068815
59.100 17.959585
59.105 17.70772
59.110 17.181576
59.115 16.672916
59.120 16.812925
59.125 16.988926
59.130 16.769108
59.135 17.175688
59.140 17.053785
59.145 17.18495
59.150 16.997532
59.155 16.627705
59.160 16.722515
59.165 17.119476
59.170 16.795681
59.175 17.342186
59.180 17.457476
59.185 17.599834
59.190 17.610832
59.195 17.393881
59.200 16.857433
59.205 16.58428
59.210 16.189089
59.215 15.736788
59.220 15.733989
59.225 15.726036
59.230 16.099848
59.235 16.825994
59.240 17.25588
59.245 17.005413
59.250 17.218439
59.255 17.380049
59.260 17.808357
59.265 17.383116
59.270 16.94516
59.275 16.968605
59.280 17.590694
59.285 17.329514
59.290 16.835852
59.295 16.63969
59.300 17.032848
59.305 17.418217
59.310 17.296623
59.315 17.032038
59.320 17.067736
59.325 17.919676
59.330 17.920219
59.335 18.45089
59.340 18.083126
59.345 18.30485
59.350 18.363367
59.355 19.080774
59.360 19.489878
59.365 19.846386
59.370 19.707956
59.375 19.373844
59.380 19.218313
59.385 19.738708
59.390 19.525045
59.395 19.118109
59.400 19.027151
59.405 18.483961
59.410 18.539051
59.415 18.386738
59.420 18.155775
59.425 17.918062
59.430 17.705875
59.435 17.558653
59.440 18.208979
59.445 19.112221
59.450 18.954329
59.455 18.726948
59.460 19.234802
59.465 19.31329
59.470 19.665716
59.475 19.302107
59.480 18.690928
59.485 19.066826
59.490 19.219772
59.495 18.975712
59.500 19.29616
59.505 18.955803
59.510 19.324177
59.515 19.532
59.520 19.91604
59.525 20.034496
59.530 20.53433
59.535 20.151041
59.540 19.769861
59.545 19.216003
59.550 18.845715
59.555 18.015673
59.560 18.112921
59.565 17.933065
59.570 18.230743
59.575 18.934341
59.580 19.609426
59.585 19.931952
59.590 20.276522
59.595 19.742186
59.600 19.607952
59.605 19.703026
59.610 19.644024
59.615 19.456335
59.620 19.10331
59.625 18.860863
59.630 19.482248
59.635 19.754328
59.640 19.603855
59.645 19.598034
59.650 19.787342
59.655 20.042856
59.660 20.596298
59.665 20.447832
59.670 19.804214
59.675 19.668062
59.680 19.719355
59.685 19.73531
59.690 19.916338
59.695 19.919758
59.700 20.571608
59.705 20.810345
59.710 20.92145
59.715 20.924803
59.720 20.641466
59.725 20.661539
59.730 20.470846
59.735 19.937265
59.740 20.231371
59.745 20.227722
59.750 20.555126
59.755 21.316109
59.760 21.658178
59.765 21.706699
59.770 21.472891
59.775 21.094357
59.780 20.64883
59.785 20.351877
59.790 20.066399
59.795 20.337795
59.800 20.339748
59.805 20.919361
59.810 21.232811
59.815 21.109901
59.820 20.882599
59.825 20.845999
59.830 20.385092
59.835 20.612404
59.840 20.340399
59.845 20.472828
59.850 20.902987
59.855 21.389805
59.860 21.162588
59.865 21.480122
59.870 21.171537
59.875 21.006924
59.880 21.969576
59.885 21.847406
59.890 21.570625
59.895 21.967171
59.900 21.927588
59.905 22.364473
59.910 22.567804
59.915 21.775188
59.920 21.837233
59.925 22.124294
59.930 22.135338
59.935 22.0774
59.940 21.781691
59.945 21.133778
59.950 21.180912
59.955 21.170214
59.960 20.837025
59.965 21.016312
59.970 21.086159
59.975 21.249044
59.980 22.701113
59.985 23.36912
59.990 23.830965
59.995 24.034906
60.000 23.87376
60.005 23.740923
60.010 23.447184
60.015 22.286703
60.020 21.674583
60.025 21.735912
60.030 22.191938
60.035 21.853329
60.040 21.952984
60.045 22.413553
60.050 22.724325
60.055 22.979519
60.060 23.106499
60.065 22.683979
60.070 23.047876
60.075 23.077209
60.080 23.070635
60.085 22.979414
60.090 22.546398
60.095 22.123571
60.100 21.827631
60.105 21.513645
60.110 21.097683
60.115 20.526295
60.120 20.400801
60.125 20.525557
60.130 20.39893
60.135 20.933762
60.140 20.667116
60.145 21.073442
60.150 21.013042
60.155 21.437506
60.160 21.64856
60.165 21.897779
60.170 21.622852
60.175 22.014814
60.180 21.654604
60.185 21.828293
60.190 21.536385
60.195 21.471493
60.200 21.393032
60.205 21.07332
60.210 20.517147
60.215 20.692638
60.220 20.708111
60.225 20.797209
60.230 20.713436
60.235 20.535706
60.240 20.666674
60.245 20.654324
60.250 20.872042
60.255 21.085529
60.260 21.054602
60.265 20.618887
60.270 20.700771
60.275 20.57663
60.280 20.824503
60.285 20.764219
60.290 20.75197
60.295 20.397083
60.300 20.592825
60.305 20.751425
60.310 21.498121
60.315 21.762093
60.320 21.806446
60.325 21.675604
60.330 21.527691
60.335 21.435591
60.340 21.48303
60.345 21.354481
60.350 21.292185
60.355 20.551065
60.360 20.563866
60.365 20.978668
60.370 21.012991
60.375 20.911144
60.380 20.687923
60.385 20.793976
60.390 21.141098
60.395 21.172853
60.400 20.365652
60.405 20.426971
60.410 20.413435
60.415 19.962309
60.420 19.0991
60.425 18.935474
60.430 18.810869
60.435 19.298801
60.440 18.90197
60.445 18.990801
60.450 19.253717
60.455 19.74132
60.460 20.106638
60.465 20.552128
60.470 20.524069
60.475 20.261187
60.480 20.428759
60.485 21.076395
60.490 21.585266
60.495 21.751257
60.500 21.516907
60.505 21.55534
60.510 21.342018
60.515 20.474337
60.520 20.079775
60.525 19.339245
60.530 18.729313
60.535 18.851654
60.540 19.171803
60.545 18.857231
60.550 18.512033
60.555 18.209545
60.560 18.527617
60.565 18.899046
60.570 18.613085
60.575 19.15654
60.580 19.929998
60.585 20.389212
60.590 19.95907
60.595 19.472044
60.600 19.054688
60.605 18.858524
60.610 18.402071
60.615 18.144762
60.620 19.122786
60.625 19.412937
60.630 19.299841
60.635 18.945093
60.640 18.58839
60.645 18.465082
60.650 18.318396
60.655 17.474863
60.660 17.444935
60.665 17.773428
60.670 18.742937
60.675 19.148588
60.680 19.012701
60.685 19.248659
60.690 19.653969
60.695 20.070574
60.700 19.882126
60.705 19.290911
60.710 19.093287
60.715 19.341724
60.720 19.234331
60.725 19.028807
60.730 18.691317
60.735 18.747311
60.740 18.793198
60.745 18.809675
60.750 18.363262
60.755 18.175249
60.760 17.779081
60.765 17.798586
60.770 17.851622
60.775 18.068205
60.780 17.940855
60.785 18.18502
60.790 17.852488
60.795 17.584867
60.800 17.288347
60.805 16.802889
60.810 16.46307
60.815 16.745476
60.820 16.232006
60.825 16.675785
60.830 17.196177
60.835 17.93449
60.840 18.038538
60.845 17.53203
60.850 17.389723
60.855 18.145426
60.860 18.581305
60.865 18.550026
60.870 17.973656
60.875 18.415735
60.880 19.300327
60.885 19.586777
60.890 19.272797
60.895 18.816956
60.900 18.141897
60.905 18.021725
60.910 17.415558
60.915 16.653326
60.920 16.20479
60.925 16.04081
60.930 15.989978
60.935 16.337656
60.940 16.231344
60.945 16.492039
60.950 16.758644
60.955 16.641956
60.960 16.52915
60.965 16.789822
60.970 17.051178
60.975 17.505636
60.980 17.320591
60.985 17.516588
60.990 17.85886
60.995 18.526617
61.000 19.087017
61.005 19.291365
61.010 19.006479
61.015 19.188406
61.020 18.841391
61.025 18.904076
61.030 18.447908
61.035 18.454121
61.040 18.401323
61.045 18.43013
61.050 18.092056
61.055 17.841455
61.060 16.951763
61.065 16.216942
61.070 15.450152
61.075 15.156789
61.080 15.404833
61.085 16.260767
61.090 17.098137
61.095 17.928789
61.100 18.456223
61.105 18.466358
61.110 18.318893
61.115 18.451624
61.120 17.560966
61.125 16.645451
61.130 16.324276
61.135 16.462793
61.140 16.296436
61.145 16.064026
61.150 15.96279
61.155 16.495775
61.160 17.161659
61.165 17.7218
61.170 18.022528
61.175 18.702358
61.180 19.504797
61.185 20.262514
61.190 20.507044
61.195 20.713156
61.200 20.285597
61.205 20.595701
61.210 20.973961
61.215 20.499407
61.220 19.624483
61.225 19.308079
61.230 19.309032
61.235 19.20713
61.240 18.206219
61.245 17.820284
61.250 17.943762
61.255 18.376831
61.260 17.993467
61.265 17.624502
61.270 16.864283
61.275 16.704773
61.280 16.226433
61.285 15.406381
61.290 15.069783
61.295 15.163013
61.300 14.99211
61.305 15.414674
61.310 15.840178
61.315 16.700932
61.320 17.557871
61.325 17.23382
61.330 17.118042
61.335 17.073004
61.340 16.958187
61.345 16.836046
61.350 16.271833
61.355 16.194456
61.360 16.467693
61.365 16.628429
61.370 16.801161
61.375 16.650988
61.380 16.916452
61.385 17.276514
61.390 16.783964
61.395 16.386822
61.400 16.44178
61.405 16.284864
61.410 16.804506
61.415 16.665209
61.420 16.668291
61.425 16.817884
61.430 17.418858
61.435 17.842449
61.440 18.186298
61.445 17.747478
61.450 17.433907
61.455 17.310282
61.460 16.835979
61.465 16.550085
61.470 16.75852
61.475 17.134792
61.480 17.829901
61.485 17.50629
61.490 17.492193
61.495 18.204227
61.500 18.307369
61.505 17.98947
61.510 17.817459
61.515 17.981457
61.520 18.47389
61.525 18.391861
61.530 17.889256
61.535 17.778158
61.540 17.672361
61.545 18.097368
61.550 17.874456
61.555 17.784019
61.560 18.131104
61.565 18.510408
61.570 18.79965
61.575 18.689468
61.580 18.163767
61.585 18.378725
61.590 18.315056
61.595 17.975214
61.600 18.443027
61.605 18.122618
61.610 18.00275
61.615 18.087734
61.620 18.107691
61.625 18.310667
61.630 18.377388
61.635 17.86326
61.640 18.152334
61.645 18.087929
61.650 17.078701
61.655 16.830372
61.660 17.084728
61.665 16.856115
61.670 16.549454
61.675 16.623583
61.680 16.508091
61.685 16.911634
61.690 16.91111
61.695 16.997087
61.700 17.22028
61.705 17.141195
61.710 16.675262
61.715 17.101889
61.720 17.482737
61.725 17.257689
61.730 16.773752
61.735 16.742657
61.740 16.841799
61.745 17.158987
61.750 17.280502
61.755 17.181532
61.760 17.012506
61.765 17.128563
61.770 17.338337
61.775 17.310339
61.780 17.278799
61.785 17.94438
61.790 18.61282
61.795 19.653116
61.800 19.962414
61.805 19.817455
61.810 20.400293
61.815 20.533253
61.820 19.431488
61.825 18.980148
61.830 18.780546
61.835 18.483763
61.840 18.641779
61.845 18.224171
61.850 18.099958
61.855 18.207407
61.860 17.87579
61.865 17.751411
61.870 18.09445
61.875 18.233307
61.880 18.515722
61.885 18.951685
61.890 19.630669
61.895 20.161623
61.900 19.890627
61.905 19.950155
61.910 19.729115
61.915 19.449057
61.920 18.778437
61.925 18.768627
61.930 18.267948
61.935 18.393627
61.940 17.884912
61.945 17.781269
61.950 17.806938
61.955 17.532873
61.960 16.884993
61.965 16.306694
61.970 15.909135
61.975 16.234465
61.980 16.231974
61.985 16.493845
61.990 16.942392
61.995 16.476858
62.000 16.826132
62.005 16.810513
62.010 17.083965
62.015 17.192701
62.020 17.314718
62.025 17.479696
62.030 18.161612
62.035 19.228077
62.040 19.544491
62.045 19.240889
62.050 19.376787
62.055 19.211218
62.060 19.47139
62.065 19.298161
62.070 18.223879
62.075 17.777466
62.080 17.198587
62.085 17.003782
62.090 16.749489
62.095 16.674152
62.100 16.938335
62.105 17.015219
62.110 17.07571
62.115 17.227394
62.120 16.934687
62.125 17.127926
62.130 16.688421
62.135 16.244152
62.140 16.32601
62.145 16.807983
62.150 16.936863
62.155 16.392801
62.160 16.250381
62.165 16.518925
62.170 16.936691
62.175 17.19993
62.180 17.510818
62.185 18.010168
62.190 18.510954
62.195 18.385157
62.200 18.254658
62.205 18.52256
62.210 18.839064
62.215 18.597343
62.220 18.719162
62.225 18.728243
62.230 18.675545
62.235 18.620092
62.240 18.541946
62.245 18.673622
62.250 18.604275
62.255 18.454336
62.260 18.336372
62.265 18.07123
62.270 17.94722
62.275 17.193228
62.280 16.618315
62.285 16.558331
62.290 16.46315
62.295 16.681362
62.300 16.909796
62.305 16.947233
62.310 16.788433
62.315 16.447124
62.320 15.948466
62.325 15.891407
62.330 16.078955
62.335 15.874716
62.340 16.065718
62.345 16.894917
62.350 17.379612
62.355 17.901178
62.360 18.293083
62.365 18.418711
62.370 18.717239
62.375 18.574169
62.380 18.234118
62.385 17.65041
62.390 18.080542
62.395 18.648394
62.400 18.525156
62.405 18.077055
62.410 18.397627
62.415 18.585968
62.420 18.863934
62.425 17.916971
62.430 17.021845
62.435 17.053955
62.440 17.283035
62.445 17.3762
62.450 17.408594
62.455 17.47533
62.460 18.317986
62.465 19.10239
62.470 19.865561
62.475 19.87772
62.480 19.402168
62.485 19.195696
62.490 19.185688
62.495 18.611694
62.500 17.766701
62.505 17.042042
62.510 16.888529
62.515 17.248322
62.520 17.423948
62.525 17.711782
62.530 17.687374
62.535 17.738934
62.540 17.924677
62.545 18.008053
62.550 17.503632
62.555 17.452248
62.560 16.64012
62.565 16.477911
62.570 16.706383
62.575 16.848093
62.580 17.02709
62.585 17.267826
62.590 17.256504
62.595 17.381264
62.600 17.488535
62.605 17.181883
62.610 16.897093
62.615 16.918959
62.620 17.286207
62.625 17.691687
62.630 18.585205
62.635 18.804777
62.640 19.442476
62.645 19.515446
62.650 19.630865
62.655 19.034294
62.660 18.259058
62.665 17.483774
62.670 17.316689
62.675 16.940489
62.680 16.916536
62.685 16.777615
62.690 16.341787
62.695 16.687315
62.700 16.769335
62.705 17.050968
62.710 17.402102
62.715 17.473331
62.720 17.827204
62.725 18.967712
62.730 19.329754
62.735 19.871298
62.740 19.609652
62.745 19.65262
62.750 19.956675
62.755 19.977482
62.760 19.860424
62.765 19.54834
62.770 19.215796
62.775 19.085245
62.780 18.045069
62.785 17.423176
62.790 17.198771
62.795 17.338728
62.800 17.282278
62.805 17.363438
62.810 17.628752
62.815 18.430033
62.820 18.857601
62.825 18.812939
62.830 18.457787
62.835 18.815659
62.840 18.842144
62.845 18.566534
62.850 18.099968
62.855 18.133587
62.860 18.193604
62.865 18.217243
62.870 17.664864
62.875 17.032232
62.880 16.637182
62.885 16.848167
62.890 16.776228
62.895 16.822756
62.900 16.477459
62.905 16.978893
62.910 17.407993
62.915 17.612717
62.920 17.536303
62.925 18.190834
62.930 17.698288
62.935 17.784222
62.940 17.310171
62.945 17.30279
62.950 17.699387
62.955 17.967857
62.960 17.569798
62.965 17.711458
62.970 17.772419
62.975 18.250641
62.980 18.317678
62.985 18.480091
62.990 18.536654
62.995 18.112143
63.000 18.358725
63.005 18.069464
63.010 17.94808
63.015 18.171408
63.020 18.351999
63.025 18.150723
63.030 18.356085
63.035 18.444809
63.040 18.575798
63.045 18.575348
63.050 18.490517
63.055 17.915073
63.060 17.976263
63.065 18.209215
63.070 18.121782
63.075 18.246151
63.080 18.250814
63.085 18.134071
63.090 18.270805
63.095 18.286383
63.100 18.160053
63.105 18.013937
63.110 18.039095
63.115 18.335236
63.120 18.078085
63.125 18.085585
63.130 17.958485
63.135 17.96311
63.140 18.735531
63.145 18.708166
63.150 18.121525
63.155 17.897638
63.160 17.806305
63.165 17.757612
63.170 17.396273
63.175 16.460907
63.180 16.117031
63.185 16.548122
63.190 16.947607
63.195 16.932001
63.200 17.38154
63.205 17.712261
63.210 18.394144
63.215 18.854994
63.220 18.780542
63.225 18.918442
63.230 18.818575
63.235 18.721382
63.240 18.355711
63.245 17.973133
63.250 17.582195
63.255 17.213413
63.260 17.375673
63.265 17.219334
63.270 16.9046
63.275 17.520998
63.280 18.330713
63.285 19.172052
63.290 19.558775
63.295 19.004786
63.300 19.088806
63.305 19.165947
63.310 19.091999
63.315 19.145277
63.320 18.696722
63.325 19.306097
63.330 19.488209
63.335 19.136866
63.340 19.094122
63.345 18.748632
63.350 18.421728
63.355 18.535355
63.360 18.009586
63.365 18.262648
63.370 18.927849
63.375 19.187582
63.380 19.562809
63.385 19.041672
63.390 18.136148
63.395 18.351713
63.400 18.500196
63.405 18.176565
63.410 17.527781
63.415 17.050787
63.420 17.097437
63.425 17.426319
63.430 17.593348
63.435 17.126884
63.440 17.360571
63.445 17.741394
63.450 17.619329
63.455 18.159092
63.460 18.166096
63.465 17.829185
63.470 18.285282
63.475 18.381664
63.480 18.087534
63.485 18.070999
63.490 18.365488
63.495 18.003864
63.500 17.977154
63.505 18.031313
63.510 18.703259
63.515 19.132366
63.520 19.130924
63.525 18.7132
63.530 19.140741
63.535 19.725897
63.540 19.781885
63.545 19.24435
63.550 18.630852
63.555 18.320253
63.560 18.442822
63.565 18.584761
63.570 17.635513
63.575 16.957043
63.580 17.381258
63.585 18.50004
63.590 19.114264
63.595 19.020149
63.600 19.389069
63.605 20.20232
63.610 20.587374
63.615 20.333845
63.620 19.880245
63.625 19.338886
63.630 18.716124
63.635 18.284184
63.640 18.215479
63.645 18.282803
63.650 18.080797
63.655 18.386305
63.660 18.825352
63.665 19.481842
63.670 20.010103
63.675 19.502253
63.680 19.27029
63.685 19.37499
63.690 19.480829
63.695 19.486122
63.700 19.110186
63.705 18.857737
63.710 19.221895
63.715 19.401041
63.720 19.458136
63.725 19.031155
63.730 18.677847
63.735 18.890944
63.740 18.859819
63.745 18.929695
63.750 18.878332
63.755 18.430456
63.760 18.308084
63.765 18.661339
63.770 19.761143
63.775 19.942286
63.780 20.534323
63.785 20.550911
63.790 20.642519
63.795 20.688692
63.800 19.636778
63.805 17.954597
63.810 17.29826
63.815 16.674765
63.820 16.634323
63.825 16.481314
63.830 16.885645
63.835 17.814987
63.840 18.537218
63.845 19.265923
63.850 19.258213
63.855 19.483952
63.860 19.634209
63.865 19.790474
63.870 19.549532
63.875 19.467216
63.880 18.932146
63.885 19.267963
63.890 19.14463
63.895 18.857813
63.900 18.797659
63.905 18.801044
63.910 18.385593
63.915 18.143162
63.920 18.070604
63.925 17.934889
63.930 18.831795
63.935 19.157385
63.940 19.210558
63.945 19.992619
63.950 20.119558
63.955 19.787146
63.960 20.124332
63.965 19.665609
63.970 19.563263
63.975 19.603951
63.980 19.153904
63.985 18.343901
63.990 17.963791
63.995 17.620918
64.000 17.968975
64.005 18.299437
64.010 18.918446
64.015 19.518576
64.020 20.329504
64.025 21.091419
64.030 21.695211
64.035 21.639227
64.040 20.89316
64.045 20.016438
64.050 19.88238
64.055 19.836338
64.060 19.381092
64.065 18.824724
64.070 18.763729
64.075 19.312225
64.080 19.595209
64.085 19.149672
64.090 19.305124
64.095 19.166548
64.100 18.938654
64.105 18.452637
64.110 18.077589
64.115 17.400084
64.120 17.118727
64.125 17.015505
64.130 17.612259
64.135 18.03886
64.140 18.026485
64.145 17.90176
64.150 18.228155
64.155 18.80139
64.160 19.036482
64.165 18.653032
64.170 18.536829
64.175 18.45159
64.180 18.371975
64.185 19.209316
64.190 19.038431
64.195 18.657696
64.200 19.253555
64.205 19.422127
64.210 19.642139
64.215 20.211765
64.220 19.650162
64.225 19.917036
64.230 20.024607
64.235 19.44681
64.240 19.422913
64.245 19.586836
64.250 18.90933
64.255 18.93544
64.260 18.276625
64.265 18.344963
64.270 17.838909
64.275 17.616713
64.280 17.45896
64.285 17.737825
64.290 18.100622
64.295 17.918722
64.300 18.113012
64.305 18.679932
64.310 18.593208
64.315 18.626043
64.320 18.131413
64.325 18.348841
64.330 18.863373
64.335 18.359982
64.340 18.492043
64.345 19.279388
64.350 19.733728
64.355 20.209566
64.360 20.485731
64.365 20.893822
64.370 21.718498
64.375 21.269896
64.380 20.714336
64.385 20.913221
64.390 20.488176
64.395 20.079243
64.400 19.84627
64.405 19.279728
64.410 18.972212
64.415 18.666252
64.420 18.724421
64.425 18.882395
64.430 19.16724
64.435 18.9102
64.440 19.529034
64.445 20.335733
64.450 20.234228
64.455 20.199484
64.460 20.436964
64.465 20.242397
64.470 19.918585
64.475 19.33371
64.480 19.5093
64.485 19.682793
64.490 19.59866
64.495 19.577288
64.500 19.883715
64.505 20.413891
64.510 20.128069
64.515 19.509802
64.520 19.326365
64.525 19.025724
64.530 18.759228
64.535 18.092354
64.540 18.127024
64.545 18.615208
64.550 19.491798
64.555 20.295652
64.560 20.276567
64.565 20.430391
64.570 21.146252
64.575 21.332796
64.580 21.475674
64.585 21.285814
64.590 20.591476
64.595 20.491938
64.600 20.522478
64.605 20.497908
64.610 20.346689
64.615 20.902241
64.620 21.153154
64.625 21.420765
64.630 22.144495
64.635 22.316484
64.640 21.887835
64.645 21.562727
64.650 20.821424
64.655 20.876677
64.660 21.043346
64.665 20.939486
64.670 21.232388
64.675 21.433117
64.680 21.695967
64.685 22.006691
64.690 21.370516
64.695 20.922054
64.700 20.166382
64.705 19.519604
64.710 19.659273
64.715 20.008163
64.720 19.871572
64.725 20.564035
64.730 20.808704
64.735 21.344784
64.740 21.912151
64.745 21.531759
64.750 21.34597
64.755 21.631283
64.760 21.302176
64.765 21.737028
64.770 21.716932
64.775 22.21386
64.780 23.111229
64.785 23.407688
64.790 23.040384
64.795 22.777359
64.800 22.79056
64.805 22.769735
64.810 22.54019
64.815 22.235832
64.820 22.191267
64.825 22.858685
64.830 23.258652
64.835 23.405907
64.840 23.563789
64.845 23.444904
64.850 22.847996
64.855 22.766111
64.860 22.342081
64.865 22.211985
64.870 21.924376
64.875 21.717728
64.880 21.765711
64.885 22.396585
64.890 22.608345
64.895 23.146709
64.900 23.515308
64.905 23.464901
64.910 23.407253
64.915 23.6381
64.920 23.490387
64.925 23.680233
64.930 23.461115
64.935 22.913372
64.940 23.471836
64.945 24.336201
64.950 24.469805
64.955 24.122355
64.960 24.314201
64.965 24.436855
64.970 24.877884
64.975 24.570805
64.980 24.477688
64.985 25.130203
64.990 26.00712
64.995 25.992096
65.000 26.496521
65.005 26.800322
65.010 27.036123
65.015 26.916079
65.020 27.286314
65.025 27.043337
65.030 26.564774
65.035 26.244324
65.040 26.230024
65.045 26.038551
65.050 26.016569
65.055 25.148537
65.060 25.100483
65.065 25.548254
65.070 26.464005
65.075 25.747593
65.080 25.924576
65.085 25.53681
65.090 25.979864
65.095 25.594566
65.100 25.31176
65.105 24.622808
65.110 25.418907
65.115 25.65052
65.120 24.959694
65.125 25.003971
65.130 25.451849
65.135 25.607609
65.140 25.449738
65.145 24.988762
65.150 24.90439
65.155 25.692303
65.160 25.33914
65.165 25.377014
65.170 25.910154
65.175 25.579294
65.180 25.466755
65.185 26.000177
65.190 25.835613
65.195 25.566984
65.200 25.36939
65.205 25.336298
65.210 25.953705
65.215 25.700872
65.220 25.130165
65.225 25.163094
65.230 25.475176
65.235 25.826878
65.240 24.826706
65.245 24.687092
65.250 24.650063
65.255 24.442316
65.260 24.816883
65.265 24.688612
65.270 24.524452
65.275 24.991093
65.280 24.878397
65.285 24.919603
65.290 25.609407
65.295 26.481375
65.300 27.154293
65.305 26.801888
65.310 27.055796
65.315 27.508087
65.320 27.924576
65.325 27.230433
65.330 26.666203
65.335 26.531448
65.340 26.762398
65.345 26.261839
65.350 26.212032
65.355 26.551535
65.360 26.777248
65.365 26.448025
65.370 26.346558
65.375 26.266123
65.380 26.501274
65.385 26.344202
65.390 25.86207
65.395 25.885717
65.400 26.073484
65.405 25.688745
65.410 25.805017
65.415 25.603132
65.420 25.473852
65.425 25.560234
65.430 25.935835
65.435 25.772129
65.440 25.824743
65.445 25.731647
65.450 25.815626
65.455 26.156733
65.460 25.631367
65.465 25.066017
65.470 24.241724
65.475 24.191698
65.480 24.559072
65.485 24.233351
65.490 23.799131
65.495 24.388716
65.500 25.059919
65.505 26.211605
65.510 26.729631
65.515 27.254196
65.520 27.855839
65.525 27.894232
65.530 27.450134
65.535 27.225868
65.540 27.065937
65.545 27.338703
65.550 26.959181
65.555 27.117607
65.560 27.946735
65.565 28.357445
65.570 28.459373
65.575 28.906813
65.580 29.677691
65.585 29.825315
65.590 28.850628
65.595 28.964518
65.600 29.168745
65.605 29.50902
65.610 29.68812
65.615 29.128098
65.620 29.445017
65.625 30.060236
65.630 30.310358
65.635 30.60191
65.640 30.279839
65.645 30.37896
65.650 30.167086
65.655 30.24427
65.660 31.278669
65.665 31.32806
65.670 31.721928
65.675 32.234238
65.680 32.121063
65.685 32.142223
65.690 32.738132
65.695 32.485088
65.700 32.685169
65.705 32.559151
65.710 32.299248
65.715 32.757473
65.720 33.591843
65.725 32.937199
65.730 33.11137
65.735 33.191219
65.740 34.244518
65.745 35.064434
65.750 35.162544
65.755 34.930965
65.760 35.342468
65.765 35.233047
65.770 35.664192
65.775 34.805668
65.780 33.837685
65.785 32.858776
65.790 32.6147
65.795 32.720394
65.800 32.902683
65.805 33.366234
65.810 33.510502
65.815 34.847466
65.820 35.883633
65.825 36.564907
65.830 36.815414
65.835 36.106731
65.840 35.256729
65.845 35.269508
65.850 35.105347
65.855 34.953388
65.860 35.154099
65.865 35.422626
65.870 35.665787
65.875 35.998451
65.880 35.912346
65.885 35.904644
65.890 36.936985
65.895 36.863773
65.900 36.982872
65.905 37.405743
65.910 37.350937
65.915 37.530533
65.920 37.633068
65.925 36.801277
65.930 36.855778
65.935 37.299297
65.940 36.850792
65.945 36.453579
65.950 35.898697
65.955 36.035992
65.960 36.626801
65.965 37.268387
65.970 36.692005
65.975 37.455605
65.980 38.209011
65.985 38.664986
65.990 38.782921
65.995 38.787357
66.000 38.602013
66.005 39.163597
66.010 38.514748
66.015 38.633492
66.020 38.920277
66.025 38.327362
66.030 37.922195
66.035 38.008572
66.040 37.952209
66.045 37.665688
66.050 37.547173
66.055 37.733456
66.060 38.19313
66.065 38.52227
66.070 37.65609
66.075 37.772129
66.080 37.592091
66.085 38.168713
66.090 38.051937
66.095 38.02618
66.100 38.232559
66.105 39.186039
66.110 38.885052
66.115 39.491596
66.120 38.413967
66.125 37.885941
66.130 37.464146
66.135 36.743332
66.140 36.677372
66.145 37.707226
66.150 38.326199
66.155 38.72961
66.160 38.912544
66.165 39.278831
66.170 39.384136
66.175 38.919521
66.180 38.564495
66.185 38.259842
66.190 37.804443
66.195 37.591965
66.200 37.405041
66.205 36.809494
66.210 36.547024
66.215 35.97654
66.220 35.276588
66.225 35.628052
66.230 35.529179
66.235 34.860195
66.240 34.541645
66.245 34.664623
66.250 34.323906
66.255 33.768532
66.260 33.748043
66.265 34.615273
66.270 35.92527
66.275 36.042446
66.280 35.357956
66.285 35.508202
66.290 35.697788
66.295 35.387455
66.300 33.821552
66.305 33.322029
66.310 34.001442
66.315 33.975758
66.320 33.255474
66.325 33.719906
66.330 32.991501
66.335 32.956699
66.340 31.898258
66.345 31.406931
66.350 32.020687
66.355 32.422466
66.360 31.984762
66.365 32.619576
66.370 33.065735
66.375 33.414436
66.380 32.780487
66.385 32.014008
66.390 31.945835
66.395 31.765848
66.400 31.814871
66.405 31.761543
66.410 31.525591
66.415 31.448792
66.420 31.423672
66.425 31.533369
66.430 31.430805
66.435 30.501192
66.440 30.244907
66.445 30.187346
66.450 30.316292
66.455 29.301834
66.460 29.022657
66.465 28.815331
66.470 28.758053
66.475 28.507338
66.480 28.675062
66.485 28.988371
66.490 30.133978
66.495 30.25634
66.500 30.450411
66.505 30.524445
66.510 30.474276
66.515 29.744606
66.520 29.131084
66.525 28.531824
66.530 28.75506
66.535 28.89743
66.540 28.727203
66.545 28.095261
66.550 28.208292
66.555 28.285807
66.560 28.056442
66.565 27.432175
66.570 26.927359
66.575 27.394657
66.580 27.873699
66.585 27.571108
66.590 26.703146
66.595 26.149305
66.600 26.081549
66.605 25.551445
66.610 25.254112
66.615 25.368122
66.620 25.226509
66.625 25.663023
66.630 26.093773
66.635 26.259592
66.640 26.401524
66.645 25.982538
66.650 25.89905
66.655 26.78532
66.660 27.02352
66.665 27.353222
66.670 26.993244
66.675 26.768646
66.680 26.831982
66.685 25.73484
66.690 24.916965
66.695 24.040949
66.700 23.403864
66.705 23.237131
66.710 23.595173
66.715 23.984686
66.720 25.1682
66.725 25.655991
66.730 26.480034
66.735 26.385756
66.740 26.136469
66.745 25.910282
66.750 25.580822
66.755 24.900469
66.760 24.348598
66.765 24.151752
66.770 25.219072
66.775 26.126764
66.780 26.009668
66.785 25.634699
66.790 25.815268
66.795 25.595716
66.800 25.213575
66.805 24.612417
66.810 23.878054
66.815 23.556587
66.820 23.346294
66.825 23.392347
66.830 23.791307
66.835 23.066193
66.840 22.518312
66.845 22.777954
66.850 23.512571
66.855 24.024982
66.860 23.215796
66.865 22.430674
66.870 22.90016
66.875 22.84985
66.880 22.506229
66.885 21.733782
66.890 20.856438
66.895 21.10844
66.900 21.408726
66.905 21.66457
66.910 21.610712
66.915 21.623882
66.920 21.994282
66.925 22.533068
66.930 22.391621
66.935 22.216299
66.940 21.971947
66.945 22.647383
66.950 23.020164
66.955 22.935984
66.960 23.051506
66.965 23.84853
66.970 24.451056
66.975 24.457609
66.980 24.265945
66.985 23.47823
66.990 23.044533
66.995 22.246609
67.000 21.972191
67.005 21.851517
67.010 21.189119
67.015 21.021378
67.020 21.858059
67.025 21.862335
67.030 22.053864
67.035 21.603016
67.040 21.806227
67.045 22.371086
67.050 22.544258
67.055 22.277521
67.060 22.195648
67.065 22.450813
67.070 21.990263
67.075 22.337334
67.080 22.395481
67.085 22.242279
67.090 22.084108
67.095 22.359327
67.100 21.924034
67.105 22.00223
67.110 21.258797
67.115 21.404758
67.120 21.49585
67.125 21.447699
67.130 21.820307
67.135 22.495308
67.140 22.826685
67.145 23.895567
67.150 23.704794
67.155 23.693737
67.160 23.981014
67.165 23.56646
67.170 23.197832
67.175 22.723995
67.180 21.789742
67.185 21.506348
67.190 21.942047
67.195 21.932356
67.200 21.870827
67.205 22.144503
67.210 22.610878
67.215 23.028975
67.220 22.873619
67.225 22.606195
67.230 22.323591
67.235 21.963921
67.240 21.604435
67.245 21.199389
67.250 20.609642
67.255 20.30591
67.260 19.844631
67.265 20.296799
67.270 20.130604
67.275 20.050117
67.280 20.763239
67.285 21.000013
67.290 20.788155
67.295 20.852894
67.300 20.773737
67.305 21.184107
67.310 21.2693
67.315 20.486286
67.320 20.249794
67.325 21.045704
67.330 20.915937
67.335 20.736443
67.340 20.579483
67.345 20.588184
67.350 20.882198
67.355 21.162487
67.360 21.09634
67.365 21.057323
67.370 21.347136
67.375 21.527306
67.380 21.214949
67.385 20.790163
67.390 21.093063
67.395 21.141581
67.400 21.096151
67.405 20.910896
67.410 20.956884
67.415 21.726427
67.420 22.200296
67.425 21.769461
67.430 21.611465
67.435 21.589287
67.440 21.469389
67.445 21.479496
67.450 21.707327
67.455 21.602379
67.460 21.842781
67.465 21.985806
67.470 21.938492
67.475 22.280796
67.480 21.806751
67.485 21.093359
67.490 20.298824
67.495 20.194071
67.500 20.368853
67.505 20.937002
67.510 21.169195
67.515 21.41198
67.520 21.46707
67.525 22.387438
67.530 22.441694
67.535 22.10042
67.540 21.425491
67.545 21.125572
67.550 21.273962
67.555 22.026608
67.560 22.290928
67.565 22.44422
67.570 22.697775
67.575 22.151949
67.580 22.316275
67.585 22.388327
67.590 21.392883
67.595 20.987238
67.600 20.869526
67.605 21.021641
67.610 21.880602
67.615 21.952581
67.620 21.609726
67.625 22.004965
67.630 22.156301
67.635 21.580036
67.640 21.68313
67.645 21.506441
67.650 21.17112
67.655 21.355907
67.660 21.651823
67.665 21.636772
67.670 22.518152
67.675 22.459972
67.680 22.404055
67.685 22.066681
67.690 21.836273
67.695 21.224337
67.700 20.977505
67.705 20.492346
67.710 20.082815
67.715 19.96591
67.720 20.157713
67.725 20.036648
67.730 20.401878
67.735 20.560379
67.740 20.389006
67.745 20.242228
67.750 20.274509
67.755 20.953409
67.760 21.407484
67.765 21.537674
67.770 21.323618
67.775 21.736275
67.780 22.459454
67.785 21.757933
67.790 20.991352
67.795 20.766289
67.800 21.446901
67.805 21.353239
67.810 20.880899
67.815 21.327698
67.820 22.296019
67.825 22.616695
67.830 22.525726
67.835 21.844318
67.840 22.0763
67.845 22.409887
67.850 22.253778
67.855 21.992311
67.860 21.916229
67.865 21.273605
67.870 21.40369
67.875 21.145094
67.880 21.086813
67.885 20.686935
67.890 20.315842
67.895 20.305061
67.900 20.511988
67.905 20.106045
67.910 20.058966
67.915 20.190672
67.920 20.116383
67.925 20.137266
67.930 20.605135
67.935 20.844194
67.940 21.170233
67.945 21.10792
67.950 20.999624
67.955 21.29467
67.960 21.754522
67.965 21.817183
67.970 22.317654
67.975 22.267712
67.980 22.642246
67.985 23.064507
67.990 22.899885
67.995 22.894299
68.000 22.531084
68.005 22.663126
68.010 22.690176
68.015 22.439312
68.020 22.113356
68.025 21.613457
68.030 21.690779
68.035 21.645784
68.040 21.284462
68.045 21.275734
68.050 21.271626
68.055 20.893209
68.060 20.983931
68.065 20.971516
68.070 20.446861
68.075 20.609131
68.080 20.422871
68.085 20.758015
68.090 21.571489
68.095 21.570984
68.100 21.300041
68.105 20.426535
68.110 20.33811
68.115 20.796848
68.120 20.408415
68.125 19.518675
68.130 19.727123
68.135 20.370949
68.140 21.091066
68.145 20.767591
68.150 20.76478
68.155 20.778671
68.160 21.051231
68.165 20.907122
68.170 20.5506
68.175 20.436636
68.180 20.38357
68.185 20.033892
68.190 20.199562
68.195 19.986298
68.200 19.819351
68.205 20.190605
68.210 20.747177
68.215 20.865889
68.220 20.441813
68.225 20.708923
68.230 20.543932
68.235 20.261677
68.240 20.263029
68.245 19.77602
68.250 19.818739
68.255 20.371212
68.260 20.615074
68.265 21.150723
68.270 21.249363
68.275 21.375309
68.280 21.485966
68.285 22.170584
68.290 22.041195
68.295 21.819824
68.300 21.231932
68.305 21.439121
68.310 21.429447
68.315 21.558952
68.320 20.988625
68.325 20.97147
68.330 20.746218
68.335 21.111261
68.340 21.032019
68.345 20.899633
68.350 21.033634
68.355 21.073605
68.360 21.050117
68.365 21.222536
68.370 20.948795
68.375 20.827549
68.380 20.487637
68.385 20.448566
68.390 20.307957
68.395 20.515984
68.400 20.623722
68.405 20.801535
68.410 21.041016
68.415 20.932661
68.420 20.64624
68.425 20.672373
68.430 20.867813
68.435 21.209696
68.440 21.366535
68.445 21.827951
68.450 22.247118
68.455 22.568766
68.460 22.454838
68.465 22.204248
68.470 21.729671
68.475 21.243208
68.480 20.535378
68.485 20.336802
68.490 20.593359
68.495 20.638453
68.500 20.578953
68.505 21.070889
68.510 20.893972
68.515 21.022444
68.520 20.694954
68.525 20.283844
68.530 19.863331
68.535 18.817461
68.540 18.616701
68.545 18.971781
68.550 19.271393
68.555 19.357058
68.560 19.095165
68.565 19.593145
68.570 20.438324
68.575 19.882818
68.580 19.48781
68.585 19.194319
68.590 19.298679
68.595 19.523996
68.600 19.427788
68.605 19.189587
68.610 19.546654
68.615 20.304674
68.620 20.677017
68.625 21.166056
68.630 21.458769
68.635 21.489279
68.640 22.024246
68.645 22.100739
68.650 21.942522
68.655 21.309858
68.660 20.487066
68.665 20.555733
68.670 20.791105
68.675 20.879925
68.680 20.185631
68.685 20.25386
68.690 21.076771
68.695 21.631029
68.700 21.252796
68.705 21.121252
68.710 20.877594
68.715 21.499483
68.720 21.84292
68.725 21.903494
68.730 22.322708
68.735 23.33416
68.740 24.189127
68.745 25.01403
68.750 25.016626
68.755 24.68099
68.760 24.360655
68.765 24.175863
68.770 23.845964
68.775 22.982023
68.780 22.273506
68.785 22.429676
68.790 22.551725
68.795 22.262796
68.800 21.802147
68.805 21.839085
68.810 22.310331
68.815 22.26824
68.820 21.822956
68.825 21.840508
68.830 21.770929
68.835 22.300142
68.840 22.103394
68.845 21.617191
68.850 21.749474
68.855 21.807234
68.860 21.798796
68.865 21.637781
68.870 21.298161
68.875 21.759634
68.880 22.157019
68.885 22.300442
68.890 22.49456
68.895 22.959105
68.900 23.875935
68.905 24.077181
68.910 23.842781
68.915 23.927515
68.920 23.837486
68.925 23.538095
68.930 23.76255
68.935 23.430473
68.940 23.940916
68.945 23.907122
68.950 23.90584
68.955 23.342426
68.960 23.39308
68.965 23.244162
68.970 23.246403
68.975 23.200943
68.980 23.442415
68.985 23.645752
68.990 24.361637
68.995 24.876476
69.000 25.424448
69.005 25.563761
69.010 25.269224
69.015 25.242762
69.020 25.030491
69.025 25.289644
69.030 25.497234
69.035 24.717789
69.040 24.937389
69.045 24.925495
69.050 24.372738
69.055 24.658997
69.060 24.284891
69.065 23.653643
69.070 23.819489
69.075 23.439169
69.080 23.842344
69.085 24.642065
69.090 24.631245
69.095 24.81414
69.100 25.438784
69.105 25.09618
69.110 25.670229
69.115 25.404066
69.120 25.660629
69.125 25.423292
69.130 25.598928
69.135 25.333275
69.140 25.770723
69.145 25.010807
69.150 25.589674
69.155 25.526237
69.160 25.509237
69.165 25.728359
69.170 25.463377
69.175 25.751158
69.180 26.17757
69.185 25.986259
69.190 25.893129
69.195 25.912148
69.200 26.046356
69.205 26.308615
69.210 26.54603
69.215 26.614237
69.220 27.19862
69.225 27.353165
69.230 27.544827
69.235 26.78574
69.240 26.81179
69.245 26.80793
69.250 26.912296
69.255 26.823734
69.260 26.93882
69.265 27.59313
69.270 28.764791
69.275 29.061916
69.280 29.263269
69.285 28.917797
69.290 28.79262
69.295 28.696047
69.300 27.41811
69.305 26.299541
69.310 26.372425
69.315 26.957291
69.320 27.194801
69.325 27.315802
69.330 28.064438
69.335 29.245588
69.340 29.5961
69.345 29.333994
69.350 28.657131
69.355 28.118893
69.360 28.416384
69.365 28.758289
69.370 29.187918
69.375 30.062456
69.380 30.921442
69.385 31.397186
69.390 31.857548
69.395 31.36668
69.400 31.345562
69.405 30.215073
69.410 29.766998
69.415 28.924723
69.420 29.427299
69.425 30.2526
69.430 30.574165
69.435 30.975901
69.440 31.690214
69.445 32.403885
69.450 32.659439
69.455 31.589275
69.460 30.628151
69.465 30.706966
69.470 31.056372
69.475 30.834934
69.480 30.379297
69.485 30.139549
69.490 30.478642
69.495 30.31435
69.500 29.596413
69.505 29.17753
69.510 29.185152
69.515 29.342407
69.520 29.386414
69.525 29.418692
69.530 29.528259
69.535 29.925623
69.540 29.458088
69.545 29.62842
69.550 29.862328
69.555 30.572161
69.560 30.993206
69.565 30.566385
69.570 30.653755
69.575 31.167158
69.580 30.722942
69.585 30.16754
69.590 30.118414
69.595 30.321783
69.600 31.02429
69.605 30.792009
69.610 30.791071
69.615 31.304424
69.620 31.23218
69.625 31.006363
69.630 31.362677
69.635 31.347677
69.640 31.156021
69.645 30.907204
69.650 30.282516
69.655 29.89143
69.660 29.302544
69.665 28.615688
69.670 28.860737
69.675 29.335855
69.680 29.434822
69.685 30.111689
69.690 30.556419
69.695 30.995605
69.700 31.220333
69.705 30.204748
69.710 29.559002
69.715 29.330339
69.720 29.282001
69.725 28.764904
69.730 28.427399
69.735 28.284245
69.740 28.209461
69.745 28.342894
69.750 28.162258
69.755 27.882038
69.760 28.560715
69.765 28.492683
69.770 28.467016
69.775 28.027534
69.780 27.789459
69.785 28.341642
69.790 28.581152
69.795 28.07395
69.800 28.036108
69.805 28.315725
69.810 28.649094
69.815 29.043848
69.820 28.393486
69.825 27.706165
69.830 27.856367
69.835 27.469208
69.840 27.137608
69.845 27.054016
69.850 26.360317
69.855 26.677139
69.860 26.391087
69.865 25.603722
69.870 25.004684
69.875 24.893385
69.880 25.035086
69.885 25.183598
69.890 25.060778
69.895 25.168919
69.900 25.693533
69.905 25.66367
69.910 25.090862
69.915 24.922865
69.920 24.988016
69.925 24.153564
69.930 24.38168
69.935 24.70504
69.940 25.354021
69.945 25.109049
69.950 25.035641
69.955 24.746193
69.960 24.667908
69.965 23.78005
69.970 23.125841
69.975 22.435982
69.980 22.01446
69.985 21.292645
69.990 21.220087
69.995 20.938303
70.000 20.971098
70.005 21.119576
70.010 21.292498
70.015 21.544847
70.020 21.440525
70.025 22.080564
70.030 22.620724
70.035 22.936918
70.040 23.017696
70.045 22.759523
70.050 22.883322
70.055 22.968304
70.060 22.069996
70.065 21.46125
70.070 21.651773
70.075 21.883997
70.080 22.325678
70.085 22.494473
70.090 22.268837
70.095 22.209263
70.100 22.096336
70.105 21.737244
70.110 21.749758
70.115 21.745979
70.120 21.724068
70.125 22.099972
70.130 22.436605
70.135 22.838743
70.140 22.69216
70.145 22.787642
70.150 22.172234
70.155 21.371738
70.160 20.994196
70.165 20.639946
70.170 20.163874
70.175 20.061369
70.180 20.017174
70.185 20.575632
70.190 21.245258
70.195 21.30121
70.200 21.503189
70.205 20.58919
70.210 20.339008
70.215 20.00511
70.220 20.363878
70.225 20.744625
70.230 20.590117
70.235 20.399839
70.240 20.679976
70.245 20.004156
70.250 19.645851
70.255 19.418684
70.260 19.095594
70.265 19.332605
70.270 19.394403
70.275 20.010424
70.280 20.514467
70.285 20.729355
70.290 20.415724
70.295 20.285435
70.300 20.160675
70.305 20.369432
70.310 20.707907
70.315 21.166145
70.320 20.843737
70.325 20.022184
70.330 19.91017
70.335 20.723066
70.340 20.41404
70.345 20.0823
70.350 19.609045
70.355 19.790878
70.360 20.496256
70.365 20.456198
70.370 19.343985
70.375 18.863705
70.380 18.792866
70.385 19.642673
70.390 19.562721
70.395 19.713003
70.400 19.891981
70.405 20.120611
70.410 20.288616
70.415 20.095392
70.420 19.106377
70.425 19.113783
70.430 19.242847
70.435 19.143976
70.440 19.59078
70.445 19.865761
70.450 19.680056
70.455 20.029924
70.460 20.288002
70.465 19.711468
70.470 19.712961
70.475 19.542307
70.480 20.218407
70.485 20.655375
70.490 20.702921
70.495 20.854078
70.500 21.422832
70.505 21.653652
70.510 21.934093
70.515 21.739746
70.520 21.605606
70.525 21.281628
70.530 21.51766
70.535 21.149603
70.540 21.186407
70.545 19.990475
70.550 19.162832
70.555 19.575926
70.560 19.345846
70.565 19.133533
70.570 19.232157
70.575 19.063709
70.580 20.116961
70.585 20.144735
70.590 20.246061
70.595 20.091301
70.600 19.947523
70.605 19.692513
70.610 19.738331
70.615 19.504147
70.620 20.05821
70.625 19.751799
70.630 19.928905
70.635 20.199196
70.640 20.364843
70.645 20.674074
70.650 20.451332
70.655 19.834141
70.660 19.810532
70.665 19.683964
70.670 18.963787
70.675 19.029316
70.680 19.309458
70.685 19.087582
70.690 19.62406
70.695 19.798775
70.700 20.124706
70.705 20.708725
70.710 20.53067
70.715 20.980438
70.720 21.581051
70.725 21.059576
70.730 20.860535
70.735 20.896717
70.740 20.805462
70.745 20.872526
70.750 19.69799
70.755 19.801714
70.760 20.140799
70.765 20.605677
70.770 20.3745
70.775 20.354956
70.780 20.031303
70.785 19.08432
70.790 19.094963
70.795 18.958073
70.800 19.141039
70.805 19.489872
70.810 19.832703
70.815 19.926579
70.820 21.451687
70.825 21.465311
70.830 22.023615
70.835 21.500263
70.840 21.223864
70.845 20.572369
70.850 20.250841
70.855 19.265381
70.860 18.89926
70.865 18.072304
70.870 17.538067
70.875 17.844042
70.880 18.124584
70.885 18.514082
70.890 19.431814
70.895 19.570677
70.900 20.242525
70.905 20.454351
70.910 19.886383
70.915 20.135632
70.920 20.190947
70.925 20.309896
70.930 20.263412
70.935 20.149931
70.940 20.336592
70.945 20.687809
70.950 20.746054
70.955 20.595905
70.960 20.179399
70.965 19.769457
70.970 20.253344
70.975 20.704515
70.980 20.513565
70.985 20.382402
70.990 19.776848
70.995 19.34663
71.000 20.112925
71.005 19.962015
71.010 19.479115
71.015 19.547178
71.020 19.807909
71.025 20.215071
71.030 20.134073
71.035 19.472281
71.040 18.881544
71.045 18.768318
71.050 18.40284
71.055 18.452965
71.060 18.621626
71.065 18.376009
71.070 18.624945
71.075 18.881979
71.080 19.063473
71.085 19.228764
71.090 18.969757
71.095 18.715858
71.100 18.620064
71.105 18.845844
71.110 18.699774
71.115 18.776339
71.120 18.590567
71.125 18.624352
71.130 18.853621
71.135 19.03417
71.140 18.501095
71.145 18.315319
71.150 18.182402
71.155 18.522776
71.160 18.227465
71.165 18.2327
71.170 18.810369
71.175 19.825352
71.180 20.198603
71.185 20.423836
71.190 20.274122
71.195 20.467335
71.200 20.577175
71.205 20.309923
71.210 19.927347
71.215 19.563498
71.220 19.324421
71.225 18.933216
71.230 18.758478
71.235 17.943083
71.240 16.961594
71.245 16.852097
71.250 16.864412
71.255 16.870716
71.260 17.138508
71.265 17.805084
71.270 18.288589
71.275 18.249994
71.280 18.323126
71.285 18.551331
71.290 18.871229
71.295 18.856703
71.300 18.713655
71.305 18.714058
71.310 18.467693
71.315 18.477715
71.320 18.123657
71.325 17.442007
71.330 16.81262
71.335 16.253159
71.340 17.235025
71.345 18.036627
71.350 18.481646
71.355 19.017902
71.360 19.833435
71.365 20.794147
71.370 20.77766
71.375 20.246632
71.380 19.764984
71.385 20.140974
71.390 19.943199
71.395 19.1675
71.400 19.463219
71.405 19.865652
71.410 19.788082
71.415 20.089273
71.420 19.76623
71.425 19.915918
71.430 20.548893
71.435 20.075413
71.440 19.461514
71.445 19.102831
71.450 18.594877
71.455 18.457668
71.460 18.311188
71.465 18.251717
71.470 18.088236
71.475 18.410212
71.480 18.633223
71.485 18.684332
71.490 18.504847
71.495 19.054983
71.500 19.097017
71.505 19.324318
71.510 18.991272
71.515 19.524628
71.520 19.646343
71.525 19.813095
71.530 18.829844
71.535 18.729683
71.540 18.915615
71.545 19.231979
71.550 18.981712
71.555 18.869328
71.560 19.126465
71.565 19.133747
71.570 19.714666
71.575 20.145006
71.580 19.589766
71.585 19.295326
71.590 19.076029
71.595 18.847334
71.600 19.014931
71.605 18.408178
71.610 18.104214
71.615 18.473347
71.620 18.424536
71.625 18.98806
71.630 18.772291
71.635 18.64653
71.640 18.71801
71.645 18.696205
71.650 18.638693
71.655 18.867571
71.660 18.653137
71.665 19.204481
71.670 19.461365
71.675 18.991568
71.680 18.686892
71.685 19.111301
71.690 18.736759
71.695 18.213039
71.700 17.861834
71.705 18.088211
71.710 17.835838
71.715 17.781719
71.720 17.987921
71.725 18.523296
71.730 18.731937
71.735 18.882967
71.740 19.129253
71.745 19.610926
71.750 19.215534
71.755 18.866604
71.760 19.077085
71.765 18.974886
71.770 19.232876
71.775 19.172651
71.780 19.902805
71.785 20.304537
71.790 20.115595
71.795 20.183712
71.800 20.271381
71.805 19.967709
71.810 19.878944
71.815 19.250431
71.820 18.935745
71.825 18.409952
71.830 17.955235
71.835 17.909794
71.840 17.574083
71.845 17.562389
71.850 18.376207
71.855 18.253357
71.860 19.052849
71.865 19.848839
71.870 20.129166
71.875 20.071924
71.880 19.34889
71.885 19.459524
71.890 20.24367
71.895 19.955019
71.900 19.370232
71.905 19.788435
71.910 20.493015
71.915 20.959145
71.920 20.2894
71.925 19.560066
71.930 19.422514
71.935 19.347269
71.940 18.706984
71.945 18.043983
71.950 17.558523
71.955 17.212626
71.960 17.13599
71.965 17.635546
71.970 17.882517
71.975 18.087816
71.980 18.337069
71.985 18.320864
71.990 18.912973
71.995 18.517359
72.000 18.159544
72.005 17.68955
72.010 18.309237
72.015 18.723511
72.020 18.824886
72.025 19.208721
72.030 19.304966
72.035 19.19409
72.040 19.650858
72.045 18.588812
72.050 18.859222
72.055 18.938034
72.060 18.580393
72.065 18.726542
72.070 18.648138
72.075 18.432997
72.080 18.62369
72.085 18.258915
72.090 18.101866
72.095 17.566788
72.100 17.279774
72.105 17.150335
72.110 17.260967
72.115 17.83004
72.120 17.874855
72.125 17.830936
72.130 18.66011
72.135 19.070238
72.140 19.181921
72.145 18.795916
72.150 18.257549
72.155 18.288145
72.160 18.787031
72.165 18.664225
72.170 18.57506
72.175 18.563116
72.180 18.570852
72.185 18.255957
72.190 18.451342
72.195 18.836142
72.200 18.701349
72.205 19.177923
72.210 19.198408
72.215 19.725937
72.220 20.300417
72.225 20.338671
72.230 20.0217
72.235 19.980078
72.240 20.075762
72.245 20.53845
72.250 20.386141
72.255 19.761454
72.260 19.385216
72.265 19.168839
72.270 18.855175
72.275 17.919594
72.280 17.653315
72.285 17.869085
72.290 18.0432
72.295 18.396864
72.300 18.544603
72.305 18.369707
72.310 18.369085
72.315 18.275822
72.320 17.604904
72.325 17.856642
72.330 18.619747
72.335 18.823872
72.340 19.329546
72.345 19.270975
72.350 18.984455
72.355 19.51878
72.360 19.204283
72.365 18.764496
72.370 18.986248
72.375 19.711529
72.380 20.099329
72.385 19.681406
72.390 19.291279
72.395 19.454123
72.400 18.96496
72.405 18.611347
72.410 18.191031
72.415 18.042656
72.420 18.150766
72.425 17.258801
72.430 17.005219
72.435 17.140152
72.440 16.918924
72.445 17.001419
72.450 17.514517
72.455 18.295364
72.460 18.832109
72.465 18.5394
72.470 18.244389
72.475 17.783958
72.480 17.993227
72.485 17.61252
72.490 17.626562
72.495 17.759172
72.500 18.037117
72.505 18.007851
72.510 18.240093
72.515 18.476179
72.520 18.746561
72.525 18.904377
72.530 18.843864
72.535 19.381962
72.540 19.436119
72.545 19.393408
72.550 18.87575
72.555 18.647102
72.560 17.907143
72.565 17.173847
72.570 16.683769
72.575 16.632095
72.580 16.645498
72.585 17.21348
72.590 17.371517
72.595 17.444201
72.600 17.853605
72.605 18.352976
72.610 18.029686
72.615 17.507446
72.620 16.934483
72.625 17.401802
72.630 17.944542
72.635 17.5737
72.640 17.296158
72.645 17.476622
72.650 17.736294
72.655 17.5275
72.660 16.986389
72.665 17.100876
72.670 17.427752
72.675 17.594776
72.680 17.881971
72.685 17.96998
72.690 18.211033
72.695 17.917412
72.700 17.443811
72.705 17.033672
72.710 17.231516
72.715 16.88221
72.720 16.645193
72.725 16.913618
72.730 17.525469
72.735 17.659975
72.740 17.686552
72.745 17.438206
72.750 17.143276
72.755 17.234373
72.760 16.963976
72.765 16.607279
72.770 16.310968
72.775 16.10137
72.780 16.245928
72.785 16.750296
72.790 16.292345
72.795 15.690732
72.800 16.061707
72.805 16.652969
72.810 16.951502
72.815 17.119291
72.820 17.632574
72.825 18.710207
72.830 19.325504
72.835 19.2687
72.840 18.796377
72.845 18.324158
72.850 17.397032
72.855 17.084663
72.860 16.990726
72.865 16.681393
72.870 16.864655
72.875 17.21398
72.880 17.630104
72.885 18.010641
72.890 18.723694
72.895 19.340399
72.900 19.354704
72.905 19.362862
72.910 19.450205
72.915 19.296997
72.920 19.320683
72.925 18.390608
72.930 17.962955
72.935 18.005302
72.940 17.575958
72.945 18.029305
72.950 17.763273
72.955 17.313385
72.960 17.986294
72.965 17.858088
72.970 18.199171
72.975 17.929239
72.980 17.831949
72.985 17.857672
72.990 17.877584
72.995 17.699856
73.000 17.611834
