!@!!GADDS PLOTSO FILE: Chi integration type
!@!!Title/SampleName: map-7a
!@!!Comment: ?
!@!!User: Bruker Instrument Administrator
!@!!Site: University of Illinois Chicago
!@!!Frame: map-7a_01_000.gfrm
!@!!Wavelengths    1.54184   1.54056   1.54439
!@!!Frame angles: 2Theta: 63.000 Omega: 50.000 Phi: 0.000 Chi: 90.000
!@!!Integration range: 2Theta: 53.000 to 73.000  Gamma: -105.000 to -75.000
!@!!Integration method: bin normalized
!@!N
!@!SS
!@!M
!@!L 0.0 0.0 0.0 0.0
!@!XDegrees
!@!YCounts
53.000 8.671655
53.005 8.355041
53.010 8.319378
53.015 8.38907
53.020 8.517864
53.025 8.825568
53.030 8.716042
53.035 8.701013
53.040 9.239331
53.045 9.657025
53.050 9.830207
53.055 9.89991
53.060 9.786416
53.065 9.734262
53.070 9.54229
53.075 9.443653
53.080 9.643908
53.085 9.91512
53.090 10.015654
53.095 9.984293
53.100 9.759391
53.105 9.787072
53.110 9.798163
53.115 9.339412
53.120 8.689384
53.125 8.574075
53.130 8.854412
53.135 9.146276
53.140 8.609392
53.145 8.347639
53.150 8.502556
53.155 8.933853
53.160 9.319171
53.165 9.279194
53.170 9.203046
53.175 9.625349
53.180 9.595159
53.185 9.35656
53.190 9.121127
53.195 8.642565
53.200 8.787466
53.205 8.848499
53.210 9.115387
53.215 9.108736
53.220 9.223521
53.225 9.414576
53.230 9.522191
53.235 9.89401
53.240 9.797796
53.245 9.513206
53.250 10.24662
53.255 9.870872
53.260 9.588244
53.265 9.360082
53.270 9.003289
53.275 8.902659
53.280 8.827635
53.285 8.598915
53.290 8.917254
53.295 9.117986
53.300 8.797227
53.305 8.874727
53.310 9.188076
53.315 9.002949
53.320 9.082667
53.325 9.202092
53.330 9.193834
53.335 9.358741
53.340 9.538402
53.345 9.675127
53.350 9.466672
53.355 9.229158
53.360 9.585138
53.365 9.602057
53.370 9.68906
53.375 9.621743
53.380 9.627586
53.385 10.057804
53.390 9.604403
53.395 9.581574
53.400 9.621695
53.405 9.540236
53.410 9.491304
53.415 9.178537
53.420 9.239502
53.425 9.614768
53.430 9.222259
53.435 9.247339
53.440 9.114814
53.445 9.187723
53.450 9.43147
53.455 9.862232
53.460 9.971719
53.465 10.534645
53.470 10.916695
53.475 11.012705
53.480 10.837413
53.485 11.037744
53.490 10.76672
53.495 10.865091
53.500 10.447947
53.505 10.368112
53.510 10.362268
53.515 10.467372
53.520 9.754869
53.525 9.448343
53.530 9.417958
53.535 9.381713
53.540 9.211094
53.545 9.111392
53.550 9.43214
53.555 9.680133
53.560 9.71505
53.565 9.45631
53.570 9.333251
53.575 9.591066
53.580 9.533484
53.585 8.79764
53.590 8.749459
53.595 9.321959
53.600 9.389895
53.605 9.581032
53.610 9.697024
53.615 9.935019
53.620 10.255548
53.625 10.048003
53.630 9.926865
53.635 10.156934
53.640 9.988332
53.645 9.54772
53.650 9.797931
53.655 10.018632
53.660 9.926727
53.665 10.192942
53.670 10.130721
53.675 10.223568
53.680 10.178561
53.685 10.018208
53.690 10.280365
53.695 10.759474
53.700 10.550084
53.705 11.502562
53.710 11.8844
53.715 11.897393
53.720 11.328941
53.725 11.00481
53.730 10.269311
53.735 9.639329
53.740 8.927707
53.745 9.206433
53.750 9.611874
53.755 9.875513
53.760 9.939708
53.765 10.065574
53.770 10.273849
53.775 9.652968
53.780 9.178001
53.785 9.144509
53.790 9.574388
53.795 9.429847
53.800 9.904106
53.805 9.963624
53.810 10.508323
53.815 10.536712
53.820 10.457542
53.825 10.218897
53.830 10.011062
53.835 9.589089
53.840 9.97721
53.845 9.722548
53.850 9.633595
53.855 9.816942
53.860 9.712473
53.865 9.451496
53.870 9.134762
53.875 8.897741
53.880 8.855736
53.885 8.680872
53.890 8.506021
53.895 8.455128
53.900 8.716403
53.905 8.767952
53.910 8.845187
53.915 9.383644
53.920 9.580162
53.925 9.599994
53.930 9.682909
53.935 9.741578
53.940 9.959826
53.945 10.02461
53.950 9.722134
53.955 9.719877
53.960 9.648176
53.965 9.842583
53.970 9.974235
53.975 9.85303
53.980 9.732314
53.985 9.936858
53.990 9.890779
53.995 10.438365
54.000 10.757083
54.005 10.743952
54.010 11.070988
54.015 11.493964
54.020 11.766142
54.025 11.549049
54.030 11.846072
54.035 11.792324
54.040 11.148436
54.045 10.464486
54.050 10.183709
54.055 10.225846
54.060 9.943294
54.065 9.358627
54.070 9.549172
54.075 9.756177
54.080 10.056444
54.085 9.904743
54.090 9.729712
54.095 10.120237
54.100 9.847616
54.105 9.947178
54.110 10.649242
54.115 10.742978
54.120 10.737431
54.125 10.811026
54.130 10.787701
54.135 10.804843
54.140 10.235004
54.145 9.66784
54.150 9.557275
54.155 9.587522
54.160 9.750901
54.165 10.078266
54.170 10.395094
54.175 10.633092
54.180 10.936722
54.185 11.068992
54.190 11.454529
54.195 10.986271
54.200 10.447816
54.205 10.423632
54.210 10.694258
54.215 11.075068
54.220 10.965584
54.225 10.804146
54.230 11.072213
54.235 11.283717
54.240 11.215425
54.245 10.94501
54.250 10.267443
54.255 9.919355
54.260 9.82001
54.265 9.812158
54.270 9.778318
54.275 9.446755
54.280 9.826573
54.285 10.383667
54.290 10.601547
54.295 10.317472
54.300 10.427129
54.305 10.755445
54.310 10.903996
54.315 10.600466
54.320 10.457469
54.325 10.574472
54.330 10.60056
54.335 10.300071
54.340 10.611926
54.345 10.742525
54.350 10.472397
54.355 10.236292
54.360 10.28112
54.365 10.669981
54.370 11.297051
54.375 11.317952
54.380 11.555161
54.385 11.620945
54.390 11.824789
54.395 11.926192
54.400 12.05019
54.405 11.439728
54.410 11.200798
54.415 11.087972
54.420 10.874343
54.425 11.13967
54.430 11.05761
54.435 10.726985
54.440 10.796456
54.445 10.843562
54.450 11.16061
54.455 11.003045
54.460 10.359185
54.465 10.17897
54.470 9.448934
54.475 9.185749
54.480 9.212315
54.485 9.039063
54.490 8.917731
54.495 8.699516
54.500 8.919487
54.505 9.865644
54.510 9.586178
54.515 9.629257
54.520 9.696883
54.525 10.307058
54.530 10.295397
54.535 10.052208
54.540 9.721888
54.545 9.762177
54.550 9.612317
54.555 9.732456
54.560 9.363087
54.565 9.573398
54.570 10.162136
54.575 10.841839
54.580 10.936719
54.585 11.019171
54.590 11.177562
54.595 11.719767
54.600 11.551631
54.605 11.188004
54.610 10.532731
54.615 10.392241
54.620 10.695262
54.625 10.461861
54.630 10.096277
54.635 10.405455
54.640 10.837238
54.645 10.855686
54.650 10.806032
54.655 10.293921
54.660 10.452803
54.665 10.474601
54.670 9.943765
54.675 10.060913
54.680 9.97455
54.685 10.398703
54.690 10.389112
54.695 10.611512
54.700 11.203402
54.705 11.580867
54.710 11.297255
54.715 11.032919
54.720 10.872596
54.725 11.264786
54.730 11.125779
54.735 10.415733
54.740 9.788675
54.745 9.728469
54.750 9.959876
54.755 9.528468
54.760 9.321356
54.765 9.351972
54.770 9.70405
54.775 10.263576
54.780 10.408109
54.785 11.094943
54.790 11.345447
54.795 11.262916
54.800 11.447948
54.805 11.355145
54.810 11.207608
54.815 11.24267
54.820 10.555609
54.825 10.09022
54.830 9.890143
54.835 9.824338
54.840 9.770435
54.845 9.706483
54.850 9.717879
54.855 9.979952
54.860 10.840729
54.865 10.479185
54.870 10.264474
54.875 10.515731
54.880 11.164416
54.885 11.222593
54.890 10.857657
54.895 10.704988
54.900 11.174171
54.905 11.339481
54.910 11.297071
54.915 10.999676
54.920 11.618414
54.925 12.110925
54.930 12.508459
54.935 12.534898
54.940 12.593709
54.945 12.299744
54.950 11.971304
54.955 11.415895
54.960 11.638259
54.965 11.498369
54.970 11.180939
54.975 11.927231
54.980 12.068413
54.985 12.20242
54.990 12.057165
54.995 11.754535
55.000 12.233241
55.005 12.794344
55.010 12.448603
55.015 12.210184
55.020 11.83926
55.025 11.375526
55.030 11.091012
55.035 10.414608
55.040 9.553504
55.045 9.598509
55.050 9.844219
55.055 9.788571
55.060 10.226389
55.065 9.873274
55.070 10.131154
55.075 10.619922
55.080 10.927157
55.085 11.076123
55.090 11.57225
55.095 11.38032
55.100 11.572988
55.105 11.596338
55.110 11.257615
55.115 10.978012
55.120 11.161854
55.125 11.012424
55.130 11.36363
55.135 11.645451
55.140 11.142108
55.145 11.281271
55.150 11.415568
55.155 11.096164
55.160 10.843931
55.165 10.809106
55.170 11.127731
55.175 11.742915
55.180 11.754401
55.185 11.617006
55.190 11.511989
55.195 11.554193
55.200 11.121724
55.205 10.906569
55.210 10.534527
55.215 10.73799
55.220 10.752286
55.225 11.086408
55.230 10.917789
55.235 10.850364
55.240 10.836792
55.245 10.981517
55.250 11.073058
55.255 11.450583
55.260 11.811424
55.265 12.295924
55.270 12.763566
55.275 13.013337
55.280 12.87131
55.285 12.583592
55.290 12.380343
55.295 12.145808
55.300 11.672815
55.305 11.436301
55.310 11.033451
55.315 10.96654
55.320 11.001611
55.325 11.136793
55.330 11.22513
55.335 11.630476
55.340 11.968643
55.345 11.995481
55.350 12.365806
55.355 12.623904
55.360 12.837079
55.365 13.73574
55.370 13.702548
55.375 13.569711
55.380 13.635303
55.385 13.423601
55.390 13.430166
55.395 13.015797
55.400 12.123286
55.405 11.922562
55.410 11.870006
55.415 11.731964
55.420 11.527547
55.425 10.685686
55.430 10.279245
55.435 10.21371
55.440 10.407701
55.445 10.849528
55.450 10.885636
55.455 11.25611
55.460 11.946967
55.465 12.047959
55.470 12.481214
55.475 12.59102
55.480 12.236178
55.485 11.959488
55.490 11.870665
55.495 11.652222
55.500 11.426558
55.505 11.471709
55.510 11.086334
55.515 11.119535
55.520 11.520662
55.525 11.605027
55.530 11.868609
55.535 11.952314
55.540 11.622386
55.545 11.758239
55.550 11.918494
55.555 11.366703
55.560 10.83311
55.565 10.70424
55.570 10.800534
55.575 11.068316
55.580 11.16536
55.585 11.253295
55.590 11.525694
55.595 11.968933
55.600 12.027061
55.605 11.677413
55.610 11.50798
55.615 11.181921
55.620 11.00534
55.625 10.929896
55.630 11.233675
55.635 11.701382
55.640 12.550112
55.645 12.547327
55.650 12.830877
55.655 13.128791
55.660 13.421928
55.665 12.488407
55.670 11.978996
55.675 11.705454
55.680 11.849786
55.685 11.973275
55.690 12.036196
55.695 12.181287
55.700 13.043968
55.705 13.465835
55.710 13.595068
55.715 13.583722
55.720 13.520375
55.725 13.869971
55.730 13.43234
55.735 12.868797
55.740 12.476595
55.745 12.269715
55.750 12.237771
55.755 12.048756
55.760 11.790542
55.765 12.187165
55.770 13.095501
55.775 13.515141
55.780 13.668335
55.785 13.6659
55.790 13.78461
55.795 13.337281
55.800 13.614783
55.805 13.051883
55.810 12.648746
55.815 12.726295
55.820 12.931312
55.825 13.374887
55.830 13.915765
55.835 14.22604
55.840 14.566118
55.845 14.691495
55.850 14.54785
55.855 14.508485
55.860 14.403717
55.865 13.869373
55.870 13.355007
55.875 12.793523
55.880 12.440298
55.885 12.748777
55.890 12.6658
55.895 12.467535
55.900 12.824266
55.905 12.786925
55.910 13.249425
55.915 13.145957
55.920 12.84297
55.925 12.417624
55.930 12.082198
55.935 11.853291
55.940 12.016873
55.945 12.467997
55.950 12.562019
55.955 12.560673
55.960 12.466834
55.965 12.826008
55.970 13.005096
55.975 12.252971
55.980 11.472453
55.985 11.634334
55.990 11.55775
55.995 11.552021
56.000 11.089758
56.005 10.869417
56.010 10.989324
56.015 11.031108
56.020 10.571761
56.025 10.581729
56.030 10.846457
56.035 11.132915
56.040 11.667204
56.045 12.19878
56.050 12.59308
56.055 12.835093
56.060 12.80577
56.065 12.775626
56.070 12.658492
56.075 12.198237
56.080 12.124307
56.085 11.718356
56.090 11.607794
56.095 11.363715
56.100 11.182015
56.105 11.060789
56.110 10.911289
56.115 11.262509
56.120 11.502979
56.125 12.13236
56.130 13.094731
56.135 13.260366
56.140 13.376148
56.145 13.128102
56.150 12.705701
56.155 13.023624
56.160 12.450179
56.165 12.036936
56.170 12.688366
56.175 12.828358
56.180 13.034076
56.185 13.164002
56.190 13.113166
56.195 13.19241
56.200 13.193421
56.205 12.646241
56.210 12.593346
56.215 12.604413
56.220 12.577929
56.225 12.938888
56.230 12.836338
56.235 12.702651
56.240 13.096411
56.245 13.224462
56.250 14.020993
56.255 13.874559
56.260 13.58943
56.265 13.844855
56.270 13.649467
56.275 13.229752
56.280 12.990262
56.285 12.198909
56.290 12.160644
56.295 12.204596
56.300 12.59592
56.305 12.83197
56.310 13.082065
56.315 12.889069
56.320 13.419109
56.325 13.788653
56.330 13.403137
56.335 13.326303
56.340 13.432085
56.345 13.309279
56.350 13.200747
56.355 12.693752
56.360 12.054605
56.365 12.408065
56.370 12.494993
56.375 12.460656
56.380 12.856508
56.385 12.860926
56.390 13.107071
56.395 13.2789
56.400 13.084829
56.405 12.314071
56.410 12.327821
56.415 12.045594
56.420 11.891109
56.425 12.361248
56.430 13.191935
56.435 13.647071
56.440 13.955055
56.445 13.465298
56.450 13.688293
56.455 14.084169
56.460 13.901505
56.465 13.25342
56.470 12.547489
56.475 12.575637
56.480 12.927494
56.485 12.905195
56.490 13.157132
56.495 13.010105
56.500 12.923482
56.505 13.431316
56.510 13.375979
56.515 13.053
56.520 12.824864
56.525 12.444042
56.530 12.241667
56.535 12.310234
56.540 12.276979
56.545 12.85897
56.550 13.212127
56.555 13.724257
56.560 14.092203
56.565 14.470689
56.570 14.248156
56.575 13.809765
56.580 13.824578
56.585 13.984661
56.590 13.631004
56.595 14.124023
56.600 14.943785
56.605 15.252264
56.610 15.044551
56.615 14.639279
56.620 14.209411
56.625 13.962348
56.630 12.827032
56.635 12.310705
56.640 12.383052
56.645 12.868883
56.650 12.993408
56.655 13.074532
56.660 13.227695
56.665 13.71424
56.670 13.723671
56.675 13.873778
56.680 13.476329
56.685 13.548159
56.690 13.63684
56.695 13.30302
56.700 13.048788
56.705 12.746636
56.710 12.00637
56.715 12.195794
56.720 12.30327
56.725 12.001813
56.730 11.994018
56.735 12.210904
56.740 12.718851
56.745 13.259481
56.750 13.217619
56.755 13.17252
56.760 13.703077
56.765 14.154537
56.770 14.437211
56.775 14.330681
56.780 14.328194
56.785 14.760812
56.790 14.51735
56.795 14.636921
56.800 14.338564
56.805 13.463787
56.810 13.392061
56.815 13.17378
56.820 12.959402
56.825 13.315855
56.830 12.97236
56.835 12.975211
56.840 13.152928
56.845 13.156936
56.850 12.90522
56.855 12.41964
56.860 12.338198
56.865 12.590067
56.870 12.908299
56.875 13.00862
56.880 13.248736
56.885 13.839481
56.890 14.470176
56.895 14.399414
56.900 13.764876
56.905 13.74624
56.910 14.223559
56.915 14.377179
56.920 14.070767
56.925 13.970776
56.930 13.747289
56.935 14.092348
56.940 14.210536
56.945 13.996272
56.950 14.137487
56.955 14.296515
56.960 14.238709
56.965 14.569336
56.970 14.584496
56.975 14.506545
56.980 14.33956
56.985 14.186489
56.990 13.880699
56.995 13.489862
57.000 13.341312
57.005 12.915432
57.010 12.721864
57.015 12.881463
57.020 13.270234
57.025 13.896691
57.030 14.339494
57.035 14.827172
57.040 15.068305
57.045 15.17725
57.050 15.301958
57.055 14.736062
57.060 14.688344
57.065 14.54753
57.070 14.458547
57.075 15.193485
57.080 15.569008
57.085 15.514177
57.090 15.490617
57.095 14.891746
57.100 14.924743
57.105 15.087831
57.110 14.840071
57.115 14.304749
57.120 13.836118
57.125 14.072458
57.130 14.312696
57.135 14.48241
57.140 14.102891
57.145 13.83099
57.150 13.778356
57.155 14.092752
57.160 14.084254
57.165 13.740849
57.170 13.598574
57.175 13.33322
57.180 12.973927
57.185 13.36539
57.190 13.25171
57.195 13.294833
57.200 13.236197
57.205 13.304596
57.210 13.559824
57.215 13.221901
57.220 12.982649
57.225 13.261347
57.230 13.480392
57.235 13.433077
57.240 12.88754
57.245 12.781173
57.250 13.324692
57.255 13.136812
57.260 13.399766
57.265 13.797742
57.270 14.691338
57.275 15.471987
57.280 15.75107
57.285 15.533506
57.290 15.958639
57.295 15.888321
57.300 15.903094
57.305 16.000141
57.310 15.744904
57.315 16.253908
57.320 16.592396
57.325 16.292242
57.330 15.586622
57.335 15.155122
57.340 14.582296
57.345 14.658686
57.350 14.886147
57.355 15.056372
57.360 14.805244
57.365 14.989996
57.370 15.000392
57.375 15.15345
57.380 15.174645
57.385 14.810119
57.390 14.276942
57.395 14.315984
57.400 14.353207
57.405 13.995483
57.410 14.192787
57.415 14.013617
57.420 13.862867
57.425 13.933218
57.430 14.182668
57.435 14.186221
57.440 14.017332
57.445 14.100424
57.450 14.009792
57.455 14.317437
57.460 14.525998
57.465 14.450064
57.470 14.59611
57.475 15.052651
57.480 15.048888
57.485 15.195977
57.490 14.952573
57.495 15.245373
57.500 15.799308
57.505 16.127302
57.510 16.113644
57.515 16.085497
57.520 16.226757
57.525 16.132975
57.530 15.675278
57.535 15.425261
57.540 14.907742
57.545 14.386858
57.550 13.926362
57.555 13.999466
57.560 14.213924
57.565 13.884549
57.570 13.99713
57.575 14.171324
57.580 14.634993
57.585 14.961093
57.590 14.386335
57.595 14.487071
57.600 14.277832
57.605 13.433471
57.610 13.611667
57.615 13.491753
57.620 13.505548
57.625 13.973688
57.630 14.19571
57.635 15.014452
57.640 15.450422
57.645 15.526587
57.650 15.092767
57.655 15.079475
57.660 14.229622
57.665 13.776317
57.670 13.592674
57.675 14.277482
57.680 14.420364
57.685 14.487644
57.690 14.309291
57.695 14.921286
57.700 14.814828
57.705 14.407335
57.710 13.791014
57.715 13.78636
57.720 14.392979
57.725 15.00599
57.730 14.392685
57.735 14.290816
57.740 14.610661
57.745 14.773714
57.750 14.615658
57.755 14.553424
57.760 14.031936
57.765 14.386194
57.770 14.769692
57.775 14.819949
57.780 14.596873
57.785 14.551056
57.790 14.307408
57.795 14.713896
57.800 14.532427
57.805 14.479801
57.810 14.193273
57.815 14.135139
57.820 14.246364
57.825 14.329347
57.830 13.989878
57.835 13.332005
57.840 12.497499
57.845 12.140937
57.850 11.988454
57.855 11.605336
57.860 11.730131
57.865 12.246293
57.870 13.163152
57.875 13.591167
57.880 13.760266
57.885 13.80267
57.890 13.89965
57.895 13.961557
57.900 14.271832
57.905 13.857504
57.910 13.623946
57.915 13.721009
57.920 14.425819
57.925 14.911803
57.930 14.795258
57.935 14.320207
57.940 14.752893
57.945 14.998655
57.950 15.293485
57.955 14.594178
57.960 13.980309
57.965 13.548381
57.970 13.656211
57.975 13.58634
57.980 13.590221
57.985 13.215955
57.990 13.753031
57.995 13.995174
58.000 14.101535
58.005 14.009424
58.010 14.071823
58.015 14.344778
58.020 14.10182
58.025 13.922239
58.030 13.774462
58.035 13.998265
58.040 14.15668
58.045 14.371547
58.050 14.176101
58.055 14.64844
58.060 14.622985
58.065 14.888616
58.070 14.819973
58.075 14.564488
58.080 14.59229
58.085 15.270653
58.090 15.410755
58.095 15.204571
58.100 14.798555
58.105 14.872709
58.110 15.081003
58.115 14.858904
58.120 14.453279
58.125 14.366798
58.130 14.58742
58.135 14.902938
58.140 14.84593
58.145 14.614866
58.150 14.3342
58.155 14.07375
58.160 14.100883
58.165 13.831019
58.170 13.73368
58.175 13.706231
58.180 13.705667
58.185 13.928923
58.190 13.650165
58.195 13.427514
58.200 13.914066
58.205 14.179846
58.210 14.333493
58.215 14.446231
58.220 14.505336
58.225 14.36622
58.230 14.479589
58.235 14.151253
58.240 14.093236
58.245 13.664748
58.250 13.366169
58.255 13.276892
58.260 13.950539
58.265 13.994802
58.270 13.567437
58.275 13.190327
58.280 13.400721
58.285 13.786733
58.290 13.983983
58.295 13.78707
58.300 13.81637
58.305 14.298818
58.310 14.540484
58.315 14.855365
58.320 14.912248
58.325 14.739453
58.330 14.931067
58.335 15.608162
58.340 15.737002
58.345 16.073011
58.350 16.153198
58.355 16.282131
58.360 16.054115
58.365 16.293976
58.370 15.905862
58.375 15.707062
58.380 15.515165
58.385 14.920841
58.390 14.968251
58.395 15.183531
58.400 14.990205
58.405 14.539896
58.410 14.300174
58.415 14.154245
58.420 14.359082
58.425 13.965924
58.430 14.205099
58.435 14.536823
58.440 15.16775
58.445 15.761704
58.450 15.835352
58.455 16.43223
58.460 16.221313
58.465 16.051678
58.470 15.918223
58.475 15.806344
58.480 15.79044
58.485 15.857917
58.490 15.823957
58.495 16.109838
58.500 15.815903
58.505 15.842794
58.510 15.979473
58.515 16.381109
58.520 16.863195
58.525 16.811907
58.530 17.111774
58.535 16.844112
58.540 15.983387
58.545 15.45946
58.550 14.719323
58.555 14.208786
58.560 13.909182
58.565 13.383888
58.570 13.571945
58.575 13.846932
58.580 13.779544
58.585 13.941221
58.590 14.217458
58.595 14.450155
58.600 15.0247
58.605 15.409185
58.610 15.765252
58.615 16.084507
58.620 16.280107
58.625 16.255341
58.630 16.043781
58.635 16.094934
58.640 15.870917
58.645 15.922982
58.650 15.786312
58.655 14.903141
58.660 15.359595
58.665 15.674641
58.670 15.762532
58.675 15.93305
58.680 15.417415
58.685 15.821694
58.690 16.291491
58.695 15.873093
58.700 16.20223
58.705 15.616527
58.710 15.444919
58.715 15.608747
58.720 15.295634
58.725 15.081305
58.730 14.811671
58.735 14.870599
58.740 15.365565
58.745 15.406434
58.750 14.978096
58.755 14.896137
58.760 15.275902
58.765 15.043325
58.770 14.602275
58.775 14.495569
58.780 14.84906
58.785 15.314633
58.790 15.47882
58.795 15.349923
58.800 15.761111
58.805 15.972178
58.810 16.501699
58.815 16.345346
58.820 16.205755
58.825 16.56757
58.830 16.303726
58.835 15.871386
58.840 15.52408
58.845 14.933074
58.850 14.759717
58.855 14.8562
58.860 14.219118
58.865 14.17542
58.870 14.363535
58.875 15.047727
58.880 15.335744
58.885 15.605955
58.890 15.321717
58.895 15.348385
58.900 15.649682
58.905 14.954701
58.910 14.458222
58.915 14.324619
58.920 14.28817
58.925 14.68212
58.930 14.738214
58.935 15.287911
58.940 15.599924
58.945 15.30844
58.950 15.52626
58.955 15.72359
58.960 15.805238
58.965 15.844727
58.970 15.761583
58.975 16.222879
58.980 16.950762
58.985 16.966528
58.990 17.314583
58.995 17.285234
59.000 17.209019
59.005 17.287184
59.010 17.828228
59.015 17.87175
59.020 17.94434
59.025 17.989883
59.030 18.515518
59.035 18.201654
59.040 17.892014
59.045 17.891619
59.050 17.3353
59.055 16.562902
59.060 15.683352
59.065 15.204127
59.070 15.328888
59.075 14.965672
59.080 14.672441
59.085 14.889648
59.090 15.602106
59.095 15.910804
59.100 15.970341
59.105 15.840929
59.110 15.814088
59.115 15.630815
59.120 15.444287
59.125 15.130776
59.130 14.990331
59.135 14.999812
59.140 15.554282
59.145 16.175072
59.150 16.14905
59.155 16.277744
59.160 16.56472
59.165 16.545689
59.170 16.483706
59.175 16.527599
59.180 16.23818
59.185 16.10623
59.190 16.036654
59.195 16.016405
59.200 16.516113
59.205 16.633417
59.210 16.333921
59.215 16.664881
59.220 16.68243
59.225 16.758596
59.230 16.840229
59.235 16.485525
59.240 16.466278
59.245 16.54775
59.250 16.262678
59.255 16.264536
59.260 16.626936
59.265 16.749685
59.270 17.30822
59.275 17.337442
59.280 17.173096
59.285 17.319956
59.290 17.467896
59.295 16.961552
59.300 16.74156
59.305 16.238773
59.310 16.409382
59.315 16.305456
59.320 16.229578
59.325 16.21382
59.330 16.496641
59.335 16.470993
59.340 16.509886
59.345 16.18634
59.350 16.113949
59.355 16.21451
59.360 15.961667
59.365 16.350054
59.370 16.458248
59.375 16.978102
59.380 16.999685
59.385 17.002829
59.390 17.228355
59.395 16.684904
59.400 15.831188
59.405 15.318414
59.410 14.990036
59.415 15.844579
59.420 15.900739
59.425 16.105572
59.430 16.571182
59.435 16.560419
59.440 16.839642
59.445 16.509867
59.450 15.837566
59.455 16.097479
59.460 15.903606
59.465 16.268465
59.470 16.570915
59.475 16.601843
59.480 16.900131
59.485 16.952232
59.490 16.992832
59.495 17.294743
59.500 16.989405
59.505 16.707174
59.510 17.032293
59.515 17.13792
59.520 17.359144
59.525 17.434099
59.530 17.12072
59.535 17.547964
59.540 17.538
59.545 17.282486
59.550 17.19923
59.555 16.919075
59.560 16.382637
59.565 16.986797
59.570 16.675503
59.575 16.826468
59.580 17.378042
59.585 17.011139
59.590 17.249479
59.595 17.853275
59.600 17.298491
59.605 17.464373
59.610 17.978333
59.615 18.472836
59.620 18.976873
59.625 19.0086
59.630 18.69961
59.635 18.89613
59.640 19.032974
59.645 18.224232
59.650 17.503428
59.655 17.218641
59.660 17.184752
59.665 17.372223
59.670 16.913578
59.675 16.652451
59.680 16.60408
59.685 16.511284
59.690 16.606724
59.695 16.824188
59.700 17.295576
59.705 17.53438
59.710 17.752148
59.715 18.239485
59.720 18.117723
59.725 17.891581
59.730 17.723795
59.735 18.057825
59.740 18.724075
59.745 18.743826
59.750 18.439924
59.755 18.866581
59.760 18.875252
59.765 18.722195
59.770 18.358088
59.775 18.513403
59.780 18.976601
59.785 19.035395
59.790 18.461817
59.795 18.591047
59.800 18.283504
59.805 17.496159
59.810 16.805103
59.815 16.906387
59.820 17.303669
59.825 17.751362
59.830 17.870104
59.835 18.408625
59.840 19.132267
59.845 19.8472
59.850 19.59384
59.855 19.618963
59.860 19.893345
59.865 19.645891
59.870 19.174784
59.875 19.011965
59.880 18.609444
59.885 19.106949
59.890 19.963436
59.895 20.125309
59.900 20.216114
59.905 20.725697
59.910 20.645365
59.915 20.575073
59.920 20.147106
59.925 20.060436
59.930 19.9217
59.935 20.321167
59.940 20.629114
59.945 20.225571
59.950 20.126604
59.955 20.271603
59.960 19.894472
59.965 20.059519
59.970 19.714554
59.975 19.508499
59.980 20.518749
59.985 20.594328
59.990 20.667961
59.995 20.338131
60.000 20.136375
60.005 20.49164
60.010 20.804682
60.015 20.193295
60.020 20.390131
60.025 20.092045
60.030 19.983421
60.035 19.721306
60.040 19.799023
60.045 19.955315
60.050 20.530807
60.055 20.175562
60.060 20.275183
60.065 20.762014
60.070 21.285891
60.075 21.27153
60.080 20.921513
60.085 21.031055
60.090 21.53636
60.095 21.282503
60.100 21.207306
60.105 21.228636
60.110 20.924557
60.115 20.592146
60.120 20.468548
60.125 21.026234
60.130 21.760086
60.135 21.938786
60.140 21.944059
60.145 22.262669
60.150 22.191832
60.155 21.628904
60.160 20.664295
60.165 20.112576
60.170 20.05382
60.175 19.973202
60.180 20.48044
60.185 21.272974
60.190 22.079042
60.195 22.749268
60.200 22.65135
60.205 23.067423
60.210 23.266869
60.215 22.507839
60.220 21.831898
60.225 21.571068
60.230 21.196913
60.235 21.377081
60.240 20.769747
60.245 20.08683
60.250 20.428379
60.255 20.659506
60.260 21.232304
60.265 21.83563
60.270 21.898848
60.275 22.215698
60.280 22.165184
60.285 22.160906
60.290 21.690567
60.295 21.343695
60.300 20.597942
60.305 20.09341
60.310 19.856873
60.315 20.185827
60.320 19.936554
60.325 20.345358
60.330 19.788652
60.335 20.005886
60.340 20.672615
60.345 20.589071
60.350 20.404827
60.355 20.464796
60.360 20.366833
60.365 21.03566
60.370 20.984116
60.375 20.315525
60.380 20.478037
60.385 20.660107
60.390 20.8417
60.395 20.948961
60.400 20.555695
60.405 20.588062
60.410 21.055016
60.415 21.375687
60.420 21.526114
60.425 21.841043
60.430 21.763182
60.435 21.452572
60.440 21.456188
60.445 21.348045
60.450 20.961464
60.455 20.790545
60.460 20.366869
60.465 20.563606
60.470 20.859484
60.475 21.067507
60.480 21.601063
60.485 21.59264
60.490 21.704964
60.495 22.527765
60.500 22.212666
60.505 21.919254
60.510 21.824556
60.515 20.860603
60.520 20.467951
60.525 20.446875
60.530 20.096954
60.535 21.096451
60.540 21.727745
60.545 21.8232
60.550 22.546041
60.555 23.2395
60.560 22.746325
60.565 22.17395
60.570 21.217903
60.575 20.163084
60.580 20.147711
60.585 20.009285
60.590 19.646852
60.595 19.594744
60.600 19.604736
60.605 20.090731
60.610 20.643126
60.615 20.516718
60.620 20.702213
60.625 20.901211
60.630 20.45182
60.635 20.064753
60.640 19.125999
60.645 18.756386
60.650 18.880278
60.655 18.177786
60.660 17.810471
60.665 18.421373
60.670 18.573549
60.675 18.779812
60.680 18.719984
60.685 18.839603
60.690 18.999088
60.695 19.350292
60.700 19.119371
60.705 19.501835
60.710 19.758045
60.715 19.795616
60.720 19.098339
60.725 18.959284
60.730 19.295778
60.735 19.97225
60.740 19.854885
60.745 20.482887
60.750 20.155294
60.755 20.202831
60.760 20.327715
60.765 20.02247
60.770 19.825008
60.775 19.511324
60.780 18.824089
60.785 19.229733
60.790 19.3622
60.795 19.732197
60.800 19.616018
60.805 19.236713
60.810 19.65806
60.815 20.074358
60.820 20.370813
60.825 20.406355
60.830 19.672661
60.835 19.412664
60.840 19.229189
60.845 19.133595
60.850 18.627825
60.855 18.211473
60.860 18.186583
60.865 18.913904
60.870 18.876375
60.875 18.885044
60.880 18.358028
60.885 18.582472
60.890 18.818449
60.895 19.126394
60.900 19.122717
60.905 19.157757
60.910 18.862799
60.915 18.752665
60.920 18.805103
60.925 18.421551
60.930 17.488543
60.935 17.079079
60.940 16.867659
60.945 17.293903
60.950 17.301891
60.955 16.969156
60.960 17.239323
60.965 18.072916
60.970 18.655655
60.975 18.304165
60.980 18.291769
60.985 18.571012
60.990 18.856911
60.995 19.054964
61.000 18.568325
61.005 18.52578
61.010 18.662432
61.015 18.251602
61.020 18.024164
61.025 17.661118
61.030 17.085752
61.035 16.519531
61.040 16.304033
61.045 16.895794
61.050 17.18549
61.055 17.298241
61.060 17.20962
61.065 17.602385
61.070 18.554884
61.075 18.970678
61.080 18.947714
61.085 18.666285
61.090 18.375916
61.095 17.968639
61.100 17.660076
61.105 17.513437
61.110 16.692654
61.115 16.52808
61.120 16.847101
61.125 16.990274
61.130 17.909927
61.135 18.303137
61.140 18.346308
61.145 18.994703
61.150 18.927441
61.155 18.563698
61.160 18.616085
61.165 18.274523
61.170 18.325745
61.175 18.366098
61.180 18.148308
61.185 18.36841
61.190 18.569912
61.195 18.615059
61.200 18.975073
61.205 18.691837
61.210 18.094246
61.215 17.731327
61.220 17.644379
61.225 17.485699
61.230 17.394018
61.235 17.303061
61.240 16.897142
61.245 17.269028
61.250 17.202034
61.255 17.230078
61.260 17.515884
61.265 17.919344
61.270 17.825048
61.275 18.05274
61.280 18.270193
61.285 18.858679
61.290 18.530304
61.295 17.934978
61.300 16.891653
61.305 16.651402
61.310 16.69323
61.315 16.456856
61.320 16.094755
61.325 15.942906
61.330 15.94591
61.335 15.898085
61.340 16.228136
61.345 16.48357
61.350 16.003832
61.355 16.013418
61.360 16.155554
61.365 16.100283
61.370 16.473917
61.375 16.132723
61.380 15.850953
61.385 15.912284
61.390 15.677835
61.395 15.778237
61.400 16.306976
61.405 16.532005
61.410 16.429195
61.415 16.303232
61.420 16.635408
61.425 17.079405
61.430 17.299616
61.435 17.075325
61.440 16.703474
61.445 17.142956
61.450 17.533579
61.455 17.797127
61.460 17.574898
61.465 17.281961
61.470 17.634369
61.475 18.212267
61.480 18.242825
61.485 17.844431
61.490 17.769253
61.495 18.26457
61.500 18.460775
61.505 18.15992
61.510 17.450647
61.515 17.267115
61.520 17.360029
61.525 17.502319
61.530 17.234566
61.535 17.076338
61.540 17.603878
61.545 18.292448
61.550 18.321564
61.555 18.193771
61.560 18.109985
61.565 18.401243
61.570 18.35792
61.575 17.841642
61.580 17.00141
61.585 16.486217
61.590 16.5562
61.595 15.890359
61.600 15.871823
61.605 15.65129
61.610 15.524285
61.615 16.065031
61.620 16.545835
61.625 17.015125
61.630 16.957016
61.635 16.526215
61.640 17.015947
61.645 17.068926
61.650 16.637449
61.655 16.642895
61.660 16.298552
61.665 16.364283
61.670 16.918606
61.675 17.112104
61.680 17.363001
61.685 17.319191
61.690 17.172964
61.695 17.136307
61.700 17.391392
61.705 17.199953
61.710 16.850262
61.715 16.387609
61.720 16.470507
61.725 16.680813
61.730 17.351198
61.735 17.123003
61.740 17.039631
61.745 17.098455
61.750 17.375975
61.755 17.411396
61.760 17.099594
61.765 16.343092
61.770 16.243141
61.775 16.760832
61.780 17.315039
61.785 17.411518
61.790 17.57864
61.795 17.958567
61.800 18.52998
61.805 18.769161
61.810 18.184568
61.815 17.607214
61.820 17.993954
61.825 18.150314
61.830 17.684258
61.835 17.476902
61.840 17.375666
61.845 17.876217
61.850 18.229877
61.855 18.650623
61.860 19.032608
61.865 19.054239
61.870 19.44334
61.875 19.401011
61.880 19.230309
61.885 19.399145
61.890 19.140989
61.895 18.659466
61.900 18.860929
61.905 18.661112
61.910 18.684914
61.915 18.350552
61.920 17.967123
61.925 17.665508
61.930 17.87236
61.935 17.607922
61.940 17.759996
61.945 17.644878
61.950 18.243694
61.955 18.291407
61.960 17.398209
61.965 17.538242
61.970 17.696075
61.975 17.586498
61.980 17.381329
61.985 16.740347
61.990 16.646948
61.995 17.23041
62.000 17.511602
62.005 17.659145
62.010 17.864973
62.015 18.097588
62.020 18.008583
62.025 18.144485
62.030 18.360826
62.035 17.721268
62.040 17.155699
62.045 17.263128
62.050 17.168489
62.055 17.234114
62.060 17.268635
62.065 16.997417
62.070 17.447908
62.075 17.921595
62.080 17.519529
62.085 17.560144
62.090 17.81761
62.095 18.1001
62.100 18.463198
62.105 18.089621
62.110 17.31148
62.115 17.278341
62.120 17.271368
62.125 16.785215
62.130 16.483007
62.135 16.147335
62.140 16.258026
62.145 16.604519
62.150 16.613914
62.155 16.673525
62.160 16.676931
62.165 16.906191
62.170 17.102093
62.175 17.357836
62.180 17.699699
62.185 17.93944
62.190 18.230795
62.195 18.118912
62.200 18.027355
62.205 16.96315
62.210 16.531773
62.215 16.779053
62.220 16.480806
62.225 16.16326
62.230 16.276499
62.235 15.82133
62.240 16.077343
62.245 16.591618
62.250 16.002455
62.255 15.645874
62.260 15.588614
62.265 15.548385
62.270 15.929214
62.275 16.12829
62.280 15.657749
62.285 15.910908
62.290 16.130457
62.295 16.788414
62.300 16.942892
62.305 16.934406
62.310 17.077595
62.315 17.376183
62.320 18.102612
62.325 18.647314
62.330 18.449472
62.335 18.285767
62.340 18.235044
62.345 18.222111
62.350 18.039963
62.355 17.32695
62.360 16.719051
62.365 16.142559
62.370 16.276497
62.375 16.073238
62.380 15.991168
62.385 15.390141
62.390 15.230034
62.395 15.62899
62.400 16.212168
62.405 16.547773
62.410 17.790266
62.415 18.401608
62.420 18.84376
62.425 19.162756
62.430 18.954746
62.435 18.906059
62.440 18.869354
62.445 18.936255
62.450 19.21073
62.455 19.313654
62.460 19.0284
62.465 18.859425
62.470 18.790989
62.475 18.572927
62.480 17.914106
62.485 17.856861
62.490 17.711872
62.495 18.336727
62.500 18.631584
62.505 18.279018
62.510 18.089054
62.515 17.820368
62.520 17.622238
62.525 18.158543
62.530 17.479555
62.535 17.239782
62.540 17.907278
62.545 17.756062
62.550 18.000967
62.555 17.415762
62.560 16.677921
62.565 17.080246
62.570 17.128307
62.575 16.861109
62.580 17.307669
62.585 17.408388
62.590 17.873499
62.595 18.120672
62.600 18.206219
62.605 18.166916
62.610 17.762335
62.615 17.297043
62.620 16.720684
62.625 16.527122
62.630 16.598108
62.635 16.525732
62.640 16.91334
62.645 17.040125
62.650 17.243864
62.655 17.472891
62.660 17.718863
62.665 17.938574
62.670 18.201033
62.675 17.868494
62.680 17.6957
62.685 17.726006
62.690 17.765295
62.695 17.344475
62.700 16.82966
62.705 16.577599
62.710 16.685287
62.715 17.086428
62.720 16.874842
62.725 16.635464
62.730 17.289913
62.735 17.499166
62.740 17.34939
62.745 16.977625
62.750 16.708244
62.755 17.033318
62.760 17.394297
62.765 17.340321
62.770 17.3582
62.775 17.259912
62.780 16.936928
62.785 16.820248
62.790 16.794178
62.795 17.172222
62.800 16.60236
62.805 16.280546
62.810 16.802134
62.815 17.696957
62.820 18.287743
62.825 18.476568
62.830 17.953535
62.835 17.923054
62.840 18.271914
62.845 18.460203
62.850 18.089455
62.855 17.954027
62.860 17.900406
62.865 18.081955
62.870 17.875549
62.875 17.531542
62.880 17.138445
62.885 17.202143
62.890 17.138258
62.895 17.036959
62.900 17.064785
62.905 17.317854
62.910 17.227833
62.915 16.912214
62.920 16.363337
62.925 16.007318
62.930 16.049208
62.935 16.080385
62.940 16.049778
62.945 16.585691
62.950 16.752674
62.955 17.223166
62.960 17.253258
62.965 16.516577
62.970 16.864271
62.975 17.734575
62.980 17.632038
62.985 18.062981
62.990 18.371284
62.995 18.606663
63.000 19.059313
63.005 18.076872
63.010 17.461535
63.015 17.540062
63.020 17.306477
63.025 17.328442
63.030 17.212517
63.035 16.928802
63.040 17.047291
63.045 17.203369
63.050 17.03093
63.055 16.846878
63.060 17.026844
63.065 17.050896
63.070 17.85754
63.075 18.588949
63.080 18.878622
63.085 18.673857
63.090 18.439377
63.095 17.961023
63.100 18.343607
63.105 18.636461
63.110 18.79665
63.115 18.36652
63.120 18.996531
63.125 19.737782
63.130 19.729328
63.135 19.019665
63.140 18.233353
63.145 17.347027
63.150 17.082731
63.155 16.749825
63.160 16.11212
63.165 16.004963
63.170 16.230322
63.175 16.172493
63.180 16.030806
63.185 16.144033
63.190 16.306461
63.195 16.38941
63.200 16.271606
63.205 16.716608
63.210 17.558109
63.215 18.619606
63.220 18.547277
63.225 18.339743
63.230 18.827799
63.235 19.604443
63.240 19.113947
63.245 18.422499
63.250 17.754114
63.255 17.548103
63.260 17.436197
63.265 17.134783
63.270 16.959497
63.275 17.950924
63.280 18.387478
63.285 18.773996
63.290 19.225832
63.295 19.883602
63.300 19.540819
63.305 18.969202
63.310 18.549387
63.315 18.673126
63.320 18.590002
63.325 18.777794
63.330 18.309671
63.335 18.357132
63.340 18.203762
63.345 17.819925
63.350 17.589451
63.355 17.382847
63.360 16.521095
63.365 16.501984
63.370 16.852646
63.375 17.524275
63.380 18.061647
63.385 18.41522
63.390 18.082975
63.395 18.326584
63.400 18.37221
63.405 18.274155
63.410 17.840212
63.415 17.310328
63.420 16.826321
63.425 17.150259
63.430 17.222727
63.435 17.476263
63.440 17.345461
63.445 17.7248
63.450 17.461414
63.455 17.605831
63.460 17.527428
63.465 17.624569
63.470 16.887056
63.475 16.611635
63.480 16.002497
63.485 16.279137
63.490 16.851959
63.495 17.265335
63.500 17.34643
63.505 17.815468
63.510 18.312773
63.515 18.293758
63.520 18.011353
63.525 17.773714
63.530 17.468489
63.535 17.453272
63.540 17.855171
63.545 17.537476
63.550 17.435877
63.555 17.422852
63.560 17.050907
63.565 16.865038
63.570 16.900454
63.575 16.779379
63.580 17.165462
63.585 17.320526
63.590 17.528299
63.595 17.700718
63.600 18.337709
63.605 18.388716
63.610 18.484787
63.615 18.598673
63.620 19.099594
63.625 19.080128
63.630 18.796173
63.635 18.230185
63.640 17.722134
63.645 17.625963
63.650 17.571407
63.655 17.126608
63.660 17.255806
63.665 17.902781
63.670 18.424284
63.675 19.028425
63.680 18.983337
63.685 19.219732
63.690 19.06769
63.695 18.787149
63.700 18.632399
63.705 18.45966
63.710 18.294531
63.715 17.72481
63.720 17.515156
63.725 17.314672
63.730 17.150957
63.735 17.01206
63.740 16.381594
63.745 16.858431
63.750 17.658688
63.755 17.729614
63.760 18.293766
63.765 18.382412
63.770 17.681284
63.775 17.586168
63.780 16.71666
63.785 16.05183
63.790 15.893219
63.795 15.507555
63.800 15.656312
63.805 16.687508
63.810 17.193354
63.815 17.68301
63.820 18.106747
63.825 18.348406
63.830 18.123997
63.835 18.114246
63.840 17.926384
63.845 18.118919
63.850 17.770802
63.855 17.502958
63.860 16.996992
63.865 17.092302
63.870 16.883614
63.875 16.360197
63.880 16.222399
63.885 16.352585
63.890 17.002377
63.895 17.976078
63.900 17.941641
63.905 17.490166
63.910 17.867163
63.915 17.688013
63.920 17.612354
63.925 16.96278
63.930 16.730349
63.935 17.037647
63.940 17.349478
63.945 17.731554
63.950 18.1091
63.955 18.101072
63.960 18.193134
63.965 17.855709
63.970 17.972071
63.975 18.322966
63.980 18.560738
63.985 19.02561
63.990 18.92128
63.995 19.180166
64.000 19.499376
64.005 19.339535
64.010 19.299065
64.015 19.474218
64.020 19.430798
64.025 19.889605
64.030 19.932541
64.035 20.472679
64.040 20.715096
64.045 20.417562
64.050 19.828108
64.055 19.202042
64.060 19.175508
64.065 18.851357
64.070 18.224342
64.075 18.096245
64.080 17.414555
64.085 17.403725
64.090 17.672796
64.095 17.32062
64.100 17.629343
64.105 18.043837
64.110 17.893726
64.115 18.125996
64.120 18.256956
64.125 18.343414
64.130 18.068197
64.135 17.310596
64.140 16.736626
64.145 17.083601
64.150 17.026529
64.155 16.590437
64.160 16.119858
64.165 15.722668
64.170 15.893859
64.175 16.270342
64.180 16.224161
64.185 16.937746
64.190 17.377478
64.195 17.781694
64.200 18.778307
64.205 18.692179
64.210 18.760313
64.215 18.553829
64.220 18.379414
64.225 18.016127
64.230 17.924549
64.235 17.612259
64.240 18.045675
64.245 17.846277
64.250 17.58778
64.255 16.789753
64.260 17.216742
64.265 17.092752
64.270 17.425753
64.275 17.376593
64.280 17.974819
64.285 18.476757
64.290 19.189487
64.295 18.862993
64.300 19.297176
64.305 19.281252
64.310 19.187315
64.315 19.109043
64.320 19.26741
64.325 19.258297
64.330 19.708366
64.335 19.247698
64.340 19.224426
64.345 19.446335
64.350 19.313307
64.355 19.188232
64.360 20.065634
64.365 19.954428
64.370 19.884651
64.375 19.672075
64.380 19.357391
64.385 19.0327
64.390 18.520861
64.395 17.729422
64.400 17.992926
64.405 18.801451
64.410 19.24925
64.415 19.437023
64.420 20.209677
64.425 21.06756
64.430 21.170904
64.435 20.779598
64.440 19.95187
64.445 20.011822
64.450 20.120657
64.455 20.305243
64.460 20.243498
64.465 20.042316
64.470 19.959877
64.475 19.911425
64.480 19.975325
64.485 19.767729
64.490 19.377758
64.495 19.337551
64.500 19.173349
64.505 19.032114
64.510 18.817844
64.515 18.166286
64.520 17.806011
64.525 17.559008
64.530 17.344828
64.535 17.505243
64.540 18.040478
64.545 18.591074
64.550 18.766241
64.555 19.630476
64.560 19.52952
64.565 19.821774
64.570 20.224285
64.575 19.686136
64.580 19.665945
64.585 19.579802
64.590 18.970819
64.595 19.181927
64.600 18.758593
64.605 18.807522
64.610 19.524637
64.615 19.612606
64.620 19.824133
64.625 19.891005
64.630 19.658756
64.635 20.008581
64.640 19.474041
64.645 19.898466
64.650 20.320744
64.655 20.378565
64.660 20.19429
64.665 21.148502
64.670 21.131128
64.675 21.217901
64.680 20.561308
64.685 20.326509
64.690 20.056263
64.695 20.633814
64.700 20.103313
64.705 20.016222
64.710 20.596815
64.715 21.100706
64.720 21.514023
64.725 21.938501
64.730 21.11525
64.735 20.6136
64.740 20.608252
64.745 20.2808
64.750 20.041761
64.755 19.085842
64.760 18.343918
64.765 18.431183
64.770 18.474398
64.775 18.147041
64.780 17.730433
64.785 17.6616
64.790 18.002831
64.795 18.802416
64.800 19.168724
64.805 19.785007
64.810 20.873985
64.815 21.640465
64.820 21.501911
64.825 21.480206
64.830 21.28315
64.835 20.872095
64.840 20.373491
64.845 20.22493
64.850 19.860069
64.855 20.304306
64.860 19.979259
64.865 19.612946
64.870 20.260626
64.875 20.81995
64.880 19.916986
64.885 19.995825
64.890 19.768787
64.895 20.487974
64.900 21.158146
64.905 21.047365
64.910 20.711714
64.915 21.213078
64.920 21.233232
64.925 21.318655
64.930 21.720715
64.935 21.74106
64.940 21.508463
64.945 21.430864
64.950 21.904902
64.955 22.316772
64.960 21.608509
64.965 21.391993
64.970 22.038042
64.975 22.294119
64.980 22.023043
64.985 21.144985
64.990 21.585487
64.995 22.549902
65.000 21.997286
65.005 21.279205
65.010 21.389488
65.015 21.920088
65.020 22.864901
65.025 22.99288
65.030 22.585304
65.035 22.855757
65.040 23.033213
65.045 22.952936
65.050 23.553373
65.055 23.171389
65.060 22.652819
65.065 22.877501
65.070 23.070356
65.075 23.573774
65.080 23.814531
65.085 23.359741
65.090 22.873682
65.095 22.883549
65.100 23.012421
65.105 22.970198
65.110 21.960918
65.115 21.893499
65.120 21.933092
65.125 21.812395
65.130 21.740608
65.135 21.764864
65.140 21.887863
65.145 22.70356
65.150 23.067781
65.155 23.344496
65.160 23.688448
65.165 23.697666
65.170 23.130224
65.175 23.081699
65.180 22.786104
65.185 21.951883
65.190 22.148348
65.195 22.780394
65.200 23.020714
65.205 23.233841
65.210 22.867456
65.215 22.959541
65.220 23.264055
65.225 22.574633
65.230 22.207998
65.235 22.594103
65.240 23.179274
65.245 22.742079
65.250 22.765326
65.255 22.688961
65.260 23.5257
65.265 23.406954
65.270 22.316469
65.275 21.575556
65.280 21.816118
65.285 22.160397
65.290 22.474924
65.295 22.442518
65.300 22.612566
65.305 23.393419
65.310 24.019703
65.315 23.924976
65.320 23.433935
65.325 22.817528
65.330 21.717789
65.335 22.116301
65.340 22.296806
65.345 21.881285
65.350 22.150984
65.355 22.388327
65.360 22.946285
65.365 23.020046
65.370 22.103737
65.375 22.004913
65.380 22.836924
65.385 22.83238
65.390 23.310835
65.395 23.209919
65.400 23.703547
65.405 24.612295
65.410 25.092405
65.415 24.599464
65.420 24.415045
65.425 24.301685
65.430 24.562523
65.435 25.189646
65.440 25.573427
65.445 25.776211
65.450 26.369499
65.455 26.669617
65.460 26.827417
65.465 27.148363
65.470 26.65049
65.475 26.34215
65.480 26.283052
65.485 26.305428
65.490 26.028938
65.495 25.768253
65.500 25.2915
65.505 25.690969
65.510 26.03936
65.515 26.371197
65.520 26.489353
65.525 26.534548
65.530 26.560528
65.535 27.101143
65.540 27.190823
65.545 27.099369
65.550 26.483622
65.555 27.102335
65.560 27.741108
65.565 28.098972
65.570 28.41264
65.575 29.048498
65.580 29.951864
65.585 30.933794
65.590 31.096632
65.595 31.880482
65.600 31.68215
65.605 32.120197
65.610 32.107594
65.615 32.221497
65.620 31.960451
65.625 31.888
65.630 31.514206
65.635 31.599718
65.640 31.071907
65.645 30.764616
65.650 30.153082
65.655 30.368866
65.660 30.675848
65.665 30.745211
65.670 31.274738
65.675 31.356562
65.680 31.971802
65.685 32.733891
65.690 32.93758
65.695 33.21241
65.700 33.465488
65.705 33.211052
65.710 33.319023
65.715 33.613449
65.720 33.202896
65.725 33.199711
65.730 33.344433
65.735 33.465874
65.740 33.649544
65.745 33.729755
65.750 34.732292
65.755 35.774174
65.760 35.500179
65.765 35.431881
65.770 35.699692
65.775 35.816612
65.780 35.730526
65.785 34.450314
65.790 33.53336
65.795 33.563446
65.800 34.099014
65.805 34.565022
65.810 34.97625
65.815 35.192635
65.820 35.888458
65.825 36.513229
65.830 37.090443
65.835 36.716682
65.840 37.023579
65.845 36.763451
65.850 37.321205
65.855 37.294922
65.860 38.006695
65.865 38.523296
65.870 38.556293
65.875 38.004898
65.880 38.286583
65.885 38.571075
65.890 38.744862
65.895 38.785202
65.900 38.629501
65.905 38.327084
65.910 38.165707
65.915 38.578377
65.920 38.429024
65.925 38.64101
65.930 38.292213
65.935 38.48061
65.940 38.667683
65.945 38.739021
65.950 38.287899
65.955 38.067734
65.960 37.75177
65.965 37.591293
65.970 37.304508
65.975 37.107285
65.980 37.768425
65.985 37.699612
65.990 37.772217
65.995 38.428009
66.000 38.424217
66.005 38.507153
66.010 38.352367
66.015 37.936546
66.020 37.844528
66.025 38.139034
66.030 37.554333
66.035 37.551563
66.040 38.292725
66.045 38.562782
66.050 38.432816
66.055 38.492256
66.060 37.87978
66.065 37.63567
66.070 37.622383
66.075 37.124157
66.080 36.780071
66.085 36.407192
66.090 36.746891
66.095 36.968197
66.100 36.995399
66.105 37.164684
66.110 36.88018
66.115 37.444954
66.120 37.05407
66.125 36.819244
66.130 36.174118
66.135 35.082153
66.140 33.891964
66.145 33.456669
66.150 33.579918
66.155 33.617191
66.160 33.24165
66.165 33.964424
66.170 34.579144
66.175 35.315712
66.180 34.794228
66.185 34.565571
66.190 35.000385
66.195 34.871754
66.200 34.686008
66.205 34.70171
66.210 34.953575
66.215 35.347225
66.220 35.321709
66.225 34.281635
66.230 33.772884
66.235 33.805191
66.240 33.58033
66.245 33.613682
66.250 33.74284
66.255 33.629128
66.260 33.793751
66.265 33.79229
66.270 34.23814
66.275 35.252525
66.280 34.481773
66.285 34.233112
66.290 34.017872
66.295 34.33057
66.300 34.064037
66.305 33.311882
66.310 32.293686
66.315 31.993313
66.320 31.857031
66.325 31.590616
66.330 31.890076
66.335 31.940378
66.340 31.032719
66.345 30.431826
66.350 30.587549
66.355 30.518322
66.360 31.43783
66.365 31.092731
66.370 30.835342
66.375 30.434776
66.380 30.618692
66.385 30.538797
66.390 30.039471
66.395 29.481266
66.400 29.175459
66.405 28.812275
66.410 29.154961
66.415 29.243908
66.420 29.489487
66.425 29.665417
66.430 29.262688
66.435 29.515417
66.440 29.457396
66.445 29.274488
66.450 28.703381
66.455 27.64253
66.460 27.309931
66.465 27.168449
66.470 26.696167
66.475 27.02911
66.480 27.909639
66.485 27.917139
66.490 28.638124
66.495 29.051811
66.500 30.075199
66.505 30.750648
66.510 30.618109
66.515 29.500185
66.520 29.640518
66.525 29.317284
66.530 28.541384
66.535 27.619984
66.540 27.096724
66.545 26.642689
66.550 27.02923
66.555 27.681274
66.560 27.165131
66.565 26.86948
66.570 26.540794
66.575 26.231417
66.580 25.875189
66.585 26.348894
66.590 26.509483
66.595 27.371365
66.600 27.856579
66.605 27.33654
66.610 27.479454
66.615 27.042881
66.620 26.084242
66.625 25.568954
66.630 25.37575
66.635 25.233303
66.640 25.644463
66.645 25.741095
66.650 25.934881
66.655 25.778469
66.660 25.785873
66.665 25.695885
66.670 26.073776
66.675 25.68549
66.680 25.597876
66.685 25.242683
66.690 25.000538
66.695 24.389059
66.700 24.070429
66.705 23.844601
66.710 23.88319
66.715 23.723303
66.720 24.098349
66.725 24.652704
66.730 24.856033
66.735 25.426384
66.740 25.539419
66.745 26.124117
66.750 26.710203
66.755 27.3948
66.760 27.253996
66.765 27.189312
66.770 26.467886
66.775 26.55583
66.780 26.149088
66.785 25.459171
66.790 24.987108
66.795 24.168274
66.800 23.380901
66.805 23.181662
66.810 22.579767
66.815 22.338985
66.820 22.29409
66.825 22.110922
66.830 22.391966
66.835 22.942225
66.840 22.813414
66.845 22.426193
66.850 22.944706
66.855 22.599178
66.860 21.595139
66.865 21.737789
66.870 22.256062
66.875 22.85726
66.880 23.329119
66.885 23.640062
66.890 23.954969
66.895 24.797331
66.900 24.962534
66.905 24.020609
66.910 24.158504
66.915 23.600595
66.920 22.929871
66.925 22.89353
66.930 22.408033
66.935 22.089497
66.940 22.696623
66.945 22.780046
66.950 22.649748
66.955 22.928497
66.960 23.363396
66.965 24.218647
66.970 24.493443
66.975 24.202841
66.980 24.354401
66.985 24.898769
66.990 25.102749
66.995 24.453022
67.000 24.10792
67.005 24.208372
67.010 24.06002
67.015 24.017649
67.020 23.596199
67.025 23.101921
67.030 22.885059
67.035 23.391315
67.040 23.178392
67.045 23.272785
67.050 23.530378
67.055 23.444193
67.060 23.481634
67.065 23.755928
67.070 23.336168
67.075 23.230537
67.080 22.762094
67.085 22.196985
67.090 22.335928
67.095 22.363274
67.100 22.502924
67.105 22.02158
67.110 21.57719
67.115 21.652174
67.120 22.140011
67.125 22.494493
67.130 22.631847
67.135 22.306498
67.140 22.399878
67.145 22.830351
67.150 22.678278
67.155 22.936176
67.160 23.299004
67.165 23.315123
67.170 23.153543
67.175 22.98275
67.180 23.047297
67.185 22.783049
67.190 22.023821
67.195 21.62722
67.200 21.74387
67.205 22.149157
67.210 21.908363
67.215 21.612396
67.220 21.594889
67.225 22.068554
67.230 21.954214
67.235 22.081137
67.240 22.373358
67.245 23.059847
67.250 22.960592
67.255 23.123476
67.260 22.607616
67.265 22.127062
67.270 21.902506
67.275 21.603212
67.280 21.228397
67.285 21.99667
67.290 22.617851
67.295 22.89378
67.300 23.797306
67.305 23.84898
67.310 23.77317
67.315 23.153162
67.320 22.628391
67.325 22.135433
67.330 21.815498
67.335 21.361084
67.340 21.047361
67.345 20.133539
67.350 20.985109
67.355 20.622309
67.360 20.730967
67.365 21.275295
67.370 21.391678
67.375 22.022007
67.380 22.085474
67.385 22.189234
67.390 22.684988
67.395 22.333769
67.400 22.043781
67.405 22.081785
67.410 22.209042
67.415 22.491732
67.420 22.188431
67.425 21.734604
67.430 21.700104
67.435 21.494486
67.440 21.127934
67.445 21.247894
67.450 21.274206
67.455 20.752863
67.460 20.140068
67.465 20.169672
67.470 20.384794
67.475 20.66802
67.480 20.563873
67.485 21.112988
67.490 21.895288
67.495 22.508305
67.500 22.835876
67.505 23.211676
67.510 23.215935
67.515 22.757164
67.520 22.841105
67.525 22.431368
67.530 22.183807
67.535 21.299109
67.540 20.746679
67.545 20.182104
67.550 20.390879
67.555 20.259399
67.560 21.453236
67.565 22.66814
67.570 23.307285
67.575 23.272964
67.580 23.613792
67.585 23.356602
67.590 23.384087
67.595 23.259014
67.600 22.125814
67.605 22.050434
67.610 22.587542
67.615 22.186596
67.620 22.869402
67.625 22.857941
67.630 21.806812
67.635 22.063965
67.640 21.436771
67.645 21.111992
67.650 21.370588
67.655 20.528843
67.660 20.541149
67.665 20.816399
67.670 21.325401
67.675 21.888224
67.680 22.802172
67.685 22.687546
67.690 22.501423
67.695 22.172583
67.700 22.114065
67.705 21.962997
67.710 21.647209
67.715 21.314119
67.720 21.688486
67.725 22.06814
67.730 21.787432
67.735 21.630718
67.740 21.295473
67.745 21.326187
67.750 21.01552
67.755 21.371628
67.760 21.577593
67.765 22.031549
67.770 21.504671
67.775 21.655415
67.780 21.658941
67.785 21.584562
67.790 21.311996
67.795 21.464867
67.800 22.165359
67.805 22.563046
67.810 22.518633
67.815 23.112822
67.820 23.467911
67.825 23.604515
67.830 23.149767
67.835 22.976997
67.840 23.202694
67.845 22.903019
67.850 22.300348
67.855 22.210894
67.860 22.07955
67.865 21.692717
67.870 21.422373
67.875 21.309256
67.880 21.42363
67.885 21.610651
67.890 21.367432
67.895 21.724979
67.900 21.926886
67.905 21.547544
67.910 21.565926
67.915 21.547636
67.920 21.266504
67.925 21.328268
67.930 21.845734
67.935 22.620932
67.940 23.111824
67.945 23.602091
67.950 23.487316
67.955 23.606464
67.960 23.539141
67.965 22.873001
67.970 22.342875
67.975 22.223818
67.980 21.99192
67.985 21.951351
67.990 21.672291
67.995 21.629856
68.000 21.927389
68.005 22.316648
68.010 21.886179
68.015 21.862823
68.020 22.189268
68.025 22.032108
68.030 21.456072
68.035 21.240891
68.040 21.150797
68.045 21.296638
68.050 21.298973
68.055 21.426455
68.060 21.720715
68.065 22.189438
68.070 22.716366
68.075 22.76053
68.080 22.809183
68.085 23.36949
68.090 23.13735
68.095 23.054356
68.100 22.579266
68.105 22.242153
68.110 21.923382
68.115 22.148396
68.120 22.101364
68.125 21.632193
68.130 21.765137
68.135 22.265083
68.140 21.999441
68.145 22.16769
68.150 21.777691
68.155 21.655779
68.160 22.027063
68.165 22.267412
68.170 22.028513
68.175 21.966984
68.180 22.042894
68.185 22.227806
68.190 22.197166
68.195 22.047525
68.200 21.412434
68.205 21.707663
68.210 21.900633
68.215 21.987999
68.220 21.72493
68.225 21.579832
68.230 21.491096
68.235 21.796926
68.240 21.202139
68.245 21.161879
68.250 20.595022
68.255 20.312717
68.260 20.645781
68.265 20.821726
68.270 21.172215
68.275 21.163837
68.280 21.092621
68.285 21.687149
68.290 21.960646
68.295 21.816357
68.300 21.507633
68.305 20.64283
68.310 20.821095
68.315 20.643076
68.320 20.626907
68.325 20.759888
68.330 20.38201
68.335 21.104454
68.340 21.68597
68.345 21.731293
68.350 22.234259
68.355 21.778214
68.360 21.321976
68.365 21.761227
68.370 21.904423
68.375 21.814157
68.380 21.768454
68.385 21.538288
68.390 21.739922
68.395 21.772087
68.400 21.543022
68.405 21.348238
68.410 21.111916
68.415 21.01228
68.420 21.114185
68.425 21.051514
68.430 20.75721
68.435 20.573477
68.440 20.458265
68.445 20.709236
68.450 20.836613
68.455 20.79962
68.460 20.932026
68.465 21.356936
68.470 21.410847
68.475 21.171457
68.480 21.237694
68.485 20.028778
68.490 20.084375
68.495 19.95401
68.500 19.204897
68.505 19.107922
68.510 19.286358
68.515 19.48547
68.520 19.748741
68.525 19.677338
68.530 20.434811
68.535 21.747524
68.540 21.80792
68.545 21.328611
68.550 21.076422
68.555 21.504322
68.560 21.318325
68.565 20.929359
68.570 20.157707
68.575 20.318304
68.580 20.781105
68.585 20.910789
68.590 20.922531
68.595 21.042366
68.600 21.574177
68.605 21.821608
68.610 21.952383
68.615 22.052546
68.620 22.049885
68.625 22.206394
68.630 22.079554
68.635 21.789932
68.640 22.113895
68.645 22.750189
68.650 22.45685
68.655 22.262678
68.660 22.198729
68.665 22.201822
68.670 21.900562
68.675 21.398756
68.680 20.666553
68.685 20.51738
68.690 20.795086
68.695 20.88125
68.700 20.574162
68.705 20.438074
68.710 20.625216
68.715 20.656313
68.720 21.23941
68.725 20.954466
68.730 21.333441
68.735 21.772648
68.740 21.352478
68.745 21.380199
68.750 21.451006
68.755 21.205511
68.760 22.060074
68.765 22.023928
68.770 21.730833
68.775 21.923426
68.780 22.211222
68.785 22.426785
68.790 22.220757
68.795 21.85224
68.800 21.67634
68.805 22.092657
68.810 21.88973
68.815 21.721123
68.820 21.497993
68.825 21.76078
68.830 21.758217
68.835 21.802917
68.840 22.496405
68.845 22.633125
68.850 22.312939
68.855 23.00366
68.860 22.871935
68.865 22.693697
68.870 23.062681
68.875 22.496023
68.880 22.572298
68.885 22.638779
68.890 22.600647
68.895 22.962954
68.900 22.770323
68.905 22.497786
68.910 22.619083
68.915 22.551008
68.920 21.964558
68.925 21.553942
68.930 21.948578
68.935 22.056852
68.940 22.11471
68.945 21.805861
68.950 22.454226
68.955 22.848564
68.960 23.422812
68.965 23.623457
68.970 24.315189
68.975 24.313324
68.980 24.987869
68.985 25.475937
68.990 25.696651
68.995 25.275211
69.000 24.749966
69.005 24.154764
69.010 24.396759
69.015 24.142353
69.020 23.441854
69.025 23.47476
69.030 23.346666
69.035 23.385645
69.040 23.657351
69.045 23.522659
69.050 23.61277
69.055 24.041552
69.060 23.684645
69.065 23.937496
69.070 24.527689
69.075 24.610668
69.080 25.222527
69.085 26.250128
69.090 26.693602
69.095 26.625994
69.100 26.700583
69.105 27.359829
69.110 27.79006
69.115 27.704117
69.120 27.101974
69.125 26.748053
69.130 27.35248
69.135 27.130781
69.140 27.154016
69.145 27.071823
69.150 26.24724
69.155 26.098703
69.160 25.806049
69.165 24.987425
69.170 24.911337
69.175 23.838181
69.180 24.216383
69.185 24.201691
69.190 24.108423
69.195 24.586599
69.200 24.745424
69.205 24.848888
69.210 25.369902
69.215 25.460062
69.220 26.038734
69.225 27.186268
69.230 27.604326
69.235 28.35886
69.240 29.198715
69.245 29.326717
69.250 29.020811
69.255 28.659557
69.260 28.504066
69.265 28.14827
69.270 27.599255
69.275 27.112429
69.280 27.322897
69.285 27.615383
69.290 27.461979
69.295 26.33201
69.300 26.568663
69.305 26.544773
69.310 26.588631
69.315 26.333179
69.320 26.249704
69.325 26.226139
69.330 27.137495
69.335 27.213327
69.340 26.869892
69.345 26.669853
69.350 26.487892
69.355 26.615034
69.360 26.462063
69.365 26.435181
69.370 26.916779
69.375 27.641935
69.380 27.815327
69.385 27.922373
69.390 28.272669
69.395 28.946516
69.400 28.715658
69.405 28.823887
69.410 28.299959
69.415 27.912384
69.420 27.278519
69.425 27.48867
69.430 27.567936
69.435 27.539064
69.440 27.164383
69.445 27.511448
69.450 28.14706
69.455 28.461998
69.460 28.391933
69.465 28.098856
69.470 28.267628
69.475 28.642599
69.480 28.70089
69.485 29.085657
69.490 30.117996
69.495 30.178581
69.500 29.796028
69.505 29.778767
69.510 29.591951
69.515 29.971062
69.520 30.004278
69.525 29.35923
69.530 30.085379
69.535 30.931198
69.540 31.380476
69.545 31.530689
69.550 30.985481
69.555 30.561783
69.560 30.330694
69.565 30.368475
69.570 30.544064
69.575 30.728605
69.580 30.28348
69.585 30.49995
69.590 30.005407
69.595 29.548624
69.600 29.303011
69.605 29.043016
69.610 28.972944
69.615 28.880436
69.620 28.292881
69.625 28.604511
69.630 28.187317
69.635 27.158943
69.640 26.935612
69.645 26.44301
69.650 26.699713
69.655 26.921122
69.660 26.723162
69.665 26.746695
69.670 27.381224
69.675 27.566599
69.680 27.193771
69.685 27.468889
69.690 27.480309
69.695 27.126297
69.700 27.079521
69.705 26.498718
69.710 26.133688
69.715 26.217239
69.720 25.828604
69.725 25.81147
69.730 26.285965
69.735 26.754026
69.740 27.101288
69.745 27.296383
69.750 27.324043
69.755 26.938177
69.760 26.675213
69.765 25.911873
69.770 25.367947
69.775 25.111826
69.780 25.075651
69.785 24.816439
69.790 24.905537
69.795 24.301004
69.800 24.170889
69.805 24.289549
69.810 23.952631
69.815 23.939007
69.820 24.093832
69.825 24.076227
69.830 24.837317
69.835 25.511343
69.840 25.97473
69.845 26.264141
69.850 25.895006
69.855 25.958324
69.860 26.458405
69.865 26.291677
69.870 25.701803
69.875 25.381344
69.880 25.42907
69.885 25.662083
69.890 25.72839
69.895 25.603779
69.900 25.388073
69.905 25.609369
69.910 25.177967
69.915 24.736839
69.920 24.258825
69.925 23.636341
69.930 22.461864
69.935 21.827768
69.940 21.240599
69.945 21.04377
69.950 21.259287
69.955 21.850101
69.960 22.418863
69.965 23.231386
69.970 23.331152
69.975 23.492645
69.980 24.055233
69.985 23.844128
69.990 23.708157
69.995 23.470949
70.000 22.790922
70.005 22.963539
70.010 23.164513
70.015 22.420097
70.020 22.532928
70.025 22.172436
70.030 21.812454
70.035 21.639343
70.040 21.524384
70.045 21.202166
70.050 21.178612
70.055 20.522144
70.060 20.58547
70.065 20.775381
70.070 20.893887
70.075 21.127707
70.080 20.928942
70.085 20.895599
70.090 21.046312
70.095 21.072956
70.100 21.54417
70.105 21.337606
70.110 21.003744
70.115 20.971714
70.120 20.920391
70.125 21.333677
70.130 21.250708
70.135 20.837261
70.140 20.959274
70.145 21.553951
70.150 22.028711
70.155 21.838306
70.160 21.10054
70.165 20.798058
70.170 21.064142
70.175 20.339382
70.180 19.910625
70.185 19.936237
70.190 20.039051
70.195 20.435743
70.200 20.246813
70.205 20.490433
70.210 20.864437
70.215 21.243004
70.220 21.554836
70.225 21.863611
70.230 22.124372
70.235 22.452795
70.240 22.634396
70.245 22.587698
70.250 21.945065
70.255 21.599573
70.260 21.397964
70.265 21.123669
70.270 20.992796
70.275 20.78351
70.280 20.479013
70.285 20.699059
70.290 20.669687
70.295 20.755932
70.300 20.636362
70.305 20.535641
70.310 20.077679
70.315 19.938526
70.320 19.660847
70.325 19.637403
70.330 19.586601
70.335 19.270887
70.340 19.866362
70.345 20.582903
70.350 21.136534
70.355 20.971266
70.360 21.088621
70.365 21.055477
70.370 21.50415
70.375 21.237492
70.380 21.162016
70.385 20.977573
70.390 21.08305
70.395 21.406122
70.400 21.823187
70.405 21.61261
70.410 20.967945
70.415 20.636848
70.420 20.966145
70.425 21.110025
70.430 20.62986
70.435 20.268986
70.440 20.19294
70.445 20.386763
70.450 20.180805
70.455 19.581182
70.460 19.507404
70.465 19.717178
70.470 19.946699
70.475 19.894997
70.480 19.73208
70.485 20.238684
70.490 20.013058
70.495 19.81389
70.500 19.692673
70.505 19.795877
70.510 20.100813
70.515 20.482645
70.520 20.192236
70.525 20.6357
70.530 21.10343
70.535 20.851984
70.540 20.746353
70.545 20.032022
70.550 19.588671
70.555 20.031393
70.560 19.861898
70.565 20.227646
70.570 20.092241
70.575 20.121798
70.580 20.607639
70.585 20.608749
70.590 20.320818
70.595 19.686012
70.600 19.270277
70.605 19.370964
70.610 19.270292
70.615 19.357939
70.620 19.521807
70.625 19.662386
70.630 19.800291
70.635 19.309166
70.640 19.63703
70.645 20.228909
70.650 20.279882
70.655 20.294455
70.660 20.306362
70.665 20.617922
70.670 20.752031
70.675 20.53577
70.680 19.992802
70.685 19.401485
70.690 19.33819
70.695 19.39113
70.700 19.402969
70.705 19.357046
70.710 19.184622
70.715 19.822765
70.720 19.669626
70.725 19.253704
70.730 18.625536
70.735 18.545265
70.740 18.249338
70.745 18.427431
70.750 18.424919
70.755 18.971386
70.760 19.535454
70.765 19.914141
70.770 19.880516
70.775 20.063929
70.780 19.70664
70.785 19.336477
70.790 19.333313
70.795 19.361702
70.800 19.785368
70.805 19.619658
70.810 19.210379
70.815 19.529938
70.820 19.938152
70.825 20.063681
70.830 19.760572
70.835 19.659336
70.840 20.034058
70.845 20.201939
70.850 19.601101
70.855 20.050667
70.860 19.719656
70.865 19.966557
70.870 19.810183
70.875 19.983564
70.880 19.868082
70.885 20.003502
70.890 19.554241
70.895 19.358072
70.900 19.111437
70.905 19.374737
70.910 19.196211
70.915 18.79587
70.920 18.338043
70.925 17.996241
70.930 17.912489
70.935 17.487509
70.940 17.063011
70.945 17.516111
70.950 18.266989
70.955 18.737295
70.960 19.119085
70.965 19.060522
70.970 19.458191
70.975 19.186367
70.980 18.342884
70.985 18.187794
70.990 18.439241
70.995 18.296942
71.000 17.854004
71.005 17.494255
71.010 17.711193
71.015 17.923786
71.020 17.697485
71.025 17.027901
71.030 17.149996
71.035 17.938042
71.040 17.651747
71.045 18.009773
71.050 18.893835
71.055 19.246546
71.060 19.878683
71.065 20.367645
71.070 20.419498
71.075 20.767424
71.080 20.705191
71.085 19.960949
71.090 20.118301
71.095 19.659658
71.100 19.378725
71.105 19.419458
71.110 20.055155
71.115 20.230289
71.120 20.271042
71.125 20.401949
71.130 20.501284
71.135 20.774509
71.140 20.91036
71.145 20.347076
71.150 20.399862
71.155 20.441029
71.160 20.036304
71.165 20.00757
71.170 19.806978
71.175 19.122326
71.180 19.131014
71.185 19.022943
71.190 18.419102
71.195 18.537041
71.200 18.635735
71.205 19.102247
71.210 19.380798
71.215 18.576811
71.220 18.716679
71.225 19.331699
71.230 19.388424
71.235 19.179523
71.240 19.112139
71.245 19.222296
71.250 19.762192
71.255 19.68474
71.260 19.871107
71.265 20.402805
71.270 20.519073
71.275 20.399515
71.280 20.135126
71.285 20.449362
71.290 20.869158
71.295 20.560575
71.300 20.008223
71.305 20.136625
71.310 20.318014
71.315 20.587748
71.320 19.885729
71.325 19.448982
71.330 19.6735
71.335 19.632431
71.340 19.894148
71.345 19.702938
71.350 19.637707
71.355 19.605421
71.360 19.937809
71.365 19.761972
71.370 19.342581
71.375 19.050402
71.380 18.937197
71.385 18.897367
71.390 19.154215
71.395 18.797966
71.400 19.386177
71.405 19.664549
71.410 19.922869
71.415 20.36342
71.420 20.44701
71.425 20.6078
71.430 20.661963
71.435 19.774193
71.440 19.778803
71.445 18.965685
71.450 19.158804
71.455 19.170656
71.460 19.447086
71.465 19.340885
71.470 19.577223
71.475 19.563993
71.480 20.020384
71.485 20.183046
71.490 19.744404
71.495 19.373632
71.500 19.141199
71.505 18.761629
71.510 18.733444
71.515 18.639875
71.520 18.565023
71.525 18.446604
71.530 18.071165
71.535 18.199015
71.540 18.24017
71.545 18.077795
71.550 17.571783
71.555 17.240667
71.560 17.291164
71.565 17.214417
71.570 17.786386
71.575 17.74226
71.580 18.372913
71.585 18.963543
71.590 19.113132
71.595 19.683252
71.600 20.075691
71.605 20.275333
71.610 20.13789
71.615 19.552992
71.620 18.854794
71.625 18.842264
71.630 18.546619
71.635 18.540529
71.640 18.307262
71.645 18.40941
71.650 18.286779
71.655 18.212183
71.660 18.012466
71.665 17.912649
71.670 17.362516
71.675 16.723862
71.680 17.489161
71.685 17.912745
71.690 18.150509
71.695 18.594334
71.700 19.246899
71.705 19.285538
71.710 19.382044
71.715 19.343206
71.720 19.978672
71.725 20.176651
71.730 20.210711
71.735 20.19311
71.740 20.852587
71.745 20.865986
71.750 20.323883
71.755 19.4554
71.760 18.906143
71.765 18.661236
71.770 18.546368
71.775 19.287653
71.780 19.477932
71.785 19.498495
71.790 19.578117
71.795 19.672441
71.800 19.613201
71.805 19.108303
71.810 18.43708
71.815 17.806181
71.820 17.761015
71.825 17.643536
71.830 17.36636
71.835 17.458622
71.840 17.545326
71.845 18.349674
71.850 19.224678
71.855 19.881111
71.860 20.17964
71.865 20.498295
71.870 20.424559
71.875 21.069592
71.880 20.492567
71.885 20.068083
71.890 19.882507
71.895 19.821014
71.900 20.185028
71.905 20.343348
71.910 20.358753
71.915 20.464573
71.920 20.777332
71.925 21.261501
71.930 21.352375
71.935 21.080734
71.940 20.707226
71.945 20.489853
71.950 20.671711
71.955 19.897882
71.960 19.633892
71.965 19.307764
71.970 19.574917
71.975 19.57859
71.980 19.220341
71.985 19.638824
71.990 20.288469
71.995 20.247778
72.000 20.247612
72.005 20.100714
72.010 19.804893
72.015 19.764067
72.020 19.365549
72.025 18.85108
72.030 18.893196
72.035 18.983461
72.040 18.902679
72.045 19.178066
72.050 18.922369
72.055 19.107363
72.060 19.316591
72.065 19.286287
72.070 19.138988
72.075 19.000706
72.080 18.191135
72.085 18.823505
72.090 19.002625
72.095 19.080481
72.100 19.365513
72.105 19.845345
72.110 20.57881
72.115 20.68417
72.120 19.744282
72.125 19.428324
72.130 19.017643
72.135 18.889702
72.140 18.751534
72.145 18.283085
72.150 18.237045
72.155 18.559483
72.160 18.82159
72.165 18.664217
72.170 18.436331
72.175 18.404274
72.180 19.050539
72.185 19.124172
72.190 19.090315
72.195 19.471434
72.200 19.480917
72.205 19.67852
72.210 19.563431
72.215 19.360937
72.220 18.973198
72.225 18.980389
72.230 19.04376
72.235 19.518805
72.240 18.931652
72.245 18.968847
72.250 19.152874
72.255 19.529875
72.260 19.128433
72.265 18.540188
72.270 18.265774
72.275 18.62429
72.280 18.565279
72.285 18.971262
72.290 19.240707
72.295 19.030127
72.300 19.186184
72.305 19.120121
72.310 19.190977
72.315 18.830612
72.320 17.912981
72.325 18.059525
72.330 18.148861
72.335 18.478376
72.340 18.66128
72.345 18.84902
72.350 19.576431
72.355 19.841627
72.360 19.18395
72.365 18.953238
72.370 18.46118
72.375 18.385963
72.380 18.331575
72.385 17.935129
72.390 17.710884
72.395 18.366833
72.400 18.758659
72.405 18.895533
72.410 18.631088
72.415 18.403698
72.420 18.252785
72.425 18.308933
72.430 18.230185
72.435 18.175159
72.440 17.77326
72.445 18.042454
72.450 18.108633
72.455 18.944763
72.460 19.06052
72.465 18.685059
72.470 18.25528
72.475 17.971113
72.480 17.82946
72.485 17.84767
72.490 17.029509
72.495 17.052588
72.500 17.247768
72.505 17.558811
72.510 17.79656
72.515 17.792099
72.520 17.832224
72.525 18.452316
72.530 18.722368
72.535 18.727573
72.540 19.189009
72.545 19.445589
72.550 19.212959
72.555 19.307535
72.560 18.990965
72.565 18.773483
72.570 18.613043
72.575 18.677439
72.580 19.027231
72.585 19.544111
72.590 19.726749
72.595 19.828037
72.600 20.240131
72.605 20.181438
72.610 19.470469
72.615 19.084242
72.620 18.466307
72.625 18.076385
72.630 17.586491
72.635 16.514223
72.640 16.438004
72.645 16.328932
72.650 15.956574
72.655 15.804804
72.660 16.26292
72.665 16.173672
72.670 16.509937
72.675 16.159636
72.680 16.263279
72.685 16.407003
72.690 16.35183
72.695 16.718515
72.700 17.061226
72.705 17.084814
72.710 17.148418
72.715 16.881483
72.720 16.408262
72.725 15.985641
72.730 16.146755
72.735 16.10479
72.740 16.466913
72.745 16.954742
72.750 17.707815
72.755 18.902613
72.760 18.67849
72.765 18.755688
72.770 18.650509
72.775 19.174301
72.780 18.861378
72.785 18.118214
72.790 17.567392
72.795 17.164587
72.800 17.034323
72.805 16.7267
72.810 16.275148
72.815 16.612587
72.820 16.989981
72.825 17.05315
72.830 16.898092
72.835 17.302675
72.840 17.296335
72.845 16.444431
72.850 16.254372
72.855 16.216337
72.860 16.505543
72.865 16.449133
72.870 16.031536
72.875 16.21139
72.880 16.79417
72.885 16.497349
72.890 16.605383
72.895 17.113424
72.900 17.770092
72.905 17.96032
72.910 17.986879
72.915 17.570995
72.920 17.586088
72.925 17.069183
72.930 16.231096
72.935 15.997072
72.940 15.603853
72.945 15.706239
72.950 16.457722
72.955 16.550354
72.960 16.668026
72.965 16.592588
72.970 16.643036
72.975 16.642065
72.980 16.662716
72.985 16.505693
72.990 16.215158
72.995 15.72099
73.000 15.447431
