!@!!GADDS PLOTSO FILE: Chi integration type
!@!!Title/SampleName: map-7
!@!!Comment: ?
!@!!User: Bruker Instrument Administrator
!@!!Site: University of Illinois Chicago
!@!!Frame: map-7_01_000.gfrm
!@!!Wavelengths    1.54184   1.54056   1.54439
!@!!Frame angles: 2Theta: 63.000 Omega: 50.000 Phi: 0.000 Chi: 90.000
!@!!Integration range: 2Theta: 53.000 to 73.000  Gamma: -105.000 to -75.000
!@!!Integration method: bin normalized
!@!N
!@!SS
!@!M
!@!L 0.0 0.0 0.0 0.0
!@!XDegrees
!@!YCounts
53.000 7.783758
53.005 7.558546
53.010 7.44152
53.015 7.382913
53.020 7.722118
53.025 7.710559
53.030 7.496666
53.035 7.432342
53.040 7.731005
53.045 7.756932
53.050 7.3882
53.055 7.287492
53.060 7.42642
53.065 8.010503
53.070 8.267323
53.075 8.222372
53.080 8.432004
53.085 8.857446
53.090 8.719279
53.095 8.486835
53.100 8.327825
53.105 8.166694
53.110 8.247259
53.115 8.287096
53.120 7.865595
53.125 7.93099
53.130 8.204883
53.135 8.355643
53.140 8.770826
53.145 8.487112
53.150 8.602777
53.155 8.977798
53.160 8.702464
53.165 8.191521
53.170 8.009871
53.175 7.508285
53.180 7.489287
53.185 7.319174
53.190 7.129852
53.195 7.240092
53.200 7.196891
53.205 7.136133
53.210 7.232512
53.215 7.434203
53.220 7.640291
53.225 7.528376
53.230 8.038717
53.235 8.615752
53.240 8.957007
53.245 9.153344
53.250 9.247269
53.255 9.754191
53.260 10.058415
53.265 9.708324
53.270 9.190538
53.275 8.952502
53.280 8.814262
53.285 8.471138
53.290 8.16875
53.295 7.771162
53.300 8.054214
53.305 8.012243
53.310 8.0216
53.315 8.154502
53.320 8.444343
53.325 8.018926
53.330 7.896136
53.335 7.650753
53.340 7.898301
53.345 7.947955
53.350 7.93915
53.355 8.475896
53.360 9.302051
53.365 9.375554
53.370 9.272439
53.375 9.065169
53.380 9.011423
53.385 8.324984
53.390 7.862172
53.395 7.645726
53.400 7.610977
53.405 7.636625
53.410 7.817978
53.415 8.083969
53.420 8.19265
53.425 8.071661
53.430 7.998633
53.435 7.974016
53.440 7.963512
53.445 7.868383
53.450 7.897345
53.455 7.866329
53.460 7.707903
53.465 7.67945
53.470 7.872686
53.475 7.989832
53.480 7.815603
53.485 8.078389
53.490 8.16223
53.495 8.359939
53.500 8.368122
53.505 8.277757
53.510 8.106928
53.515 7.904382
53.520 7.575768
53.525 7.928664
53.530 7.73738
53.535 7.853016
53.540 8.22256
53.545 8.480706
53.550 8.735689
53.555 8.798434
53.560 8.533381
53.565 8.529366
53.570 8.313806
53.575 8.167126
53.580 8.47375
53.585 8.619232
53.590 9.215448
53.595 9.347178
53.600 9.369071
53.605 9.446046
53.610 9.315742
53.615 9.144365
53.620 9.038161
53.625 8.762443
53.630 9.011344
53.635 8.816734
53.640 8.715405
53.645 8.669573
53.650 8.448516
53.655 7.982044
53.660 7.539927
53.665 7.636683
53.670 8.09329
53.675 8.00572
53.680 8.219099
53.685 8.476714
53.690 8.785955
53.695 9.001788
53.700 9.243905
53.705 9.418327
53.710 9.667315
53.715 9.633146
53.720 9.653537
53.725 9.446793
53.730 9.308911
53.735 9.090479
53.740 8.969932
53.745 8.661014
53.750 8.963141
53.755 9.262564
53.760 9.633608
53.765 9.698644
53.770 9.690888
53.775 10.003866
53.780 10.448813
53.785 10.263909
53.790 10.217273
53.795 10.528996
53.800 11.025149
53.805 10.96292
53.810 10.525351
53.815 10.083454
53.820 10.217448
53.825 10.563486
53.830 9.785331
53.835 9.631813
53.840 9.720773
53.845 9.817547
53.850 9.926653
53.855 9.399552
53.860 9.063627
53.865 9.26663
53.870 9.195065
53.875 9.178915
53.880 9.354774
53.885 9.378288
53.890 9.593346
53.895 9.428135
53.900 9.005758
53.905 8.827468
53.910 8.5439
53.915 8.551034
53.920 8.563713
53.925 8.544121
53.930 8.938402
53.935 9.208648
53.940 9.314672
53.945 9.570656
53.950 9.60151
53.955 9.662062
53.960 9.679176
53.965 9.313254
53.970 8.934643
53.975 8.93335
53.980 8.598097
53.985 8.613585
53.990 8.816437
53.995 8.936803
54.000 9.404995
54.005 10.099813
54.010 10.383883
54.015 10.739336
54.020 10.508695
54.025 10.424756
54.030 10.314859
54.035 10.193646
54.040 9.516488
54.045 8.787131
54.050 8.686101
54.055 8.916127
54.060 8.908142
54.065 9.024923
54.070 9.016058
54.075 9.43682
54.080 9.753065
54.085 9.584328
54.090 9.077451
54.095 8.666603
54.100 7.99007
54.105 8.387516
54.110 8.991314
54.115 9.598019
54.120 9.516386
54.125 9.635296
54.130 10.313091
54.135 10.744732
54.140 10.107559
54.145 9.670926
54.150 9.52561
54.155 9.919043
54.160 9.805037
54.165 9.917964
54.170 10.115005
54.175 10.147718
54.180 10.280849
54.185 10.511863
54.190 10.669598
54.195 10.827922
54.200 10.26109
54.205 10.80939
54.210 11.210094
54.215 10.876412
54.220 10.543767
54.225 10.499505
54.230 10.532888
54.235 11.317005
54.240 11.070397
54.245 10.74253
54.250 10.518906
54.255 10.516589
54.260 10.687033
54.265 10.195994
54.270 9.981177
54.275 9.998393
54.280 10.233897
54.285 10.678281
54.290 10.606271
54.295 10.620163
54.300 10.673991
54.305 10.267354
54.310 10.667395
54.315 10.477505
54.320 10.486491
54.325 10.801628
54.330 11.053247
54.335 10.94888
54.340 10.72
54.345 10.357103
54.350 10.382623
54.355 10.412705
54.360 10.132821
54.365 9.966454
54.370 10.461761
54.375 10.421057
54.380 10.29431
54.385 9.872635
54.390 9.626163
54.395 9.419574
54.400 9.471843
54.405 8.393759
54.410 8.214781
54.415 8.10203
54.420 8.344546
54.425 8.334756
54.430 8.326366
54.435 8.465855
54.440 9.164231
54.445 9.326846
54.450 9.821947
54.455 9.388046
54.460 9.632773
54.465 9.169277
54.470 9.339846
54.475 9.499449
54.480 9.671422
54.485 9.480463
54.490 9.873175
54.495 9.569505
54.500 9.309544
54.505 9.070883
54.510 9.592702
54.515 10.002152
54.520 9.65168
54.525 9.677799
54.530 9.926209
54.535 10.427535
54.540 10.089105
54.545 9.32046
54.550 9.096465
54.555 9.582241
54.560 10.00833
54.565 10.004628
54.570 9.454265
54.575 9.622777
54.580 9.972211
54.585 10.349491
54.590 10.13293
54.595 9.952005
54.600 10.390175
54.605 10.555161
54.610 10.43339
54.615 10.442922
54.620 10.495502
54.625 10.459841
54.630 10.364487
54.635 10.324716
54.640 10.928883
54.645 11.198144
54.650 10.702445
54.655 10.046782
54.660 10.077339
54.665 9.957973
54.670 9.698698
54.675 9.356283
54.680 9.195127
54.685 9.591353
54.690 10.106327
54.695 10.136573
54.700 10.254189
54.705 10.368533
54.710 9.702369
54.715 9.972227
54.720 9.816103
54.725 9.763663
54.730 10.177494
54.735 10.315396
54.740 10.371256
54.745 10.60008
54.750 10.588726
54.755 10.492877
54.760 10.336721
54.765 10.134098
54.770 10.207281
54.775 10.100706
54.780 9.644589
54.785 9.443274
54.790 9.613017
54.795 9.422344
54.800 9.482072
54.805 9.424406
54.810 10.011896
54.815 10.569938
54.820 10.828075
54.825 11.131158
54.830 11.170826
54.835 11.095372
54.840 11.155075
54.845 10.976758
54.850 10.776315
54.855 10.278429
54.860 10.04455
54.865 10.230156
54.870 10.435062
54.875 11.103958
54.880 11.195962
54.885 11.113236
54.890 11.41396
54.895 11.105455
54.900 10.819383
54.905 10.527944
54.910 10.236034
54.915 10.783037
54.920 10.887258
54.925 10.864409
54.930 10.746064
54.935 10.921463
54.940 10.734832
54.945 10.119715
54.950 9.602715
54.955 9.805031
54.960 10.165412
54.965 10.2569
54.970 10.051296
54.975 10.187829
54.980 10.270159
54.985 10.486856
54.990 10.526031
54.995 10.093324
55.000 10.144029
55.005 10.011949
55.010 9.982468
55.015 9.877835
55.020 9.709501
55.025 9.682886
55.030 9.970304
55.035 10.064734
55.040 10.472121
55.045 10.700923
55.050 11.015365
55.055 11.073081
55.060 10.921846
55.065 11.207328
55.070 11.098185
55.075 11.129414
55.080 11.025352
55.085 11.100274
55.090 11.066729
55.095 11.232332
55.100 11.358666
55.105 11.756651
55.110 11.609892
55.115 11.430908
55.120 11.092089
55.125 11.595778
55.130 11.690619
55.135 11.431911
55.140 10.998967
55.145 10.739494
55.150 10.813725
55.155 10.628197
55.160 10.169613
55.165 9.749077
55.170 9.836654
55.175 10.208273
55.180 10.653192
55.185 10.667581
55.190 10.62792
55.195 10.921236
55.200 11.173956
55.205 11.169472
55.210 11.065041
55.215 11.001934
55.220 11.386979
55.225 11.196086
55.230 10.568696
55.235 10.60936
55.240 10.239461
55.245 10.272153
55.250 10.142941
55.255 9.66577
55.260 10.372768
55.265 10.715879
55.270 10.899976
55.275 10.833632
55.280 10.5004
55.285 10.462942
55.290 10.454517
55.295 10.302886
55.300 10.247888
55.305 10.388095
55.310 10.426878
55.315 10.439407
55.320 10.941798
55.325 11.436073
55.330 11.222141
55.335 11.106553
55.340 10.585844
55.345 10.513134
55.350 10.264301
55.355 9.9585
55.360 10.469152
55.365 11.230705
55.370 11.24924
55.375 11.37512
55.380 11.718914
55.385 12.56014
55.390 12.58183
55.395 11.898368
55.400 11.36511
55.405 11.199845
55.410 11.639586
55.415 11.732859
55.420 11.173378
55.425 10.809222
55.430 10.576566
55.435 10.469898
55.440 10.341785
55.445 10.347708
55.450 10.090208
55.455 9.805468
55.460 10.167811
55.465 10.425804
55.470 10.833075
55.475 10.885942
55.480 10.863339
55.485 11.150339
55.490 11.10705
55.495 11.022792
55.500 11.141748
55.505 11.246705
55.510 11.173951
55.515 11.010777
55.520 10.972274
55.525 11.09393
55.530 11.566864
55.535 11.604585
55.540 11.819499
55.545 11.844299
55.550 11.769636
55.555 11.786605
55.560 11.674472
55.565 11.126961
55.570 10.844436
55.575 10.874689
55.580 11.188313
55.585 11.324564
55.590 11.724144
55.595 11.708772
55.600 12.033009
55.605 12.317086
55.610 12.087676
55.615 11.893304
55.620 11.604516
55.625 11.763894
55.630 12.066533
55.635 11.624516
55.640 11.557014
55.645 11.694745
55.650 11.592233
55.655 11.55032
55.660 10.762566
55.665 10.92927
55.670 10.68697
55.675 10.765224
55.680 10.635499
55.685 10.815439
55.690 11.290307
55.695 11.850093
55.700 11.971526
55.705 12.283291
55.710 12.347301
55.715 12.091778
55.720 12.216434
55.725 11.982187
55.730 11.992699
55.735 11.772716
55.740 11.454626
55.745 11.108015
55.750 11.424006
55.755 11.009741
55.760 11.162651
55.765 11.747614
55.770 12.29082
55.775 12.400542
55.780 12.687607
55.785 12.990517
55.790 13.035342
55.795 13.046374
55.800 12.148706
55.805 11.608085
55.810 11.495031
55.815 11.329116
55.820 11.493222
55.825 11.567579
55.830 11.491873
55.835 11.451521
55.840 11.763126
55.845 12.195248
55.850 12.127505
55.855 12.060472
55.860 12.317667
55.865 12.672429
55.870 12.466856
55.875 12.401199
55.880 12.442122
55.885 12.431333
55.890 12.490981
55.895 12.270651
55.900 11.978915
55.905 12.221952
55.910 12.476654
55.915 12.326421
55.920 12.184391
55.925 11.987341
55.930 12.110613
55.935 11.93479
55.940 11.704782
55.945 11.527034
55.950 11.753909
55.955 11.864594
55.960 11.413331
55.965 11.377709
55.970 11.379784
55.975 11.399205
55.980 11.074245
55.985 10.632083
55.990 10.689406
55.995 10.969125
56.000 11.087335
56.005 11.175642
56.010 11.163591
56.015 11.299728
56.020 11.767687
56.025 11.590626
56.030 11.333887
56.035 10.870461
56.040 10.898389
56.045 10.957616
56.050 10.934077
56.055 11.099129
56.060 11.936625
56.065 12.243329
56.070 12.731552
56.075 12.788296
56.080 12.982557
56.085 13.089023
56.090 12.682984
56.095 11.96075
56.100 12.04357
56.105 11.490302
56.110 11.228292
56.115 10.965933
56.120 10.641093
56.125 10.72573
56.130 11.282544
56.135 11.621252
56.140 12.187947
56.145 12.278068
56.150 12.451978
56.155 12.269698
56.160 12.343627
56.165 11.980129
56.170 11.839152
56.175 12.222548
56.180 12.890519
56.185 12.940079
56.190 13.297749
56.195 13.119665
56.200 13.37314
56.205 13.083357
56.210 12.720984
56.215 12.632043
56.220 12.496397
56.225 12.877497
56.230 13.008033
56.235 12.982524
56.240 13.219895
56.245 13.265862
56.250 13.415974
56.255 13.512409
56.260 13.605808
56.265 13.524164
56.270 13.726722
56.275 13.603123
56.280 12.973884
56.285 13.258908
56.290 13.133532
56.295 12.695507
56.300 12.16358
56.305 12.421507
56.310 12.499113
56.315 12.190969
56.320 11.704542
56.325 12.151835
56.330 12.45384
56.335 12.218467
56.340 11.746783
56.345 12.194142
56.350 12.334555
56.355 12.047002
56.360 11.411176
56.365 11.406606
56.370 11.469538
56.375 11.273999
56.380 11.437195
56.385 11.641474
56.390 11.727911
56.395 11.716687
56.400 11.710923
56.405 11.874779
56.410 11.979734
56.415 12.217719
56.420 12.75818
56.425 12.940449
56.430 13.252772
56.435 13.517684
56.440 13.254182
56.445 13.056503
56.450 12.972501
56.455 12.473489
56.460 12.463965
56.465 12.551193
56.470 12.746882
56.475 13.023339
56.480 13.215009
56.485 12.768141
56.490 12.997879
56.495 13.086446
56.500 13.014208
56.505 13.132235
56.510 13.306878
56.515 12.718184
56.520 12.572928
56.525 11.963341
56.530 11.48784
56.535 11.544373
56.540 11.021989
56.545 10.726329
56.550 10.95094
56.555 11.211386
56.560 11.504355
56.565 11.746002
56.570 11.416372
56.575 11.652493
56.580 12.442642
56.585 12.719419
56.590 12.681907
56.595 12.757237
56.600 12.492946
56.605 12.648849
56.610 12.354733
56.615 11.628391
56.620 11.578988
56.625 12.651528
56.630 13.352068
56.635 13.607346
56.640 13.756141
56.645 13.822334
56.650 13.802724
56.655 13.327077
56.660 12.931789
56.665 12.455679
56.670 12.213169
56.675 12.013521
56.680 12.159789
56.685 12.522537
56.690 12.905404
56.695 12.770291
56.700 12.936463
56.705 12.962987
56.710 13.143059
56.715 13.091307
56.720 12.919404
56.725 12.999778
56.730 12.726486
56.735 12.284962
56.740 12.545063
56.745 12.26798
56.750 12.336989
56.755 12.541515
56.760 12.587461
56.765 12.498567
56.770 12.605126
56.775 12.987721
56.780 12.666986
56.785 12.51215
56.790 12.354585
56.795 11.987416
56.800 12.334187
56.805 12.561666
56.810 12.385217
56.815 13.124264
56.820 12.896499
56.825 12.821714
56.830 13.039535
56.835 13.347631
56.840 13.347834
56.845 12.867742
56.850 12.596771
56.855 12.710518
56.860 12.459426
56.865 12.127213
56.870 11.74369
56.875 11.398742
56.880 11.740038
56.885 11.99922
56.890 12.158355
56.895 12.326914
56.900 12.478459
56.905 12.845902
56.910 12.65279
56.915 12.762453
56.920 12.39765
56.925 12.465019
56.930 12.940113
56.935 12.765821
56.940 12.106785
56.945 12.133471
56.950 11.698989
56.955 11.606611
56.960 11.139085
56.965 10.605474
56.970 11.219468
56.975 12.207828
56.980 12.707193
56.985 12.743063
56.990 13.055628
56.995 13.370613
57.000 13.036718
57.005 12.196449
57.010 11.704622
57.015 11.48729
57.020 11.243902
57.025 10.912521
57.030 10.764161
57.035 11.08345
57.040 11.688988
57.045 12.183052
57.050 12.274679
57.055 12.625047
57.060 13.30147
57.065 14.020057
57.070 14.013682
57.075 13.832078
57.080 13.6427
57.085 13.654384
57.090 13.796404
57.095 13.295643
57.100 12.377134
57.105 12.333038
57.110 12.624722
57.115 12.770706
57.120 12.941804
57.125 12.663819
57.130 12.595717
57.135 13.07873
57.140 12.540365
57.145 11.911301
57.150 12.03951
57.155 12.417592
57.160 12.712414
57.165 12.790047
57.170 12.948423
57.175 13.057978
57.180 13.158304
57.185 13.219091
57.190 13.18325
57.195 13.766347
57.200 13.963847
57.205 14.042968
57.210 14.402867
57.215 14.378483
57.220 14.469902
57.225 14.391563
57.230 14.215357
57.235 13.897726
57.240 13.820388
57.245 13.607466
57.250 13.663136
57.255 13.146796
57.260 12.341713
57.265 12.162857
57.270 12.741423
57.275 12.945317
57.280 12.925118
57.285 12.602697
57.290 13.190866
57.295 13.786473
57.300 13.633259
57.305 13.329457
57.310 13.521357
57.315 13.783504
57.320 14.084951
57.325 13.646627
57.330 13.695596
57.335 13.912636
57.340 13.798057
57.345 13.660048
57.350 14.199654
57.355 13.887291
57.360 13.849251
57.365 13.780653
57.370 14.140205
57.375 14.297881
57.380 14.324258
57.385 13.718979
57.390 13.805787
57.395 13.87144
57.400 14.06605
57.405 13.858644
57.410 13.696894
57.415 13.79078
57.420 14.007351
57.425 13.56146
57.430 13.75898
57.435 13.524753
57.440 13.525917
57.445 13.337626
57.450 13.009027
57.455 12.68799
57.460 12.987746
57.465 13.264718
57.470 13.48727
57.475 13.436917
57.480 13.707512
57.485 13.879773
57.490 14.126791
57.495 14.280428
57.500 14.049644
57.505 13.833043
57.510 14.218948
57.515 14.013117
57.520 13.605961
57.525 13.701777
57.530 13.221447
57.535 13.052711
57.540 13.371466
57.545 13.318139
57.550 13.815961
57.555 14.541022
57.560 14.662026
57.565 14.958626
57.570 14.354516
57.575 13.710348
57.580 13.588812
57.585 13.279386
57.590 13.638357
57.595 13.834366
57.600 14.159119
57.605 14.403356
57.610 14.536702
57.615 14.858352
57.620 14.784595
57.625 14.307685
57.630 14.379973
57.635 13.991235
57.640 14.097633
57.645 13.779228
57.650 14.05596
57.655 14.535441
57.660 14.827607
57.665 15.03018
57.670 15.205429
57.675 15.280419
57.680 15.444871
57.685 14.852856
57.690 14.568915
57.695 13.883997
57.700 13.482013
57.705 13.197462
57.710 13.201799
57.715 12.994374
57.720 13.030454
57.725 13.226799
57.730 13.843767
57.735 13.589671
57.740 13.55682
57.745 13.366875
57.750 13.550499
57.755 13.509672
57.760 13.508742
57.765 13.92678
57.770 14.616849
57.775 15.222712
57.780 15.660622
57.785 15.83535
57.790 15.58111
57.795 14.925162
57.800 14.302756
57.805 14.00605
57.810 13.840279
57.815 13.703247
57.820 13.435738
57.825 13.947181
57.830 14.756986
57.835 14.996996
57.840 15.582388
57.845 15.219197
57.850 15.330056
57.855 15.053939
57.860 14.387665
57.865 13.580647
57.870 13.021476
57.875 12.673244
57.880 12.817658
57.885 12.995883
57.890 12.967185
57.895 13.299372
57.900 13.642257
57.905 13.428964
57.910 13.097018
57.915 12.702444
57.920 12.353457
57.925 12.677917
57.930 12.988534
57.935 13.298479
57.940 13.910183
57.945 14.098069
57.950 14.17985
57.955 14.12206
57.960 13.986695
57.965 13.813381
57.970 13.531529
57.975 13.246913
57.980 13.063475
57.985 13.434968
57.990 13.317839
57.995 13.479343
58.000 13.640516
58.005 13.088319
58.010 13.167063
58.015 13.579845
58.020 13.994271
58.025 14.621615
58.030 14.500128
58.035 14.488434
58.040 14.880914
58.045 15.166833
58.050 15.024133
58.055 14.874264
58.060 14.654382
58.065 14.695562
58.070 14.892445
58.075 15.390569
58.080 15.325597
58.085 14.81047
58.090 14.103127
58.095 13.58106
58.100 13.418574
58.105 13.284818
58.110 13.111951
58.115 12.906449
58.120 13.077787
58.125 13.228508
58.130 13.649757
58.135 13.29674
58.140 13.252962
58.145 13.22803
58.150 13.224298
58.155 13.68927
58.160 14.148128
58.165 14.18139
58.170 14.551437
58.175 14.480523
58.180 14.672017
58.185 14.815227
58.190 14.368334
58.195 13.898432
58.200 13.551179
58.205 12.997901
58.210 12.4427
58.215 12.257295
58.220 12.45087
58.225 12.572813
58.230 12.630919
58.235 12.883721
58.240 13.314411
58.245 13.748306
58.250 13.748884
58.255 13.763672
58.260 13.996555
58.265 14.327531
58.270 13.867433
58.275 13.715988
58.280 13.433631
58.285 13.296004
58.290 13.645087
58.295 13.687606
58.300 13.654027
58.305 14.018843
58.310 13.936022
58.315 13.645881
58.320 13.641635
58.325 13.346466
58.330 13.17504
58.335 12.525223
58.340 12.885104
58.345 13.77316
58.350 13.802947
58.355 13.544446
58.360 13.434086
58.365 13.666731
58.370 14.108009
58.375 13.678393
58.380 13.117166
58.385 13.298221
58.390 13.657511
58.395 13.452587
58.400 13.102603
58.405 13.035383
58.410 12.978945
58.415 12.829122
58.420 12.747922
58.425 12.541152
58.430 13.096065
58.435 13.322829
58.440 13.335906
58.445 13.496854
58.450 13.580435
58.455 13.76906
58.460 13.825751
58.465 13.307952
58.470 13.872602
58.475 13.885408
58.480 13.822174
58.485 14.209185
58.490 14.214207
58.495 14.675241
58.500 14.771748
58.505 14.542253
58.510 14.544377
58.515 14.593989
58.520 14.50233
58.525 14.817274
58.530 14.648218
58.535 14.48228
58.540 14.594002
58.545 14.752168
58.550 14.919943
58.555 14.284575
58.560 13.73563
58.565 14.006475
58.570 14.751656
58.575 15.084888
58.580 14.863164
58.585 14.771035
58.590 15.308024
58.595 15.355561
58.600 15.271618
58.605 14.860002
58.610 14.536798
58.615 14.588593
58.620 14.510932
58.625 14.643797
58.630 14.965294
58.635 14.68819
58.640 14.905734
58.645 15.003735
58.650 14.906557
58.655 14.911909
58.660 14.924753
58.665 14.515133
58.670 14.662414
58.675 14.741474
58.680 15.214864
58.685 15.633932
58.690 15.561345
58.695 15.542573
58.700 15.488329
58.705 14.865943
58.710 13.975161
58.715 13.231627
58.720 13.121202
58.725 13.290236
58.730 14.178205
58.735 15.012362
58.740 15.738043
58.745 16.055166
58.750 16.021042
58.755 15.760197
58.760 15.678438
58.765 14.852139
58.770 14.722336
58.775 14.324735
58.780 14.134443
58.785 14.809046
58.790 15.200593
58.795 15.240995
58.800 15.306754
58.805 15.177963
58.810 15.183635
58.815 14.974436
58.820 14.781164
58.825 14.676373
58.830 14.669162
58.835 13.980968
58.840 13.867281
58.845 13.963309
58.850 13.628114
58.855 13.626507
58.860 13.327959
58.865 13.484537
58.870 14.264629
58.875 14.187248
58.880 14.839252
58.885 15.276292
58.890 15.398989
58.895 15.816245
58.900 15.94665
58.905 15.504601
58.910 14.987939
58.915 14.138275
58.920 13.988223
58.925 13.866873
58.930 13.613232
58.935 13.10349
58.940 13.319449
58.945 14.104375
58.950 14.416892
58.955 14.53496
58.960 14.408929
58.965 14.734458
58.970 15.369284
58.975 15.658156
58.980 15.553243
58.985 15.617047
58.990 15.763585
58.995 15.948328
59.000 15.5248
59.005 15.280736
59.010 15.321304
59.015 15.587721
59.020 16.120712
59.025 16.217428
59.030 16.113052
59.035 16.577106
59.040 16.749115
59.045 16.986025
59.050 16.90695
59.055 16.760582
59.060 16.511139
59.065 16.632475
59.070 16.345083
59.075 16.840302
59.080 17.111944
59.085 17.179268
59.090 17.317568
59.095 17.024187
59.100 17.500994
59.105 17.710995
59.110 16.818913
59.115 16.236694
59.120 16.319103
59.125 16.704674
59.130 17.149363
59.135 16.303675
59.140 15.884535
59.145 15.739646
59.150 15.574729
59.155 15.293726
59.160 14.875901
59.165 14.855789
59.170 15.111875
59.175 15.084015
59.180 15.809428
59.185 16.421179
59.190 16.265476
59.195 16.352844
59.200 16.689877
59.205 16.775003
59.210 17.119623
59.215 16.8908
59.220 16.591013
59.225 16.713224
59.230 16.378643
59.235 16.431902
59.240 16.624809
59.245 16.57778
59.250 16.463514
59.255 16.281878
59.260 16.57056
59.265 16.055521
59.270 15.782756
59.275 15.581919
59.280 15.619102
59.285 14.800745
59.290 14.714719
59.295 14.426323
59.300 15.056567
59.305 15.075107
59.310 15.226621
59.315 15.19616
59.320 16.270718
59.325 16.559929
59.330 16.58712
59.335 15.971843
59.340 15.735756
59.345 15.52632
59.350 15.558516
59.355 15.630596
59.360 15.322319
59.365 15.373345
59.370 15.256173
59.375 15.571344
59.380 15.690764
59.385 15.603978
59.390 15.335055
59.395 15.79617
59.400 16.131025
59.405 16.429075
59.410 16.513765
59.415 16.954054
59.420 17.437483
59.425 17.081865
59.430 17.505833
59.435 17.522724
59.440 17.474979
59.445 17.197676
59.450 16.712132
59.455 16.464302
59.460 17.068253
59.465 16.556606
59.470 16.948009
59.475 17.12752
59.480 17.096066
59.485 17.346691
59.490 17.428663
59.495 17.710505
59.500 17.346573
59.505 17.004974
59.510 17.107971
59.515 16.801033
59.520 16.772738
59.525 16.573925
59.530 15.837636
59.535 15.935845
59.540 15.435566
59.545 15.661785
59.550 16.145662
59.555 16.082932
59.560 15.740899
59.565 15.863018
59.570 15.600049
59.575 15.759939
59.580 15.481887
59.585 15.213662
59.590 14.867695
59.595 15.347996
59.600 15.357585
59.605 15.984161
59.610 16.584545
59.615 17.218052
59.620 17.391575
59.625 17.995756
59.630 18.519232
59.635 18.872206
59.640 18.833969
59.645 18.421715
59.650 18.424002
59.655 18.503014
59.660 18.155775
59.665 18.079803
59.670 18.054461
59.675 18.195145
59.680 18.138626
59.685 17.773504
59.690 17.701252
59.695 17.791386
59.700 17.705868
59.705 17.929304
59.710 17.833471
59.715 17.962097
59.720 18.205015
59.725 18.904015
59.730 18.643833
59.735 18.268808
59.740 18.188442
59.745 18.100517
59.750 17.948772
59.755 17.566956
59.760 17.192202
59.765 17.344225
59.770 17.171602
59.775 16.36364
59.780 16.167036
59.785 16.199806
59.790 16.537199
59.795 16.315777
59.800 15.945653
59.805 16.246426
59.810 16.630278
59.815 17.171362
59.820 17.526592
59.825 16.984505
59.830 16.925234
59.835 17.352341
59.840 17.545145
59.845 18.068611
59.850 18.07658
59.855 17.902348
59.860 18.438011
59.865 18.688025
59.870 17.91205
59.875 17.474625
59.880 16.822243
59.885 16.442041
59.890 16.377512
59.895 16.166552
59.900 15.894719
59.905 16.191521
59.910 16.778139
59.915 17.060627
59.920 17.221697
59.925 17.681341
59.930 18.15543
59.935 18.558697
59.940 18.940144
59.945 18.836075
59.950 18.944118
59.955 19.346878
59.960 19.168705
59.965 19.273041
59.970 19.397993
59.975 19.684582
59.980 19.919527
59.985 20.262543
59.990 20.245913
59.995 20.155804
60.000 19.980715
60.005 19.74637
60.010 19.634415
60.015 19.682608
60.020 19.372738
60.025 19.255432
60.030 18.964418
60.035 19.166082
60.040 19.235403
60.045 19.297659
60.050 19.550222
60.055 19.337622
60.060 19.268925
60.065 19.403315
60.070 19.488081
60.075 19.96085
60.080 20.182615
60.085 19.634384
60.090 19.683323
60.095 19.992342
60.100 20.037199
60.105 20.068399
60.110 19.656652
60.115 19.589664
60.120 20.793741
60.125 21.361555
60.130 21.708103
60.135 21.975189
60.140 21.889872
60.145 22.350136
60.150 22.353113
60.155 21.534729
60.160 21.410902
60.165 21.205532
60.170 21.1917
60.175 21.241529
60.180 21.03672
60.185 21.051563
60.190 21.217205
60.195 20.803318
60.200 20.995121
60.205 21.403234
60.210 21.157856
60.215 21.432377
60.220 21.535561
60.225 21.61459
60.230 21.642712
60.235 21.750448
60.240 22.066496
60.245 22.294271
60.250 21.808279
60.255 21.421547
60.260 21.268143
60.265 21.44626
60.270 20.56048
60.275 19.629454
60.280 19.375282
60.285 18.958965
60.290 18.747402
60.295 18.554556
60.300 17.913061
60.305 17.958279
60.310 18.076666
60.315 18.206718
60.320 18.760771
60.325 19.404297
60.330 20.616844
60.335 21.831688
60.340 21.941599
60.345 22.180716
60.350 22.365353
60.355 22.516487
60.360 22.400803
60.365 21.321747
60.370 20.726175
60.375 20.814211
60.380 21.27533
60.385 21.310896
60.390 21.04426
60.395 21.187519
60.400 20.540567
60.405 20.992729
60.410 21.481552
60.415 20.6651
60.420 20.692564
60.425 20.564081
60.430 20.70693
60.435 20.956833
60.440 20.748817
60.445 20.481613
60.450 21.028021
60.455 20.901665
60.460 20.658197
60.465 20.321434
60.470 21.089785
60.475 20.84256
60.480 20.544626
60.485 20.317839
60.490 20.002438
60.495 20.448816
60.500 20.523991
60.505 21.013252
60.510 21.188166
60.515 21.348217
60.520 21.024105
60.525 20.96171
60.530 20.544352
60.535 19.663326
60.540 19.114546
60.545 19.133556
60.550 18.610689
60.555 18.98638
60.560 19.48551
60.565 19.791325
60.570 20.370266
60.575 20.795485
60.580 20.983099
60.585 21.019716
60.590 20.832939
60.595 20.584831
60.600 19.882059
60.605 19.518797
60.610 18.870481
60.615 18.668518
60.620 18.82353
60.625 18.780499
60.630 18.765026
60.635 19.288399
60.640 19.497131
60.645 19.532125
60.650 19.825411
60.655 19.913721
60.660 20.231852
60.665 20.189827
60.670 20.489395
60.675 20.25086
60.680 19.588068
60.685 19.016172
60.690 18.613344
60.695 17.672003
60.700 17.138742
60.705 16.728952
60.710 17.091631
60.715 17.487768
60.720 17.550735
60.725 17.469803
60.730 18.505442
60.735 18.750977
60.740 18.494011
60.745 18.073895
60.750 18.053988
60.755 18.523205
60.760 18.564562
60.765 18.0744
60.770 18.128511
60.775 17.942396
60.780 17.814905
60.785 17.910706
60.790 17.592609
60.795 17.418617
60.800 17.024736
60.805 17.19392
60.810 17.406431
60.815 17.371998
60.820 17.091482
60.825 17.166508
60.830 17.479769
60.835 17.719244
60.840 17.638779
60.845 18.044821
60.850 17.848927
60.855 17.899628
60.860 18.146404
60.865 18.0739
60.870 17.940157
60.875 17.451307
60.880 16.561069
60.885 16.3237
60.890 16.573858
60.895 16.357021
60.900 17.068542
60.905 17.661579
60.910 18.405901
60.915 19.052422
60.920 19.161869
60.925 19.001629
60.930 18.511955
60.935 18.061447
60.940 17.738056
60.945 17.643415
60.950 17.400116
60.955 17.04092
60.960 16.917505
60.965 17.679489
60.970 17.726315
60.975 17.74608
60.980 17.175871
60.985 17.975206
60.990 18.644825
60.995 18.729713
61.000 18.181904
61.005 17.89946
61.010 17.460508
61.015 17.560028
61.020 16.99028
61.025 16.245874
61.030 15.833138
61.035 15.440227
61.040 15.027222
61.045 15.109301
61.050 15.691396
61.055 15.742757
61.060 16.50234
61.065 16.793684
61.070 16.959909
61.075 17.322004
61.080 17.34277
61.085 16.937321
61.090 16.679777
61.095 16.072573
61.100 15.974998
61.105 15.850841
61.110 16.346842
61.115 16.870546
61.120 16.956913
61.125 16.859623
61.130 17.232393
61.135 17.408817
61.140 17.870564
61.145 17.205254
61.150 17.106846
61.155 16.932264
61.160 17.090908
61.165 16.458921
61.170 16.422012
61.175 16.146011
61.180 16.287579
61.185 15.992015
61.190 16.206419
61.195 17.056864
61.200 18.020006
61.205 18.69861
61.210 19.153673
61.215 19.235075
61.220 19.531624
61.225 19.335201
61.230 18.791674
61.235 18.870949
61.240 18.089029
61.245 17.986689
61.250 18.287882
61.255 17.974211
61.260 18.494339
61.265 18.681114
61.270 18.09408
61.275 17.970604
61.280 17.355816
61.285 17.261995
61.290 17.219189
61.295 16.765776
61.300 16.504986
61.305 16.717463
61.310 16.923037
61.315 17.303513
61.320 17.616943
61.325 17.883131
61.330 18.36651
61.335 18.582825
61.340 18.543095
61.345 18.466387
61.350 18.158148
61.355 17.392069
61.360 17.298134
61.365 17.148781
61.370 16.705496
61.375 16.830681
61.380 16.750177
61.385 16.952425
61.390 17.525379
61.395 17.113609
61.400 17.354065
61.405 17.835772
61.410 17.87785
61.415 17.898043
61.420 17.588228
61.425 17.233059
61.430 17.219276
61.435 17.103773
61.440 16.658188
61.445 16.767284
61.450 17.306276
61.455 17.762108
61.460 17.359108
61.465 16.964392
61.470 16.596529
61.475 16.827642
61.480 16.823711
61.485 16.77931
61.490 16.805006
61.495 17.20179
61.500 17.076641
61.505 17.212648
61.510 17.192179
61.515 16.750586
61.520 16.47514
61.525 16.535578
61.530 16.482597
61.535 16.443846
61.540 16.342394
61.545 16.814598
61.550 17.176245
61.555 17.6633
61.560 17.909365
61.565 18.429913
61.570 19.01716
61.575 19.263607
61.580 18.932247
61.585 18.378958
61.590 17.968843
61.595 17.552088
61.600 17.522259
61.605 17.811462
61.610 17.756453
61.615 17.810076
61.620 17.868107
61.625 17.877678
61.630 18.02688
61.635 17.461315
61.640 17.004856
61.645 17.5313
61.650 17.294106
61.655 16.81963
61.660 16.703917
61.665 16.732464
61.670 16.911526
61.675 16.928329
61.680 16.486683
61.685 16.220098
61.690 16.990425
61.695 17.050652
61.700 17.456942
61.705 17.880472
61.710 17.735144
61.715 18.0329
61.720 17.933638
61.725 17.382345
61.730 16.961676
61.735 16.486006
61.740 15.828355
61.745 16.063026
61.750 15.676811
61.755 16.318672
61.760 16.824049
61.765 17.475157
61.770 17.485493
61.775 18.000736
61.780 17.543638
61.785 17.339445
61.790 17.248362
61.795 16.756083
61.800 16.27149
61.805 16.721582
61.810 16.729553
61.815 16.814116
61.820 16.891834
61.825 17.212713
61.830 17.347065
61.835 17.809971
61.840 17.627998
61.845 17.558552
61.850 17.433287
61.855 17.661304
61.860 17.593384
61.865 17.134731
61.870 16.540123
61.875 16.521641
61.880 16.794224
61.885 17.326385
61.890 17.490887
61.895 17.1334
61.900 17.922174
61.905 18.080681
61.910 18.041946
61.915 17.82522
61.920 17.526741
61.925 17.465759
61.930 17.797857
61.935 17.606318
61.940 17.529165
61.945 17.541651
61.950 17.222855
61.955 16.497433
61.960 15.600009
61.965 15.199924
61.970 15.158208
61.975 15.076574
61.980 15.366797
61.985 15.514365
61.990 16.082382
61.995 16.060884
62.000 16.028509
62.005 15.886934
62.010 16.130838
62.015 15.895331
62.020 15.502583
62.025 15.597081
62.030 16.169706
62.035 16.895885
62.040 16.849438
62.045 16.453907
62.050 16.346825
62.055 16.531239
62.060 16.55549
62.065 16.305775
62.070 16.10186
62.075 16.274385
62.080 16.410542
62.085 16.755928
62.090 17.04826
62.095 17.379913
62.100 17.29969
62.105 16.283941
62.110 15.634358
62.115 15.587291
62.120 15.793305
62.125 15.760384
62.130 15.496656
62.135 15.796338
62.140 16.226217
62.145 16.714245
62.150 16.941172
62.155 16.882475
62.160 17.280113
62.165 18.057505
62.170 18.733025
62.175 18.930248
62.180 19.355415
62.185 19.322096
62.190 18.779169
62.195 17.740299
62.200 17.081442
62.205 16.316822
62.210 16.416842
62.215 16.16947
62.220 16.113901
62.225 16.468384
62.230 17.193626
62.235 17.259043
62.240 17.537649
62.245 17.724531
62.250 17.504587
62.255 17.531115
62.260 17.494894
62.265 17.24494
62.270 17.139107
62.275 17.448963
62.280 17.298424
62.285 17.460958
62.290 17.336212
62.295 17.357487
62.300 17.572645
62.305 17.363245
62.310 16.508308
62.315 16.506733
62.320 16.36805
62.325 16.645643
62.330 16.558065
62.335 16.292372
62.340 16.60396
62.345 17.2661
62.350 17.021166
62.355 16.753195
62.360 16.726046
62.365 16.484186
62.370 16.53734
62.375 16.362659
62.380 16.111172
62.385 16.443554
62.390 16.496655
62.395 15.948537
62.400 15.960453
62.405 15.823011
62.410 16.540142
62.415 17.265654
62.420 17.21575
62.425 17.441628
62.430 17.6026
62.435 17.681078
62.440 17.737703
62.445 17.00705
62.450 16.592531
62.455 16.388941
62.460 16.419037
62.465 17.022072
62.470 17.135578
62.475 17.180386
62.480 17.324358
62.485 17.010881
62.490 17.4716
62.495 17.505573
62.500 17.142487
62.505 17.229862
62.510 17.006647
62.515 16.902273
62.520 16.923794
62.525 16.277929
62.530 16.270773
62.535 16.13735
62.540 15.654344
62.545 15.350733
62.550 15.357293
62.555 16.131916
62.560 16.690924
62.565 16.705557
62.570 17.094936
62.575 17.639069
62.580 17.449413
62.585 17.596632
62.590 16.529518
62.595 16.280203
62.600 15.903586
62.605 15.510035
62.610 15.070858
62.615 15.297457
62.620 15.52121
62.625 15.400249
62.630 15.584937
62.635 16.131016
62.640 16.550564
62.645 16.991703
62.650 16.950481
62.655 16.587797
62.660 16.91139
62.665 16.571957
62.670 16.030207
62.675 15.842704
62.680 15.853112
62.685 16.05855
62.690 16.453541
62.695 16.867685
62.700 16.97801
62.705 16.875998
62.710 16.977419
62.715 16.732738
62.720 16.228071
62.725 15.679357
62.730 15.429122
62.735 15.64353
62.740 15.881602
62.745 15.754392
62.750 15.855985
62.755 15.951948
62.760 15.893204
62.765 16.421616
62.770 16.410534
62.775 16.458487
62.780 16.799187
62.785 16.920544
62.790 17.570171
62.795 18.268597
62.800 18.06455
62.805 18.536306
62.810 18.288364
62.815 18.066788
62.820 18.323721
62.825 18.17396
62.830 18.344404
62.835 18.46069
62.840 18.131937
62.845 18.390957
62.850 18.473574
62.855 18.051723
62.860 17.947294
62.865 16.925283
62.870 16.973974
62.875 16.934147
62.880 17.464104
62.885 17.369909
62.890 17.23892
62.895 16.662416
62.900 16.644037
62.905 16.347542
62.910 15.956529
62.915 15.65204
62.920 16.036097
62.925 17.111893
62.930 17.543205
62.935 17.883074
62.940 18.524948
62.945 18.783051
62.950 18.623016
62.955 18.408102
62.960 17.685871
62.965 17.517315
62.970 17.434027
62.975 17.18092
62.980 17.126072
62.985 16.690529
62.990 16.685753
62.995 16.744684
63.000 16.857151
63.005 17.378202
63.010 17.282364
63.015 17.081179
63.020 17.273741
63.025 17.214724
63.030 17.732513
63.035 18.153072
63.040 17.534752
63.045 17.315472
63.050 17.947861
63.055 17.962044
63.060 17.920826
63.065 17.580971
63.070 17.500259
63.075 17.499857
63.080 17.953959
63.085 17.318176
63.090 17.195971
63.095 17.077229
63.100 16.719339
63.105 16.618618
63.110 17.104483
63.115 16.7421
63.120 16.860958
63.125 17.323343
63.130 17.802675
63.135 17.781765
63.140 17.44071
63.145 16.668489
63.150 16.715366
63.155 17.714914
63.160 17.056179
63.165 16.557753
63.170 16.830748
63.175 17.225637
63.180 17.688408
63.185 18.068342
63.190 17.694613
63.195 18.037212
63.200 18.496651
63.205 18.0711
63.210 17.641563
63.215 16.938227
63.220 16.532143
63.225 16.678925
63.230 16.822182
63.235 16.640446
63.240 16.409227
63.245 17.19717
63.250 17.435652
63.255 17.22826
63.260 16.912294
63.265 16.678753
63.270 16.602465
63.275 16.773338
63.280 16.445175
63.285 16.914549
63.290 17.083826
63.295 17.197903
63.300 17.395678
63.305 17.669847
63.310 18.168646
63.315 18.181032
63.320 17.976578
63.325 18.000607
63.330 17.796824
63.335 17.455366
63.340 17.473976
63.345 17.276819
63.350 17.059809
63.355 16.714828
63.360 16.755785
63.365 16.704573
63.370 16.89455
63.375 16.742369
63.380 17.033981
63.385 17.175869
63.390 17.431822
63.395 16.99942
63.400 17.224203
63.405 17.292896
63.410 17.649763
63.415 17.405588
63.420 17.566841
63.425 18.025217
63.430 18.550898
63.435 18.436558
63.440 18.558165
63.445 18.421228
63.450 18.481215
63.455 18.154459
63.460 17.871552
63.465 17.648455
63.470 18.093544
63.475 17.924574
63.480 17.648149
63.485 17.440348
63.490 17.719944
63.495 18.122101
63.500 18.229965
63.505 17.747366
63.510 18.239437
63.515 18.709724
63.520 18.32962
63.525 17.732904
63.530 17.208822
63.535 17.073023
63.540 17.08717
63.545 16.208385
63.550 15.900851
63.555 16.05447
63.560 16.004904
63.565 15.934634
63.570 15.734529
63.575 16.207268
63.580 16.674332
63.585 16.816525
63.590 16.666666
63.595 16.653561
63.600 16.793983
63.605 16.838173
63.610 16.347628
63.615 15.839869
63.620 15.888631
63.625 16.086102
63.630 16.771915
63.635 16.773876
63.640 16.569353
63.645 16.570831
63.650 16.437843
63.655 16.271162
63.660 16.531034
63.665 16.348488
63.670 16.633038
63.675 16.753914
63.680 16.992355
63.685 17.804125
63.690 18.605606
63.695 18.802755
63.700 18.690792
63.705 18.754009
63.710 19.305361
63.715 19.289505
63.720 19.409069
63.725 18.914957
63.730 18.296131
63.735 18.634338
63.740 18.885666
63.745 18.896431
63.750 18.790777
63.755 18.627443
63.760 18.541389
63.765 18.82279
63.770 18.204208
63.775 17.51424
63.780 16.996647
63.785 16.543974
63.790 16.208347
63.795 16.404984
63.800 16.539959
63.805 16.597534
63.810 17.132896
63.815 17.603243
63.820 17.469334
63.825 17.112642
63.830 16.619165
63.835 16.384882
63.840 16.780554
63.845 16.85458
63.850 17.015562
63.855 17.592491
63.860 17.961756
63.865 18.07642
63.870 17.894442
63.875 17.440947
63.880 17.320799
63.885 17.073658
63.890 16.724621
63.895 16.580803
63.900 16.971453
63.905 17.25621
63.910 17.789715
63.915 17.576057
63.920 17.765007
63.925 17.936954
63.930 17.535364
63.935 17.545319
63.940 17.486549
63.945 17.250212
63.950 17.092377
63.955 16.80863
63.960 17.3153
63.965 17.852745
63.970 17.476913
63.975 17.201618
63.980 16.932882
63.985 17.459721
63.990 17.643986
63.995 17.67885
64.000 17.792202
64.005 18.487949
64.010 18.774576
64.015 19.061737
64.020 19.269102
64.025 19.508087
64.030 19.275141
64.035 19.129234
64.040 18.714178
64.045 18.641273
64.050 18.665052
64.055 18.075708
64.060 17.103685
64.065 17.323362
64.070 17.976673
64.075 18.429649
64.080 18.61735
64.085 18.000944
64.090 17.988321
64.095 18.690914
64.100 18.629667
64.105 17.86455
64.110 17.393869
64.115 17.161421
64.120 17.543842
64.125 17.748339
64.130 17.521881
64.135 17.21364
64.140 16.844587
64.145 16.966488
64.150 16.630527
64.155 16.343117
64.160 16.88238
64.165 17.260826
64.170 17.568481
64.175 17.739187
64.180 17.5842
64.185 17.782129
64.190 18.0198
64.195 17.870792
64.200 17.566574
64.205 17.241663
64.210 17.902311
64.215 17.921637
64.220 18.180187
64.225 18.493177
64.230 18.370556
64.235 18.245396
64.240 18.251661
64.245 18.214508
64.250 18.324097
64.255 18.458406
64.260 18.318556
64.265 18.118191
64.270 18.048149
64.275 17.682482
64.280 18.202379
64.285 19.017595
64.290 19.543983
64.295 19.45153
64.300 19.429281
64.305 20.379147
64.310 20.496387
64.315 19.842031
64.320 19.743826
64.325 19.347706
64.330 19.495186
64.335 19.57164
64.340 19.227182
64.345 19.517979
64.350 19.642614
64.355 18.690844
64.360 18.059742
64.365 17.637524
64.370 17.800055
64.375 17.835741
64.380 17.88382
64.385 17.870314
64.390 18.13051
64.395 18.398108
64.400 18.03928
64.405 18.193754
64.410 18.267473
64.415 17.962042
64.420 18.168365
64.425 18.353317
64.430 18.067724
64.435 18.350863
64.440 18.578274
64.445 18.391844
64.450 18.642025
64.455 18.960022
64.460 18.990143
64.465 19.546572
64.470 19.894079
64.475 19.354847
64.480 19.443096
64.485 19.143297
64.490 18.707291
64.495 18.918602
64.500 19.236734
64.505 18.681236
64.510 17.794949
64.515 17.692421
64.520 17.418846
64.525 17.579306
64.530 17.511822
64.535 16.908127
64.540 17.468252
64.545 17.835443
64.550 17.925392
64.555 18.568184
64.560 18.137772
64.565 18.413948
64.570 18.527285
64.575 18.529633
64.580 19.230795
64.585 18.978382
64.590 18.802584
64.595 18.634266
64.600 18.344801
64.605 17.851934
64.610 17.215815
64.615 16.956833
64.620 17.301891
64.625 17.232374
64.630 17.403603
64.635 17.569611
64.640 18.305597
64.645 18.998442
64.650 19.011028
64.655 18.485598
64.660 18.302006
64.665 18.372885
64.670 18.432899
64.675 18.002222
64.680 17.68008
64.685 17.701258
64.690 18.103765
64.695 18.080002
64.700 17.846951
64.705 17.289534
64.710 17.831919
64.715 18.351088
64.720 18.448763
64.725 18.419991
64.730 18.452024
64.735 18.711779
64.740 19.422832
64.745 19.165071
64.750 18.941471
64.755 18.729734
64.760 18.720404
64.765 19.171463
64.770 19.354485
64.775 19.109217
64.780 18.959444
64.785 18.498672
64.790 18.600309
64.795 18.534439
64.800 18.155392
64.805 18.259548
64.810 18.396811
64.815 18.569843
64.820 18.99708
64.825 18.846212
64.830 18.868917
64.835 18.524967
64.840 18.2764
64.845 18.211718
64.850 18.594307
64.855 18.439907
64.860 18.777004
64.865 18.807264
64.870 19.073671
64.875 18.840002
64.880 18.741819
64.885 18.314507
64.890 18.25371
64.895 18.085655
64.900 17.844461
64.905 17.788465
64.910 17.639109
64.915 17.447443
64.920 17.314228
64.925 17.334658
64.930 17.36606
64.935 17.517544
64.940 17.867008
64.945 18.322651
64.950 18.926956
64.955 18.929352
64.960 19.404905
64.965 19.6535
64.970 19.901804
64.975 20.473022
64.980 20.641596
64.985 20.213032
64.990 20.459938
64.995 19.99106
65.000 19.339977
65.005 19.916838
65.010 19.87739
65.015 19.991312
65.020 20.866148
65.025 21.229683
65.030 21.737879
65.035 22.466604
65.040 21.902481
65.045 21.747414
65.050 22.074991
65.055 21.941599
65.060 22.017166
65.065 22.418932
65.070 22.569231
65.075 22.304108
65.080 22.192394
65.085 21.980726
65.090 21.698193
65.095 21.199497
65.100 20.911436
65.105 20.512283
65.110 20.443253
65.115 20.944023
65.120 21.567451
65.125 21.897985
65.130 22.563658
65.135 22.575632
65.140 22.96665
65.145 23.15064
65.150 22.829529
65.155 22.173752
65.160 22.234119
65.165 22.561525
65.170 22.833332
65.175 22.704493
65.180 22.389336
65.185 21.89213
65.190 21.720917
65.195 21.096775
65.200 19.911737
65.205 19.57468
65.210 20.331091
65.215 21.316254
65.220 21.871737
65.225 22.074301
65.230 22.38842
65.235 22.862673
65.240 22.57975
65.245 21.591894
65.250 21.129435
65.255 20.937674
65.260 20.85438
65.265 21.277246
65.270 21.245913
65.275 21.822704
65.280 22.650482
65.285 22.799646
65.290 22.928928
65.295 23.035131
65.300 22.339325
65.305 22.109035
65.310 21.544645
65.315 20.84223
65.320 20.509014
65.325 20.054346
65.330 20.339466
65.335 20.720781
65.340 21.390131
65.345 21.699051
65.350 22.060087
65.355 22.255009
65.360 22.74366
65.365 22.557674
65.370 22.995203
65.375 22.75037
65.380 22.8312
65.385 22.042564
65.390 22.083183
65.395 21.784651
65.400 21.914061
65.405 21.66461
65.410 21.652933
65.415 21.677322
65.420 21.980135
65.425 21.963673
65.430 21.699686
65.435 21.436588
65.440 22.279158
65.445 22.617767
65.450 23.117275
65.455 23.879553
65.460 24.309166
65.465 24.811731
65.470 25.130795
65.475 24.847668
65.480 25.465925
65.485 25.44029
65.490 25.327971
65.495 26.280476
65.500 27.257803
65.505 27.426376
65.510 27.038483
65.515 26.739733
65.520 26.302481
65.525 26.425867
65.530 25.855392
65.535 25.460789
65.540 25.928329
65.545 26.891375
65.550 26.872
65.555 27.248987
65.560 26.923611
65.565 27.416288
65.570 27.936373
65.575 27.835991
65.580 28.243526
65.585 28.792627
65.590 29.074177
65.595 29.298986
65.600 28.780046
65.605 28.743378
65.610 29.49069
65.615 30.222609
65.620 31.15971
65.625 31.878353
65.630 32.731907
65.635 33.457794
65.640 33.371593
65.645 32.6129
65.650 32.00972
65.655 31.369036
65.660 31.392834
65.665 31.809782
65.670 32.330425
65.675 32.427177
65.680 32.735546
65.685 32.917431
65.690 33.444786
65.695 34.085808
65.700 33.510002
65.705 32.686409
65.710 32.698711
65.715 33.152981
65.720 33.032089
65.725 33.39904
65.730 32.614754
65.735 32.422268
65.740 33.679352
65.745 34.663837
65.750 34.361652
65.755 33.910728
65.760 33.421337
65.765 33.731857
65.770 34.709309
65.775 34.42091
65.780 34.205719
65.785 34.588551
65.790 35.088551
65.795 35.353081
65.800 35.348915
65.805 34.717766
65.810 34.283596
65.815 34.231594
65.820 35.11565
65.825 35.320858
65.830 35.391804
65.835 35.448448
65.840 35.669044
65.845 35.792812
65.850 36.056591
65.855 36.470394
65.860 36.442532
65.865 36.643135
65.870 37.037254
65.875 37.185398
65.880 38.085884
65.885 37.815414
65.890 37.077835
65.895 37.068794
65.900 36.739414
65.905 36.381767
65.910 35.635406
65.915 35.009781
65.920 34.837601
65.925 35.025185
65.930 35.507366
65.935 36.065483
65.940 36.511208
65.945 36.605984
65.950 36.231827
65.955 37.280647
65.960 38.224693
65.965 38.667439
65.970 38.457836
65.975 37.860394
65.980 38.47131
65.985 38.264145
65.990 37.410362
65.995 36.612724
66.000 35.546326
66.005 35.18618
66.010 35.961533
66.015 35.686501
66.020 36.007389
66.025 35.554699
66.030 35.237267
66.035 35.691132
66.040 35.634853
66.045 35.636555
66.050 36.198544
66.055 35.80901
66.060 36.418617
66.065 36.732025
66.070 36.526035
66.075 36.355728
66.080 35.239826
66.085 34.978615
66.090 35.263756
66.095 35.355473
66.100 35.090122
66.105 35.389633
66.110 35.800922
66.115 36.520069
66.120 36.286858
66.125 36.059227
66.130 36.008045
66.135 35.444351
66.140 34.767548
66.145 34.124283
66.150 33.809811
66.155 33.633221
66.160 33.866592
66.165 33.538902
66.170 34.232162
66.175 34.216579
66.180 34.332787
66.185 35.043365
66.190 35.070339
66.195 34.14679
66.200 34.276035
66.205 34.252327
66.210 34.482403
66.215 34.426922
66.220 33.408039
66.225 33.598457
66.230 34.224274
66.235 34.787746
66.240 34.318951
66.245 34.747684
66.250 34.478405
66.255 34.524582
66.260 33.881859
66.265 33.310764
66.270 32.03207
66.275 32.203995
66.280 32.034782
66.285 31.931753
66.290 32.334534
66.295 32.389412
66.300 31.937363
66.305 32.395412
66.310 31.91116
66.315 31.900167
66.320 31.311049
66.325 30.784039
66.330 31.342226
66.335 31.373856
66.340 30.690851
66.345 29.862938
66.350 29.003523
66.355 29.01391
66.360 28.86249
66.365 28.321592
66.370 28.446381
66.375 28.546591
66.380 28.068411
66.385 28.381027
66.390 28.278141
66.395 27.997406
66.400 28.055946
66.405 27.407932
66.410 27.154797
66.415 27.525444
66.420 27.611689
66.425 28.421383
66.430 28.556448
66.435 28.573099
66.440 29.029543
66.445 29.193222
66.450 29.407
66.455 29.332945
66.460 28.722221
66.465 28.562521
66.470 29.023542
66.475 28.847551
66.480 28.850536
66.485 29.446571
66.490 29.671255
66.495 29.476122
66.500 28.927053
66.505 28.371128
66.510 28.673841
66.515 28.547583
66.520 28.45289
66.525 27.777124
66.530 28.195475
66.535 28.53001
66.540 27.863369
66.545 27.287867
66.550 26.992947
66.555 27.052246
66.560 27.661884
66.565 28.231546
66.570 28.675074
66.575 28.831854
66.580 28.268902
66.585 27.880487
66.590 27.459288
66.595 26.931108
66.600 25.862898
66.605 25.197691
66.610 25.35935
66.615 25.74432
66.620 25.945442
66.625 25.413673
66.630 24.741112
66.635 24.439543
66.640 24.267494
66.645 24.497946
66.650 24.455662
66.655 24.261757
66.660 24.491583
66.665 24.739973
66.670 24.207567
66.675 23.658678
66.680 23.585386
66.685 23.5818
66.690 23.162699
66.695 23.209877
66.700 23.163902
66.705 23.875832
66.710 24.596998
66.715 25.013174
66.720 25.55069
66.725 25.848652
66.730 25.649763
66.735 25.621874
66.740 24.992744
66.745 25.093241
66.750 24.732054
66.755 24.073177
66.760 24.413225
66.765 24.189215
66.770 24.611776
66.775 25.395573
66.780 25.347342
66.785 25.103857
66.790 24.761713
66.795 24.191259
66.800 24.850117
66.805 24.954628
66.810 24.821089
66.815 24.391512
66.820 23.817263
66.825 23.882507
66.830 23.892422
66.835 23.616503
66.840 23.398985
66.845 23.288473
66.850 23.13093
66.855 23.025692
66.860 23.191107
66.865 22.830631
66.870 22.4098
66.875 21.894287
66.880 21.520859
66.885 21.876213
66.890 21.864157
66.895 21.734171
66.900 21.652008
66.905 22.501326
66.910 22.745052
66.915 22.496946
66.920 21.97555
66.925 21.851376
66.930 22.539349
66.935 22.415092
66.940 22.180815
66.945 21.963511
66.950 22.339399
66.955 22.455021
66.960 22.579285
66.965 21.907383
66.970 21.849754
66.975 21.92404
66.980 22.711773
66.985 23.062574
66.990 23.295317
66.995 23.631495
67.000 24.182537
67.005 24.162867
67.010 23.807915
67.015 23.891394
67.020 23.800123
67.025 24.17878
67.030 24.481749
67.035 23.995634
67.040 23.771885
67.045 23.56324
67.050 23.454695
67.055 23.144859
67.060 22.472565
67.065 21.776777
67.070 22.619513
67.075 23.302801
67.080 23.538647
67.085 22.62285
67.090 22.360233
67.095 22.747086
67.100 23.176353
67.105 22.490793
67.110 21.797194
67.115 21.721222
67.120 22.385803
67.125 23.191805
67.130 22.620689
67.135 21.777281
67.140 21.553017
67.145 21.658365
67.150 21.420782
67.155 20.835329
67.160 20.662502
67.165 21.209869
67.170 21.281864
67.175 20.983877
67.180 21.094908
67.185 21.386644
67.190 21.716034
67.195 21.592422
67.200 21.616371
67.205 21.950836
67.210 21.831404
67.215 21.768631
67.220 21.723515
67.225 21.190762
67.230 21.000687
67.235 20.774851
67.240 21.397646
67.245 21.256199
67.250 20.479109
67.255 20.477053
67.260 21.251947
67.265 21.762863
67.270 21.530123
67.275 21.540934
67.280 21.665411
67.285 21.950676
67.290 21.146639
67.295 20.986618
67.300 20.785194
67.305 20.84128
67.310 20.557529
67.315 20.569326
67.320 20.369125
67.325 20.469439
67.330 20.355879
67.335 20.419479
67.340 20.644945
67.345 20.773684
67.350 20.97596
67.355 21.332535
67.360 21.386835
67.365 21.302176
67.370 21.851141
67.375 22.513329
67.380 22.694857
67.385 22.717478
67.390 23.094778
67.395 23.260494
67.400 23.351444
67.405 22.861506
67.410 22.297125
67.415 22.468901
67.420 23.072948
67.425 23.325006
67.430 23.470362
67.435 23.158255
67.440 23.051319
67.445 23.099791
67.450 22.520947
67.455 22.07987
67.460 21.618355
67.465 21.733789
67.470 21.742535
67.475 21.588903
67.480 21.690947
67.485 21.328268
67.490 21.635223
67.495 21.762724
67.500 21.583103
67.505 21.678694
67.510 21.675348
67.515 21.672144
67.520 22.336466
67.525 22.157013
67.530 22.110687
67.535 22.060289
67.540 22.68634
67.545 22.656553
67.550 22.669405
67.555 22.047588
67.560 21.587645
67.565 21.203276
67.570 20.544344
67.575 20.324209
67.580 20.322895
67.585 20.434549
67.590 21.49415
67.595 22.355026
67.600 23.104259
67.605 23.217255
67.610 23.047445
67.615 22.722424
67.620 22.793495
67.625 22.850574
67.630 22.390383
67.635 22.575985
67.640 22.498491
67.645 22.458168
67.650 22.548094
67.655 22.379293
67.660 21.570194
67.665 21.146072
67.670 20.609701
67.675 20.761047
67.680 20.914223
67.685 20.531349
67.690 20.518803
67.695 21.493361
67.700 21.638901
67.705 21.723467
67.710 20.946445
67.715 21.287403
67.720 21.998438
67.725 21.833111
67.730 21.588236
67.735 21.77565
67.740 22.203039
67.745 22.667505
67.750 22.618349
67.755 22.228518
67.760 21.635174
67.765 20.824028
67.770 20.339714
67.775 20.324652
67.780 20.774715
67.785 20.18758
67.790 20.24325
67.795 20.318693
67.800 20.923063
67.805 21.184931
67.810 21.193604
67.815 21.246841
67.820 21.88596
67.825 21.21895
67.830 21.254881
67.835 21.6359
67.840 21.841034
67.845 21.763512
67.850 21.178984
67.855 20.946411
67.860 21.854353
67.865 21.92989
67.870 21.928118
67.875 21.614618
67.880 21.482759
67.885 21.874401
67.890 22.161854
67.895 21.704285
67.900 21.091867
67.905 20.855858
67.910 21.218733
67.915 20.999426
67.920 20.959724
67.925 20.99968
67.930 21.969484
67.935 22.383644
67.940 22.440901
67.945 22.640024
67.950 22.819948
67.955 23.189789
67.960 22.946213
67.965 22.564882
67.970 23.031803
67.975 23.494377
67.980 23.784752
67.985 23.612089
67.990 23.520798
67.995 23.727745
68.000 23.386595
68.005 22.404081
68.010 21.300636
68.015 21.001513
68.020 20.904516
68.025 20.570581
68.030 20.803389
68.035 20.423399
68.040 20.659082
68.045 20.731697
68.050 20.149927
68.055 20.000011
68.060 19.864271
68.065 20.047739
68.070 20.690926
68.075 20.768749
68.080 21.140446
68.085 21.64694
68.090 22.108801
68.095 21.657551
68.100 21.706484
68.105 22.171227
68.110 22.11384
68.115 21.874613
68.120 21.319431
68.125 20.93239
68.130 21.161707
68.135 20.812075
68.140 20.039015
68.145 20.22155
68.150 20.235516
68.155 20.099228
68.160 20.075949
68.165 19.824371
68.170 19.750813
68.175 20.146658
68.180 19.963505
68.185 20.721638
68.190 21.660788
68.195 21.904877
68.200 22.269159
68.205 22.471104
68.210 22.529003
68.215 22.882608
68.220 22.50218
68.225 21.885426
68.230 21.749615
68.235 21.532402
68.240 20.961586
68.245 20.730814
68.250 20.425396
68.255 20.619947
68.260 21.082024
68.265 21.559088
68.270 21.904352
68.275 22.31535
68.280 22.516876
68.285 22.207443
68.290 22.072891
68.295 21.776667
68.300 20.87701
68.305 20.282642
68.310 20.599409
68.315 20.417942
68.320 20.293264
68.325 20.150991
68.330 20.23842
68.335 21.302299
68.340 21.863813
68.345 21.552206
68.350 22.061893
68.355 22.308973
68.360 22.433914
68.365 22.665602
68.370 21.87837
68.375 21.459452
68.380 21.773207
68.385 21.462904
68.390 21.071991
68.395 20.796799
68.400 20.52533
68.405 21.004877
68.410 21.071053
68.415 19.937536
68.420 20.195707
68.425 20.820621
68.430 21.363256
68.435 21.808941
68.440 21.488321
68.445 20.895325
68.450 21.367081
68.455 21.560543
68.460 21.113857
68.465 20.824032
68.470 20.335915
68.475 20.546711
68.480 21.435461
68.485 21.387394
68.490 20.949512
68.495 20.606922
68.500 20.538897
68.505 20.600988
68.510 20.877359
68.515 20.661045
68.520 20.550982
68.525 21.03166
68.530 21.795929
68.535 21.797413
68.540 21.669382
68.545 21.297705
68.550 21.527597
68.555 21.470676
68.560 20.457897
68.565 19.97201
68.570 20.315638
68.575 20.496422
68.580 20.407097
68.585 20.385809
68.590 20.766632
68.595 21.624557
68.600 21.754938
68.605 21.41239
68.610 21.169645
68.615 21.307615
68.620 21.39768
68.625 21.079409
68.630 20.922022
68.635 20.976103
68.640 20.941078
68.645 21.105165
68.650 21.093102
68.655 21.235411
68.660 21.964647
68.665 21.928446
68.670 22.208023
68.675 22.57729
68.680 22.787233
68.685 22.543028
68.690 21.907103
68.695 21.733406
68.700 21.567219
68.705 21.527866
68.710 21.916718
68.715 21.656376
68.720 21.530596
68.725 22.006443
68.730 22.378578
68.735 22.726604
68.740 22.715677
68.745 21.986351
68.750 21.741936
68.755 22.475824
68.760 22.928576
68.765 22.122486
68.770 21.836824
68.775 21.307013
68.780 21.233555
68.785 21.696665
68.790 21.106575
68.795 20.697708
68.800 20.341295
68.805 20.752708
68.810 21.35498
68.815 21.367609
68.820 21.144724
68.825 20.954105
68.830 21.081333
68.835 21.584078
68.840 21.198902
68.845 21.370123
68.850 21.656416
68.855 21.953957
68.860 22.673527
68.865 22.892515
68.870 22.571831
68.875 22.809141
68.880 23.092459
68.885 22.850548
68.890 22.671131
68.895 22.257738
68.900 22.028278
68.905 22.21093
68.910 21.779453
68.915 22.106031
68.920 22.388639
68.925 22.172483
68.930 22.409285
68.935 22.352528
68.940 23.117584
68.945 23.605898
68.950 23.770384
68.955 24.182951
68.960 24.21559
68.965 24.42131
68.970 25.122068
68.975 24.95722
68.980 24.897985
68.985 24.740265
68.990 24.534237
68.995 25.117287
69.000 24.873556
69.005 24.065929
69.010 23.762688
69.015 23.55982
69.020 23.475
69.025 23.180468
69.030 23.092754
69.035 23.055769
69.040 23.598351
69.045 24.008492
69.050 24.37631
69.055 24.790127
69.060 24.877295
69.065 24.938263
69.070 25.199627
69.075 24.905922
69.080 25.362679
69.085 25.594465
69.090 25.857065
69.095 25.924061
69.100 26.335951
69.105 26.505329
69.110 26.527754
69.115 26.018507
69.120 25.497381
69.125 25.476439
69.130 25.194786
69.135 24.867956
69.140 25.01482
69.145 25.26745
69.150 25.684612
69.155 25.707693
69.160 24.944014
69.165 24.540667
69.170 24.636
69.175 24.890244
69.180 24.426344
69.185 23.777285
69.190 23.768219
69.195 24.219419
69.200 24.610882
69.205 24.409309
69.210 24.449873
69.215 24.473612
69.220 25.092899
69.225 25.547832
69.230 26.217031
69.235 26.634533
69.240 26.952993
69.245 26.50271
69.250 26.755018
69.255 26.244629
69.260 25.615019
69.265 25.466585
69.270 24.89113
69.275 25.149544
69.280 25.222691
69.285 25.019979
69.290 25.644167
69.295 25.802904
69.300 25.920731
69.305 26.121992
69.310 26.389275
69.315 26.766642
69.320 27.207682
69.325 27.295374
69.330 27.182533
69.335 27.445913
69.340 27.926497
69.345 27.965025
69.350 27.818226
69.355 27.768036
69.360 28.494947
69.365 29.026686
69.370 28.752356
69.375 27.656584
69.380 27.527243
69.385 28.239235
69.390 28.700445
69.395 28.360895
69.400 28.997828
69.405 29.324377
69.410 29.811586
69.415 30.668247
69.420 30.814665
69.425 31.253345
69.430 31.380432
69.435 30.892282
69.440 30.761311
69.445 30.621479
69.450 29.9116
69.455 29.882715
69.460 29.062498
69.465 28.601732
69.470 28.486738
69.475 28.422724
69.480 28.393353
69.485 28.507999
69.490 28.373575
69.495 28.399651
69.500 29.01977
69.505 29.18717
69.510 30.250437
69.515 30.117807
69.520 29.8766
69.525 29.867374
69.530 30.04961
69.535 29.738979
69.540 29.456253
69.545 28.552416
69.550 28.83778
69.555 28.664227
69.560 28.340906
69.565 28.049093
69.570 28.363945
69.575 28.979568
69.580 29.03945
69.585 28.489637
69.590 28.88279
69.595 28.605286
69.600 28.348301
69.605 27.017628
69.610 26.290482
69.615 26.960875
69.620 26.779564
69.625 26.241819
69.630 25.783707
69.635 26.258434
69.640 27.289021
69.645 26.797976
69.650 26.267347
69.655 26.044197
69.660 26.15691
69.665 26.56464
69.670 26.98168
69.675 26.80369
69.680 27.610344
69.685 28.31686
69.690 28.306684
69.695 28.292179
69.700 27.956511
69.705 26.913826
69.710 26.649502
69.715 25.61956
69.720 25.429064
69.725 25.456591
69.730 25.292696
69.735 25.638666
69.740 25.726768
69.745 25.387566
69.750 25.828979
69.755 25.50985
69.760 25.658689
69.765 25.967978
69.770 26.363947
69.775 26.765701
69.780 26.856565
69.785 26.298298
69.790 26.092308
69.795 26.191019
69.800 25.914646
69.805 26.095167
69.810 26.195332
69.815 26.596638
69.820 26.946173
69.825 26.561275
69.830 26.334602
69.835 26.065357
69.840 25.476068
69.845 24.845779
69.850 24.846254
69.855 24.597889
69.860 24.548576
69.865 25.127346
69.870 24.936125
69.875 25.402617
69.880 25.54867
69.885 25.852901
69.890 26.284611
69.895 25.924723
69.900 25.050972
69.905 24.671047
69.910 23.612043
69.915 22.353399
69.920 22.05537
69.925 21.86743
69.930 21.996202
69.935 21.87426
69.940 22.347054
69.945 23.123941
69.950 24.175583
69.955 23.913115
69.960 23.905485
69.965 23.606161
69.970 23.401075
69.975 22.897903
69.980 22.455877
69.985 21.917477
69.990 21.925116
69.995 22.200527
70.000 22.314255
70.005 22.279428
70.010 22.145727
70.015 22.270794
70.020 22.158068
70.025 21.44454
70.030 20.801643
70.035 20.264555
70.040 20.232178
70.045 20.288479
70.050 19.991329
70.055 19.677448
70.060 19.761908
70.065 20.191774
70.070 20.258705
70.075 20.739223
70.080 21.049469
70.085 21.659664
70.090 22.094267
70.095 22.378994
70.100 23.117708
70.105 22.681126
70.110 22.461491
70.115 21.840397
70.120 21.142143
70.125 20.486246
70.130 19.826017
70.135 18.710354
70.140 18.816286
70.145 18.496113
70.150 18.166288
70.155 18.62211
70.160 19.225136
70.165 19.165369
70.170 19.755152
70.175 20.109989
70.180 20.019674
70.185 20.891268
70.190 20.772717
70.195 21.037317
70.200 21.449284
70.205 20.821308
70.210 20.485098
70.215 20.731457
70.220 20.640888
70.225 20.719027
70.230 20.783834
70.235 20.798607
70.240 20.94895
70.245 21.699085
70.250 22.010283
70.255 22.509659
70.260 21.84148
70.265 21.256783
70.270 20.900892
70.275 21.275276
70.280 20.97341
70.285 20.905682
70.290 20.317537
70.295 20.432409
70.300 21.38068
70.305 22.000301
70.310 21.102161
70.315 20.441269
70.320 20.158531
70.325 20.505636
70.330 20.467049
70.335 19.896559
70.340 19.967926
70.345 20.296331
70.350 20.987347
70.355 20.935053
70.360 20.825941
70.365 20.610573
70.370 20.690577
70.375 20.458248
70.380 21.225208
70.385 21.620068
70.390 21.617325
70.395 22.104271
70.400 22.194899
70.405 21.602598
70.410 21.818895
70.415 20.938643
70.420 20.068007
70.425 19.518242
70.430 19.562304
70.435 20.112608
70.440 20.475874
70.445 20.708761
70.450 20.418243
70.455 20.063839
70.460 20.233631
70.465 19.657282
70.470 19.438759
70.475 19.065958
70.480 18.277868
70.485 19.006685
70.490 19.747475
70.495 20.140968
70.500 20.488659
70.505 20.71587
70.510 20.676167
70.515 20.63619
70.520 21.236183
70.525 21.231262
70.530 20.819057
70.535 20.145136
70.540 20.48665
70.545 21.127533
70.550 21.420815
70.555 20.845528
70.560 20.648483
70.565 20.94734
70.570 20.587809
70.575 20.066908
70.580 19.197479
70.585 19.213186
70.590 19.204851
70.595 19.387331
70.600 19.547508
70.605 19.71236
70.610 20.251236
70.615 20.66433
70.620 20.041071
70.625 20.066734
70.630 19.155582
70.635 18.985209
70.640 18.726706
70.645 18.209034
70.650 18.296625
70.655 17.984467
70.660 18.015833
70.665 19.122942
70.670 19.660542
70.675 19.804317
70.680 19.994495
70.685 20.213453
70.690 20.951015
70.695 20.634487
70.700 19.795732
70.705 19.716904
70.710 20.058937
70.715 20.25164
70.720 19.470896
70.725 19.018372
70.730 19.108742
70.735 19.162846
70.740 19.125992
70.745 18.639244
70.750 18.256254
70.755 18.656265
70.760 19.715366
70.765 20.715176
70.770 21.009373
70.775 20.756454
70.780 20.766975
70.785 21.189718
70.790 21.319933
70.795 19.60335
70.800 18.934259
70.805 18.938435
70.810 19.437431
70.815 19.937717
70.820 19.898804
70.825 19.632984
70.830 20.654736
70.835 20.544641
70.840 19.796164
70.845 19.339357
70.850 19.265924
70.855 19.22444
70.860 19.374798
70.865 18.720417
70.870 18.920033
70.875 19.329372
70.880 19.211735
70.885 18.94636
70.890 19.128826
70.895 19.934366
70.900 20.251568
70.905 20.090685
70.910 19.923082
70.915 19.859159
70.920 19.413908
70.925 18.431271
70.930 17.970814
70.935 18.600704
70.940 18.676962
70.945 19.22213
70.950 19.922573
70.955 20.784283
70.960 21.331463
70.965 20.834875
70.970 20.441133
70.975 20.660437
70.980 20.265055
70.985 19.776987
70.990 19.12953
70.995 18.400337
71.000 18.265234
71.005 18.351664
71.010 18.470209
71.015 18.247271
71.020 18.729496
71.025 20.094055
71.030 20.818956
71.035 21.071638
71.040 20.759989
71.045 21.13743
71.050 21.217302
71.055 21.125315
71.060 20.321115
71.065 19.795273
71.070 19.253222
71.075 19.098812
71.080 19.253664
71.085 19.251209
71.090 19.123419
71.095 19.495594
71.100 19.74785
71.105 19.741798
71.110 19.272688
71.115 18.758472
71.120 18.686745
71.125 18.684803
71.130 17.952028
71.135 18.086613
71.140 18.060724
71.145 18.333168
71.150 18.391512
71.155 18.92536
71.160 19.213057
71.165 20.054647
71.170 20.266943
71.175 20.370262
71.180 20.099136
71.185 20.194668
71.190 19.962036
71.195 19.751467
71.200 19.299109
71.205 19.600288
71.210 20.031822
71.215 19.539684
71.220 18.863577
71.225 18.507059
71.230 18.232552
71.235 18.028139
71.240 17.245869
71.245 16.887238
71.250 17.745874
71.255 18.666557
71.260 18.924679
71.265 19.509272
71.270 20.430103
71.275 20.743429
71.280 20.876486
71.285 19.94805
71.290 19.544291
71.295 19.214806
71.300 18.402191
71.305 18.092203
71.310 17.652452
71.315 17.673223
71.320 17.562464
71.325 17.201305
71.330 17.257376
71.335 17.267792
71.340 17.738642
71.345 17.920816
71.350 18.024534
71.355 17.992357
71.360 18.518618
71.365 18.356186
71.370 18.113192
71.375 17.839031
71.380 18.042103
71.385 18.380571
71.390 19.031055
71.395 18.782475
71.400 19.380919
71.405 19.444063
71.410 19.27968
71.415 19.631651
71.420 19.643742
71.425 18.893627
71.430 19.179022
71.435 18.749628
71.440 18.712204
71.445 18.738134
71.450 18.15077
71.455 18.232737
71.460 18.312395
71.465 17.755762
71.470 18.010221
71.475 17.637497
71.480 17.328289
71.485 18.059259
71.490 17.947157
71.495 18.341143
71.500 18.254591
71.505 18.928646
71.510 19.68714
71.515 18.830795
71.520 18.265408
71.525 18.268873
71.530 17.985321
71.535 18.986006
71.540 18.449623
71.545 18.780579
71.550 19.390926
71.555 19.411917
71.560 19.233484
71.565 18.956053
71.570 17.699467
71.575 17.356579
71.580 16.971361
71.585 17.000473
71.590 17.045546
71.595 17.433733
71.600 17.599657
71.605 17.597736
71.610 18.096491
71.615 17.866873
71.620 17.912977
71.625 18.425449
71.630 19.205534
71.635 19.665701
71.640 19.688644
71.645 19.849451
71.650 20.54797
71.655 20.758854
71.660 20.390524
71.665 19.903332
71.670 19.634306
71.675 19.7679
71.680 19.45429
71.685 18.582861
71.690 18.106415
71.695 17.647085
71.700 17.904322
71.705 18.312765
71.710 18.312922
71.715 18.408064
71.720 19.05168
71.725 19.296293
71.730 19.302372
71.735 19.430336
71.740 19.118429
71.745 19.28076
71.750 19.694942
71.755 19.79064
71.760 20.219545
71.765 20.109064
71.770 19.632837
71.775 19.400604
71.780 19.210894
71.785 18.957426
71.790 19.463591
71.795 19.820566
71.800 19.984442
71.805 20.784906
71.810 20.910038
71.815 20.887272
71.820 20.657736
71.825 19.818581
71.830 19.241518
71.835 18.768093
71.840 18.648745
71.845 18.978254
71.850 18.463657
71.855 18.160818
71.860 18.227219
71.865 18.834288
71.870 19.365055
71.875 19.344738
71.880 19.15423
71.885 19.674665
71.890 19.211216
71.895 18.83161
71.900 18.726593
71.905 18.295084
71.910 18.256163
71.915 18.611467
71.920 19.022387
71.925 19.255463
71.930 19.478483
71.935 19.187767
71.940 19.182459
71.945 18.565111
71.950 18.109655
71.955 18.024658
71.960 18.392927
71.965 18.106455
71.970 18.374529
71.975 18.720512
71.980 19.496937
71.985 19.002474
71.990 18.763027
71.995 18.775082
72.000 18.438141
72.005 18.656816
72.010 17.587585
72.015 16.889236
72.020 16.997402
72.025 16.591143
72.030 16.432615
72.035 16.224686
72.040 16.432999
72.045 17.133608
72.050 17.039827
72.055 17.123875
72.060 17.50662
72.065 17.959448
72.070 18.236641
72.075 17.747673
72.080 18.137764
72.085 18.412363
72.090 18.62468
72.095 19.197002
72.100 19.561232
72.105 19.269854
72.110 19.187046
72.115 18.69977
72.120 18.75938
72.125 18.132362
72.130 17.645658
72.135 17.165668
72.140 17.314072
72.145 18.114391
72.150 17.970982
72.155 18.492586
72.160 18.479828
72.165 18.382471
72.170 19.259182
72.175 19.0502
72.180 18.786072
72.185 19.075457
72.190 19.010117
72.195 19.405443
72.200 19.273575
72.205 19.067358
72.210 18.741013
72.215 18.564779
72.220 18.50993
72.225 18.406273
72.230 18.434929
72.235 18.102522
72.240 17.72221
72.245 18.4202
72.250 18.990601
72.255 18.639803
72.260 18.43741
72.265 18.510073
72.270 18.824221
72.275 19.129114
72.280 18.897747
72.285 18.857519
72.290 18.88102
72.295 18.719349
72.300 18.657999
72.305 18.429882
72.310 18.67359
72.315 18.704102
72.320 18.285847
72.325 18.662235
72.330 18.760529
72.335 18.483948
72.340 18.37804
72.345 18.360844
72.350 19.198269
72.355 19.530949
72.360 19.703817
72.365 20.215012
72.370 20.342049
72.375 20.154636
72.380 19.909149
72.385 19.192728
72.390 18.496544
72.395 17.94911
72.400 17.353785
72.405 17.652796
72.410 17.964725
72.415 17.635662
72.420 17.811098
72.425 18.074879
72.430 17.638449
72.435 17.535748
72.440 17.520452
72.445 17.642822
72.450 17.953981
72.455 18.242172
72.460 18.8368
72.465 19.0415
72.470 19.111872
72.475 19.102913
72.480 18.800022
72.485 19.358879
72.490 19.308901
72.495 19.183912
72.500 19.729549
72.505 19.938091
72.510 20.064789
72.515 19.604412
72.520 18.854774
72.525 18.684282
72.530 18.475885
72.535 18.135138
72.540 17.569717
72.545 16.966595
72.550 17.372507
72.555 17.360144
72.560 17.209642
72.565 17.388399
72.570 17.051533
72.575 16.734308
72.580 16.712999
72.585 16.906721
72.590 17.037004
72.595 16.928654
72.600 16.639835
72.605 17.44096
72.610 17.771111
72.615 17.467094
72.620 17.159735
72.625 17.275688
72.630 17.55789
72.635 18.14559
72.640 18.264585
72.645 18.589281
72.650 18.469503
72.655 17.849163
72.660 18.657314
72.665 19.041506
72.670 18.926563
72.675 18.793552
72.680 18.754833
72.685 19.382404
72.690 19.497017
72.695 18.966036
72.700 18.289108
72.705 17.839422
72.710 17.771002
72.715 17.871876
72.720 18.051769
72.725 18.067219
72.730 18.092812
72.735 18.698658
72.740 18.366795
72.745 18.30298
72.750 17.812931
72.755 17.370251
72.760 17.203808
72.765 17.390791
72.770 17.098713
72.775 17.141527
72.780 17.284723
72.785 17.778913
72.790 18.49827
72.795 18.840164
72.800 18.338028
72.805 18.644102
72.810 18.79834
72.815 18.926292
72.820 18.329172
72.825 17.81176
72.830 17.66143
72.835 18.159904
72.840 18.579618
72.845 18.751245
72.850 18.558699
72.855 18.951145
72.860 18.577013
72.865 17.880327
72.870 17.325628
72.875 16.626289
72.880 16.503002
72.885 16.443666
72.890 15.825827
72.895 16.129589
72.900 16.532087
72.905 16.998724
72.910 17.327677
72.915 16.998791
72.920 17.063559
72.925 17.597433
72.930 17.067854
72.935 16.896351
72.940 16.021555
72.945 15.881284
72.950 15.608438
72.955 15.393351
72.960 16.360174
72.965 17.084831
72.970 17.799992
72.975 18.703579
72.980 19.196131
72.985 19.87606
72.990 19.869186
72.995 19.341133
73.000 19.318703
