!@!!GADDS PLOTSO FILE: Chi integration type
!@!!Title/SampleName: map-89
!@!!Comment: ?
!@!!User: Bruker Instrument Administrator
!@!!Site: University of Illinois Chicago
!@!!Frame: map-89_01_000.gfrm
!@!!Wavelengths    1.54184   1.54056   1.54439
!@!!Frame angles: 2Theta: 63.000 Omega: 50.000 Phi: 0.000 Chi: 90.000
!@!!Integration range: 2Theta: 53.000 to 73.000  Gamma: -105.000 to -75.000
!@!!Integration method: bin normalized
!@!N
!@!SS
!@!M
!@!L 0.0 0.0 0.0 0.0
!@!XDegrees
!@!YCounts
53.000 8.828538
53.005 8.746514
53.010 8.724222
53.015 9.144542
53.020 9.498771
53.025 9.313824
53.030 9.368638
53.035 9.622964
53.040 9.627628
53.045 9.371377
53.050 8.591168
53.055 8.060683
53.060 7.884231
53.065 7.891799
53.070 7.659694
53.075 8.060957
53.080 8.661819
53.085 9.204727
53.090 9.627701
53.095 9.494826
53.100 9.776255
53.105 9.998618
53.110 9.609811
53.115 9.889158
53.120 9.876109
53.125 9.835763
53.130 9.64228
53.135 8.87134
53.140 8.81477
53.145 8.697306
53.150 8.536686
53.155 8.453415
53.160 8.513118
53.165 8.73224
53.170 8.762565
53.175 8.846321
53.180 8.935639
53.185 8.916682
53.190 8.789172
53.195 8.640263
53.200 8.859344
53.205 9.111526
53.210 8.989617
53.215 9.000427
53.220 8.781855
53.225 9.080089
53.230 8.70742
53.235 8.337816
53.240 8.114594
53.245 8.244053
53.250 8.538309
53.255 8.466573
53.260 9.191864
53.265 9.97866
53.270 10.163422
53.275 10.17384
53.280 9.68552
53.285 9.334573
53.290 8.766559
53.295 8.302091
53.300 8.006753
53.305 8.084458
53.310 8.311635
53.315 8.660452
53.320 9.07692
53.325 9.243439
53.330 9.405311
53.335 9.490624
53.340 9.727671
53.345 9.575921
53.350 9.545655
53.355 9.091206
53.360 9.231889
53.365 9.161613
53.370 9.620858
53.375 9.526169
53.380 9.865238
53.385 9.755281
53.390 10.457915
53.395 10.268261
53.400 10.195617
53.405 10.069593
53.410 10.214564
53.415 10.149199
53.420 10.645427
53.425 10.561202
53.430 10.5955
53.435 10.127039
53.440 9.626032
53.445 9.261891
53.450 8.695896
53.455 8.519284
53.460 8.284724
53.465 7.917447
53.470 8.147294
53.475 8.230163
53.480 8.480437
53.485 8.500513
53.490 8.152001
53.495 8.566651
53.500 8.890508
53.505 9.106789
53.510 9.271599
53.515 9.925449
53.520 10.36643
53.525 10.261703
53.530 10.111937
53.535 10.153222
53.540 10.102961
53.545 10.154671
53.550 9.764004
53.555 9.665538
53.560 9.894455
53.565 10.189897
53.570 10.301706
53.575 10.205953
53.580 9.900291
53.585 9.865782
53.590 9.941737
53.595 10.014618
53.600 9.751196
53.605 9.401305
53.610 9.200579
53.615 9.04532
53.620 8.740931
53.625 8.346233
53.630 8.471935
53.635 8.924711
53.640 9.417971
53.645 9.315737
53.650 9.345854
53.655 9.79797
53.660 9.821961
53.665 8.795252
53.670 8.607651
53.675 8.676723
53.680 8.813111
53.685 8.786708
53.690 8.959352
53.695 9.267838
53.700 9.468273
53.705 9.159745
53.710 9.158803
53.715 9.056399
53.720 9.044194
53.725 9.084986
53.730 9.457668
53.735 9.405947
53.740 9.560534
53.745 9.790327
53.750 10.198727
53.755 10.003777
53.760 9.577666
53.765 9.312218
53.770 9.411798
53.775 9.043947
53.780 8.940469
53.785 8.736615
53.790 8.601113
53.795 9.075362
53.800 9.70682
53.805 9.915637
53.810 10.034096
53.815 10.215262
53.820 10.80861
53.825 10.554784
53.830 10.238118
53.835 10.071209
53.840 10.326344
53.845 10.628139
53.850 10.921907
53.855 11.431414
53.860 11.913332
53.865 11.825232
53.870 11.85119
53.875 11.483347
53.880 11.257954
53.885 10.966902
53.890 10.584341
53.895 10.511708
53.900 10.878283
53.905 11.030943
53.910 10.778425
53.915 10.560636
53.920 10.294467
53.925 9.999048
53.930 10.190779
53.935 9.594036
53.940 9.582233
53.945 9.794873
53.950 9.97924
53.955 10.055289
53.960 9.890181
53.965 9.939329
53.970 10.11655
53.975 10.044845
53.980 10.245848
53.985 10.348448
53.990 10.726966
53.995 10.804834
54.000 10.505164
54.005 10.772462
54.010 11.459373
54.015 10.904408
54.020 10.338776
54.025 9.99434
54.030 10.536077
54.035 10.73496
54.040 10.364895
54.045 10.309923
54.050 10.695899
54.055 11.144392
54.060 11.129645
54.065 10.977055
54.070 10.771504
54.075 10.580283
54.080 10.499357
54.085 10.109562
54.090 10.153278
54.095 10.399328
54.100 11.063963
54.105 11.463285
54.110 11.539931
54.115 11.645416
54.120 11.65763
54.125 11.60965
54.130 10.78756
54.135 10.043625
54.140 10.135982
54.145 10.415311
54.150 10.491822
54.155 10.39218
54.160 10.224423
54.165 10.531034
54.170 10.503517
54.175 10.147159
54.180 9.975993
54.185 10.03307
54.190 10.302824
54.195 10.666112
54.200 10.802126
54.205 10.777143
54.210 10.736823
54.215 10.756977
54.220 10.800692
54.225 10.776417
54.230 10.953299
54.235 11.230224
54.240 11.399248
54.245 11.26046
54.250 11.024921
54.255 10.877135
54.260 10.281513
54.265 9.808786
54.270 9.54528
54.275 9.493279
54.280 9.329348
54.285 9.758608
54.290 10.136548
54.295 10.482558
54.300 10.21102
54.305 10.015861
54.310 10.17039
54.315 10.193357
54.320 9.666729
54.325 9.748414
54.330 9.731418
54.335 10.133847
54.340 10.611596
54.345 11.042555
54.350 11.322955
54.355 11.221034
54.360 11.039823
54.365 11.25622
54.370 11.701874
54.375 11.709793
54.380 11.521987
54.385 11.761879
54.390 12.239209
54.395 12.329224
54.400 11.709321
54.405 10.716227
54.410 10.505567
54.415 10.21296
54.420 9.61928
54.425 9.470985
54.430 9.567656
54.435 9.943151
54.440 10.428121
54.445 10.497995
54.450 10.830132
54.455 11.044664
54.460 11.354347
54.465 11.329389
54.470 11.707192
54.475 11.652019
54.480 11.508674
54.485 11.15243
54.490 10.985283
54.495 10.481149
54.500 10.913382
54.505 10.784695
54.510 11.054995
54.515 11.416383
54.520 11.590674
54.525 11.554171
54.530 11.64918
54.535 11.412665
54.540 11.293922
54.545 11.059422
54.550 10.807068
54.555 10.814856
54.560 10.811336
54.565 10.919251
54.570 10.738493
54.575 11.065306
54.580 11.248259
54.585 11.498679
54.590 11.608815
54.595 11.957176
54.600 12.10093
54.605 11.764822
54.610 11.235379
54.615 10.722239
54.620 10.857265
54.625 10.467662
54.630 9.845053
54.635 9.416056
54.640 9.550704
54.645 9.680447
54.650 10.152225
54.655 10.209514
54.660 10.763315
54.665 11.132594
54.670 11.413296
54.675 11.287327
54.680 10.947735
54.685 10.721046
54.690 10.417307
54.695 10.330231
54.700 10.405615
54.705 10.3484
54.710 10.821184
54.715 10.651405
54.720 10.71749
54.725 10.891381
54.730 10.722568
54.735 10.888516
54.740 10.916248
54.745 11.207507
54.750 11.470999
54.755 11.335398
54.760 11.846554
54.765 12.037755
54.770 12.128095
54.775 11.807564
54.780 10.887074
54.785 10.656889
54.790 10.254737
54.795 9.803618
54.800 9.718889
54.805 9.771085
54.810 9.806017
54.815 10.525611
54.820 11.310896
54.825 11.957662
54.830 12.312713
54.835 12.130248
54.840 12.17487
54.845 12.351134
54.850 12.292128
54.855 11.400595
54.860 10.706614
54.865 10.307852
54.870 10.204
54.875 10.497365
54.880 10.495445
54.885 10.701492
54.890 11.003597
54.895 11.192881
54.900 10.969994
54.905 10.749741
54.910 10.629913
54.915 10.335006
54.920 10.46375
54.925 10.302364
54.930 10.298745
54.935 10.755824
54.940 11.019471
54.945 11.151652
54.950 11.483693
54.955 11.619758
54.960 12.160507
54.965 12.690634
54.970 12.510654
54.975 12.273971
54.980 12.191195
54.985 12.021328
54.990 11.587965
54.995 11.238054
55.000 10.85715
55.005 10.575799
55.010 10.918732
55.015 10.986858
55.020 11.385346
55.025 11.339177
55.030 11.127782
55.035 11.45973
55.040 11.426608
55.045 11.177086
55.050 11.106419
55.055 10.978537
55.060 11.264271
55.065 10.899952
55.070 10.777028
55.075 10.790199
55.080 10.67515
55.085 10.758055
55.090 10.3382
55.095 10.51064
55.100 10.656188
55.105 11.200516
55.110 11.319279
55.115 11.426259
55.120 11.709249
55.125 11.913183
55.130 12.026545
55.135 12.281297
55.140 11.798491
55.145 11.824187
55.150 11.712452
55.155 11.685062
55.160 11.952772
55.165 11.545093
55.170 11.201183
55.175 11.048721
55.180 10.811268
55.185 10.436218
55.190 10.543118
55.195 10.597602
55.200 10.947318
55.205 10.96207
55.210 10.926041
55.215 10.912506
55.220 11.052673
55.225 11.004076
55.230 10.488064
55.235 10.46677
55.240 10.514009
55.245 10.778281
55.250 11.102638
55.255 11.074664
55.260 10.673957
55.265 11.092443
55.270 11.4034
55.275 11.510176
55.280 11.472097
55.285 11.45153
55.290 11.318223
55.295 11.558313
55.300 11.355852
55.305 11.104939
55.310 11.262152
55.315 11.573592
55.320 11.918752
55.325 12.442086
55.330 12.327664
55.335 12.479099
55.340 13.017068
55.345 13.18972
55.350 12.637012
55.355 12.010403
55.360 11.427651
55.365 11.177947
55.370 11.0709
55.375 10.720296
55.380 10.696321
55.385 11.070412
55.390 11.521497
55.395 12.133988
55.400 12.577727
55.405 12.140636
55.410 12.253553
55.415 12.733077
55.420 13.090317
55.425 13.52654
55.430 14.38757
55.435 14.887288
55.440 14.981445
55.445 14.602242
55.450 14.182282
55.455 13.760012
55.460 13.816926
55.465 13.379982
55.470 12.741961
55.475 12.640402
55.480 12.546453
55.485 12.254537
55.490 11.93277
55.495 11.089978
55.500 11.08953
55.505 11.394359
55.510 11.302612
55.515 11.230629
55.520 11.316792
55.525 11.261276
55.530 11.162077
55.535 10.898317
55.540 10.642487
55.545 10.936563
55.550 11.374262
55.555 11.582051
55.560 11.5576
55.565 11.60354
55.570 11.461695
55.575 11.928587
55.580 12.047029
55.585 11.75925
55.590 11.853722
55.595 11.974807
55.600 11.990818
55.605 11.979666
55.610 11.538703
55.615 11.16405
55.620 10.958642
55.625 10.922494
55.630 10.512415
55.635 10.368789
55.640 10.462908
55.645 10.623601
55.650 10.545762
55.655 10.97541
55.660 10.823636
55.665 11.099005
55.670 11.186943
55.675 11.027809
55.680 10.993497
55.685 11.258347
55.690 11.423515
55.695 11.331114
55.700 11.514778
55.705 11.420548
55.710 11.649508
55.715 11.441134
55.720 11.35322
55.725 11.213577
55.730 11.295414
55.735 11.285411
55.740 11.247054
55.745 11.531952
55.750 11.894181
55.755 11.996141
55.760 12.566385
55.765 12.40013
55.770 12.260446
55.775 12.134743
55.780 11.713055
55.785 11.353562
55.790 10.922667
55.795 10.260112
55.800 10.446679
55.805 10.190133
55.810 10.354281
55.815 10.655118
55.820 11.156776
55.825 11.061271
55.830 11.25668
55.835 12.024968
55.840 12.047817
55.845 12.421056
55.850 12.583487
55.855 12.280301
55.860 12.801179
55.865 12.81326
55.870 12.355358
55.875 12.773706
55.880 12.704769
55.885 12.436769
55.890 13.189138
55.895 13.220303
55.900 13.699591
55.905 13.504456
55.910 13.531654
55.915 13.560234
55.920 13.551311
55.925 12.481069
55.930 12.2496
55.935 11.943164
55.940 12.841115
55.945 13.559884
55.950 13.857847
55.955 14.523632
55.960 15.01551
55.965 15.058091
55.970 14.560293
55.975 14.046902
55.980 13.529973
55.985 13.17846
55.990 12.724456
55.995 12.801396
56.000 12.786869
56.005 13.269958
56.010 13.335962
56.015 13.489923
56.020 13.3723
56.025 13.493432
56.030 13.261967
56.035 13.327703
56.040 13.373592
56.045 12.964091
56.050 12.8009
56.055 12.992035
56.060 12.901499
56.065 12.94855
56.070 12.837298
56.075 12.177462
56.080 11.924953
56.085 12.137856
56.090 12.142026
56.095 12.009731
56.100 12.055297
56.105 12.621745
56.110 13.233464
56.115 12.980658
56.120 12.399584
56.125 12.245101
56.130 12.479161
56.135 12.308783
56.140 11.876101
56.145 11.330771
56.150 11.885785
56.155 12.388411
56.160 12.576555
56.165 12.539292
56.170 12.790866
56.175 13.166676
56.180 13.570047
56.185 13.516621
56.190 13.527605
56.195 13.016774
56.200 12.982291
56.205 12.891459
56.210 12.679162
56.215 12.976125
56.220 12.800264
56.225 13.267619
56.230 14.017748
56.235 14.09878
56.240 13.955635
56.245 14.203768
56.250 13.878287
56.255 13.405601
56.260 12.904108
56.265 12.667885
56.270 11.767479
56.275 11.367676
56.280 10.953142
56.285 11.035645
56.290 11.350951
56.295 11.003304
56.300 10.502413
56.305 10.75455
56.310 11.201591
56.315 11.368377
56.320 11.067795
56.325 11.12969
56.330 11.449147
56.335 11.947872
56.340 12.178601
56.345 12.108895
56.350 12.071299
56.355 12.051343
56.360 11.97618
56.365 11.973014
56.370 12.290017
56.375 12.724818
56.380 12.902347
56.385 13.414336
56.390 13.748274
56.395 13.926875
56.400 13.785615
56.405 14.351711
56.410 14.404933
56.415 13.880837
56.420 13.605555
56.425 13.437028
56.430 13.392143
56.435 13.289328
56.440 12.542865
56.445 11.852461
56.450 12.003718
56.455 11.765679
56.460 12.157255
56.465 12.03909
56.470 11.909262
56.475 12.164373
56.480 12.84625
56.485 12.812748
56.490 13.689649
56.495 13.806824
56.500 13.686644
56.505 14.0987
56.510 14.21333
56.515 13.534631
56.520 13.279063
56.525 13.026905
56.530 12.987105
56.535 13.162629
56.540 12.430562
56.545 12.44046
56.550 12.566213
56.555 12.592809
56.560 11.978486
56.565 11.639019
56.570 11.963621
56.575 11.807216
56.580 11.792152
56.585 12.270856
56.590 12.712004
56.595 13.07269
56.600 12.98562
56.605 13.154624
56.610 13.403336
56.615 13.135272
56.620 12.917685
56.625 12.736229
56.630 12.90698
56.635 12.793704
56.640 12.205738
56.645 12.158803
56.650 12.302105
56.655 12.31109
56.660 12.554955
56.665 12.068672
56.670 12.69171
56.675 13.044155
56.680 13.076984
56.685 13.048526
56.690 13.101245
56.695 12.739267
56.700 13.199944
56.705 12.940284
56.710 13.205483
56.715 13.282556
56.720 12.88639
56.725 12.929338
56.730 13.652884
56.735 14.036991
56.740 14.052585
56.745 13.761948
56.750 14.006645
56.755 14.344225
56.760 14.05669
56.765 13.447549
56.770 13.112823
56.775 13.434699
56.780 13.458105
56.785 13.492043
56.790 13.499308
56.795 13.712725
56.800 13.774754
56.805 14.453337
56.810 14.273598
56.815 14.216058
56.820 14.381922
56.825 14.692463
56.830 14.763232
56.835 14.948346
56.840 14.372793
56.845 14.508831
56.850 14.592924
56.855 14.44002
56.860 14.806857
56.865 14.875546
56.870 14.106988
56.875 13.546351
56.880 13.435027
56.885 13.754253
56.890 13.812485
56.895 13.426793
56.900 13.048323
56.905 13.648432
56.910 13.619828
56.915 13.43532
56.920 13.29191
56.925 13.095779
56.930 12.773357
56.935 12.967128
56.940 13.046591
56.945 13.554173
56.950 13.775267
56.955 13.732391
56.960 13.761888
56.965 13.935594
56.970 14.143691
56.975 14.509773
56.980 14.298406
56.985 14.142004
56.990 13.459945
56.995 13.173549
57.000 13.630124
57.005 13.168797
57.010 12.547642
57.015 12.808555
57.020 12.797704
57.025 13.446826
57.030 13.649042
57.035 13.222581
57.040 13.006269
57.045 13.293938
57.050 13.237114
57.055 13.680213
57.060 13.520004
57.065 13.6983
57.070 14.193016
57.075 14.800677
57.080 14.946965
57.085 14.975963
57.090 14.958665
57.095 15.184107
57.100 14.697261
57.105 14.590466
57.110 14.059457
57.115 13.584521
57.120 13.495529
57.125 13.27751
57.130 13.304426
57.135 13.347429
57.140 13.550379
57.145 14.023909
57.150 14.145766
57.155 13.894818
57.160 13.809022
57.165 13.826984
57.170 14.202436
57.175 14.29318
57.180 14.396434
57.185 15.167276
57.190 15.723369
57.195 15.957195
57.200 15.704679
57.205 15.693954
57.210 15.550817
57.215 15.395751
57.220 14.484443
57.225 13.899276
57.230 13.781868
57.235 13.993669
57.240 13.536149
57.245 12.681698
57.250 12.988346
57.255 13.51193
57.260 13.652544
57.265 13.790818
57.270 13.852145
57.275 14.768414
57.280 15.092437
57.285 14.42741
57.290 14.151167
57.295 13.884168
57.300 14.217033
57.305 13.815104
57.310 13.449347
57.315 13.899632
57.320 14.089327
57.325 13.780992
57.330 13.820261
57.335 13.412956
57.340 13.434255
57.345 13.258665
57.350 13.332913
57.355 14.131732
57.360 14.514397
57.365 14.658695
57.370 14.616585
57.375 14.739793
57.380 14.404723
57.385 13.845354
57.390 13.481276
57.395 13.543594
57.400 13.685424
57.405 14.040325
57.410 14.187332
57.415 14.596652
57.420 14.741899
57.425 14.842745
57.430 14.849465
57.435 14.394245
57.440 14.261102
57.445 13.997672
57.450 14.175298
57.455 14.074566
57.460 14.31001
57.465 14.434351
57.470 14.410025
57.475 14.164079
57.480 14.383476
57.485 13.926473
57.490 13.977393
57.495 13.855131
57.500 13.840576
57.505 13.837779
57.510 14.290111
57.515 14.461212
57.520 15.064805
57.525 15.163593
57.530 15.360714
57.535 15.607655
57.540 16.078716
57.545 15.936336
57.550 15.980672
57.555 16.140169
57.560 16.183685
57.565 15.459539
57.570 15.012601
57.575 14.149003
57.580 14.0232
57.585 14.006886
57.590 13.337885
57.595 13.472644
57.600 14.764115
57.605 15.287312
57.610 15.49796
57.615 15.456182
57.620 15.403909
57.625 15.927353
57.630 16.384434
57.635 15.721892
57.640 15.967917
57.645 16.330118
57.650 16.227972
57.655 16.268255
57.660 15.838963
57.665 15.413286
57.670 15.490149
57.675 15.862126
57.680 15.819769
57.685 15.725575
57.690 15.551932
57.695 15.613223
57.700 15.085288
57.705 14.521285
57.710 13.867343
57.715 13.924198
57.720 14.05222
57.725 14.117717
57.730 14.193998
57.735 14.319756
57.740 14.375478
57.745 14.142451
57.750 14.21882
57.755 14.222703
57.760 14.209395
57.765 14.268958
57.770 14.25848
57.775 14.800195
57.780 15.371165
57.785 15.587808
57.790 16.080021
57.795 16.070763
57.800 15.929444
57.805 15.711918
57.810 15.445102
57.815 15.033377
57.820 14.367253
57.825 13.613626
57.830 13.414105
57.835 13.652514
57.840 13.688379
57.845 14.008767
57.850 14.439595
57.855 14.931149
57.860 15.283152
57.865 15.45584
57.870 15.448464
57.875 15.090065
57.880 14.582694
57.885 14.194633
57.890 14.17064
57.895 14.08523
57.900 13.427596
57.905 13.460738
57.910 13.344172
57.915 13.247424
57.920 12.948092
57.925 12.518188
57.930 12.840434
57.935 13.609043
57.940 13.913041
57.945 14.342078
57.950 14.513016
57.955 14.879482
57.960 15.157647
57.965 14.942677
57.970 14.658742
57.975 14.526354
57.980 14.360652
57.985 14.530316
57.990 15.362136
57.995 15.888445
58.000 15.892114
58.005 15.936467
58.010 15.533019
58.015 15.615854
58.020 16.092867
58.025 15.618433
58.030 15.958454
58.035 16.206572
58.040 16.738747
58.045 17.15711
58.050 16.870403
58.055 17.117424
58.060 16.982533
58.065 16.630026
58.070 16.51362
58.075 16.629389
58.080 16.849796
58.085 16.913244
58.090 16.307409
58.095 15.847564
58.100 15.750995
58.105 16.007317
58.110 15.927533
58.115 16.275028
58.120 16.318012
58.125 16.276823
58.130 17.01236
58.135 17.029037
58.140 17.147041
58.145 17.109827
58.150 16.689487
58.155 16.354286
58.160 16.409533
58.165 16.351576
58.170 16.641342
58.175 16.62516
58.180 16.957439
58.185 16.944342
58.190 16.959976
58.195 16.660664
58.200 16.308187
58.205 16.019712
58.210 15.325147
58.215 14.445614
58.220 14.361401
58.225 14.250421
58.230 14.181786
58.235 14.081407
58.240 14.489051
58.245 14.706588
58.250 15.028129
58.255 15.221416
58.260 15.54751
58.265 16.21739
58.270 16.601028
58.275 16.101709
58.280 16.129204
58.285 16.637804
58.290 16.617184
58.295 16.007265
58.300 15.055659
58.305 14.697066
58.310 14.601541
58.315 14.911136
58.320 14.523337
58.325 14.312624
58.330 15.415014
58.335 16.480707
58.340 16.882013
58.345 17.147076
58.350 17.225569
58.355 17.950182
58.360 18.095057
58.365 17.669073
58.370 17.10804
58.375 16.493319
58.380 16.14465
58.385 15.776014
58.390 15.817961
58.395 15.74894
58.400 15.826449
58.405 15.834837
58.410 16.621195
58.415 16.913883
58.420 16.801926
58.425 16.668158
58.430 16.977129
58.435 17.271231
58.440 17.606646
58.445 17.221907
58.450 17.27569
58.455 17.233486
58.460 16.737085
58.465 16.99535
58.470 16.896873
58.475 17.52109
58.480 17.811811
58.485 17.763878
58.490 17.396679
58.495 17.604589
58.500 17.03759
58.505 16.693447
58.510 15.880319
58.515 15.451846
58.520 15.633196
58.525 16.086287
58.530 15.442902
58.535 15.053245
58.540 14.9058
58.545 15.440624
58.550 16.283028
58.555 16.384554
58.560 16.951313
58.565 17.362881
58.570 18.120895
58.575 18.62211
58.580 18.541586
58.585 18.078388
58.590 18.105522
58.595 18.107405
58.600 18.791893
58.605 18.623915
58.610 18.666819
58.615 18.771025
58.620 18.861191
58.625 19.225794
58.630 18.92971
58.635 17.99947
58.640 17.798645
58.645 16.703999
58.650 16.444363
58.655 16.417692
58.660 17.008318
58.665 17.389742
58.670 17.313675
58.675 17.301493
58.680 17.913273
58.685 18.081411
58.690 18.214506
58.695 18.224321
58.700 18.20961
58.705 18.732294
58.710 18.716661
58.715 18.499109
58.720 18.412338
58.725 17.982407
58.730 17.572849
58.735 17.712986
58.740 17.779337
58.745 17.781479
58.750 17.620655
58.755 17.356354
58.760 17.296925
58.765 16.984148
58.770 16.297256
58.775 16.563179
58.780 17.128113
58.785 17.786633
58.790 18.361401
58.795 18.330738
58.800 18.677454
58.805 19.135748
58.810 18.802977
58.815 18.324991
58.820 18.366766
58.825 18.392912
58.830 18.331501
58.835 17.725119
58.840 17.355211
58.845 16.939056
58.850 17.064154
58.855 16.664352
58.860 16.427765
58.865 16.457073
58.870 16.891573
58.875 17.891397
58.880 18.755331
58.885 18.409523
58.890 18.317192
58.895 18.684908
58.900 18.880068
58.905 18.751112
58.910 18.051575
58.915 18.046408
58.920 18.601995
58.925 19.051615
58.930 19.044405
58.935 19.826283
58.940 20.311224
58.945 20.191477
58.950 20.046041
58.955 19.774731
58.960 19.622917
58.965 18.983171
58.970 17.901363
58.975 18.085485
58.980 18.722633
58.985 19.116291
58.990 19.257603
58.995 19.699553
59.000 20.294436
59.005 20.942923
59.010 20.708963
59.015 20.638891
59.020 20.254934
59.025 20.588921
59.030 20.588638
59.035 20.899294
59.040 21.22547
59.045 21.483311
59.050 21.609985
59.055 21.215443
59.060 20.47681
59.065 20.45842
59.070 20.407385
59.075 19.930714
59.080 19.73782
59.085 19.646908
59.090 20.107864
59.095 20.214283
59.100 19.967335
59.105 19.112713
59.110 18.636747
59.115 18.125122
59.120 17.642769
59.125 17.672657
59.130 17.335085
59.135 17.129852
59.140 17.566504
59.145 18.218712
59.150 18.573162
59.155 18.429142
59.160 18.489559
59.165 18.884531
59.170 19.163454
59.175 19.101036
59.180 18.643692
59.185 18.783329
59.190 19.054102
59.195 18.959917
59.200 18.992825
59.205 18.64846
59.210 19.041903
59.215 18.959875
59.220 18.627142
59.225 18.522142
59.230 18.612774
59.235 18.621584
59.240 18.745888
59.245 18.646782
59.250 18.606165
59.255 18.847923
59.260 19.802137
59.265 20.152792
59.270 20.083475
59.275 20.036236
59.280 20.149061
59.285 20.977427
59.290 21.265911
59.295 20.603811
59.300 20.750666
59.305 20.776041
59.310 20.778959
59.315 21.086096
59.320 20.830185
59.325 20.358843
59.330 20.085184
59.335 19.834351
59.340 19.58563
59.345 19.276659
59.350 18.710011
59.355 18.651501
59.360 19.36351
59.365 20.045647
59.370 20.071783
59.375 20.026205
59.380 20.141813
59.385 20.205347
59.390 20.456139
59.395 19.964848
59.400 19.40037
59.405 19.571712
59.410 19.54328
59.415 19.567873
59.420 19.788538
59.425 19.54582
59.430 19.859982
59.435 19.945578
59.440 20.057634
59.445 20.512115
59.450 20.758791
59.455 20.910599
59.460 21.294342
59.465 21.472036
59.470 21.119881
59.475 20.96586
59.480 20.872557
59.485 20.753159
59.490 20.974089
59.495 20.404573
59.500 19.89773
59.505 19.835646
59.510 20.079477
59.515 19.944344
59.520 19.293888
59.525 18.753845
59.530 18.987392
59.535 19.082508
59.540 19.690689
59.545 19.838701
59.550 20.37977
59.555 21.575321
59.560 22.138069
59.565 22.187325
59.570 22.939369
59.575 22.463577
59.580 22.066206
59.585 21.420614
59.590 20.429949
59.595 20.353941
59.600 20.521749
59.605 20.444973
59.610 21.382355
59.615 21.863039
59.620 22.054155
59.625 22.067934
59.630 21.601646
59.635 20.752115
59.640 20.03351
59.645 19.346056
59.650 19.706886
59.655 20.177675
59.660 20.29122
59.665 19.847286
59.670 20.371866
59.675 20.51676
59.680 20.152443
59.685 19.815666
59.690 19.78447
59.695 19.874996
59.700 20.553127
59.705 20.716648
59.710 20.88821
59.715 20.693573
59.720 20.626085
59.725 20.695999
59.730 21.101633
59.735 21.202503
59.740 21.083471
59.745 20.725578
59.750 20.677608
59.755 20.418884
59.760 20.792603
59.765 20.572182
59.770 20.392191
59.775 20.300619
59.780 20.388996
59.785 21.363279
59.790 21.23749
59.795 20.926168
59.800 21.2908
59.805 21.163239
59.810 21.640265
59.815 22.210941
59.820 21.144094
59.825 21.265114
59.830 21.247019
59.835 21.308685
59.840 21.442558
59.845 21.176462
59.850 20.938641
59.855 21.581469
59.860 21.576477
59.865 21.618902
59.870 21.363989
59.875 21.663805
59.880 21.709372
59.885 21.588337
59.890 21.66684
59.895 21.76268
59.900 21.625851
59.905 21.94775
59.910 21.986
59.915 21.560314
59.920 21.704967
59.925 21.401636
59.930 21.168917
59.935 20.902122
59.940 20.888607
59.945 22.001936
59.950 22.321129
59.955 22.251984
59.960 22.44239
59.965 23.104322
59.970 22.640068
59.975 22.338905
59.980 21.905581
59.985 21.463835
59.990 21.142593
59.995 20.601444
60.000 20.395252
60.005 20.917784
60.010 20.68166
60.015 20.305197
60.020 20.850573
60.025 20.94392
60.030 20.801577
60.035 20.330868
60.040 19.695709
60.045 19.824852
60.050 20.210928
60.055 20.355604
60.060 20.716703
60.065 21.074368
60.070 21.352352
60.075 21.601006
60.080 21.14669
60.085 20.694088
60.090 20.539078
60.095 20.306166
60.100 20.294071
60.105 20.469843
60.110 20.896708
60.115 20.864222
60.120 20.727205
60.125 20.707998
60.130 20.945082
60.135 21.459608
60.140 21.285482
60.145 20.986134
60.150 21.365805
60.155 21.558336
60.160 21.329273
60.165 21.252817
60.170 21.376606
60.175 21.615135
60.180 21.357782
60.185 20.607264
60.190 20.249889
60.195 19.914879
60.200 19.893934
60.205 19.689913
60.210 19.37491
60.215 19.362909
60.220 19.39859
60.225 19.365898
60.230 19.449448
60.235 18.634317
60.240 18.596622
60.245 18.912134
60.250 18.556234
60.255 18.552446
60.260 18.276524
60.265 18.13179
60.270 18.700233
60.275 18.590288
60.280 18.816648
60.285 19.286106
60.290 19.129511
60.295 19.193859
60.300 19.452667
60.305 18.945364
60.310 18.557791
60.315 18.081257
60.320 17.864347
60.325 18.097038
60.330 18.234936
60.335 17.707478
60.340 18.043489
60.345 17.983906
60.350 17.996969
60.355 18.131966
60.360 17.926968
60.365 17.984077
60.370 18.105202
60.375 17.838249
60.380 17.55747
60.385 17.662359
60.390 17.820196
60.395 18.094767
60.400 17.738619
60.405 17.900785
60.410 18.022346
60.415 18.704683
60.420 18.53091
60.425 18.879913
60.430 18.70311
60.435 19.275547
60.440 19.679337
60.445 19.445131
60.450 19.482418
60.455 19.633694
60.460 19.27014
60.465 20.040205
60.470 20.019484
60.475 20.114853
60.480 20.120983
60.485 19.829763
60.490 19.34289
60.495 19.443344
60.500 18.200356
60.505 17.860834
60.510 17.507874
60.515 17.5648
60.520 17.415943
60.525 17.650436
60.530 17.427959
60.535 17.932623
60.540 18.048103
60.545 18.019819
60.550 17.761934
60.555 18.091591
60.560 17.938519
60.565 17.567635
60.570 17.407824
60.575 17.076672
60.580 17.138462
60.585 17.366783
60.590 17.080927
60.595 16.955544
60.600 16.938829
60.605 16.646132
60.610 16.45463
60.615 16.314619
60.620 16.351421
60.625 16.50823
60.630 16.518454
60.635 16.432209
60.640 16.452616
60.645 16.483988
60.650 16.633722
60.655 16.432728
60.660 16.143599
60.665 16.187506
60.670 15.866938
60.675 15.992283
60.680 15.877769
60.685 15.455439
60.690 15.383684
60.695 15.420349
60.700 15.524187
60.705 16.578329
60.710 16.701447
60.715 17.056871
60.720 17.846968
60.725 17.897253
60.730 17.99577
60.735 17.716167
60.740 17.560213
60.745 17.726307
60.750 17.282242
60.755 16.807629
60.760 16.689957
60.765 17.134651
60.770 17.337271
60.775 16.729588
60.780 16.549648
60.785 16.747425
60.790 16.387991
60.795 16.421719
60.800 16.496859
60.805 16.673468
60.810 17.011408
60.815 17.2983
60.820 16.905787
60.825 17.863892
60.830 18.360411
60.835 18.052834
60.840 17.90111
60.845 17.82753
60.850 17.890829
60.855 18.539488
60.860 17.911596
60.865 17.453945
60.870 17.195219
60.875 17.590773
60.880 17.796186
60.885 17.729616
60.890 17.177864
60.895 17.269688
60.900 17.136827
60.905 16.666273
60.910 16.113192
60.915 15.633056
60.920 15.389363
60.925 16.122572
60.930 16.161596
60.935 16.14163
60.940 16.761374
60.945 17.077692
60.950 17.132977
60.955 17.4394
60.960 17.130762
60.965 17.18273
60.970 17.531839
60.975 17.653734
60.980 17.282499
60.985 16.762335
60.990 16.03153
60.995 15.741615
61.000 15.257092
61.005 14.790995
61.010 14.689706
61.015 14.889334
61.020 15.551836
61.025 15.921782
61.030 16.570215
61.035 17.047878
61.040 17.043188
61.045 16.528757
61.050 16.496979
61.055 15.928256
61.060 15.797697
61.065 15.671843
61.070 15.521691
61.075 15.202678
61.080 15.459724
61.085 15.84411
61.090 15.669361
61.095 15.693048
61.100 15.566176
61.105 15.752418
61.110 15.801794
61.115 15.811707
61.120 15.573041
61.125 16.092213
61.130 15.933963
61.135 15.629374
61.140 15.356564
61.145 16.075396
61.150 16.303879
61.155 15.952963
61.160 15.782352
61.165 15.836904
61.170 15.55655
61.175 16.207216
61.180 16.095129
61.185 15.897264
61.190 16.406467
61.195 17.03384
61.200 17.564526
61.205 18.526707
61.210 18.383139
61.215 18.275496
61.220 18.67308
61.225 18.341599
61.230 17.825432
61.235 16.893009
61.240 16.032312
61.245 15.892392
61.250 15.572078
61.255 15.053615
61.260 15.139304
61.265 15.773499
61.270 15.912672
61.275 16.667227
61.280 16.651836
61.285 17.096647
61.290 17.446314
61.295 17.178455
61.300 17.1674
61.305 17.295065
61.310 17.171427
61.315 17.380821
61.320 17.547451
61.325 17.799274
61.330 17.546019
61.335 17.406637
61.340 17.52968
61.345 16.937473
61.350 16.748056
61.355 16.407993
61.360 16.113771
61.365 15.99137
61.370 15.380366
61.375 15.170498
61.380 15.26613
61.385 15.67151
61.390 15.432859
61.395 15.29828
61.400 15.510114
61.405 16.198912
61.410 16.632364
61.415 16.340317
61.420 15.84127
61.425 16.039421
61.430 16.384706
61.435 17.097063
61.440 16.634163
61.445 16.562614
61.450 16.797173
61.455 16.673328
61.460 15.870938
61.465 15.349564
61.470 15.34463
61.475 15.921437
61.480 16.536993
61.485 16.548597
61.490 17.087255
61.495 17.757647
61.500 18.373991
61.505 19.084
61.510 19.082859
61.515 18.748535
61.520 18.790888
61.525 18.564484
61.530 18.69208
61.535 18.393806
61.540 17.531271
61.545 17.749123
61.550 17.96455
61.555 18.067867
61.560 18.400866
61.565 18.51964
61.570 18.178633
61.575 18.283403
61.580 17.843267
61.585 17.301758
61.590 16.75176
61.595 16.628839
61.600 16.616146
61.605 16.663815
61.610 16.421329
61.615 16.419872
61.620 16.672483
61.625 16.94347
61.630 16.367947
61.635 16.568964
61.640 16.837872
61.645 16.65984
61.650 16.651525
61.655 16.511839
61.660 17.063377
61.665 17.301413
61.670 17.270536
61.675 17.225021
61.680 17.031942
61.685 17.035589
61.690 16.516354
61.695 16.039919
61.700 15.941146
61.705 15.939474
61.710 15.861325
61.715 16.130322
61.720 16.142214
61.725 16.519783
61.730 16.567764
61.735 16.765377
61.740 16.419655
61.745 16.040733
61.750 16.105227
61.755 16.25136
61.760 16.67275
61.765 16.636921
61.770 16.766014
61.775 17.009857
61.780 17.105703
61.785 17.034517
61.790 16.766373
61.795 16.396154
61.800 16.061501
61.805 15.57594
61.810 15.612526
61.815 15.775436
61.820 15.761469
61.825 16.406082
61.830 17.017771
61.835 17.276608
61.840 17.609175
61.845 17.592695
61.850 17.417475
61.855 17.423975
61.860 17.149281
61.865 17.482
61.870 17.856577
61.875 18.350927
61.880 19.061228
61.885 19.803278
61.890 19.804644
61.895 19.070404
61.900 18.195074
61.905 17.411903
61.910 16.882965
61.915 16.533379
61.920 15.929919
61.925 15.600416
61.930 15.715732
61.935 15.813557
61.940 16.406773
61.945 15.837639
61.950 15.598523
61.955 15.752398
61.960 15.507316
61.965 15.434783
61.970 15.863862
61.975 16.069637
61.980 16.573116
61.985 16.68376
61.990 17.178101
61.995 17.362829
62.000 17.435442
62.005 17.264139
62.010 17.407942
62.015 17.043053
62.020 16.188444
62.025 15.784622
62.030 15.449062
62.035 15.309681
62.040 15.182137
62.045 14.905861
62.050 15.282146
62.055 15.647305
62.060 15.999177
62.065 16.687176
62.070 16.754135
62.075 16.990822
62.080 16.850227
62.085 17.108841
62.090 17.369944
62.095 16.872025
62.100 16.415737
62.105 16.774763
62.110 17.014494
62.115 17.550648
62.120 17.261957
62.125 17.461716
62.130 17.501432
62.135 17.869675
62.140 17.868866
62.145 17.411789
62.150 16.916084
62.155 17.089136
62.160 16.852079
62.165 17.528412
62.170 18.296505
62.175 17.931362
62.180 17.633612
62.185 18.04933
62.190 18.235422
62.195 18.440247
62.200 17.907196
62.205 17.126213
62.210 17.106712
62.215 17.303875
62.220 17.125895
62.225 16.785439
62.230 16.669846
62.235 16.615728
62.240 16.876976
62.245 17.626696
62.250 17.35663
62.255 17.124332
62.260 16.78441
62.265 16.365955
62.270 16.748234
62.275 17.419456
62.280 17.302315
62.285 17.444109
62.290 17.644701
62.295 17.742968
62.300 18.032871
62.305 17.388004
62.310 16.701405
62.315 16.494238
62.320 16.807983
62.325 16.477711
62.330 16.089054
62.335 15.531557
62.340 15.128617
62.345 14.910288
62.350 14.9699
62.355 14.776093
62.360 14.839391
62.365 15.652563
62.370 16.373154
62.375 17.074133
62.380 16.934841
62.385 16.503632
62.390 16.683935
62.395 17.364141
62.400 17.824728
62.405 17.871706
62.410 17.440025
62.415 17.955879
62.420 18.461559
62.425 18.66777
62.430 18.161858
62.435 17.734619
62.440 17.890434
62.445 17.802271
62.450 17.833473
62.455 17.794861
62.460 17.530668
62.465 17.881077
62.470 17.741003
62.475 17.827118
62.480 18.517609
62.485 18.176691
62.490 18.232388
62.495 18.111952
62.500 18.239166
62.505 18.335642
62.510 18.375477
62.515 18.690571
62.520 18.4788
62.525 17.722752
62.530 17.897415
62.535 17.139957
62.540 16.977806
62.545 17.387238
62.550 16.894299
62.555 16.689518
62.560 16.802107
62.565 16.555916
62.570 16.816143
62.575 16.61409
62.580 16.143982
62.585 15.921354
62.590 16.50425
62.595 16.460701
62.600 16.458267
62.605 16.466888
62.610 16.520597
62.615 16.399094
62.620 16.694216
62.625 16.744661
62.630 16.977875
62.635 17.362844
62.640 17.503145
62.645 17.266323
62.650 17.429873
62.655 17.406359
62.660 17.478292
62.665 17.460447
62.670 17.271164
62.675 17.152061
62.680 17.378889
62.685 17.415436
62.690 16.853449
62.695 17.133373
62.700 17.060574
62.705 17.012169
62.710 17.426222
62.715 17.938526
62.720 17.753729
62.725 18.608217
62.730 19.13389
62.735 19.404417
62.740 19.24086
62.745 18.92482
62.750 18.93498
62.755 19.204151
62.760 18.884317
62.765 18.187151
62.770 17.817869
62.775 17.579641
62.780 17.306086
62.785 16.899626
62.790 17.098558
62.795 16.583937
62.800 16.487774
62.805 16.657845
62.810 16.851681
62.815 17.219933
62.820 17.408504
62.825 17.268509
62.830 17.329245
62.835 17.227362
62.840 16.982864
62.845 17.290907
62.850 17.314728
62.855 17.236645
62.860 16.883266
62.865 17.228567
62.870 17.588171
62.875 17.784353
62.880 17.298948
62.885 17.082952
62.890 17.066919
62.895 16.73064
62.900 16.525837
62.905 16.315289
62.910 17.042313
62.915 17.292736
62.920 17.086864
62.925 17.090303
62.930 17.541224
62.935 17.551191
62.940 17.807175
62.945 17.079115
62.950 16.832722
62.955 16.903448
62.960 16.453749
62.965 16.067978
62.970 15.919933
62.975 15.776935
62.980 16.031889
62.985 16.468578
62.990 16.638897
62.995 17.366238
63.000 17.966425
63.005 17.614202
63.010 17.413412
63.015 17.365171
63.020 17.46669
63.025 17.626812
63.030 17.211439
63.035 17.482424
63.040 17.895975
63.045 17.821035
63.050 17.994707
63.055 18.009636
63.060 17.885506
63.065 17.480366
63.070 17.225803
63.075 17.093935
63.080 16.914665
63.085 16.751585
63.090 16.823513
63.095 17.43898
63.100 17.871473
63.105 17.378801
63.110 17.729557
63.115 17.878569
63.120 17.873774
63.125 17.942957
63.130 17.784554
63.135 17.69651
63.140 18.231161
63.145 17.98995
63.150 18.207827
63.155 17.81444
63.160 17.776602
63.165 17.754181
63.170 18.447489
63.175 18.285915
63.180 18.296091
63.185 17.868025
63.190 18.060654
63.195 17.378637
63.200 16.499107
63.205 15.80514
63.210 15.728296
63.215 15.425401
63.220 15.094519
63.225 14.895258
63.230 15.234309
63.235 16.222458
63.240 16.674202
63.245 16.998701
63.250 18.163479
63.255 19.105871
63.260 19.596483
63.265 19.107117
63.270 18.448595
63.275 18.399755
63.280 18.886311
63.285 19.006584
63.290 18.753542
63.295 18.856665
63.300 19.153822
63.305 19.238428
63.310 19.258411
63.315 18.6903
63.320 18.136108
63.325 18.447115
63.330 18.565229
63.335 18.800564
63.340 18.848017
63.345 18.616755
63.350 18.229391
63.355 18.411528
63.360 18.140953
63.365 18.086399
63.370 18.111105
63.375 17.798445
63.380 17.83629
63.385 17.861637
63.390 17.540163
63.395 17.744598
63.400 17.721821
63.405 17.588877
63.410 17.757088
63.415 17.173254
63.420 17.740969
63.425 18.0294
63.430 17.606537
63.435 17.657604
63.440 17.928978
63.445 18.346931
63.450 19.467497
63.455 19.430283
63.460 18.547977
63.465 18.087631
63.470 17.993374
63.475 18.451227
63.480 18.365589
63.485 17.735367
63.490 17.959345
63.495 18.63513
63.500 19.313103
63.505 18.861944
63.510 18.140579
63.515 17.950026
63.520 17.921312
63.525 17.731075
63.530 18.144903
63.535 18.406643
63.540 18.521347
63.545 18.450079
63.550 18.376318
63.555 18.481609
63.560 18.648655
63.565 18.693501
63.570 18.566101
63.575 19.04825
63.580 19.238176
63.585 19.491558
63.590 19.806828
63.595 19.610966
63.600 19.152306
63.605 19.023352
63.610 18.615677
63.615 18.434044
63.620 18.470615
63.625 18.621672
63.630 18.431427
63.635 18.494638
63.640 18.703173
63.645 19.02869
63.650 18.965656
63.655 18.654402
63.660 18.094406
63.665 18.53594
63.670 18.420847
63.675 18.488815
63.680 18.562269
63.685 18.988964
63.690 18.903219
63.695 19.102844
63.700 18.912619
63.705 18.789831
63.710 18.472881
63.715 18.178469
63.720 17.810593
63.725 17.770901
63.730 17.885595
63.735 18.013182
63.740 18.424366
63.745 18.177174
63.750 17.887621
63.755 17.757645
63.760 17.85556
63.765 18.024818
63.770 17.841396
63.775 17.806574
63.780 18.243145
63.785 18.74268
63.790 18.759724
63.795 18.785286
63.800 18.364204
63.805 18.155458
63.810 18.176399
63.815 18.06004
63.820 18.110558
63.825 18.212799
63.830 18.069487
63.835 18.534428
63.840 19.501848
63.845 19.143204
63.850 19.331999
63.855 19.087444
63.860 19.391859
63.865 19.883694
63.870 19.490019
63.875 18.584578
63.880 18.746149
63.885 18.565838
63.890 18.857075
63.895 18.943851
63.900 18.881027
63.905 19.080086
63.910 19.143581
63.915 18.982338
63.920 19.299639
63.925 19.424377
63.930 18.911621
63.935 18.23452
63.940 18.151419
63.945 18.672047
63.950 19.190203
63.955 19.255772
63.960 19.047523
63.965 19.090128
63.970 19.59697
63.975 19.666903
63.980 19.307825
63.985 18.829109
63.990 18.601324
63.995 18.954737
64.000 19.350248
64.005 19.169199
64.010 18.896345
64.015 19.721161
64.020 19.817533
64.025 19.893103
64.030 20.09041
64.035 20.172171
64.040 20.582806
64.045 21.415752
64.050 21.93511
64.055 21.981268
64.060 22.062374
64.065 21.934196
64.070 21.990879
64.075 22.333241
64.080 21.979702
64.085 21.717306
64.090 22.005875
64.095 21.665901
64.100 21.579895
64.105 21.735252
64.110 21.279966
64.115 20.783209
64.120 19.779161
64.125 19.110111
64.130 19.174032
64.135 18.835838
64.140 18.400274
64.145 18.311972
64.150 18.225691
64.155 18.756437
64.160 19.062593
64.165 19.181097
64.170 19.542677
64.175 19.897543
64.180 20.178619
64.185 19.97769
64.190 19.805784
64.195 20.198898
64.200 20.411304
64.205 20.168671
64.210 20.084187
64.215 19.701735
64.220 19.960985
64.225 19.67421
64.230 19.265303
64.235 19.007614
64.240 19.556862
64.245 19.205191
64.250 19.409534
64.255 19.858604
64.260 20.203037
64.265 20.462437
64.270 20.337532
64.275 20.126375
64.280 20.504568
64.285 20.574799
64.290 21.02211
64.295 20.919165
64.300 20.99872
64.305 21.007046
64.310 20.867907
64.315 20.849791
64.320 20.833517
64.325 19.757002
64.330 19.518038
64.335 19.42083
64.340 19.147951
64.345 18.802214
64.350 18.851231
64.355 18.852646
64.360 19.419577
64.365 19.489357
64.370 19.756084
64.375 20.178396
64.380 20.595142
64.385 20.870588
64.390 21.141714
64.395 21.276857
64.400 21.740671
64.405 21.774408
64.410 21.851036
64.415 21.726194
64.420 21.537619
64.425 21.397625
64.430 21.90197
64.435 21.631969
64.440 21.592403
64.445 21.406717
64.450 21.506989
64.455 21.567152
64.460 21.627951
64.465 20.943504
64.470 20.521637
64.475 20.793295
64.480 20.877111
64.485 21.196564
64.490 21.093044
64.495 21.293478
64.500 21.752468
64.505 22.115318
64.510 21.861099
64.515 21.366116
64.520 20.491514
64.525 19.992401
64.530 19.905027
64.535 20.042732
64.540 20.302177
64.545 20.355433
64.550 20.771725
64.555 21.679699
64.560 21.92507
64.565 22.191652
64.570 22.019176
64.575 21.843197
64.580 21.719532
64.585 21.933468
64.590 21.620493
64.595 21.160231
64.600 20.80784
64.605 20.727037
64.610 20.317932
64.615 20.293165
64.620 20.297836
64.625 20.572298
64.630 21.250658
64.635 21.346151
64.640 21.867985
64.645 22.137888
64.650 22.827141
64.655 22.584213
64.660 22.5513
64.665 22.396332
64.670 22.457853
64.675 22.400774
64.680 22.710213
64.685 22.677477
64.690 22.891603
64.695 23.110014
64.700 23.015535
64.705 22.655991
64.710 22.428652
64.715 22.238329
64.720 22.307875
64.725 21.879885
64.730 22.277199
64.735 22.485973
64.740 22.378323
64.745 22.195446
64.750 22.125439
64.755 22.532814
64.760 23.395826
64.765 22.916763
64.770 22.808428
64.775 22.907885
64.780 23.614895
64.785 23.434418
64.790 22.580902
64.795 21.99254
64.800 22.085508
64.805 22.158308
64.810 21.943569
64.815 21.86446
64.820 21.826004
64.825 21.49699
64.830 21.131193
64.835 20.981741
64.840 20.818487
64.845 21.019932
64.850 21.347641
64.855 21.8708
64.860 21.961649
64.865 22.269428
64.870 22.892221
64.875 22.945177
64.880 22.216503
64.885 21.213957
64.890 21.194937
64.895 21.167311
64.900 21.131947
64.905 20.781956
64.910 21.09132
64.915 22.231771
64.920 23.050156
64.925 22.671143
64.930 22.887236
64.935 22.719654
64.940 22.677488
64.945 23.420088
64.950 23.83696
64.955 23.607952
64.960 23.988039
64.965 24.572947
64.970 25.045563
64.975 25.459883
64.980 24.739044
64.985 24.886473
64.990 24.327797
64.995 24.169147
65.000 23.153791
65.005 23.641529
65.010 23.374397
65.015 23.1269
65.020 22.80567
65.025 24.094767
65.030 24.60573
65.035 24.663694
65.040 23.228634
65.045 23.845846
65.050 24.403906
65.055 24.174015
65.060 23.902449
65.065 24.258198
65.070 24.885893
65.075 25.423939
65.080 25.233931
65.085 25.752325
65.090 25.80784
65.095 25.04044
65.100 24.783379
65.105 25.051188
65.110 24.987297
65.115 24.506145
65.120 23.751616
65.125 23.658588
65.130 24.184639
65.135 24.261726
65.140 24.470919
65.145 25.127842
65.150 25.484074
65.155 25.540388
65.160 25.107737
65.165 25.259727
65.170 25.086697
65.175 24.670549
65.180 24.576036
65.185 24.800312
65.190 24.695322
65.195 25.950464
65.200 25.537159
65.205 25.832066
65.210 25.931625
65.215 25.384102
65.220 25.448217
65.225 25.768932
65.230 25.439657
65.235 25.920717
65.240 25.804766
65.245 25.267992
65.250 24.94879
65.255 24.320129
65.260 23.771189
65.265 23.514139
65.270 22.849545
65.275 22.773806
65.280 23.395313
65.285 24.203869
65.290 25.23867
65.295 25.548019
65.300 25.242155
65.305 25.197735
65.310 24.643915
65.315 24.383772
65.320 24.347601
65.325 23.667574
65.330 23.488115
65.335 23.422453
65.340 24.232567
65.345 25.507149
65.350 25.939949
65.355 25.895817
65.360 25.884508
65.365 25.656433
65.370 25.816858
65.375 26.085951
65.380 25.926962
65.385 25.901381
65.390 26.151987
65.395 26.684565
65.400 26.833143
65.405 26.335663
65.410 25.811163
65.415 25.707951
65.420 24.779478
65.425 24.541182
65.430 24.636816
65.435 24.94392
65.440 25.048443
65.445 24.671347
65.450 24.762186
65.455 24.81381
65.460 24.30549
65.465 24.008675
65.470 24.237877
65.475 25.199469
65.480 25.37011
65.485 25.588064
65.490 26.30579
65.495 26.781008
65.500 27.202147
65.505 26.888474
65.510 26.537807
65.515 26.314423
65.520 26.111187
65.525 25.828007
65.530 25.222179
65.535 24.794718
65.540 25.431627
65.545 26.04389
65.550 26.543024
65.555 26.767408
65.560 27.114758
65.565 27.632725
65.570 27.959539
65.575 27.869225
65.580 27.468307
65.585 27.24453
65.590 26.707155
65.595 27.023598
65.600 26.906679
65.605 26.922091
65.610 27.221487
65.615 28.104898
65.620 28.636145
65.625 28.886356
65.630 28.715395
65.635 28.794102
65.640 29.233572
65.645 29.638979
65.650 29.509727
65.655 30.375696
65.660 30.888567
65.665 31.702829
65.670 32.241306
65.675 32.119545
65.680 31.817085
65.685 31.408806
65.690 30.982082
65.695 31.465729
65.700 31.215851
65.705 31.299793
65.710 31.739454
65.715 31.332712
65.720 30.747238
65.725 30.660402
65.730 30.471514
65.735 30.553371
65.740 30.18309
65.745 29.76495
65.750 30.731277
65.755 31.082409
65.760 30.852135
65.765 31.098894
65.770 31.285957
65.775 31.488478
65.780 31.627464
65.785 31.962294
65.790 32.448406
65.795 33.264381
65.800 33.451759
65.805 33.825954
65.810 34.168373
65.815 34.633015
65.820 34.459061
65.825 35.079762
65.830 35.396313
65.835 35.704193
65.840 35.123409
65.845 35.712242
65.850 35.415966
65.855 35.056507
65.860 34.92054
65.865 33.921135
65.870 33.798248
65.875 34.143246
65.880 34.037678
65.885 34.870586
65.890 35.655102
65.895 36.318138
65.900 36.824631
65.905 37.171638
65.910 37.997406
65.915 37.460163
65.920 37.22261
65.925 38.154274
65.930 37.671734
65.935 37.822227
65.940 38.133099
65.945 37.299736
65.950 37.175999
65.955 36.823246
65.960 36.272419
65.965 36.374748
65.970 36.315163
65.975 36.290627
65.980 36.699673
65.985 37.08926
65.990 37.790035
65.995 37.438313
66.000 37.869671
66.005 38.089348
66.010 37.616234
66.015 37.948467
66.020 38.010868
66.025 37.699574
66.030 37.65646
66.035 37.525528
66.040 37.301868
66.045 37.321873
66.050 38.384804
66.055 39.717274
66.060 40.704819
66.065 41.730671
66.070 41.9972
66.075 42.126549
66.080 42.594055
66.085 42.257343
66.090 41.900734
66.095 41.265675
66.100 41.044617
66.105 40.782162
66.110 41.144089
66.115 40.944149
66.120 40.078854
66.125 40.632317
66.130 40.96479
66.135 40.967102
66.140 41.534157
66.145 41.975941
66.150 41.701218
66.155 40.721664
66.160 39.117401
66.165 39.124748
66.170 39.5513
66.175 39.187798
66.180 38.615879
66.185 39.232475
66.190 40.190754
66.195 39.935101
66.200 39.871067
66.205 40.015465
66.210 39.719921
66.215 39.485352
66.220 38.638275
66.225 38.827038
66.230 40.11718
66.235 40.685867
66.240 40.349922
66.245 41.028263
66.250 41.69059
66.255 41.826965
66.260 41.253849
66.265 41.134907
66.270 40.4086
66.275 41.040619
66.280 41.101349
66.285 41.061794
66.290 40.394489
66.295 40.188633
66.300 40.29023
66.305 40.330372
66.310 39.253914
66.315 38.20966
66.320 37.875786
66.325 38.324677
66.330 37.506783
66.335 36.557083
66.340 35.834881
66.345 35.956982
66.350 36.616676
66.355 36.856113
66.360 38.306004
66.365 39.169704
66.370 38.845329
66.375 38.283741
66.380 37.021866
66.385 35.657673
66.390 34.81382
66.395 33.235352
66.400 32.563011
66.405 32.60165
66.410 32.177444
66.415 32.524105
66.420 32.521652
66.425 33.01186
66.430 32.749054
66.435 32.262272
66.440 31.802328
66.445 31.860268
66.450 31.662107
66.455 31.12043
66.460 30.528925
66.465 30.64205
66.470 31.104277
66.475 31.315531
66.480 30.689331
66.485 30.683331
66.490 30.552185
66.495 30.608274
66.500 30.235235
66.505 29.964272
66.510 29.769188
66.515 29.628016
66.520 29.439518
66.525 29.261244
66.530 28.414532
66.535 28.426498
66.540 27.938169
66.545 26.892513
66.550 26.18321
66.555 25.768721
66.560 25.696369
66.565 25.969536
66.570 26.21463
66.575 26.435101
66.580 26.754847
66.585 26.924759
66.590 27.014006
66.595 26.722143
66.600 26.331955
66.605 24.93162
66.610 24.765387
66.615 24.718399
66.620 25.079746
66.625 25.350973
66.630 24.789927
66.635 25.088066
66.640 25.587929
66.645 25.603306
66.650 25.224085
66.655 24.378735
66.660 24.021137
66.665 24.221369
66.670 23.998924
66.675 23.810255
66.680 23.573629
66.685 23.471165
66.690 23.530914
66.695 22.832766
66.700 23.044308
66.705 23.017939
66.710 22.603909
66.715 22.437798
66.720 22.438143
66.725 22.895134
66.730 23.347263
66.735 23.234257
66.740 23.093832
66.745 23.078562
66.750 23.625467
66.755 23.649868
66.760 23.258772
66.765 23.18421
66.770 22.459299
66.775 22.029018
66.780 22.110426
66.785 22.109159
66.790 21.900412
66.795 21.528637
66.800 21.10504
66.805 21.406557
66.810 21.912127
66.815 21.781719
66.820 21.270891
66.825 21.03274
66.830 20.581949
66.835 20.919676
66.840 20.855974
66.845 20.553715
66.850 20.497578
66.855 20.983677
66.860 20.500103
66.865 20.46076
66.870 20.382427
66.875 20.345869
66.880 20.813208
66.885 20.744423
66.890 20.497545
66.895 21.158142
66.900 21.279793
66.905 20.901247
66.910 20.139853
66.915 19.346712
66.920 19.748978
66.925 19.18849
66.930 19.316828
66.935 19.734062
66.940 19.898619
66.945 20.670462
66.950 20.87661
66.955 20.391508
66.960 20.28297
66.965 20.218397
66.970 20.177103
66.975 20.974735
66.980 21.143326
66.985 21.624804
66.990 22.039469
66.995 22.423458
67.000 22.759562
67.005 22.871113
67.010 22.292603
67.015 22.240122
67.020 21.396816
67.025 21.329727
67.030 21.409319
67.035 21.239807
67.040 21.115232
67.045 21.144011
67.050 21.0951
67.055 21.646477
67.060 21.523689
67.065 21.295183
67.070 21.08231
67.075 21.613689
67.080 21.681269
67.085 21.706758
67.090 22.141594
67.095 21.983898
67.100 21.738701
67.105 21.432781
67.110 20.569948
67.115 20.174631
67.120 19.861132
67.125 19.495352
67.130 19.128
67.135 18.849585
67.140 18.754002
67.145 18.913454
67.150 19.000572
67.155 19.446404
67.160 19.878618
67.165 20.194983
67.170 20.213575
67.175 20.39134
67.180 20.497917
67.185 20.443659
67.190 20.011049
67.195 19.860378
67.200 19.846067
67.205 19.93644
67.210 20.336887
67.215 20.953535
67.220 21.922085
67.225 22.186485
67.230 22.249556
67.235 22.025099
67.240 21.913164
67.245 21.053225
67.250 20.007479
67.255 19.53775
67.260 19.628073
67.265 19.353817
67.270 19.803171
67.275 20.142742
67.280 20.372656
67.285 21.301462
67.290 20.929003
67.295 20.52598
67.300 20.605659
67.305 20.198183
67.310 20.256996
67.315 20.437859
67.320 20.196976
67.325 20.365253
67.330 20.298651
67.335 20.302181
67.340 20.763151
67.345 20.632811
67.350 20.725119
67.355 20.538136
67.360 20.629982
67.365 20.997629
67.370 21.177406
67.375 20.932222
67.380 21.171991
67.385 21.311893
67.390 21.039986
67.395 20.465698
67.400 19.97385
67.405 19.599087
67.410 19.468822
67.415 19.054892
67.420 18.189653
67.425 18.702181
67.430 19.169369
67.435 19.878611
67.440 20.575283
67.445 20.88982
67.450 20.900885
67.455 21.660402
67.460 21.451948
67.465 21.612741
67.470 21.034149
67.475 20.807911
67.480 20.759834
67.485 20.875799
67.490 20.188782
67.495 20.667784
67.500 20.604565
67.505 20.535826
67.510 20.918835
67.515 20.89168
67.520 21.660067
67.525 21.949039
67.530 21.147598
67.535 21.307882
67.540 21.504259
67.545 21.465605
67.550 21.94162
67.555 21.579723
67.560 21.889196
67.565 21.796896
67.570 21.443861
67.575 20.734407
67.580 20.767015
67.585 20.471855
67.590 19.87582
67.595 19.686275
67.600 20.056231
67.605 20.924976
67.610 21.287148
67.615 20.948717
67.620 20.935883
67.625 21.667534
67.630 21.811916
67.635 21.880041
67.640 20.937798
67.645 20.923658
67.650 21.061678
67.655 20.845718
67.660 20.411098
67.665 20.546211
67.670 20.191931
67.675 20.430281
67.680 20.776026
67.685 20.857132
67.690 20.504978
67.695 20.222507
67.700 19.400642
67.705 19.104816
67.710 19.305782
67.715 19.278677
67.720 19.363958
67.725 20.194901
67.730 20.524975
67.735 20.976152
67.740 21.276224
67.745 21.376637
67.750 20.924297
67.755 20.774818
67.760 20.449022
67.765 20.641479
67.770 20.704702
67.775 20.548929
67.780 20.423416
67.785 20.363493
67.790 20.387293
67.795 20.21043
67.800 20.028067
67.805 20.130209
67.810 20.521431
67.815 20.639957
67.820 20.675228
67.825 20.672958
67.830 20.813442
67.835 20.729015
67.840 20.616999
67.845 20.199045
67.850 19.970861
67.855 19.949493
67.860 19.689119
67.865 19.672499
67.870 19.286596
67.875 19.687162
67.880 19.649832
67.885 19.436279
67.890 19.463207
67.895 19.931993
67.900 20.685421
67.905 21.315283
67.910 21.257994
67.915 21.457228
67.920 21.632376
67.925 21.970892
67.930 21.534933
67.935 20.805134
67.940 20.197567
67.945 20.270714
67.950 20.127546
67.955 20.225294
67.960 19.861071
67.965 19.561945
67.970 19.403009
67.975 19.798647
67.980 20.073685
67.985 20.184818
67.990 19.868696
67.995 19.651487
68.000 19.901447
68.005 19.555679
68.010 19.618101
68.015 19.477264
68.020 19.709255
68.025 19.898998
68.030 20.239174
68.035 20.367481
68.040 20.956865
68.045 20.875162
68.050 20.949184
68.055 20.486258
68.060 20.29357
68.065 20.493969
68.070 20.151613
68.075 20.169603
68.080 20.401056
68.085 20.115849
68.090 20.026066
68.095 20.257504
68.100 20.857664
68.105 21.91313
68.110 21.840208
68.115 21.287153
68.120 21.34551
68.125 21.967901
68.130 21.675909
68.135 20.808332
68.140 19.802185
68.145 19.565376
68.150 19.739429
68.155 20.215759
68.160 20.659054
68.165 21.034761
68.170 21.240402
68.175 21.696602
68.180 22.051073
68.185 21.603119
68.190 21.287231
68.195 21.002533
68.200 20.156837
68.205 19.890587
68.210 20.15873
68.215 20.593874
68.220 20.908459
68.225 20.574541
68.230 20.051397
68.235 19.986504
68.240 19.93384
68.245 18.87768
68.250 18.500711
68.255 18.852873
68.260 18.838554
68.265 19.186487
68.270 19.484509
68.275 19.492647
68.280 20.384754
68.285 20.332129
68.290 19.991053
68.295 19.491484
68.300 19.598055
68.305 19.997044
68.310 19.800837
68.315 19.207972
68.320 19.119936
68.325 19.575861
68.330 20.104927
68.335 19.589281
68.340 19.345284
68.345 19.978357
68.350 20.033192
68.355 20.390015
68.360 20.044403
68.365 19.794712
68.370 20.232899
68.375 20.331852
68.380 20.042791
68.385 19.911259
68.390 19.563154
68.395 19.809093
68.400 20.061552
68.405 19.758795
68.410 19.453032
68.415 19.484245
68.420 19.438253
68.425 19.312767
68.430 19.386692
68.435 19.475918
68.440 19.587034
68.445 20.088415
68.450 19.895678
68.455 20.629927
68.460 20.860422
68.465 21.039936
68.470 21.428663
68.475 21.635338
68.480 21.351118
68.485 21.505236
68.490 20.93162
68.495 20.577473
68.500 20.275555
68.505 19.98831
68.510 19.255293
68.515 18.966715
68.520 19.183395
68.525 19.786356
68.530 19.889212
68.535 19.443388
68.540 19.821558
68.545 20.09145
68.550 20.430342
68.555 19.701418
68.560 19.552992
68.565 19.548298
68.570 19.685263
68.575 20.177725
68.580 20.793423
68.585 20.391235
68.590 21.035795
68.595 21.294746
68.600 22.292149
68.605 22.859007
68.610 22.394985
68.615 22.510101
68.620 22.856936
68.625 22.718809
68.630 22.469849
68.635 21.757107
68.640 21.60968
68.645 21.380075
68.650 20.944561
68.655 20.717026
68.660 20.646393
68.665 19.721775
68.670 19.237389
68.675 18.500013
68.680 18.538307
68.685 18.802275
68.690 18.686588
68.695 18.617756
68.700 19.046061
68.705 19.016777
68.710 19.685141
68.715 19.96034
68.720 19.861124
68.725 20.692223
68.730 20.736748
68.735 20.757113
68.740 20.971781
68.745 20.737036
68.750 20.624943
68.755 21.010921
68.760 20.728159
68.765 21.121565
68.770 21.704699
68.775 21.889053
68.780 22.189159
68.785 22.463879
68.790 23.006567
68.795 23.008312
68.800 22.96003
68.805 23.183224
68.810 23.273985
68.815 23.079931
68.820 22.957085
68.825 23.208349
68.830 23.355446
68.835 23.073919
68.840 22.609446
68.845 22.536554
68.850 22.997366
68.855 22.870735
68.860 22.540501
68.865 22.552898
68.870 23.028311
68.875 23.057589
68.880 22.925406
68.885 22.411518
68.890 22.447512
68.895 22.204084
68.900 22.430222
68.905 22.410793
68.910 22.841589
68.915 23.167942
68.920 23.052374
68.925 23.08881
68.930 23.321388
68.935 23.725206
68.940 23.286354
68.945 22.726158
68.950 22.764875
68.955 23.228558
68.960 23.083591
68.965 23.130573
68.970 23.477222
68.975 23.630219
68.980 24.215565
68.985 24.556376
68.990 24.544594
68.995 24.375412
69.000 24.496386
69.005 24.758554
69.010 25.090225
69.015 24.413973
69.020 23.561516
69.025 23.886545
69.030 24.005877
69.035 23.232059
69.040 22.596647
69.045 22.294123
69.050 23.13448
69.055 23.744556
69.060 23.91601
69.065 24.03611
69.070 24.933695
69.075 25.389299
69.080 25.86693
69.085 25.373505
69.090 25.456387
69.095 25.497236
69.100 26.09169
69.105 25.596785
69.110 26.08387
69.115 26.951307
69.120 27.454851
69.125 27.580276
69.130 27.727715
69.135 27.660345
69.140 28.112949
69.145 27.735241
69.150 27.128706
69.155 26.774981
69.160 26.707146
69.165 26.397001
69.170 26.348085
69.175 26.449362
69.180 26.720654
69.185 26.889418
69.190 27.084082
69.195 26.598595
69.200 26.765516
69.205 26.514479
69.210 26.040199
69.215 26.429489
69.220 26.848907
69.225 27.095959
69.230 26.954868
69.235 26.707012
69.240 27.421299
69.245 28.327021
69.250 28.286428
69.255 28.000557
69.260 27.736351
69.265 28.345634
69.270 28.897081
69.275 28.919788
69.280 27.955675
69.285 28.04401
69.290 28.423021
69.295 28.296585
69.300 28.399094
69.305 29.099331
69.310 29.865248
69.315 30.286482
69.320 30.195324
69.325 30.502178
69.330 31.161961
69.335 30.459799
69.340 29.501842
69.345 29.488604
69.350 30.377504
69.355 30.261024
69.360 30.018463
69.365 30.603277
69.370 31.223825
69.375 31.22921
69.380 30.509417
69.385 30.047709
69.390 30.613142
69.395 30.760866
69.400 31.054409
69.405 31.161484
69.410 31.83831
69.415 32.816925
69.420 33.342434
69.425 33.021309
69.430 32.599842
69.435 32.733486
69.440 32.856693
69.445 32.655838
69.450 32.672146
69.455 32.456207
69.460 33.052631
69.465 33.070812
69.470 32.489239
69.475 32.28437
69.480 32.185795
69.485 32.243603
69.490 32.45723
69.495 32.261295
69.500 33.011726
69.505 33.522221
69.510 33.581921
69.515 33.414761
69.520 33.573299
69.525 34.053749
69.530 34.327335
69.535 33.987461
69.540 33.966187
69.545 33.665539
69.550 33.745918
69.555 32.70879
69.560 31.754368
69.565 31.437218
69.570 32.193104
69.575 32.696823
69.580 32.982803
69.585 32.977463
69.590 33.657436
69.595 34.735649
69.600 34.779594
69.605 34.156342
69.610 33.707905
69.615 34.244858
69.620 33.875526
69.625 33.234257
69.630 33.426899
69.635 33.513409
69.640 33.093018
69.645 32.86813
69.650 32.448357
69.655 32.642002
69.660 32.533501
69.665 31.832102
69.670 31.447876
69.675 31.548782
69.680 31.362076
69.685 31.058203
69.690 31.449808
69.695 31.532272
69.700 30.934587
69.705 31.011221
69.710 30.845415
69.715 31.259895
69.720 31.861151
69.725 31.855759
69.730 31.73597
69.735 31.708368
69.740 32.043205
69.745 32.387295
69.750 31.42326
69.755 30.652346
69.760 30.031147
69.765 30.046217
69.770 30.157185
69.775 29.904696
69.780 29.996712
69.785 30.6814
69.790 30.615667
69.795 30.297138
69.800 30.043516
69.805 29.772211
69.810 30.062523
69.815 29.839176
69.820 29.035429
69.825 28.499655
69.830 29.062489
69.835 30.031895
69.840 29.289349
69.845 28.023031
69.850 27.648666
69.855 27.822739
69.860 27.52347
69.865 26.520061
69.870 25.672558
69.875 25.860058
69.880 26.005432
69.885 26.075331
69.890 26.084131
69.895 25.550413
69.900 25.014208
69.905 24.758356
69.910 24.133354
69.915 23.934183
69.920 23.861965
69.925 23.849964
69.930 24.050682
69.935 24.382345
69.940 24.228893
69.945 24.341311
69.950 24.069498
69.955 24.016905
69.960 24.321896
69.965 24.697283
69.970 24.203417
69.975 25.113182
69.980 25.106668
69.985 25.153173
69.990 24.282732
69.995 23.963778
70.000 23.587252
70.005 23.029686
70.010 22.408833
70.015 22.110933
70.020 22.348251
70.025 22.739223
70.030 23.058779
70.035 23.760319
70.040 23.418346
70.045 23.316561
70.050 23.431753
70.055 23.453333
70.060 22.928513
70.065 23.239014
70.070 23.397354
70.075 24.148796
70.080 24.49995
70.085 24.508356
70.090 24.324747
70.095 23.81324
70.100 23.398453
70.105 23.271713
70.110 23.09391
70.115 23.034376
70.120 22.532093
70.125 22.804913
70.130 23.219559
70.135 22.419203
70.140 22.611759
70.145 22.205734
70.150 22.180317
70.155 22.193266
70.160 22.107286
70.165 21.694019
70.170 21.152573
70.175 20.645056
70.180 20.315781
70.185 20.309324
70.190 20.566172
70.195 20.455431
70.200 20.491606
70.205 20.914618
70.210 20.680157
70.215 21.188166
70.220 21.049198
70.225 20.541597
70.230 20.284466
70.235 20.048227
70.240 19.535013
70.245 19.546301
70.250 19.23922
70.255 19.760658
70.260 19.5835
70.265 19.223158
70.270 19.559246
70.275 19.381117
70.280 19.077562
70.285 18.754091
70.290 17.718979
70.295 17.868462
70.300 18.147425
70.305 18.337952
70.310 18.6029
70.315 19.227512
70.320 19.311522
70.325 19.811666
70.330 20.086025
70.335 20.093725
70.340 19.875893
70.345 20.15107
70.350 20.580139
70.355 20.71554
70.360 20.755156
70.365 20.66539
70.370 20.68689
70.375 20.147243
70.380 19.495646
70.385 19.047132
70.390 19.22084
70.395 19.05109
70.400 19.059422
70.405 18.870258
70.410 18.953012
70.415 18.929693
70.420 18.670797
70.425 18.727509
70.430 18.771412
70.435 18.709946
70.440 19.039736
70.445 19.950346
70.450 20.070091
70.455 20.093994
70.460 19.853138
70.465 20.360044
70.470 20.350212
70.475 20.146606
70.480 20.140167
70.485 20.133347
70.490 19.82057
70.495 19.981709
70.500 19.838636
70.505 19.850199
70.510 19.744492
70.515 19.850048
70.520 20.202368
70.525 20.082783
70.530 20.206112
70.535 20.742847
70.540 20.863646
70.545 21.049795
70.550 20.625526
70.555 20.855152
70.560 21.218313
70.565 21.080053
70.570 20.876148
70.575 20.315382
70.580 19.588797
70.585 19.352793
70.590 19.219322
70.595 18.948921
70.600 18.264929
70.605 17.943743
70.610 18.564463
70.615 19.234356
70.620 19.540693
70.625 20.008516
70.630 20.581345
70.635 21.238506
70.640 21.615263
70.645 21.763348
70.650 21.656376
70.655 21.934256
70.660 21.396315
70.665 21.158363
70.670 20.507813
70.675 20.159719
70.680 19.746349
70.685 19.737625
70.690 19.293131
70.695 19.746555
70.700 19.797781
70.705 19.870457
70.710 19.788746
70.715 19.971914
70.720 20.085457
70.725 20.893269
70.730 20.705412
70.735 21.006517
70.740 21.287249
70.745 21.295765
70.750 20.796217
70.755 20.393517
70.760 19.713598
70.765 20.067305
70.770 19.870665
70.775 19.767693
70.780 19.445442
70.785 19.60935
70.790 19.774107
70.795 19.629087
70.800 19.32402
70.805 19.788324
70.810 19.715395
70.815 19.890175
70.820 20.301338
70.825 19.766775
70.830 20.107283
70.835 19.655376
70.840 19.190767
70.845 19.226139
70.850 18.882111
70.855 18.102116
70.860 18.298138
70.865 17.945198
70.870 17.593788
70.875 17.60103
70.880 18.066486
70.885 17.900597
70.890 17.613216
70.895 17.719654
70.900 18.197033
70.905 18.292679
70.910 18.43292
70.915 18.306671
70.920 18.758238
70.925 19.514181
70.930 19.228928
70.935 19.203289
70.940 19.368841
70.945 19.417072
70.950 19.22246
70.955 19.185236
70.960 19.335701
70.965 19.962564
70.970 20.913471
70.975 21.086811
70.980 20.816339
70.985 21.231638
70.990 20.745579
70.995 20.113985
71.000 19.50489
71.005 18.959995
71.010 18.852472
71.015 18.653193
71.020 18.295902
71.025 18.062368
71.030 17.879032
71.035 17.923679
71.040 17.155825
71.045 16.597399
71.050 16.55834
71.055 16.937555
71.060 16.83094
71.065 16.455761
71.070 16.679731
71.075 17.20859
71.080 17.21546
71.085 17.341169
71.090 17.377855
71.095 18.083715
71.100 18.009844
71.105 18.099936
71.110 18.219419
71.115 18.604109
71.120 18.66087
71.125 18.735592
71.130 19.075464
71.135 19.318756
71.140 19.279974
71.145 19.692444
71.150 19.865162
71.155 19.805885
71.160 19.338074
71.165 19.191654
71.170 20.020483
71.175 20.265467
71.180 19.998167
71.185 19.647568
71.190 19.843176
71.195 19.764023
71.200 19.38707
71.205 18.296364
71.210 17.72126
71.215 17.61935
71.220 17.99308
71.225 17.956724
71.230 18.682568
71.235 18.538557
71.240 19.014534
71.245 19.139645
71.250 19.439985
71.255 19.175282
71.260 19.135275
71.265 19.843544
71.270 20.247351
71.275 20.285669
71.280 20.226974
71.285 19.99658
71.290 20.283039
71.295 19.474718
71.300 18.140013
71.305 17.366295
71.310 16.709324
71.315 16.892263
71.320 17.273502
71.325 17.42658
71.330 18.058577
71.335 19.058189
71.340 19.665184
71.345 20.179134
71.350 19.845345
71.355 19.410229
71.360 18.905682
71.365 18.448833
71.370 17.802309
71.375 18.01634
71.380 18.109623
71.385 17.650726
71.390 17.464104
71.395 17.7941
71.400 18.031078
71.405 18.49995
71.410 18.443296
71.415 17.821518
71.420 18.335548
71.425 18.291882
71.430 17.635963
71.435 16.671946
71.440 15.907825
71.445 16.158438
71.450 16.782978
71.455 16.943808
71.460 17.640711
71.465 18.364845
71.470 19.238667
71.475 19.291399
71.480 19.186964
71.485 19.31657
71.490 19.30242
71.495 19.574677
71.500 19.822889
71.505 19.422995
71.510 19.489655
71.515 19.511972
71.520 18.994232
71.525 18.499117
71.530 18.769808
71.535 18.387314
71.540 18.595051
71.545 18.995657
71.550 18.848593
71.555 18.996984
71.560 19.350662
71.565 18.465927
71.570 19.132395
71.575 19.1339
71.580 19.098783
71.585 19.787745
71.590 20.119881
71.595 20.050295
71.600 19.900553
71.605 19.447184
71.610 19.486382
71.615 18.82802
71.620 18.188248
71.625 18.451235
71.630 18.909231
71.635 19.507885
71.640 19.586323
71.645 19.526411
71.650 19.893671
71.655 19.667818
71.660 19.236622
71.665 18.843523
71.670 17.877251
71.675 17.325689
71.680 17.420622
71.685 17.422092
71.690 17.632132
71.695 18.018852
71.700 18.900806
71.705 19.792906
71.710 20.354902
71.715 20.33
71.720 20.374443
71.725 20.105957
71.730 19.733994
71.735 19.840513
71.740 20.284422
71.745 20.239559
71.750 20.466864
71.755 20.373753
71.760 20.253464
71.765 19.825211
71.770 19.364025
71.775 18.949448
71.780 19.136236
71.785 18.992479
71.790 18.994358
71.795 18.837729
71.800 18.585518
71.805 18.476088
71.810 18.214596
71.815 18.585842
71.820 18.909197
71.825 19.398962
71.830 19.69927
71.835 19.743095
71.840 20.213865
71.845 20.205776
71.850 19.671167
71.855 19.62068
71.860 19.212637
71.865 18.756493
71.870 18.759941
71.875 18.321299
71.880 17.996819
71.885 18.556126
71.890 18.114815
71.895 18.541754
71.900 18.742319
71.905 18.360786
71.910 19.007835
71.915 18.89237
71.920 18.153555
71.925 18.514738
71.930 18.778963
71.935 19.114576
71.940 18.593094
71.945 17.654533
71.950 17.489357
71.955 17.721182
71.960 17.067593
71.965 16.761637
71.970 17.223581
71.975 17.924707
71.980 18.26532
71.985 18.539936
71.990 18.387194
71.995 18.427275
72.000 18.290169
72.005 17.962452
72.010 17.882851
72.015 17.754175
72.020 18.300724
72.025 18.443825
72.030 19.000006
72.035 19.639496
72.040 19.549839
72.045 19.208481
72.050 19.063595
72.055 18.962502
72.060 19.120741
72.065 18.493259
72.070 18.214085
72.075 18.662811
72.080 18.614981
72.085 18.648527
72.090 18.204004
72.095 18.030556
72.100 18.142561
72.105 17.856684
72.110 18.161253
72.115 18.01944
72.120 18.034475
72.125 17.356916
72.130 17.295483
72.135 17.739103
72.140 17.439276
72.145 17.731295
72.150 17.925665
72.155 18.432949
72.160 19.108484
72.165 18.963671
72.170 19.095177
72.175 19.217274
72.180 19.069004
72.185 18.873365
72.190 18.723373
72.195 18.667501
72.200 18.853338
72.205 18.931673
72.210 18.786888
72.215 18.824301
72.220 19.041325
72.225 18.919308
72.230 18.680214
72.235 18.324537
72.240 18.722979
72.245 18.734369
72.250 18.072338
72.255 17.698029
72.260 17.920277
72.265 17.938139
72.270 17.683916
72.275 17.10955
72.280 17.008919
72.285 17.616497
72.290 17.944715
72.295 18.449829
72.300 18.48908
72.305 19.165815
72.310 19.667824
72.315 20.309885
72.320 20.516666
72.325 20.095963
72.330 20.26967
72.335 20.390558
72.340 19.903463
72.345 19.222347
72.350 18.406912
72.355 18.482189
72.360 18.234545
72.365 18.202662
72.370 18.459377
72.375 18.622681
72.380 18.932377
72.385 18.881613
72.390 18.977228
72.395 18.934475
72.400 18.347879
72.405 18.002937
72.410 18.09692
72.415 18.490761
72.420 18.63938
72.425 17.743137
72.430 17.369812
72.435 17.139967
72.440 16.746952
72.445 16.586035
72.450 16.647364
72.455 17.279985
72.460 18.130552
72.465 18.786938
72.470 19.200857
72.475 19.280565
72.480 18.581392
72.485 18.522678
72.490 18.523657
72.495 18.197811
72.500 17.725285
72.505 17.97574
72.510 17.913731
72.515 18.05591
72.520 17.594509
72.525 17.729649
72.530 17.865248
72.535 18.161631
72.540 18.199953
72.545 19.022623
72.550 19.251204
72.555 19.380621
72.560 18.822285
72.565 18.383781
72.570 17.908272
72.575 17.713814
72.580 17.446419
72.585 17.420303
72.590 17.323687
72.595 17.673183
72.600 18.213196
72.605 18.910679
72.610 18.655359
72.615 17.835003
72.620 17.59194
72.625 17.735546
72.630 18.15213
72.635 18.440754
72.640 18.04685
72.645 18.405325
72.650 18.746754
72.655 19.258177
72.660 19.372314
72.665 18.534163
72.670 18.002357
72.675 17.778252
72.680 17.782675
72.685 17.972357
72.690 17.313574
72.695 17.115482
72.700 17.174339
72.705 17.355818
72.710 17.212111
72.715 17.225302
72.720 17.841324
72.725 17.924915
72.730 17.88768
72.735 18.321852
72.740 19.13166
72.745 19.501863
72.750 19.404972
72.755 18.715355
72.760 18.684015
72.765 18.059078
72.770 17.12785
72.775 16.431677
72.780 16.20097
72.785 15.747628
72.790 15.777227
72.795 15.567762
72.800 16.232031
72.805 16.94063
72.810 16.836662
72.815 17.046173
72.820 17.496035
72.825 17.970503
72.830 17.788664
72.835 17.179893
72.840 16.776985
72.845 16.572077
72.850 16.7894
72.855 16.541063
72.860 16.41135
72.865 16.699055
72.870 16.846977
72.875 17.091413
72.880 17.449493
72.885 17.349558
72.890 17.397352
72.895 17.527792
72.900 17.650064
72.905 17.952297
72.910 17.794802
72.915 17.963203
72.920 17.752077
72.925 17.593796
72.930 17.616791
72.935 17.793304
72.940 17.319845
72.945 17.071043
72.950 16.476011
72.955 16.661036
72.960 16.661699
72.965 16.654856
72.970 16.650112
72.975 17.018938
72.980 17.131733
72.985 17.427042
72.990 17.373476
72.995 16.877642
73.000 16.508413
