!@!!GADDS PLOTSO FILE: Chi integration type
!@!!Title/SampleName: map-1b
!@!!Comment: ?
!@!!User: Bruker Instrument Administrator
!@!!Site: University of Illinois Chicago
!@!!Frame: map-1b_01_000.gfrm
!@!!Wavelengths    1.54184   1.54056   1.54439
!@!!Frame angles: 2Theta: 63.000 Omega: 50.000 Phi: 0.000 Chi: 90.000
!@!!Integration range: 2Theta: 53.000 to 73.000  Gamma: -105.000 to -75.000
!@!!Integration method: bin normalized
!@!N
!@!SS
!@!M
!@!L 0.0 0.0 0.0 0.0
!@!XDegrees
!@!YCounts
53.000 9.875248
53.005 10.214358
53.010 10.552966
53.015 10.82289
53.020 11.240464
53.025 11.402582
53.030 11.162958
53.035 10.667873
53.040 10.164559
53.045 9.440613
53.050 9.338277
53.055 9.127189
53.060 8.991134
53.065 8.855558
53.070 8.388646
53.075 8.733362
53.080 8.714373
53.085 8.553749
53.090 8.582361
53.095 8.578074
53.100 8.805811
53.105 9.195664
53.110 9.282486
53.115 9.73533
53.120 9.524674
53.125 9.254334
53.130 9.215623
53.135 9.433164
53.140 8.984981
53.145 8.631234
53.150 7.822908
53.155 8.103268
53.160 8.393023
53.165 8.77402
53.170 8.613559
53.175 8.626085
53.180 8.726869
53.185 9.128844
53.190 9.07233
53.195 9.306759
53.200 9.432371
53.205 9.872508
53.210 9.718616
53.215 10.184129
53.220 10.265941
53.225 10.056466
53.230 9.688605
53.235 9.619674
53.240 9.89491
53.245 10.029619
53.250 9.624813
53.255 9.330764
53.260 9.227926
53.265 9.534569
53.270 9.765256
53.275 9.931793
53.280 10.686471
53.285 11.462859
53.290 11.711826
53.295 12.020627
53.300 11.352778
53.305 11.399539
53.310 10.977253
53.315 10.394683
53.320 9.946088
53.325 10.004024
53.330 9.639546
53.335 9.957199
53.340 9.963862
53.345 10.771907
53.350 11.065272
53.355 10.876882
53.360 10.740985
53.365 10.882105
53.370 10.898109
53.375 10.481636
53.380 9.899072
53.385 9.789167
53.390 10.224058
53.395 10.36408
53.400 9.86016
53.405 9.839023
53.410 10.138273
53.415 10.307487
53.420 10.415573
53.425 10.138292
53.430 10.349625
53.435 10.822932
53.440 10.436549
53.445 10.041781
53.450 9.491218
53.455 9.436765
53.460 9.857087
53.465 10.025675
53.470 9.83423
53.475 10.106567
53.480 10.039242
53.485 10.44573
53.490 10.687998
53.495 10.490788
53.500 10.261531
53.505 10.392525
53.510 10.724957
53.515 10.765445
53.520 10.256338
53.525 9.57305
53.530 9.883959
53.535 10.031238
53.540 9.976984
53.545 10.192945
53.550 10.278275
53.555 10.331571
53.560 10.500889
53.565 10.292868
53.570 10.651669
53.575 10.969581
53.580 10.46976
53.585 10.634949
53.590 11.442619
53.595 11.218349
53.600 11.106998
53.605 10.338512
53.610 9.854441
53.615 10.0334
53.620 9.766418
53.625 9.553259
53.630 9.72893
53.635 9.787113
53.640 9.981522
53.645 10.291625
53.650 10.106245
53.655 9.933431
53.660 9.930445
53.665 9.885882
53.670 9.819463
53.675 9.84438
53.680 9.811612
53.685 10.172602
53.690 11.08801
53.695 11.023899
53.700 11.121544
53.705 11.172374
53.710 11.528881
53.715 11.440729
53.720 11.062394
53.725 10.455788
53.730 10.393288
53.735 10.30594
53.740 9.961747
53.745 10.028481
53.750 10.038641
53.755 10.182954
53.760 10.337922
53.765 10.538075
53.770 10.687903
53.775 10.614318
53.780 10.394161
53.785 10.553623
53.790 10.627074
53.795 10.533133
53.800 11.339274
53.805 11.518742
53.810 11.655648
53.815 11.75633
53.820 11.996088
53.825 11.874346
53.830 11.516009
53.835 10.982444
53.840 10.684908
53.845 10.84061
53.850 10.553797
53.855 10.549868
53.860 10.598178
53.865 10.557981
53.870 10.554883
53.875 10.714008
53.880 10.83676
53.885 11.124343
53.890 11.106009
53.895 10.858186
53.900 10.692185
53.905 10.719885
53.910 10.808793
53.915 10.818164
53.920 10.599496
53.925 10.441081
53.930 10.883056
53.935 10.757911
53.940 10.841188
53.945 10.520261
53.950 10.491602
53.955 10.377146
53.960 10.741099
53.965 10.714809
53.970 10.665486
53.975 10.910482
53.980 10.882658
53.985 10.783586
53.990 10.713083
53.995 10.543168
54.000 10.687764
54.005 10.677172
54.010 10.569369
54.015 11.015024
54.020 11.274074
54.025 11.302103
54.030 11.195652
54.035 10.932644
54.040 11.323653
54.045 11.238259
54.050 11.272482
54.055 10.980547
54.060 11.386459
54.065 11.897962
54.070 11.949249
54.075 11.648906
54.080 11.542689
54.085 11.380099
54.090 11.667515
54.095 11.29792
54.100 11.122926
54.105 11.720838
54.110 11.738818
54.115 11.763666
54.120 11.795248
54.125 11.54174
54.130 11.722894
54.135 12.123052
54.140 11.763843
54.145 11.502347
54.150 11.413778
54.155 11.318306
54.160 11.499355
54.165 10.849498
54.170 10.510903
54.175 10.621707
54.180 10.61457
54.185 10.703038
54.190 10.637029
54.195 10.433859
54.200 10.722661
54.205 10.512161
54.210 10.807605
54.215 11.160104
54.220 11.000347
54.225 10.804134
54.230 11.067794
54.235 10.893422
54.240 10.992475
54.245 10.516325
54.250 10.508317
54.255 10.991035
54.260 11.056603
54.265 10.981215
54.270 11.190002
54.275 11.216107
54.280 11.610168
54.285 11.747693
54.290 11.081017
54.295 11.119115
54.300 11.069018
54.305 11.220941
54.310 11.110422
54.315 10.939851
54.320 11.01859
54.325 11.519212
54.330 11.798141
54.335 11.843903
54.340 11.917041
54.345 12.24184
54.350 11.93184
54.355 11.31501
54.360 11.046381
54.365 10.912711
54.370 10.09084
54.375 9.569513
54.380 9.345359
54.385 9.607031
54.390 10.008491
54.395 10.275701
54.400 10.523148
54.405 11.325182
54.410 11.965288
54.415 12.265615
54.420 12.714359
54.425 12.550245
54.430 12.257458
54.435 12.03718
54.440 12.427988
54.445 12.118962
54.450 12.383944
54.455 12.142247
54.460 12.135616
54.465 12.033646
54.470 11.82031
54.475 11.849221
54.480 11.77578
54.485 11.367448
54.490 11.614407
54.495 11.897164
54.500 12.159429
54.505 12.590948
54.510 12.298065
54.515 12.48677
54.520 12.057562
54.525 11.920858
54.530 11.811658
54.535 11.354307
54.540 10.594664
54.545 10.016961
54.550 10.024798
54.555 9.874198
54.560 10.041636
54.565 10.325919
54.570 10.687749
54.575 11.134435
54.580 11.219452
54.585 11.544195
54.590 11.83073
54.595 11.664269
54.600 11.526396
54.605 11.356614
54.610 11.318773
54.615 11.598676
54.620 11.801796
54.625 11.645109
54.630 11.692839
54.635 11.191897
54.640 11.416126
54.645 11.338473
54.650 11.169707
54.655 10.891954
54.660 10.803971
54.665 10.879055
54.670 11.201663
54.675 10.91729
54.680 10.404648
54.685 10.252285
54.690 10.976031
54.695 11.082486
54.700 10.902805
54.705 10.812818
54.710 11.296759
54.715 11.824203
54.720 11.653879
54.725 11.04149
54.730 10.925909
54.735 11.104242
54.740 11.203037
54.745 11.14849
54.750 10.990553
54.755 11.078115
54.760 11.138379
54.765 11.493106
54.770 11.709972
54.775 11.783365
54.780 11.599021
54.785 12.025867
54.790 11.67941
54.795 11.3943
54.800 11.407144
54.805 11.673647
54.810 11.760584
54.815 11.835672
54.820 11.755321
54.825 11.981174
54.830 12.262364
54.835 11.836144
54.840 11.618512
54.845 11.853743
54.850 12.045992
54.855 12.272213
54.860 12.485009
54.865 12.387399
54.870 12.197943
54.875 11.721182
54.880 11.61302
54.885 11.114984
54.890 11.254661
54.895 11.3836
54.900 11.523423
54.905 11.468493
54.910 11.626403
54.915 12.157374
54.920 12.56793
54.925 12.18348
54.930 11.756036
54.935 11.661294
54.940 12.085019
54.945 11.674383
54.950 10.677522
54.955 10.05784
54.960 9.956375
54.965 10.43345
54.970 10.420586
54.975 10.338681
54.980 10.641305
54.985 11.097898
54.990 11.777969
54.995 11.742216
55.000 11.834976
55.005 11.933851
55.010 11.957255
55.015 12.365384
55.020 12.689054
55.025 12.896626
55.030 13.093469
55.035 13.239901
55.040 13.445674
55.045 13.304624
55.050 13.174178
55.055 13.024325
55.060 12.889179
55.065 12.914113
55.070 12.70821
55.075 12.638283
55.080 13.031511
55.085 12.88012
55.090 12.764683
55.095 12.787822
55.100 12.464591
55.105 12.318275
55.110 12.356269
55.115 11.950596
55.120 11.715808
55.125 12.087925
55.130 12.100718
55.135 12.429096
55.140 12.654722
55.145 12.866138
55.150 12.837898
55.155 12.697162
55.160 12.057876
55.165 11.642241
55.170 11.48056
55.175 11.304626
55.180 11.036839
55.185 11.015988
55.190 11.082505
55.195 11.179394
55.200 10.928412
55.205 10.586864
55.210 10.211802
55.215 10.499599
55.220 10.658697
55.225 10.743657
55.230 10.932318
55.235 11.544412
55.240 12.518819
55.245 12.976432
55.250 12.752791
55.255 12.941443
55.260 12.843926
55.265 13.029197
55.270 13.079098
55.275 12.645105
55.280 12.714521
55.285 13.095158
55.290 13.10194
55.295 12.67379
55.300 12.35475
55.305 12.018203
55.310 12.236836
55.315 12.105536
55.320 12.055462
55.325 12.781143
55.330 13.277472
55.335 13.711175
55.340 13.426043
55.345 13.194007
55.350 13.154403
55.355 12.447814
55.360 11.552421
55.365 11.555378
55.370 11.447704
55.375 11.62044
55.380 12.038504
55.385 12.442946
55.390 13.071968
55.395 13.928309
55.400 13.263297
55.405 13.50847
55.410 13.507895
55.415 13.239618
55.420 13.019651
55.425 12.615315
55.430 12.55103
55.435 13.010481
55.440 12.907138
55.445 12.769971
55.450 12.59331
55.455 12.578798
55.460 12.673402
55.465 12.426935
55.470 12.293185
55.475 11.821115
55.480 11.625608
55.485 11.338989
55.490 11.389621
55.495 11.572268
55.500 11.503178
55.505 11.406169
55.510 11.742626
55.515 12.111737
55.520 11.906337
55.525 11.585812
55.530 11.164884
55.535 11.294148
55.540 11.0397
55.545 10.602241
55.550 11.371452
55.555 11.907123
55.560 12.441697
55.565 12.986093
55.570 13.030129
55.575 13.426741
55.580 13.844402
55.585 13.712703
55.590 14.07895
55.595 13.749252
55.600 13.066024
55.605 13.254077
55.610 13.442401
55.615 13.005338
55.620 12.521288
55.625 12.383435
55.630 12.477536
55.635 13.123642
55.640 13.668731
55.645 13.400665
55.650 13.493023
55.655 13.773687
55.660 13.841729
55.665 13.573293
55.670 12.996285
55.675 12.427901
55.680 13.011194
55.685 12.853518
55.690 13.110803
55.695 12.955941
55.700 13.095148
55.705 13.493971
55.710 13.560327
55.715 13.362201
55.720 13.110594
55.725 12.77454
55.730 12.851752
55.735 13.279613
55.740 12.963905
55.745 13.003535
55.750 13.175575
55.755 13.505988
55.760 13.349685
55.765 13.148321
55.770 13.195744
55.775 13.144095
55.780 12.625387
55.785 12.371008
55.790 12.094959
55.795 11.916092
55.800 12.017488
55.805 12.058063
55.810 12.496936
55.815 12.742598
55.820 13.146271
55.825 13.608788
55.830 13.493149
55.835 14.156725
55.840 14.523544
55.845 14.93235
55.850 14.757163
55.855 14.46267
55.860 14.088228
55.865 14.021996
55.870 13.249962
55.875 12.906205
55.880 12.616826
55.885 12.458845
55.890 11.898691
55.895 11.764056
55.900 12.325995
55.905 12.440692
55.910 11.686585
55.915 11.264035
55.920 11.156499
55.925 11.819719
55.930 12.499791
55.935 11.9251
55.940 11.538177
55.945 11.859425
55.950 11.883007
55.955 12.289503
55.960 11.880813
55.965 11.599556
55.970 12.245615
55.975 12.960859
55.980 13.444488
55.985 13.514279
55.990 13.44425
55.995 13.777975
56.000 13.64695
56.005 13.0366
56.010 12.364517
56.015 11.923504
56.020 11.930338
56.025 11.864626
56.030 11.555827
56.035 11.30383
56.040 11.354965
56.045 11.814556
56.050 11.681905
56.055 12.045895
56.060 11.90252
56.065 12.186041
56.070 12.620852
56.075 13.033835
56.080 12.931934
56.085 13.359315
56.090 13.186944
56.095 13.332537
56.100 13.200414
56.105 12.58592
56.110 12.341405
56.115 12.674788
56.120 12.593781
56.125 12.337854
56.130 12.561422
56.135 12.673591
56.140 13.231537
56.145 13.442042
56.150 13.125596
56.155 12.644033
56.160 12.615602
56.165 12.578352
56.170 12.383721
56.175 12.000099
56.180 11.599916
56.185 11.87645
56.190 12.493249
56.195 12.948807
56.200 13.052009
56.205 13.449689
56.210 13.551205
56.215 13.349389
56.220 13.471055
56.225 13.14867
56.230 12.939454
56.235 12.706079
56.240 12.10035
56.245 12.45962
56.250 12.80636
56.255 12.657607
56.260 13.002636
56.265 12.720489
56.270 13.133734
56.275 13.356637
56.280 13.561903
56.285 13.932205
56.290 13.707714
56.295 14.023907
56.300 13.849085
56.305 13.539887
56.310 13.292863
56.315 12.881595
56.320 12.872092
56.325 13.203076
56.330 12.767812
56.335 13.197625
56.340 13.630668
56.345 14.002161
56.350 14.078488
56.355 14.033197
56.360 14.360166
56.365 14.492716
56.370 14.321671
56.375 14.34112
56.380 14.530375
56.385 14.479785
56.390 14.270311
56.395 13.751489
56.400 13.666713
56.405 13.941759
56.410 13.766201
56.415 13.32404
56.420 12.900074
56.425 12.904773
56.430 12.913082
56.435 13.054838
56.440 12.677966
56.445 12.601776
56.450 12.875519
56.455 13.574597
56.460 13.911163
56.465 14.415792
56.470 14.49448
56.475 14.221903
56.480 13.782779
56.485 13.214536
56.490 12.692628
56.495 12.691155
56.500 12.577143
56.505 12.537235
56.510 12.982307
56.515 13.207827
56.520 13.604299
56.525 13.843881
56.530 13.563429
56.535 13.241854
56.540 13.23291
56.545 13.087805
56.550 13.008941
56.555 12.699917
56.560 12.340378
56.565 11.894925
56.570 11.181057
56.575 10.974937
56.580 10.863029
56.585 10.62968
56.590 10.684995
56.595 11.368322
56.600 11.817392
56.605 12.310363
56.610 12.541576
56.615 12.753186
56.620 12.794216
56.625 13.222602
56.630 13.096663
56.635 13.41527
56.640 13.647008
56.645 13.846357
56.650 13.914355
56.655 14.494741
56.660 14.176013
56.665 13.981718
56.670 14.146979
56.675 14.595855
56.680 14.570393
56.685 14.533669
56.690 14.199345
56.695 14.099564
56.700 14.177989
56.705 13.973747
56.710 13.543862
56.715 13.34997
56.720 13.66342
56.725 14.219082
56.730 14.731137
56.735 15.200057
56.740 15.069078
56.745 15.303857
56.750 15.801652
56.755 15.577752
56.760 15.659786
56.765 15.571652
56.770 15.280976
56.775 15.337923
56.780 15.191836
56.785 15.030329
56.790 14.881656
56.795 14.876765
56.800 14.471622
56.805 13.940378
56.810 13.901369
56.815 14.014716
56.820 13.600465
56.825 13.633494
56.830 13.432909
56.835 13.985712
56.840 14.141662
56.845 13.784149
56.850 13.186604
56.855 13.41019
56.860 13.332444
56.865 12.987187
56.870 12.727364
56.875 12.961555
56.880 13.285619
56.885 13.891983
56.890 13.708777
56.895 14.141522
56.900 14.217569
56.905 14.491921
56.910 14.542523
56.915 14.428033
56.920 14.802313
56.925 15.177034
56.930 15.48513
56.935 16.017641
56.940 15.919361
56.945 15.599483
56.950 15.104998
56.955 14.869859
56.960 14.277302
56.965 13.706068
56.970 12.870176
56.975 13.229267
56.980 13.850696
56.985 14.331248
56.990 14.387284
56.995 15.056371
57.000 15.345393
57.005 15.705607
57.010 15.465823
57.015 15.284519
57.020 15.339286
57.025 14.854218
57.030 13.838799
57.035 13.658257
57.040 13.565322
57.045 13.470445
57.050 13.714097
57.055 13.774603
57.060 14.318578
57.065 14.641444
57.070 14.642803
57.075 14.763427
57.080 14.961078
57.085 14.74531
57.090 14.730191
57.095 14.463513
57.100 14.157918
57.105 13.886713
57.110 13.7588
57.115 13.190375
57.120 13.010713
57.125 12.464972
57.130 12.416529
57.135 12.624313
57.140 12.314014
57.145 12.214684
57.150 12.275731
57.155 12.445242
57.160 12.594971
57.165 12.853079
57.170 13.447133
57.175 14.539721
57.180 14.939526
57.185 15.304121
57.190 15.484393
57.195 15.933963
57.200 15.613724
57.205 15.414901
57.210 15.049975
57.215 15.323114
57.220 15.642301
57.225 16.035299
57.230 15.735465
57.235 16.116337
57.240 15.900943
57.245 15.725931
57.250 15.389924
57.255 14.61768
57.260 13.862823
57.265 14.04716
57.270 13.913666
57.275 13.952602
57.280 14.313678
57.285 14.361127
57.290 14.932625
57.295 15.44867
57.300 15.010873
57.305 14.662246
57.310 14.858919
57.315 14.814642
57.320 14.694535
57.325 14.624774
57.330 14.594831
57.335 14.905731
57.340 15.369707
57.345 15.359536
57.350 15.52346
57.355 15.557306
57.360 15.785661
57.365 15.945088
57.370 15.895641
57.375 15.656535
57.380 15.307647
57.385 15.059156
57.390 14.986638
57.395 14.890974
57.400 14.522917
57.405 14.901263
57.410 15.1995
57.415 15.568721
57.420 16.109022
57.425 16.095764
57.430 16.039825
57.435 16.172729
57.440 15.535311
57.445 14.798738
57.450 14.374216
57.455 13.787142
57.460 14.205472
57.465 14.050297
57.470 13.872493
57.475 14.480576
57.480 14.974345
57.485 15.549319
57.490 15.217908
57.495 15.35085
57.500 15.372815
57.505 15.948477
57.510 15.659411
57.515 15.081557
57.520 14.805911
57.525 15.170604
57.530 14.445151
57.535 14.401107
57.540 13.678045
57.545 13.982731
57.550 14.473711
57.555 14.327858
57.560 14.370094
57.565 14.600789
57.570 14.621087
57.575 14.886742
57.580 14.606324
57.585 14.636803
57.590 14.99431
57.595 14.892388
57.600 15.374298
57.605 15.530983
57.610 15.888777
57.615 16.14451
57.620 16.505932
57.625 16.465742
57.630 16.706348
57.635 16.438587
57.640 16.272509
57.645 16.333565
57.650 16.559053
57.655 16.45083
57.660 16.503967
57.665 16.257158
57.670 16.246763
57.675 16.430721
57.680 15.734468
57.685 15.526245
57.690 15.31998
57.695 15.767992
57.700 15.981425
57.705 16.153261
57.710 16.287378
57.715 16.942759
57.720 16.955946
57.725 16.564333
57.730 16.1465
57.735 15.936112
57.740 15.384904
57.745 15.165359
57.750 14.954627
57.755 15.17595
57.760 15.729826
57.765 15.309575
57.770 14.942291
57.775 14.738169
57.780 14.714341
57.785 14.945226
57.790 14.331478
57.795 14.122216
57.800 14.638173
57.805 15.399394
57.810 16.395741
57.815 16.410463
57.820 15.714721
57.825 16.499258
57.830 16.887529
57.835 16.94161
57.840 16.812263
57.845 16.093611
57.850 16.035339
57.855 16.331476
57.860 16.004942
57.865 16.020102
57.870 16.11194
57.875 15.899007
57.880 16.176773
57.885 16.218016
57.890 16.124901
57.895 15.540909
57.900 15.217481
57.905 14.967188
57.910 14.666577
57.915 14.642665
57.920 14.664215
57.925 14.958795
57.930 15.134772
57.935 15.003269
57.940 15.232838
57.945 16.034657
57.950 16.176126
57.955 15.893347
57.960 15.706164
57.965 15.965061
57.970 16.329109
57.975 16.161135
57.980 15.862785
57.985 15.633484
57.990 15.993342
57.995 16.225138
58.000 16.287817
58.005 15.244989
58.010 15.026044
58.015 14.995446
58.020 14.893592
58.025 14.86122
58.030 15.12399
58.035 15.595784
58.040 16.291218
58.045 16.773493
58.050 16.87265
58.055 17.021563
58.060 16.769524
58.065 16.628914
58.070 16.527506
58.075 16.799406
58.080 16.479315
58.085 16.250578
58.090 16.2784
58.095 16.378387
58.100 15.807674
58.105 15.939228
58.110 15.667885
58.115 15.738931
58.120 16.073952
58.125 16.223995
58.130 16.449944
58.135 17.287767
58.140 16.988911
58.145 17.810766
58.150 18.620941
58.155 18.700165
58.160 18.841948
58.165 19.192337
58.170 19.071259
58.175 19.02593
58.180 18.662163
58.185 18.43457
58.190 18.644245
58.195 18.570362
58.200 17.873016
58.205 17.961317
58.210 18.133724
58.215 17.76037
58.220 17.552919
58.225 17.502047
58.230 17.651987
58.235 17.55386
58.240 17.103596
58.245 17.059141
58.250 17.359945
58.255 17.185038
58.260 17.163286
58.265 17.444895
58.270 18.216356
58.275 18.538057
58.280 18.170204
58.285 18.076054
58.290 18.418245
58.295 18.3456
58.300 18.424646
58.305 18.608404
58.310 19.103601
58.315 19.179562
58.320 18.967636
58.325 19.542723
58.330 19.75337
58.335 19.838524
58.340 19.725174
58.345 19.885998
58.350 21.089251
58.355 21.811729
58.360 21.749031
58.365 22.078001
58.370 21.857897
58.375 21.771759
58.380 21.830616
58.385 21.1472
58.390 20.476198
58.395 19.989122
58.400 20.050421
58.405 20.08127
58.410 20.337824
58.415 20.711222
58.420 21.297632
58.425 21.378056
58.430 21.580996
58.435 21.384769
58.440 21.836533
58.445 21.476625
58.450 21.026447
58.455 20.881245
58.460 21.781101
58.465 22.410521
58.470 22.259193
58.475 22.109919
58.480 22.620434
58.485 22.629818
58.490 22.668913
58.495 22.492027
58.500 21.981529
58.505 22.172424
58.510 22.045628
58.515 22.274357
58.520 22.205637
58.525 22.193184
58.530 21.965237
58.535 21.890789
58.540 22.317411
58.545 22.791523
58.550 22.852793
58.555 23.367809
58.560 23.562069
58.565 24.122845
58.570 24.985062
58.575 25.040596
58.580 24.83497
58.585 25.006241
58.590 24.939722
58.595 25.046906
58.600 25.201378
58.605 24.904573
58.610 23.705061
58.615 23.425961
58.620 23.321659
58.625 23.223906
58.630 23.176096
58.635 22.335556
58.640 22.273657
58.645 22.472437
58.650 22.311445
58.655 22.427023
58.660 22.596884
58.665 22.617937
58.670 22.694429
58.675 23.304981
58.680 23.812469
58.685 23.558498
58.690 23.48962
58.695 23.305155
58.700 23.62747
58.705 23.667131
58.710 22.933058
58.715 22.419279
58.720 21.980457
58.725 21.39045
58.730 20.718828
58.735 20.273823
58.740 19.982664
58.745 20.386854
58.750 20.965275
58.755 21.578054
58.760 21.723072
58.765 21.897442
58.770 21.259748
58.775 21.188595
58.780 20.577032
58.785 20.498808
58.790 20.511148
58.795 20.474165
58.800 21.045334
58.805 21.235302
58.810 20.890059
58.815 20.79055
58.820 20.026789
58.825 19.824911
58.830 19.458668
58.835 18.758703
58.840 18.415676
58.845 18.957304
58.850 18.834496
58.855 19.021441
58.860 18.91503
58.865 19.0294
58.870 19.449406
58.875 20.6129
58.880 20.56662
58.885 20.746367
58.890 20.421072
58.895 20.497341
58.900 20.085117
58.905 19.62071
58.910 19.519394
58.915 19.818693
58.920 20.019291
58.925 20.092609
58.930 19.839941
58.935 20.090086
58.940 20.245428
58.945 19.736168
58.950 19.235861
58.955 19.365623
58.960 19.750992
58.965 20.504679
58.970 20.32198
58.975 19.757568
58.980 19.694729
58.985 20.036077
58.990 20.376034
58.995 20.636082
59.000 20.041929
59.005 19.962015
59.010 20.434982
59.015 20.699236
59.020 20.553379
59.025 20.122694
59.030 19.620375
59.035 19.658506
59.040 20.965008
59.045 21.635914
59.050 21.554031
59.055 21.265564
59.060 20.667967
59.065 20.943846
59.070 20.65077
59.075 19.412807
59.080 18.689211
59.085 18.508171
59.090 18.800297
59.095 18.90494
59.100 18.825647
59.105 19.223005
59.110 19.770811
59.115 19.542576
59.120 19.38229
59.125 19.289598
59.130 19.450838
59.135 18.901026
59.140 18.724554
59.145 18.13076
59.150 18.530439
59.155 18.697308
59.160 18.924196
59.165 19.502302
59.170 20.238079
59.175 20.312021
59.180 20.490257
59.185 20.379856
59.190 20.180855
59.195 20.562973
59.200 20.155828
59.205 19.685574
59.210 19.605619
59.215 19.367233
59.220 19.311167
59.225 19.716095
59.230 18.941305
59.235 18.959024
59.240 19.135057
59.245 19.043159
59.250 18.977301
59.255 18.82622
59.260 19.110537
59.265 19.731892
59.270 19.678541
59.275 19.53162
59.280 19.045574
59.285 18.69969
59.290 19.053688
59.295 18.133776
59.300 17.488489
59.305 17.534302
59.310 17.672014
59.315 18.156641
59.320 18.839075
59.325 18.721828
59.330 18.65764
59.335 19.27223
59.340 19.301912
59.345 19.772615
59.350 19.434031
59.355 18.953711
59.360 19.556879
59.365 19.495214
59.370 19.105448
59.375 18.800018
59.380 18.373608
59.385 18.98465
59.390 19.476933
59.395 19.155853
59.400 19.632826
59.405 19.562454
59.410 19.924795
59.415 20.478523
59.420 20.379673
59.425 19.94647
59.430 19.42767
59.435 19.282133
59.440 19.302771
59.445 18.906803
59.450 19.275599
59.455 19.260773
59.460 19.422579
59.465 19.74464
59.470 19.759121
59.475 20.042305
59.480 20.115313
59.485 19.837559
59.490 19.752771
59.495 20.045141
59.500 20.312119
59.505 20.304693
59.510 20.247702
59.515 20.099339
59.520 19.545876
59.525 19.1474
59.530 18.903679
59.535 18.799877
59.540 18.812243
59.545 18.653147
59.550 18.406597
59.555 18.648054
59.560 18.855646
59.565 18.730129
59.570 18.800713
59.575 18.999134
59.580 18.907963
59.585 19.500957
59.590 20.050312
59.595 20.223301
59.600 20.351591
59.605 19.940348
59.610 20.540554
59.615 20.457638
59.620 20.549896
59.625 20.626673
59.630 22.009682
59.635 22.597273
59.640 22.48222
59.645 22.189869
59.650 22.621279
59.655 22.014723
59.660 21.479908
59.665 20.45903
59.670 20.141804
59.675 20.14398
59.680 19.679419
59.685 19.39311
59.690 19.619015
59.695 19.479258
59.700 19.455523
59.705 19.478451
59.710 19.735413
59.715 19.770605
59.720 19.65918
59.725 19.817154
59.730 19.56776
59.735 19.010181
59.740 19.190554
59.745 19.236973
59.750 19.646875
59.755 19.824659
59.760 20.204016
59.765 21.072561
59.770 21.006325
59.775 20.973745
59.780 21.323757
59.785 21.194609
59.790 21.292606
59.795 20.955788
59.800 20.416658
59.805 20.009876
59.810 19.965288
59.815 20.071928
59.820 20.106909
59.825 20.274134
59.830 19.83028
59.835 19.158331
59.840 19.094456
59.845 18.663023
59.850 18.311255
59.855 17.973927
59.860 17.992397
59.865 18.332491
59.870 18.497492
59.875 18.385813
59.880 18.671984
59.885 18.52803
59.890 18.737368
59.895 18.827993
59.900 19.348141
59.905 19.605747
59.910 20.124302
59.915 19.847691
59.920 20.293602
59.925 20.365259
59.930 19.500063
59.935 19.050884
59.940 18.87644
59.945 18.38554
59.950 18.102789
59.955 17.450085
59.960 17.843796
59.965 18.530884
59.970 18.825167
59.975 19.153572
59.980 19.328726
59.985 19.488522
59.990 20.001612
59.995 19.398174
60.000 19.255003
60.005 19.631929
60.010 19.910458
60.015 19.974249
60.020 20.220585
60.025 20.071432
60.030 20.418165
60.035 20.93936
60.040 20.759275
60.045 20.810509
60.050 20.515007
60.055 20.140982
60.060 20.026424
60.065 20.062164
60.070 19.270201
60.075 18.710453
60.080 18.358824
60.085 19.095585
60.090 19.516911
60.095 19.227203
60.100 18.95013
60.105 18.435598
60.110 18.410685
60.115 18.313387
60.120 18.103106
60.125 17.838146
60.130 18.062576
60.135 18.373125
60.140 19.624336
60.145 20.152061
60.150 20.386351
60.155 20.055996
60.160 19.734009
60.165 19.388943
60.170 19.43239
60.175 18.774048
60.180 18.104977
60.185 18.126421
60.190 19.024792
60.195 19.834114
60.200 20.039677
60.205 19.788174
60.210 19.855312
60.215 20.221699
60.220 20.247814
60.225 19.857935
60.230 19.2764
60.235 18.676542
60.240 18.123175
60.245 18.106274
60.250 17.965294
60.255 18.103701
60.260 17.535044
60.265 17.372158
60.270 17.989643
60.275 18.214569
60.280 17.855644
60.285 18.122431
60.290 17.859028
60.295 18.256035
60.300 18.114332
60.305 18.133257
60.310 18.552727
60.315 18.772202
60.320 18.885983
60.325 18.287319
60.330 17.838097
60.335 17.821285
60.340 17.923861
60.345 17.28125
60.350 17.073854
60.355 16.619852
60.360 16.925865
60.365 17.293652
60.370 17.484211
60.375 17.253782
60.380 17.58658
60.385 17.930052
60.390 17.969036
60.395 18.742416
60.400 18.569408
60.405 18.519686
60.410 17.926392
60.415 17.965084
60.420 18.060879
60.425 17.94429
60.430 17.192642
60.435 17.211369
60.440 16.733316
60.445 17.306826
60.450 17.807611
60.455 17.86931
60.460 17.844538
60.465 18.494045
60.470 18.90465
60.475 19.375668
60.480 18.924908
60.485 18.077988
60.490 17.513992
60.495 17.501228
60.500 17.078815
60.505 16.730555
60.510 16.874895
60.515 16.978159
60.520 17.593254
60.525 17.846399
60.530 18.552559
60.535 17.84306
60.540 17.987144
60.545 17.784397
60.550 17.734732
60.555 17.507067
60.560 16.874134
60.565 16.133114
60.570 16.529634
60.575 16.414814
60.580 16.613033
60.585 16.500685
60.590 16.320303
60.595 16.814657
60.600 16.594255
60.605 16.612314
60.610 17.462799
60.615 17.584911
60.620 17.675556
60.625 18.043268
60.630 17.772367
60.635 17.793686
60.640 17.660162
60.645 16.848982
60.650 16.467485
60.655 16.504187
60.660 16.251949
60.665 16.272905
60.670 16.298288
60.675 17.155893
60.680 17.232847
60.685 17.302151
60.690 17.376196
60.695 17.436687
60.700 17.822191
60.705 17.817757
60.710 17.120487
60.715 17.323008
60.720 17.268728
60.725 16.744783
60.730 16.476267
60.735 16.231413
60.740 16.247223
60.745 16.967501
60.750 17.002085
60.755 17.316214
60.760 17.467506
60.765 17.901396
60.770 17.695265
60.775 17.4725
60.780 16.943708
60.785 16.984545
60.790 16.784452
60.795 16.972219
60.800 16.984278
60.805 17.409981
60.810 17.289083
60.815 17.039783
60.820 16.670004
60.825 16.653004
60.830 16.327791
60.835 15.855733
60.840 15.727458
60.845 15.966277
60.850 16.58342
60.855 17.269079
60.860 17.487616
60.865 17.588554
60.870 17.543957
60.875 17.173458
60.880 16.756105
60.885 16.085615
60.890 15.691328
60.895 15.519416
60.900 15.759274
60.905 15.895908
60.910 16.218388
60.915 16.568895
60.920 17.217098
60.925 17.712528
60.930 17.815121
60.935 17.888353
60.940 18.226435
60.945 18.711578
60.950 18.478214
60.955 18.125265
60.960 17.691122
60.965 17.425053
60.970 17.539427
60.975 17.34618
60.980 16.946192
60.985 16.8095
60.990 16.692127
60.995 16.53389
61.000 16.726797
61.005 15.82925
61.010 15.564402
61.015 15.905557
61.020 16.303722
61.025 16.294029
61.030 16.505051
61.035 16.68075
61.040 17.57387
61.045 18.178164
61.050 18.641354
61.055 18.529396
61.060 18.427408
61.065 18.318884
61.070 18.167513
61.075 17.963116
61.080 17.734865
61.085 17.127731
61.090 16.941422
61.095 16.852783
61.100 16.910301
61.105 16.426498
61.110 16.160599
61.115 15.721991
61.120 15.413603
61.125 15.577078
61.130 15.799481
61.135 15.76365
61.140 16.438164
61.145 17.13147
61.150 17.41231
61.155 17.354841
61.160 17.398249
61.165 17.439966
61.170 17.534595
61.175 17.479969
61.180 17.100225
61.185 16.649763
61.190 16.70121
61.195 16.697132
61.200 17.197771
61.205 17.695782
61.210 17.435293
61.215 17.626465
61.220 18.605145
61.225 18.730719
61.230 18.099228
61.235 17.337019
61.240 16.471069
61.245 16.452276
61.250 16.652807
61.255 16.873964
61.260 17.426538
61.265 17.678307
61.270 18.074631
61.275 17.870438
61.280 17.804909
61.285 17.548487
61.290 17.16869
61.295 17.113836
61.300 17.390043
61.305 16.900791
61.310 17.464214
61.315 17.818621
61.320 17.341589
61.325 17.154091
61.330 16.562454
61.335 16.436357
61.340 16.60153
61.345 16.334579
61.350 16.056152
61.355 16.169582
61.360 15.814907
61.365 16.284977
61.370 16.255816
61.375 16.581081
61.380 16.970406
61.385 16.950735
61.390 17.259731
61.395 17.062397
61.400 16.841986
61.405 17.072971
61.410 17.314102
61.415 17.074926
61.420 17.420246
61.425 17.659933
61.430 18.457214
61.435 18.236448
61.440 17.705076
61.445 17.35763
61.450 16.982981
61.455 16.578592
61.460 16.086061
61.465 16.009148
61.470 16.677946
61.475 17.357109
61.480 17.528183
61.485 17.776035
61.490 17.447332
61.495 17.364378
61.500 17.345947
61.505 16.716137
61.510 16.157394
61.515 16.001175
61.520 16.41415
61.525 16.735531
61.530 16.429674
61.535 16.242901
61.540 16.373291
61.545 17.432308
61.550 17.866856
61.555 17.805868
61.560 17.857561
61.565 17.81241
61.570 17.737867
61.575 17.981304
61.580 17.266891
61.585 17.05924
61.590 16.687168
61.595 16.894762
61.600 17.412798
61.605 17.469332
61.610 16.95118
61.615 16.696211
61.620 16.89661
61.625 17.145494
61.630 16.848274
61.635 16.588995
61.640 16.151001
61.645 16.669418
61.650 16.827652
61.655 16.616518
61.660 16.567474
61.665 16.207302
61.670 15.995317
61.675 16.538231
61.680 16.201452
61.685 15.9591
61.690 15.718828
61.695 15.243443
61.700 15.711879
61.705 15.972405
61.710 16.149246
61.715 16.489704
61.720 16.037325
61.725 16.085133
61.730 16.548994
61.735 16.343588
61.740 16.647551
61.745 16.295912
61.750 16.329428
61.755 17.232187
61.760 17.936081
61.765 18.124224
61.770 18.289362
61.775 18.681736
61.780 18.546478
61.785 18.89535
61.790 18.640427
61.795 17.851412
61.800 17.387877
61.805 16.848158
61.810 16.341991
61.815 16.705963
61.820 15.95702
61.825 15.897945
61.830 16.851315
61.835 17.303391
61.840 17.370747
61.845 16.940557
61.850 16.618576
61.855 16.844952
61.860 16.998646
61.865 17.06794
61.870 17.31229
61.875 17.875612
61.880 18.336531
61.885 18.619255
61.890 18.722885
61.895 18.706839
61.900 18.354624
61.905 17.943176
61.910 17.501032
61.915 17.142361
61.920 16.712667
61.925 16.601721
61.930 16.667841
61.935 16.831758
61.940 17.309677
61.945 17.766319
61.950 18.305643
61.955 18.35664
61.960 18.312826
61.965 17.932081
61.970 17.813684
61.975 17.693735
61.980 17.366817
61.985 17.160097
61.990 17.125769
61.995 16.847757
62.000 17.059383
62.005 16.862284
62.010 16.483126
62.015 16.276102
62.020 16.396683
62.025 16.642246
62.030 16.948496
62.035 16.645498
62.040 16.862661
62.045 17.589188
62.050 17.775124
62.055 17.672457
62.060 18.028391
62.065 18.189299
62.070 18.115223
62.075 17.883963
62.080 17.428501
62.085 17.584137
62.090 17.432268
62.095 17.13273
62.100 16.223104
62.105 16.10388
62.110 16.006832
62.115 16.061562
62.120 16.140425
62.125 16.318003
62.130 16.401024
62.135 17.193014
62.140 17.462067
62.145 17.562275
62.150 17.58634
62.155 17.943329
62.160 17.448246
62.165 17.143351
62.170 17.03014
62.175 17.115669
62.180 17.204226
62.185 17.044739
62.190 16.549774
62.195 16.933374
62.200 16.838177
62.205 17.168884
62.210 16.697001
62.215 15.989138
62.220 15.997242
62.225 16.412579
62.230 16.330549
62.235 16.606388
62.240 16.669012
62.245 17.245462
62.250 17.677153
62.255 17.861851
62.260 18.114071
62.265 18.070925
62.270 18.342857
62.275 18.027666
62.280 17.766718
62.285 17.770798
62.290 17.017422
62.295 16.563196
62.300 16.84898
62.305 16.172291
62.310 15.988879
62.315 16.082541
62.320 16.649374
62.325 17.542107
62.330 17.535456
62.335 17.156776
62.340 17.38484
62.345 17.141306
62.350 16.571293
62.355 16.015429
62.360 15.605477
62.365 15.641611
62.370 15.875315
62.375 16.315487
62.380 16.564711
62.385 16.454268
62.390 16.508696
62.395 16.452847
62.400 16.407068
62.405 16.568634
62.410 16.763672
62.415 17.831652
62.420 18.087334
62.425 18.216951
62.430 18.061068
62.435 18.264074
62.440 17.968742
62.445 17.835312
62.450 17.749487
62.455 18.365145
62.460 18.603004
62.465 19.097691
62.470 19.339643
62.475 19.644438
62.480 19.233822
62.485 18.83009
62.490 18.195614
62.495 18.340502
62.500 18.471027
62.505 17.976101
62.510 17.854195
62.515 18.495707
62.520 18.453651
62.525 18.998611
62.530 18.619041
62.535 18.191668
62.540 18.602154
62.545 18.482178
62.550 17.661074
62.555 17.49375
62.560 17.471462
62.565 17.782598
62.570 17.989033
62.575 17.709419
62.580 18.506952
62.585 18.906303
62.590 18.578373
62.595 17.620203
62.600 17.170717
62.605 17.011332
62.610 17.132353
62.615 16.827435
62.620 16.234838
62.625 16.025076
62.630 16.027718
62.635 15.815115
62.640 15.837475
62.645 15.917076
62.650 15.903057
62.655 16.581942
62.660 17.173443
62.665 17.421993
62.670 17.982935
62.675 18.676527
62.680 18.678785
62.685 18.416573
62.690 18.644249
62.695 18.987492
62.700 19.259571
62.705 18.952883
62.710 18.536129
62.715 18.406488
62.720 18.408207
62.725 18.802086
62.730 18.749022
62.735 19.2626
62.740 19.271801
62.745 19.037252
62.750 19.210716
62.755 19.215729
62.760 18.454224
62.765 18.134823
62.770 17.781616
62.775 17.137623
62.780 17.413729
62.785 17.378302
62.790 17.027241
62.795 17.093346
62.800 16.812326
62.805 16.751524
62.810 17.359577
62.815 16.924717
62.820 16.940479
62.825 17.288094
62.830 16.985594
62.835 17.228094
62.840 17.084352
62.845 16.68712
62.850 16.832333
62.855 16.883593
62.860 16.624891
62.865 16.670471
62.870 16.503496
62.875 16.528015
62.880 16.932472
62.885 17.114281
62.890 16.945927
62.895 17.583065
62.900 18.221867
62.905 17.912043
62.910 18.291193
62.915 18.324133
62.920 17.709316
62.925 17.39192
62.930 16.610016
62.935 16.624592
62.940 17.331461
62.945 17.311771
62.950 16.834553
62.955 17.385462
62.960 17.723108
62.965 18.086168
62.970 17.7714
62.975 17.135475
62.980 17.068882
62.985 17.562729
62.990 17.829107
62.995 18.050404
63.000 18.164873
63.005 18.053955
63.010 17.842169
63.015 17.524441
63.020 17.196388
63.025 17.059563
63.030 16.757475
63.035 16.588207
63.040 16.308605
63.045 16.62253
63.050 17.074921
63.055 16.885992
63.060 16.639139
63.065 16.203449
63.070 16.184113
63.075 16.170319
63.080 16.239601
63.085 15.776346
63.090 15.450025
63.095 15.505666
63.100 16.371016
63.105 16.578737
63.110 17.62536
63.115 17.754097
63.120 17.643126
63.125 17.758026
63.130 17.918884
63.135 17.789856
63.140 17.834541
63.145 17.79089
63.150 17.679077
63.155 18.245235
63.160 18.937002
63.165 18.901423
63.170 18.558369
63.175 18.623344
63.180 17.780388
63.185 17.800505
63.190 18.106201
63.195 17.914722
63.200 17.594101
63.205 17.518427
63.210 17.35232
63.215 17.256056
63.220 17.017078
63.225 16.435089
63.230 16.193756
63.235 16.269897
63.240 16.42267
63.245 16.71888
63.250 17.035017
63.255 17.501297
63.260 17.476429
63.265 17.412003
63.270 17.844444
63.275 18.015734
63.280 17.655722
63.285 17.566311
63.290 17.964314
63.295 18.635834
63.300 19.361355
63.305 19.418541
63.310 19.65082
63.315 19.896315
63.320 20.223227
63.325 20.009621
63.330 19.985044
63.335 18.992659
63.340 18.58779
63.345 18.614235
63.350 18.990417
63.355 18.912615
63.360 18.739285
63.365 19.097261
63.370 19.607729
63.375 19.954638
63.380 20.083786
63.385 19.649378
63.390 19.619009
63.395 18.953485
63.400 17.831476
63.405 17.636974
63.410 17.24008
63.415 16.356079
63.420 16.91934
63.425 17.631037
63.430 18.648651
63.435 19.142584
63.440 19.465538
63.445 20.072401
63.450 20.302334
63.455 19.480888
63.460 19.005224
63.465 19.150932
63.470 19.469528
63.475 19.284931
63.480 18.695301
63.485 18.706472
63.490 19.408947
63.495 19.312666
63.500 19.516787
63.505 19.825785
63.510 20.35597
63.515 20.603584
63.520 20.384207
63.525 20.120947
63.530 19.787327
63.535 19.180716
63.540 18.74062
63.545 18.165911
63.550 18.057281
63.555 18.221462
63.560 18.258745
63.565 18.706949
63.570 18.885199
63.575 18.995163
63.580 19.692116
63.585 19.639708
63.590 19.899508
63.595 20.03244
63.600 19.745588
63.605 20.120987
63.610 20.337669
63.615 20.343239
63.620 20.640282
63.625 20.103664
63.630 20.119242
63.635 20.497141
63.640 19.59696
63.645 18.973738
63.650 18.889008
63.655 18.811663
63.660 19.549248
63.665 19.674646
63.670 19.638084
63.675 20.477472
63.680 20.511318
63.685 20.67429
63.690 20.715376
63.695 20.264528
63.700 20.425831
63.705 19.904339
63.710 19.166292
63.715 18.891823
63.720 18.67135
63.725 18.590748
63.730 19.108374
63.735 18.856005
63.740 19.262802
63.745 19.809599
63.750 19.869844
63.755 19.706467
63.760 19.528183
63.765 18.710505
63.770 18.42721
63.775 17.986942
63.780 18.272074
63.785 18.62748
63.790 18.947695
63.795 19.144634
63.800 19.536011
63.805 19.649137
63.810 20.44927
63.815 20.492159
63.820 21.073742
63.825 21.021116
63.830 21.03829
63.835 21.154945
63.840 22.157608
63.845 22.37929
63.850 22.542131
63.855 22.079641
63.860 22.204563
63.865 22.71987
63.870 22.446617
63.875 21.273497
63.880 20.163671
63.885 19.742319
63.890 19.934813
63.895 20.002752
63.900 19.917896
63.905 20.171995
63.910 20.869358
63.915 21.571493
63.920 21.902109
63.925 21.573019
63.930 21.988482
63.935 22.079897
63.940 22.089163
63.945 22.442135
63.950 23.221687
63.955 23.241983
63.960 23.751268
63.965 23.606373
63.970 23.860563
63.975 24.379261
63.980 24.467789
63.985 24.046885
63.990 24.321018
63.995 24.597645
64.000 24.778006
64.005 24.638403
64.010 25.181568
64.015 25.847885
64.020 26.151285
64.025 26.087248
64.030 26.015471
64.035 26.436462
64.040 26.507814
64.045 25.872099
64.050 25.848906
64.055 26.28767
64.060 26.707226
64.065 26.443985
64.070 26.23171
64.075 26.331799
64.080 26.866526
64.085 26.511545
64.090 26.40472
64.095 26.344402
64.100 26.526114
64.105 26.084839
64.110 25.825705
64.115 25.639977
64.120 25.504644
64.125 24.753262
64.130 24.287556
64.135 24.158825
64.140 24.732405
64.145 24.838984
64.150 23.757259
64.155 23.441446
64.160 23.778023
64.165 24.223827
64.170 24.60745
64.175 24.350636
64.180 24.320854
64.185 25.466759
64.190 25.769119
64.195 25.511799
64.200 25.802843
64.205 25.906704
64.210 25.915092
64.215 25.832918
64.220 26.212643
64.225 26.276552
64.230 26.925924
64.235 26.720209
64.240 26.177507
64.245 26.948746
64.250 27.252974
64.255 26.937994
64.260 26.848207
64.265 26.121334
64.270 25.973589
64.275 25.88442
64.280 25.255014
64.285 25.604649
64.290 26.058086
64.295 26.06715
64.300 25.948019
64.305 26.125826
64.310 26.178179
64.315 26.235085
64.320 26.214062
64.325 25.188217
64.330 24.764336
64.335 24.540176
64.340 24.425144
64.345 24.412804
64.350 23.970016
64.355 23.7383
64.360 23.766006
64.365 24.177763
64.370 24.194807
64.375 23.909529
64.380 24.60239
64.385 24.648458
64.390 24.731646
64.395 25.220469
64.400 25.532429
64.405 26.08045
64.410 26.483862
64.415 26.087851
64.420 25.813293
64.425 25.710217
64.430 24.947977
64.435 24.660023
64.440 24.693308
64.445 24.515064
64.450 24.505079
64.455 24.215322
64.460 24.283455
64.465 24.886766
64.470 24.414326
64.475 24.076521
64.480 23.921097
64.485 24.017916
64.490 24.17428
64.495 24.137907
64.500 24.023155
64.505 24.075813
64.510 23.642042
64.515 23.558756
64.520 23.152109
64.525 22.799442
64.530 22.046381
64.535 21.361122
64.540 21.328062
64.545 20.815924
64.550 20.544468
64.555 21.074768
64.560 21.587254
64.565 21.991802
64.570 22.277737
64.575 22.441687
64.580 22.852533
64.585 22.708036
64.590 22.78381
64.595 22.482368
64.600 23.100431
64.605 23.852079
64.610 23.93231
64.615 23.986078
64.620 24.305031
64.625 23.880964
64.630 23.775078
64.635 23.274059
64.640 23.132469
64.645 22.975706
64.650 23.472698
64.655 22.790371
64.660 22.738195
64.665 22.982534
64.670 22.210649
64.675 21.20507
64.680 21.415255
64.685 20.909506
64.690 21.463823
64.695 21.560028
64.700 21.666882
64.705 21.880997
64.710 22.469688
64.715 22.738987
64.720 22.526819
64.725 22.568386
64.730 22.33213
64.735 21.80792
64.740 21.843534
64.745 22.090813
64.750 21.546751
64.755 21.723665
64.760 21.757986
64.765 22.307995
64.770 22.897076
64.775 22.981857
64.780 22.030382
64.785 21.92691
64.790 21.849052
64.795 21.524605
64.800 21.491724
64.805 21.196821
64.810 21.244419
64.815 22.189486
64.820 22.530556
64.825 23.16503
64.830 23.269089
64.835 23.719023
64.840 23.615231
64.845 23.768856
64.850 23.424974
64.855 23.19207
64.860 22.91625
64.865 22.7064
64.870 22.25771
64.875 22.629152
64.880 22.01239
64.885 22.376928
64.890 22.029779
64.895 21.652287
64.900 21.881405
64.905 22.151705
64.910 22.052765
64.915 22.472242
64.920 21.980017
64.925 22.404596
64.930 22.826986
64.935 22.250664
64.940 21.943058
64.945 21.86587
64.950 21.998692
64.955 22.534533
64.960 23.054689
64.965 23.127087
64.970 23.680759
64.975 23.809603
64.980 24.357384
64.985 24.52486
64.990 24.825861
64.995 25.308479
65.000 25.960321
65.005 25.874077
65.010 25.331177
65.015 25.434916
65.020 25.659279
65.025 26.264763
65.030 25.889477
65.035 25.669718
65.040 25.734121
65.045 25.776678
65.050 25.514494
65.055 25.304302
65.060 25.158733
65.065 24.635099
65.070 24.448668
65.075 24.74637
65.080 24.950499
65.085 24.795959
65.090 24.333426
65.095 23.903769
65.100 24.228561
65.105 24.591658
65.110 24.671749
65.115 24.759722
65.120 25.179703
65.125 25.591616
65.130 26.053705
65.135 26.364754
65.140 25.790977
65.145 25.984974
65.150 26.038746
65.155 26.786129
65.160 26.376661
65.165 26.268133
65.170 25.791616
65.175 25.608398
65.180 25.325766
65.185 24.785406
65.190 23.905796
65.195 23.610363
65.200 24.280281
65.205 24.829712
65.210 24.685863
65.215 25.053579
65.220 25.082861
65.225 25.165155
65.230 25.305622
65.235 24.516598
65.240 24.125235
65.245 24.012236
65.250 24.223373
65.255 24.954922
65.260 24.754061
65.265 24.744438
65.270 24.510353
65.275 24.763971
65.280 24.644327
65.285 24.411087
65.290 24.284204
65.295 24.404991
65.300 24.627098
65.305 25.028141
65.310 25.646896
65.315 26.075266
65.320 25.880781
65.325 25.944654
65.330 26.40658
65.335 26.895081
65.340 26.787752
65.345 26.624071
65.350 26.459841
65.355 26.24367
65.360 25.966948
65.365 26.093149
65.370 25.512171
65.375 24.82831
65.380 24.924913
65.385 25.24894
65.390 25.343063
65.395 25.10659
65.400 24.166733
65.405 23.251383
65.410 24.056835
65.415 23.929325
65.420 23.562555
65.425 23.512249
65.430 24.208729
65.435 25.375286
65.440 26.696339
65.445 25.859476
65.450 25.707619
65.455 26.382689
65.460 27.722851
65.465 28.051826
65.470 27.810818
65.475 27.882185
65.480 28.668713
65.485 28.781374
65.490 29.104187
65.495 28.489119
65.500 27.796457
65.505 27.777401
65.510 27.6633
65.515 28.275396
65.520 28.703196
65.525 28.408825
65.530 28.272293
65.535 28.798864
65.540 28.922091
65.545 28.678377
65.550 28.133093
65.555 27.137087
65.560 26.823719
65.565 27.093336
65.570 27.21456
65.575 27.696991
65.580 28.335276
65.585 28.748724
65.590 29.529537
65.595 30.385067
65.600 30.448328
65.605 31.075867
65.610 31.535809
65.615 31.415644
65.620 31.578949
65.625 31.411129
65.630 31.181643
65.635 30.859535
65.640 30.23802
65.645 29.977709
65.650 30.489902
65.655 30.63258
65.660 30.629135
65.665 31.32843
65.670 31.479467
65.675 31.225649
65.680 31.626291
65.685 31.98119
65.690 32.807274
65.695 33.288864
65.700 32.859489
65.705 33.274307
65.710 34.161907
65.715 34.189934
65.720 33.902241
65.725 33.50629
65.730 33.512985
65.735 33.504971
65.740 33.715145
65.745 33.6175
65.750 32.990143
65.755 32.750984
65.760 33.329475
65.765 33.491558
65.770 33.736107
65.775 33.579494
65.780 33.107079
65.785 34.137802
65.790 35.348904
65.795 35.33736
65.800 35.19228
65.805 35.435295
65.810 35.829247
65.815 36.268532
65.820 35.808445
65.825 34.30624
65.830 34.37878
65.835 34.731213
65.840 34.397923
65.845 34.387112
65.850 33.950596
65.855 34.431385
65.860 35.162342
65.865 35.238495
65.870 34.958801
65.875 35.840889
65.880 36.707005
65.885 37.059452
65.890 37.195953
65.895 36.38802
65.900 36.392456
65.905 36.189163
65.910 35.363365
65.915 35.003273
65.920 35.223343
65.925 34.62278
65.930 35.872673
65.935 36.068348
65.940 36.736023
65.945 37.252544
65.950 37.409187
65.955 37.556049
65.960 37.776203
65.965 36.369812
65.970 36.932545
65.975 36.544048
65.980 35.974457
65.985 35.87442
65.990 36.583744
65.995 37.650005
66.000 38.546486
66.005 37.619492
66.010 38.04295
66.015 38.273888
66.020 38.146252
66.025 37.360321
66.030 37.503887
66.035 37.780964
66.040 38.435322
66.045 37.910976
66.050 37.414761
66.055 37.227158
66.060 37.469364
66.065 36.696651
66.070 36.260944
66.075 36.281563
66.080 36.982769
66.085 37.517178
66.090 38.144005
66.095 38.45137
66.100 39.073994
66.105 39.387928
66.110 39.897865
66.115 39.764423
66.120 39.165108
66.125 38.539883
66.130 37.380898
66.135 37.336349
66.140 37.364571
66.145 37.403961
66.150 37.86657
66.155 38.644115
66.160 39.231583
66.165 39.406471
66.170 39.247665
66.175 39.101585
66.180 38.040459
66.185 37.332062
66.190 37.043369
66.195 36.474606
66.200 36.633888
66.205 36.48896
66.210 36.333473
66.215 36.954746
66.220 36.624367
66.225 36.701488
66.230 37.257881
66.235 37.331139
66.240 36.754414
66.245 36.810661
66.250 36.385761
66.255 37.179596
66.260 36.552998
66.265 35.558788
66.270 35.421169
66.275 35.559555
66.280 35.096336
66.285 35.069374
66.290 34.6437
66.295 34.508183
66.300 34.514843
66.305 34.022625
66.310 34.069824
66.315 33.711777
66.320 32.753582
66.325 32.300171
66.330 32.711929
66.335 33.079098
66.340 32.443867
66.345 31.628695
66.350 31.198292
66.355 31.191833
66.360 31.141788
66.365 30.621508
66.370 30.054897
66.375 30.004299
66.380 29.876261
66.385 29.817461
66.390 29.481001
66.395 29.016054
66.400 29.035864
66.405 29.595278
66.410 30.801924
66.415 31.414104
66.420 32.204029
66.425 32.737747
66.430 32.448673
66.435 32.68272
66.440 32.226208
66.445 31.656317
66.450 30.830675
66.455 29.974375
66.460 29.839823
66.465 30.079473
66.470 29.486786
66.475 29.980364
66.480 29.618505
66.485 29.630127
66.490 30.061598
66.495 29.543638
66.500 29.407164
66.505 29.719631
66.510 29.282095
66.515 28.963491
66.520 27.800793
66.525 26.600332
66.530 26.550369
66.535 25.737522
66.540 25.088373
66.545 24.557829
66.550 24.89852
66.555 25.477755
66.560 26.145088
66.565 26.277695
66.570 26.268978
66.575 25.897011
66.580 25.534031
66.585 24.964571
66.590 24.838848
66.595 24.833576
66.600 24.077999
66.605 24.271248
66.610 24.61655
66.615 24.554264
66.620 24.240026
66.625 23.955681
66.630 23.362312
66.635 23.800997
66.640 23.557692
66.645 23.320602
66.650 22.888502
66.655 22.632521
66.660 22.776539
66.665 22.623869
66.670 22.065552
66.675 21.919107
66.680 22.230717
66.685 22.195192
66.690 22.049963
66.695 21.83073
66.700 21.998491
66.705 22.524782
66.710 22.440176
66.715 22.518568
66.720 22.460878
66.725 22.000536
66.730 21.445692
66.735 21.287245
66.740 21.475136
66.745 21.248606
66.750 20.570513
66.755 20.5075
66.760 20.855656
66.765 21.696014
66.770 21.679447
66.775 21.38398
66.780 21.498512
66.785 21.609221
66.790 21.857697
66.795 21.854324
66.800 21.67794
66.805 21.683138
66.810 21.406096
66.815 20.808428
66.820 21.135164
66.825 21.267286
66.830 21.222834
66.835 20.847267
66.840 20.826172
66.845 21.064489
66.850 21.07299
66.855 20.11091
66.860 19.319843
66.865 19.60854
66.870 19.521269
66.875 19.279015
66.880 19.683525
66.885 19.882505
66.890 20.253242
66.895 20.752131
66.900 20.212334
66.905 20.574118
66.910 20.82725
66.915 20.450474
66.920 20.82896
66.925 20.939287
66.930 20.867722
66.935 21.059607
66.940 21.262972
66.945 21.136673
66.950 20.682732
66.955 20.437151
66.960 19.99881
66.965 20.125845
66.970 20.886137
66.975 20.873423
66.980 20.830425
66.985 20.808428
66.990 20.972122
66.995 21.375355
67.000 21.890297
67.005 20.961836
67.010 20.614502
67.015 20.717762
67.020 20.913418
67.025 20.499136
67.030 20.331238
67.035 20.377037
67.040 21.523754
67.045 21.038792
67.050 21.075241
67.055 21.072756
67.060 21.271059
67.065 20.886696
67.070 20.357311
67.075 19.417175
67.080 19.653641
67.085 19.267679
67.090 19.268291
67.095 18.95042
67.100 19.019506
67.105 18.140522
67.110 17.875137
67.115 18.700041
67.120 19.426588
67.125 19.813776
67.130 20.422899
67.135 20.094944
67.140 20.135216
67.145 20.180763
67.150 19.336803
67.155 19.638628
67.160 19.871504
67.165 19.904705
67.170 20.840199
67.175 22.268312
67.180 22.379873
67.185 22.258478
67.190 22.107323
67.195 22.188492
67.200 21.764267
67.205 21.126837
67.210 20.379465
67.215 20.680029
67.220 20.430285
67.225 19.973305
67.230 20.090191
67.235 20.659683
67.240 20.644337
67.245 20.407444
67.250 20.181755
67.255 20.193188
67.260 20.073057
67.265 19.496456
67.270 19.757357
67.275 19.978968
67.280 20.259907
67.285 20.52355
67.290 21.088367
67.295 21.435589
67.300 22.284821
67.305 21.982771
67.310 22.364691
67.315 22.271309
67.320 22.608675
67.325 22.054655
67.330 21.337015
67.335 20.704037
67.340 20.519835
67.345 19.821222
67.350 20.265224
67.355 20.45286
67.360 20.088253
67.365 20.118546
67.370 20.307417
67.375 20.225658
67.380 20.211792
67.385 19.269705
67.390 18.666199
67.395 19.246742
67.400 19.25926
67.405 19.123964
67.410 19.142584
67.415 19.498901
67.420 19.510614
67.425 19.344032
67.430 18.799402
67.435 18.309183
67.440 18.693069
67.445 18.542244
67.450 18.776031
67.455 18.941732
67.460 19.147905
67.465 19.484949
67.470 19.903467
67.475 19.516151
67.480 19.287773
67.485 19.321596
67.490 19.605968
67.495 19.722464
67.500 20.293465
67.505 20.443968
67.510 20.678022
67.515 21.12722
67.520 20.760687
67.525 20.801319
67.530 20.671455
67.535 19.982327
67.540 19.354414
67.545 18.880032
67.550 18.789082
67.555 19.164373
67.560 18.861155
67.565 18.985476
67.570 19.229664
67.575 19.529051
67.580 19.659796
67.585 19.776846
67.590 20.074083
67.595 20.424608
67.600 20.336605
67.605 20.622242
67.610 20.8067
67.615 21.166655
67.620 20.982761
67.625 20.635464
67.630 20.431355
67.635 20.522882
67.640 20.114376
67.645 20.269918
67.650 20.004845
67.655 19.622784
67.660 19.309908
67.665 19.510639
67.670 19.675516
67.675 19.592697
67.680 19.874371
67.685 19.838675
67.690 20.219528
67.695 20.182827
67.700 19.418432
67.705 19.14357
67.710 19.346666
67.715 19.051327
67.720 19.374224
67.725 19.557522
67.730 19.993572
67.735 20.63875
67.740 20.391794
67.745 19.804659
67.750 19.953835
67.755 19.760036
67.760 19.243258
67.765 19.507786
67.770 19.195969
67.775 20.01762
67.780 20.036345
67.785 20.088354
67.790 20.071804
67.795 20.855486
67.800 20.856384
67.805 21.039524
67.810 20.719385
67.815 20.693687
67.820 20.921049
67.825 20.992422
67.830 20.398693
67.835 20.147243
67.840 20.368696
67.845 20.518282
67.850 20.474953
67.855 19.92551
67.860 20.181637
67.865 20.801441
67.870 20.946018
67.875 20.911131
67.880 20.570507
67.885 20.629696
67.890 20.907669
67.895 20.476812
67.900 19.873323
67.905 19.818525
67.910 20.289221
67.915 20.836861
67.920 21.138117
67.925 20.691639
67.930 21.249779
67.935 21.677519
67.940 21.391865
67.945 20.827425
67.950 20.258844
67.955 20.027718
67.960 19.946991
67.965 19.101871
67.970 19.019459
67.975 19.476555
67.980 19.534542
67.985 19.901327
67.990 20.280771
67.995 20.710779
68.000 20.897982
68.005 20.634275
68.010 20.394552
68.015 20.514135
68.020 20.721392
68.025 20.619839
68.030 20.551922
68.035 20.900278
68.040 21.149834
68.045 21.254503
68.050 21.261019
68.055 21.208244
68.060 21.657175
68.065 21.655279
68.070 21.481689
68.075 21.255604
68.080 20.778503
68.085 20.716772
68.090 20.555098
68.095 20.092939
68.100 19.974335
68.105 20.199089
68.110 20.255531
68.115 20.357389
68.120 20.070419
68.125 19.881804
68.130 19.700972
68.135 20.04389
68.140 20.058201
68.145 19.907654
68.150 20.149599
68.155 20.552103
68.160 20.892752
68.165 20.729136
68.170 20.39336
68.175 20.075207
68.180 20.501724
68.185 20.780994
68.190 20.517883
68.195 20.008984
68.200 19.975115
68.205 20.086666
68.210 20.031712
68.215 19.811703
68.220 19.73835
68.225 20.118792
68.230 19.856447
68.235 19.968977
68.240 20.24338
68.245 20.418144
68.250 20.188963
68.255 19.694361
68.260 19.812599
68.265 20.215195
68.270 19.662945
68.275 19.089724
68.280 18.812433
68.285 18.810396
68.290 18.691948
68.295 18.466093
68.300 18.353403
68.305 18.753483
68.310 18.977522
68.315 18.992342
68.320 19.676733
68.325 19.901472
68.330 19.947538
68.335 20.330507
68.340 20.528183
68.345 20.549105
68.350 20.13685
68.355 19.275887
68.360 19.705091
68.365 19.748306
68.370 19.971251
68.375 19.644749
68.380 19.708933
68.385 20.510845
68.390 20.930937
68.395 20.5165
68.400 20.696636
68.405 20.813663
68.410 21.939857
68.415 22.411816
68.420 22.29764
68.425 22.466885
68.430 22.683769
68.435 22.237625
68.440 22.079378
68.445 21.541714
68.450 20.936335
68.455 20.245914
68.460 19.84189
68.465 19.769892
68.470 19.835423
68.475 19.590944
68.480 19.249331
68.485 19.346434
68.490 19.722923
68.495 20.192499
68.500 20.473536
68.505 20.858641
68.510 21.152531
68.515 21.788864
68.520 21.945259
68.525 22.593756
68.530 23.440136
68.535 23.963341
68.540 23.562252
68.545 23.621765
68.550 23.592913
68.555 23.450695
68.560 23.096163
68.565 21.838652
68.570 21.312637
68.575 21.514006
68.580 21.303125
68.585 21.086449
68.590 21.383722
68.595 21.301931
68.600 22.006765
68.605 22.779867
68.610 23.06567
68.615 23.332102
68.620 23.686455
68.625 23.1751
68.630 23.145863
68.635 23.180609
68.640 23.022509
68.645 22.973913
68.650 22.749071
68.655 22.687838
68.660 22.969967
68.665 22.224083
68.670 21.409473
68.675 21.444645
68.680 21.070774
68.685 21.737118
68.690 21.609747
68.695 22.487507
68.700 23.24188
68.705 23.979574
68.710 23.997007
68.715 24.181763
68.720 23.362219
68.725 23.670818
68.730 23.616064
68.735 23.683155
68.740 23.3827
68.745 22.87842
68.750 22.870434
68.755 23.20323
68.760 23.920124
68.765 24.480066
68.770 24.332903
68.775 23.995926
68.780 24.390564
68.785 24.828661
68.790 24.628269
68.795 24.234442
68.800 24.350851
68.805 24.913277
68.810 25.80858
68.815 26.08263
68.820 25.815386
68.825 25.995317
68.830 26.556322
68.835 26.111389
68.840 25.595392
68.845 25.086424
68.850 24.287178
68.855 25.055138
68.860 25.453154
68.865 24.95492
68.870 25.330927
68.875 25.661751
68.880 25.621456
68.885 26.006481
68.890 25.583235
68.895 25.212746
68.900 25.558359
68.905 25.623236
68.910 25.436958
68.915 25.992456
68.920 26.247986
68.925 26.311552
68.930 26.222254
68.935 26.2078
68.940 26.8242
68.945 27.220339
68.950 26.730145
68.955 27.233606
68.960 28.094818
68.965 28.231737
68.970 27.434317
68.975 27.260546
68.980 27.792048
68.985 28.724325
68.990 27.950281
68.995 27.061367
69.000 27.362139
69.005 28.627684
69.010 28.269945
69.015 27.342289
69.020 27.249939
69.025 27.911459
69.030 28.57478
69.035 28.893572
69.040 28.147774
69.045 28.318329
69.050 28.907646
69.055 28.518332
69.060 28.827335
69.065 29.205387
69.070 29.072433
69.075 29.317411
69.080 29.869917
69.085 30.337296
69.090 29.806353
69.095 29.594948
69.100 29.619225
69.105 29.125612
69.110 29.21698
69.115 29.381947
69.120 29.778467
69.125 30.013624
69.130 29.603121
69.135 29.264547
69.140 29.701372
69.145 29.101967
69.150 28.658096
69.155 28.819424
69.160 29.003027
69.165 28.957148
69.170 29.213896
69.175 29.157187
69.180 29.01639
69.185 28.679148
69.190 28.424402
69.195 28.856518
69.200 29.52125
69.205 30.240654
69.210 30.510061
69.215 31.147926
69.220 31.411509
69.225 31.953947
69.230 31.558643
69.235 30.88064
69.240 30.453098
69.245 31.007286
69.250 30.536903
69.255 30.407248
69.260 30.517345
69.265 30.507294
69.270 30.753387
69.275 30.786465
69.280 30.077957
69.285 30.901171
69.290 30.626139
69.295 30.822582
69.300 30.44121
69.305 29.899284
69.310 30.45122
69.315 30.752975
69.320 30.501034
69.325 30.044392
69.330 29.734064
69.335 30.003075
69.340 29.924093
69.345 28.551151
69.350 28.302816
69.355 28.249491
69.360 28.414656
69.365 28.655251
69.370 28.871986
69.375 29.444403
69.380 30.814243
69.385 31.199331
69.390 31.763792
69.395 32.516373
69.400 33.098579
69.405 33.2164
69.410 33.093292
69.415 32.478054
69.420 32.197876
69.425 31.984509
69.430 31.838755
69.435 31.241898
69.440 31.601109
69.445 32.01833
69.450 31.247379
69.455 31.546366
69.460 31.665434
69.465 31.287184
69.470 31.134737
69.475 30.596151
69.480 30.205908
69.485 30.131767
69.490 30.239132
69.495 29.926487
69.500 29.624538
69.505 29.286335
69.510 29.207731
69.515 29.360558
69.520 29.986336
69.525 29.975918
69.530 30.049461
69.535 30.666325
69.540 30.89209
69.545 31.216555
69.550 31.225401
69.555 30.619486
69.560 30.173582
69.565 29.904623
69.570 30.313158
69.575 30.874207
69.580 30.942795
69.585 31.508261
69.590 31.974356
69.595 32.476131
69.600 32.004028
69.605 31.520592
69.610 31.28108
69.615 31.237865
69.620 30.47406
69.625 29.900743
69.630 29.82023
69.635 29.902935
69.640 29.910324
69.645 29.556461
69.650 29.501575
69.655 30.762388
69.660 31.477655
69.665 30.925629
69.670 30.324354
69.675 29.864407
69.680 29.943731
69.685 30.189653
69.690 29.435093
69.695 28.757137
69.700 28.976971
69.705 29.189676
69.710 29.245609
69.715 28.578848
69.720 28.578272
69.725 28.9312
69.730 28.4802
69.735 28.185553
69.740 27.826717
69.745 27.767021
69.750 28.068869
69.755 27.566687
69.760 27.105768
69.765 27.220633
69.770 26.941977
69.775 26.726725
69.780 26.041885
69.785 25.904181
69.790 26.089613
69.795 25.270678
69.800 24.785303
69.805 24.833689
69.810 24.631073
69.815 24.361141
69.820 23.292387
69.825 22.275473
69.830 22.368202
69.835 22.434044
69.840 22.408405
69.845 23.086601
69.850 23.191166
69.855 23.560228
69.860 23.606316
69.865 23.559402
69.870 23.454075
69.875 23.827038
69.880 23.756149
69.885 24.267454
69.890 24.603069
69.895 25.060524
69.900 25.262478
69.905 24.887299
69.910 24.143438
69.915 24.086418
69.920 23.14924
69.925 22.930803
69.930 22.653543
69.935 22.595881
69.940 22.344669
69.945 22.199661
69.950 21.949892
69.955 22.396288
69.960 21.811386
69.965 21.393309
69.970 21.21599
69.975 21.303356
69.980 21.262987
69.985 21.139687
69.990 21.09457
69.995 21.680517
70.000 21.535671
70.005 21.333706
70.010 21.484299
70.015 21.63098
70.020 21.809433
70.025 22.162252
70.030 22.156305
70.035 22.035452
70.040 22.269918
70.045 22.015594
70.050 21.775385
70.055 21.317472
70.060 20.250622
70.065 20.543486
70.070 20.81316
70.075 21.071535
70.080 20.532263
70.085 20.028887
70.090 20.142593
70.095 19.990202
70.100 19.463511
70.105 19.539761
70.110 19.044317
70.115 18.848282
70.120 18.806368
70.125 19.16824
70.130 19.511784
70.135 19.821255
70.140 19.792795
70.145 20.348532
70.150 20.935472
70.155 20.869064
70.160 20.67975
70.165 20.3132
70.170 19.799643
70.175 19.309685
70.180 19.385374
70.185 19.68685
70.190 20.004145
70.195 19.959909
70.200 20.161638
70.205 20.351543
70.210 20.222542
70.215 19.912395
70.220 20.454517
70.225 20.52882
70.230 20.066652
70.235 19.694464
70.240 19.587421
70.245 19.938711
70.250 20.101646
70.255 19.27882
70.260 19.510553
70.265 20.051737
70.270 20.105621
70.275 20.471869
70.280 20.661274
70.285 20.662111
70.290 20.868502
70.295 20.774366
70.300 20.371943
70.305 19.771002
70.310 19.221401
70.315 19.128473
70.320 18.390509
70.325 18.259775
70.330 18.520393
70.335 18.995188
70.340 20.103064
70.345 20.770681
70.350 21.240858
70.355 21.385321
70.360 21.336927
70.365 20.960934
70.370 20.598923
70.375 20.13859
70.380 19.285055
70.385 19.053738
70.390 19.727211
70.395 20.006184
70.400 20.294275
70.405 20.786203
70.410 20.592716
70.415 20.271194
70.420 20.554068
70.425 20.015848
70.430 19.71051
70.435 20.461489
70.440 20.133863
70.445 19.998014
70.450 20.311361
70.455 19.724174
70.460 19.942053
70.465 20.20591
70.470 19.439171
70.475 19.797062
70.480 19.990503
70.485 19.728481
70.490 20.257231
70.495 19.852789
70.500 19.312876
70.505 19.136812
70.510 18.734709
70.515 18.454798
70.520 19.096205
70.525 19.64447
70.530 20.164198
70.535 20.287336
70.540 20.225769
70.545 20.479563
70.550 20.437136
70.555 19.938881
70.560 19.606537
70.565 19.519758
70.570 19.88343
70.575 20.179298
70.580 20.732975
70.585 21.029533
70.590 21.291489
70.595 21.285797
70.600 21.362518
70.605 20.672268
70.610 20.551193
70.615 19.914705
70.620 19.752037
70.625 19.442863
70.630 19.307386
70.635 18.773533
70.640 18.710873
70.645 18.651758
70.650 18.756042
70.655 19.457521
70.660 19.596178
70.665 19.061586
70.670 18.918352
70.675 19.020302
70.680 19.010643
70.685 17.968565
70.690 17.34939
70.695 17.62121
70.700 18.463722
70.705 18.988398
70.710 18.458729
70.715 18.802349
70.720 19.884876
70.725 19.894592
70.730 19.249266
70.735 18.952385
70.740 19.183043
70.745 19.261492
70.750 18.982227
70.755 18.66721
70.760 19.097794
70.765 19.638094
70.770 19.399862
70.775 19.157816
70.780 19.245222
70.785 18.872005
70.790 18.783257
70.795 18.410885
70.800 18.450108
70.805 18.624174
70.810 18.607553
70.815 18.730574
70.820 19.543776
70.825 19.195528
70.830 18.676958
70.835 18.418863
70.840 18.940163
70.845 19.448326
70.850 19.515953
70.855 19.121567
70.860 18.959635
70.865 19.222506
70.870 18.959839
70.875 18.800907
70.880 18.594112
70.885 18.160879
70.890 18.351976
70.895 18.614143
70.900 18.614347
70.905 18.065014
70.910 17.403685
70.915 17.798569
70.920 17.89468
70.925 17.820829
70.930 18.059626
70.935 18.565535
70.940 18.937601
70.945 19.365833
70.950 19.079819
70.955 19.034754
70.960 18.962593
70.965 18.52994
70.970 18.766384
70.975 18.890013
70.980 18.936554
70.985 19.064548
70.990 18.090302
70.995 17.68914
71.000 18.190807
71.005 18.000307
71.010 18.211988
71.015 17.510529
71.020 17.528831
71.025 18.223639
71.030 17.877287
71.035 17.543709
71.040 17.39864
71.045 16.704205
71.050 17.019035
71.055 17.334494
71.060 18.210133
71.065 18.629463
71.070 18.357548
71.075 18.626749
71.080 19.199995
71.085 19.300055
71.090 18.986496
71.095 18.290518
71.100 17.892736
71.105 17.429218
71.110 17.610579
71.115 17.877869
71.120 17.497385
71.125 17.608961
71.130 18.044024
71.135 18.325794
71.140 18.313715
71.145 17.916798
71.150 17.790436
71.155 18.021395
71.160 17.897282
71.165 17.909447
71.170 18.406834
71.175 18.278028
71.180 18.286478
71.185 18.323448
71.190 18.586458
71.195 19.112715
71.200 18.929976
71.205 18.867996
71.210 19.321312
71.215 18.932377
71.220 18.7148
71.225 18.385403
71.230 18.058693
71.235 18.327095
71.240 18.468307
71.245 18.450373
71.250 19.21981
71.255 19.506798
71.260 19.437634
71.265 19.693586
71.270 19.776909
71.275 20.189726
71.280 20.200979
71.285 19.867384
71.290 19.776743
71.295 19.328556
71.300 18.60618
71.305 18.394455
71.310 17.81995
71.315 17.794937
71.320 17.756374
71.325 17.937567
71.330 19.009651
71.335 19.554972
71.340 19.400965
71.345 19.890913
71.350 19.792587
71.355 19.472107
71.360 18.966892
71.365 18.406036
71.370 18.359516
71.375 18.63595
71.380 18.900553
71.385 18.831203
71.390 18.695454
71.395 18.72991
71.400 19.355614
71.405 19.929039
71.410 19.382151
71.415 19.023619
71.420 19.13192
71.425 18.839401
71.430 18.498428
71.435 17.623728
71.440 17.252502
71.445 17.770061
71.450 18.053123
71.455 17.974483
71.460 19.011126
71.465 19.333721
71.470 19.079737
71.475 18.533865
71.480 18.016365
71.485 18.150234
71.490 18.234394
71.495 17.689915
71.500 17.285839
71.505 17.906342
71.510 18.551983
71.515 18.650366
71.520 18.632242
71.525 18.50848
71.530 18.819841
71.535 19.136555
71.540 18.748039
71.545 18.492514
71.550 18.588972
71.555 18.682266
71.560 18.832966
71.565 18.688156
71.570 18.773693
71.575 18.957981
71.580 18.938204
71.585 18.85778
71.590 18.997383
71.595 19.034899
71.600 18.968691
71.605 18.168177
71.610 18.218031
71.615 17.648264
71.620 17.215084
71.625 17.149918
71.630 17.556198
71.635 17.965721
71.640 18.535629
71.645 18.584894
71.650 18.751825
71.655 18.458542
71.660 17.986771
71.665 17.717579
71.670 17.526173
71.675 17.509182
71.680 17.375591
71.685 17.748627
71.690 18.026972
71.695 18.739519
71.700 19.409939
71.705 19.479805
71.710 19.817429
71.715 20.092651
71.720 20.207754
71.725 20.145803
71.730 19.669306
71.735 19.396912
71.740 19.686337
71.745 19.207479
71.750 18.977243
71.755 18.765932
71.760 18.735998
71.765 18.543457
71.770 18.167507
71.775 17.479202
71.780 17.738712
71.785 18.047289
71.790 17.629587
71.795 17.240011
71.800 17.208525
71.805 17.566433
71.810 17.899199
71.815 18.442842
71.820 18.685184
71.825 19.145226
71.830 19.267511
71.835 19.524059
71.840 19.591032
71.845 19.589064
71.850 19.162363
71.855 19.424997
71.860 19.560503
71.865 19.086535
71.870 18.508968
71.875 19.064274
71.880 19.05304
71.885 18.929018
71.890 18.763071
71.895 18.927544
71.900 19.646074
71.905 20.103823
71.910 19.561615
71.915 19.190886
71.920 19.348877
71.925 19.411167
71.930 19.583107
71.935 19.663887
71.940 19.419344
71.945 18.766846
71.950 18.406698
71.955 17.51553
71.960 17.117376
71.965 16.536345
71.970 15.926685
71.975 16.560028
71.980 16.81638
71.985 16.972149
71.990 17.631378
71.995 18.181036
72.000 18.314856
72.005 18.565882
72.010 18.68358
72.015 19.213936
72.020 19.853413
72.025 19.579542
72.030 19.744274
72.035 20.452494
72.040 20.315828
72.045 20.143911
72.050 20.079945
72.055 19.883217
72.060 20.31687
72.065 19.985954
72.070 19.577766
72.075 19.47134
72.080 19.188223
72.085 19.452587
72.090 19.445625
72.095 19.099209
72.100 19.393694
72.105 19.585657
72.110 19.704367
72.115 18.864058
72.120 18.371063
72.125 18.280716
72.130 18.368719
72.135 18.00284
72.140 18.223465
72.145 18.502871
72.150 18.950092
72.155 18.820063
72.160 19.094688
72.165 19.244419
72.170 19.395144
72.175 19.263733
72.180 19.053288
72.185 18.930315
72.190 19.082245
72.195 19.022497
72.200 19.38674
72.205 19.273869
72.210 19.448084
72.215 19.598406
72.220 19.749384
72.225 19.259651
72.230 18.610222
72.235 18.043516
72.240 18.029667
72.245 18.250095
72.250 18.25152
72.255 18.039856
72.260 18.298613
72.265 18.350719
72.270 18.523228
72.275 18.719324
72.280 18.471701
72.285 18.418413
72.290 18.414934
72.295 18.726652
72.300 18.972652
72.305 18.618868
72.310 18.235069
72.315 18.411409
72.320 18.464359
72.325 18.478943
72.330 18.625389
72.335 18.280754
72.340 18.403938
72.345 18.86759
72.350 18.272499
72.355 18.060949
72.360 17.821621
72.365 18.271652
72.370 18.62014
72.375 18.885813
72.380 18.233112
72.385 18.863932
72.390 19.287907
72.395 18.834618
72.400 18.05279
72.405 18.022186
72.410 18.458921
72.415 18.781332
72.420 18.714495
72.425 18.031805
72.430 18.382757
72.435 17.734098
72.440 17.435013
72.445 17.180532
72.450 17.214895
72.455 17.290607
72.460 17.710087
72.465 18.017775
72.470 19.243818
72.475 19.228233
72.480 19.129356
72.485 19.478695
72.490 19.170393
72.495 19.124998
72.500 19.497242
72.505 19.309273
72.510 19.488556
72.515 19.491058
72.520 18.991449
72.525 19.154034
72.530 17.941898
72.535 17.886164
72.540 17.966488
72.545 17.89901
72.550 18.035727
72.555 18.465448
72.560 18.741606
72.565 19.133049
72.570 18.456875
72.575 18.265406
72.580 18.168156
72.585 18.276501
72.590 18.938734
72.595 19.228483
72.600 19.733122
72.605 20.368744
72.610 19.951971
72.615 19.50679
72.620 18.928812
72.625 18.644705
72.630 17.632305
72.635 17.120678
72.640 17.047724
72.645 17.509441
72.650 17.140347
72.655 16.541405
72.660 16.965599
72.665 17.259748
72.670 17.035055
72.675 17.468683
72.680 17.712254
72.685 18.104591
72.690 18.734678
72.695 18.874636
72.700 18.926788
72.705 18.584917
72.710 18.442728
72.715 18.420746
72.720 18.204376
72.725 18.256218
72.730 18.547337
72.735 18.617123
72.740 18.080235
72.745 17.749926
72.750 17.987947
72.755 18.438168
72.760 18.468843
72.765 18.237164
72.770 18.524164
72.775 18.911854
72.780 19.232306
72.785 19.477444
72.790 18.698505
72.795 17.897354
72.800 17.982986
72.805 17.787699
72.810 17.448324
72.815 16.633692
72.820 16.566492
72.825 16.818682
72.830 17.004152
72.835 16.885803
72.840 16.81753
72.845 17.766018
72.850 17.470535
72.855 16.881632
72.860 17.023844
72.865 17.126318
72.870 17.193575
72.875 16.43725
72.880 16.387836
72.885 16.439798
72.890 16.98934
72.895 16.100489
72.900 15.8293
72.905 16.264378
72.910 16.247381
72.915 15.695168
72.920 15.520557
72.925 15.797374
72.930 16.8913
72.935 16.57439
72.940 16.462452
72.945 17.002937
72.950 17.752747
72.955 17.876911
72.960 18.515503
72.965 18.157881
72.970 18.824286
72.975 19.119143
72.980 19.227324
72.985 19.515799
72.990 19.752281
72.995 19.286362
73.000 19.199846
