!@!!GADDS PLOTSO FILE: Chi integration type
!@!!Title/SampleName: map-20
!@!!Comment: ?
!@!!User: Bruker Instrument Administrator
!@!!Site: University of Illinois Chicago
!@!!Frame: map-20_01_000.gfrm
!@!!Wavelengths    1.54184   1.54056   1.54439
!@!!Frame angles: 2Theta: 63.000 Omega: 50.000 Phi: 0.000 Chi: 90.000
!@!!Integration range: 2Theta: 53.000 to 73.000  Gamma: -105.000 to -75.000
!@!!Integration method: bin normalized
!@!N
!@!SS
!@!M
!@!L 0.0 0.0 0.0 0.0
!@!XDegrees
!@!YCounts
53.000 9.305281
53.005 9.068752
53.010 9.008217
53.015 8.81217
53.020 8.631829
53.025 8.670654
53.030 8.295671
53.035 8.10301
53.040 8.810524
53.045 9.019882
53.050 9.292067
53.055 9.129463
53.060 9.275666
53.065 9.61983
53.070 9.576163
53.075 9.299639
53.080 9.480048
53.085 9.715645
53.090 9.379616
53.095 9.146169
53.100 8.881784
53.105 8.849304
53.110 8.876281
53.115 8.82643
53.120 8.657543
53.125 8.828872
53.130 8.777602
53.135 8.856444
53.140 9.118608
53.145 8.893816
53.150 9.12016
53.155 9.03046
53.160 9.240475
53.165 9.365807
53.170 9.024404
53.175 8.566357
53.180 8.465684
53.185 8.231319
53.190 8.143676
53.195 8.150114
53.200 8.032578
53.205 8.601315
53.210 9.356555
53.215 9.418044
53.220 9.528147
53.225 9.716879
53.230 9.780519
53.235 9.76174
53.240 9.603851
53.245 9.078809
53.250 9.645081
53.255 9.858288
53.260 9.755988
53.265 9.288869
53.270 9.256626
53.275 8.971297
53.280 8.921642
53.285 8.387828
53.290 7.841225
53.295 7.975007
53.300 8.152612
53.305 7.902502
53.310 7.987286
53.315 7.765726
53.320 7.750821
53.325 8.010118
53.330 7.723514
53.335 7.822478
53.340 8.024884
53.345 8.385598
53.350 8.432982
53.355 8.672826
53.360 8.671929
53.365 8.82701
53.370 8.675166
53.375 8.484924
53.380 8.235741
53.385 8.390841
53.390 8.300701
53.395 8.378207
53.400 8.574816
53.405 9.014882
53.410 9.388105
53.415 9.399276
53.420 9.221365
53.425 9.232334
53.430 9.137188
53.435 9.276662
53.440 9.047471
53.445 9.032355
53.450 9.227159
53.455 9.375809
53.460 9.392982
53.465 9.082801
53.470 8.586535
53.475 8.34148
53.480 7.857027
53.485 7.995656
53.490 8.23997
53.495 8.474549
53.500 8.962519
53.505 9.192584
53.510 9.393339
53.515 9.837239
53.520 9.531162
53.525 9.30148
53.530 9.118242
53.535 9.035032
53.540 9.141683
53.545 9.136312
53.550 8.877074
53.555 8.641184
53.560 8.345337
53.565 8.310218
53.570 8.037656
53.575 7.841894
53.580 7.611532
53.585 7.540479
53.590 7.837613
53.595 7.878256
53.600 8.133397
53.605 8.353105
53.610 8.370393
53.615 8.572964
53.620 8.760867
53.625 8.180417
53.630 8.154175
53.635 7.807434
53.640 7.697342
53.645 7.773577
53.650 7.853144
53.655 7.905103
53.660 8.784121
53.665 9.693239
53.670 10.109412
53.675 10.102857
53.680 9.987429
53.685 9.957278
53.690 10.251327
53.695 10.103706
53.700 9.539946
53.705 9.496745
53.710 9.8604
53.715 9.928829
53.720 9.810835
53.725 9.509666
53.730 9.19546
53.735 9.295575
53.740 8.872331
53.745 8.765433
53.750 8.853144
53.755 8.996647
53.760 9.007877
53.765 9.024146
53.770 9.416529
53.775 9.560997
53.780 9.656322
53.785 9.726173
53.790 10.105743
53.795 10.217487
53.800 10.30518
53.805 10.025804
53.810 9.906451
53.815 9.793322
53.820 9.902354
53.825 9.864647
53.830 10.03666
53.835 9.955143
53.840 10.168286
53.845 10.438341
53.850 10.585015
53.855 10.560849
53.860 10.449001
53.865 10.188558
53.870 9.883035
53.875 9.743909
53.880 9.272902
53.885 9.409709
53.890 9.187072
53.895 8.458497
53.900 8.404444
53.905 8.697592
53.910 9.098438
53.915 9.289803
53.920 8.787288
53.925 9.017177
53.930 9.90582
53.935 9.901009
53.940 9.98602
53.945 9.846983
53.950 10.181984
53.955 11.126471
53.960 11.709879
53.965 11.378327
53.970 11.491995
53.975 11.599302
53.980 11.848259
53.985 11.739971
53.990 11.135195
53.995 10.743073
54.000 10.70471
54.005 10.651361
54.010 10.458453
54.015 10.442632
54.020 10.445806
54.025 11.004486
54.030 11.402315
54.035 11.618291
54.040 11.988619
54.045 11.855332
54.050 11.367324
54.055 10.816034
54.060 10.264935
54.065 9.949478
54.070 9.518413
54.075 8.884102
54.080 8.766967
54.085 8.878765
54.090 8.649407
54.095 8.764192
54.100 8.743613
54.105 8.836251
54.110 8.667663
54.115 8.934545
54.120 9.407141
54.125 9.584793
54.130 9.165049
54.135 9.074247
54.140 8.978747
54.145 9.265728
54.150 8.778746
54.155 8.09914
54.160 8.008212
54.165 8.052495
54.170 8.356183
54.175 8.538959
54.180 8.718442
54.185 8.996593
54.190 9.595202
54.195 10.108943
54.200 10.012061
54.205 9.979173
54.210 10.112124
54.215 9.861486
54.220 9.77702
54.225 9.975272
54.230 9.869288
54.235 9.853559
54.240 9.469891
54.245 9.446421
54.250 9.712955
54.255 9.440273
54.260 8.964536
54.265 8.889057
54.270 9.365561
54.275 9.336697
54.280 9.208428
54.285 9.590093
54.290 9.841524
54.295 10.38153
54.300 10.335781
54.305 10.405112
54.310 10.405842
54.315 10.42455
54.320 10.014788
54.325 9.725388
54.330 9.414001
54.335 9.410963
54.340 9.373124
54.345 9.750563
54.350 9.975184
54.355 10.17909
54.360 9.935282
54.365 9.94538
54.370 10.565097
54.375 10.538477
54.380 10.521968
54.385 10.810064
54.390 10.711022
54.395 10.935006
54.400 10.809953
54.405 10.553355
54.410 10.558479
54.415 9.978457
54.420 9.689895
54.425 9.893373
54.430 9.918604
54.435 9.890963
54.440 9.748231
54.445 9.902605
54.450 10.115775
54.455 10.12839
54.460 10.145471
54.465 9.783102
54.470 9.416454
54.475 9.306415
54.480 9.445683
54.485 9.712052
54.490 9.417717
54.495 9.604761
54.500 10.290165
54.505 10.637127
54.510 10.833838
54.515 11.021738
54.520 11.169885
54.525 11.295882
54.530 11.322551
54.535 10.910192
54.540 10.808505
54.545 10.388104
54.550 10.081132
54.555 10.26924
54.560 10.346045
54.565 10.130397
54.570 10.086453
54.575 10.524886
54.580 10.858983
54.585 10.900444
54.590 10.753068
54.595 10.493349
54.600 11.107075
54.605 11.180615
54.610 10.881935
54.615 10.748722
54.620 10.747151
54.625 10.577146
54.630 10.561591
54.635 10.318211
54.640 10.467461
54.645 10.510736
54.650 10.467237
54.655 10.280648
54.660 10.222752
54.665 10.175732
54.670 9.700355
54.675 9.333997
54.680 9.11741
54.685 8.983484
54.690 9.33698
54.695 9.893342
54.700 10.407133
54.705 10.993079
54.710 11.270121
54.715 11.573604
54.720 11.283092
54.725 10.464962
54.730 9.940671
54.735 9.316283
54.740 8.907398
54.745 8.677319
54.750 8.357015
54.755 8.365047
54.760 8.821058
54.765 8.810456
54.770 8.973507
54.775 9.39312
54.780 9.905933
54.785 10.196016
54.790 10.71324
54.795 10.816961
54.800 11.284466
54.805 11.327209
54.810 11.46918
54.815 11.077393
54.820 11.30649
54.825 11.126475
54.830 11.185136
54.835 11.169225
54.840 11.406157
54.845 11.32253
54.850 11.39829
54.855 11.454835
54.860 11.480845
54.865 11.068131
54.870 10.683231
54.875 10.547046
54.880 10.388408
54.885 10.133194
54.890 9.800599
54.895 10.193511
54.900 10.046863
54.905 10.193737
54.910 10.457596
54.915 10.372317
54.920 10.814436
54.925 10.89541
54.930 10.870377
54.935 11.451259
54.940 11.491164
54.945 11.465708
54.950 11.831017
54.955 11.509944
54.960 11.4453
54.965 11.174067
54.970 10.83112
54.975 10.561843
54.980 10.160978
54.985 10.108014
54.990 10.283763
54.995 10.392348
55.000 10.392066
55.005 10.431873
55.010 10.248742
55.015 10.571743
55.020 11.098893
55.025 10.977025
55.030 10.68716
55.035 10.745346
55.040 10.537917
55.045 10.445745
55.050 10.090775
55.055 9.671661
55.060 9.965049
55.065 9.827668
55.070 9.433983
55.075 9.699873
55.080 9.875713
55.085 9.970321
55.090 10.053535
55.095 10.08252
55.100 10.495209
55.105 11.190621
55.110 11.121837
55.115 10.838821
55.120 10.349092
55.125 9.766101
55.130 9.572767
55.135 9.407439
55.140 9.192491
55.145 9.6435
55.150 9.858509
55.155 9.655493
55.160 9.755695
55.165 9.839237
55.170 9.65863
55.175 9.201923
55.180 8.738021
55.185 8.946198
55.190 9.802885
55.195 10.357685
55.200 11.033482
55.205 11.506084
55.210 12.338982
55.215 12.641542
55.220 12.958856
55.225 12.609672
55.230 11.998281
55.235 11.637551
55.240 11.176842
55.245 10.781342
55.250 10.73859
55.255 10.65162
55.260 10.512066
55.265 10.66665
55.270 10.786425
55.275 11.023561
55.280 11.261721
55.285 11.144968
55.290 11.068682
55.295 11.234881
55.300 11.239903
55.305 11.104362
55.310 11.110048
55.315 11.165071
55.320 11.073016
55.325 11.378187
55.330 11.262469
55.335 11.305929
55.340 11.63905
55.345 11.520892
55.350 11.792165
55.355 11.986846
55.360 12.410467
55.365 12.692753
55.370 12.721015
55.375 12.193929
55.380 12.069381
55.385 11.543147
55.390 10.978518
55.395 10.35893
55.400 9.847882
55.405 9.765555
55.410 9.648406
55.415 9.409643
55.420 9.770699
55.425 10.11793
55.430 10.172717
55.435 10.340384
55.440 10.360944
55.445 10.718601
55.450 10.936597
55.455 10.635799
55.460 11.080342
55.465 11.452872
55.470 11.762396
55.475 11.891085
55.480 12.125084
55.485 12.26042
55.490 11.911009
55.495 11.677268
55.500 11.510692
55.505 11.285087
55.510 10.958212
55.515 10.798258
55.520 11.104687
55.525 11.340868
55.530 11.244374
55.535 11.681751
55.540 11.735865
55.545 11.566081
55.550 11.602992
55.555 11.294566
55.560 11.200444
55.565 10.772611
55.570 9.887825
55.575 10.093669
55.580 10.566866
55.585 10.898419
55.590 11.102612
55.595 10.771936
55.600 11.308219
55.605 11.529096
55.610 11.279873
55.615 11.33024
55.620 10.940979
55.625 11.512183
55.630 11.531567
55.635 11.425949
55.640 11.439772
55.645 11.181773
55.650 10.78815
55.655 10.578172
55.660 10.664156
55.665 10.733618
55.670 11.191551
55.675 11.256001
55.680 11.803921
55.685 12.119532
55.690 12.003191
55.695 11.832583
55.700 11.885785
55.705 11.482637
55.710 11.44282
55.715 11.197968
55.720 11.488834
55.725 11.55263
55.730 11.151463
55.735 11.192165
55.740 11.494821
55.745 11.572363
55.750 11.615465
55.755 11.687699
55.760 12.071498
55.765 12.135543
55.770 11.893944
55.775 11.669316
55.780 11.306182
55.785 11.055215
55.790 10.650438
55.795 10.370649
55.800 10.56305
55.805 10.698471
55.810 11.179791
55.815 11.453941
55.820 11.740804
55.825 11.960596
55.830 12.17658
55.835 12.298037
55.840 12.27588
55.845 11.955385
55.850 12.250805
55.855 12.26604
55.860 11.778749
55.865 11.873057
55.870 11.880239
55.875 12.265117
55.880 12.191929
55.885 11.860901
55.890 11.931788
55.895 11.9095
55.900 11.502921
55.905 11.29318
55.910 11.393205
55.915 11.61904
55.920 11.461166
55.925 11.331227
55.930 11.938797
55.935 12.640614
55.940 12.586079
55.945 12.934094
55.950 13.215826
55.955 13.944173
55.960 14.050475
55.965 13.925885
55.970 13.446862
55.975 13.178393
55.980 13.014762
55.985 12.587546
55.990 11.793536
55.995 11.733809
56.000 11.796079
56.005 11.923003
56.010 11.719441
56.015 11.364462
56.020 11.674593
56.025 12.109838
56.030 11.714384
56.035 11.648868
56.040 11.558406
56.045 11.645906
56.050 11.722256
56.055 11.470956
56.060 11.347816
56.065 11.542888
56.070 11.393326
56.075 11.518209
56.080 11.31093
56.085 11.345668
56.090 11.461855
56.095 11.736805
56.100 11.620491
56.105 11.78159
56.110 12.345155
56.115 12.801727
56.120 12.673964
56.125 12.380905
56.130 12.024235
56.135 12.149232
56.140 12.329752
56.145 11.701647
56.150 11.26792
56.155 11.123791
56.160 11.21872
56.165 11.325854
56.170 11.456129
56.175 11.079581
56.180 10.900171
56.185 10.68074
56.190 10.944637
56.195 11.062419
56.200 11.363891
56.205 11.521486
56.210 12.29866
56.215 12.616217
56.220 13.023266
56.225 12.805526
56.230 12.97665
56.235 12.979523
56.240 12.664669
56.245 12.014606
56.250 11.839181
56.255 11.631492
56.260 11.584195
56.265 11.017485
56.270 10.822445
56.275 11.274789
56.280 11.982389
56.285 12.136655
56.290 12.115405
56.295 12.580227
56.300 13.126284
56.305 13.19828
56.310 12.269721
56.315 12.439393
56.320 13.016725
56.325 13.22828
56.330 12.917895
56.335 12.230416
56.340 12.311628
56.345 12.994501
56.350 12.507416
56.355 11.87121
56.360 12.377925
56.365 12.627542
56.370 12.862523
56.375 12.86242
56.380 12.682778
56.385 12.927573
56.390 12.801641
56.395 12.344602
56.400 12.592447
56.405 13.153453
56.410 13.473693
56.415 13.54615
56.420 13.690715
56.425 13.715136
56.430 13.748537
56.435 13.622416
56.440 13.355082
56.445 12.629264
56.450 12.554327
56.455 12.420523
56.460 13.061275
56.465 13.048913
56.470 12.719014
56.475 12.504476
56.480 12.70327
56.485 12.727284
56.490 13.326565
56.495 13.240949
56.500 13.31194
56.505 13.35846
56.510 13.209884
56.515 13.144622
56.520 13.634552
56.525 13.833144
56.530 13.794056
56.535 14.10532
56.540 14.196138
56.545 14.5954
56.550 14.543488
56.555 14.374743
56.560 13.876626
56.565 13.570186
56.570 13.129736
56.575 13.351956
56.580 13.661377
56.585 13.51956
56.590 12.993227
56.595 12.947973
56.600 12.859621
56.605 12.802305
56.610 12.452685
56.615 12.291673
56.620 12.555868
56.625 12.773376
56.630 13.045244
56.635 13.351003
56.640 13.543988
56.645 13.304113
56.650 13.299397
56.655 12.972713
56.660 12.637062
56.665 11.833873
56.670 11.551705
56.675 11.805194
56.680 12.130896
56.685 12.019789
56.690 11.969773
56.695 12.246887
56.700 12.67672
56.705 12.282778
56.710 12.275837
56.715 12.324647
56.720 12.731599
56.725 12.951002
56.730 12.940458
56.735 13.252719
56.740 13.746531
56.745 13.840674
56.750 13.774959
56.755 13.848961
56.760 14.394527
56.765 14.514673
56.770 14.547821
56.775 14.248585
56.780 13.691514
56.785 14.116
56.790 13.716672
56.795 12.882673
56.800 12.625587
56.805 12.831458
56.810 13.192348
56.815 13.713553
56.820 13.526165
56.825 13.681136
56.830 13.817333
56.835 13.94418
56.840 13.823378
56.845 13.798959
56.850 13.73305
56.855 13.283833
56.860 13.136911
56.865 13.217219
56.870 12.698218
56.875 12.845002
56.880 12.638791
56.885 12.25697
56.890 12.342707
56.895 12.334266
56.900 12.481757
56.905 12.754827
56.910 12.180938
56.915 11.969323
56.920 11.711014
56.925 11.535411
56.930 11.788094
56.935 12.091557
56.940 12.353482
56.945 12.507708
56.950 12.442502
56.955 12.588428
56.960 12.775672
56.965 12.701642
56.970 12.73116
56.975 12.372243
56.980 12.134942
56.985 12.414018
56.990 12.52247
56.995 12.396312
57.000 12.125709
57.005 11.728213
57.010 12.043102
57.015 12.699908
57.020 12.558599
57.025 12.708385
57.030 13.102148
57.035 13.022203
57.040 13.084549
57.045 12.43392
57.050 11.772576
57.055 11.494192
57.060 11.219508
57.065 11.003022
57.070 11.178082
57.075 11.201075
57.080 12.307302
57.085 13.13308
57.090 13.628451
57.095 13.86472
57.100 14.012704
57.105 14.193154
57.110 14.087622
57.115 13.386273
57.120 12.925823
57.125 12.963778
57.130 13.021932
57.135 13.273052
57.140 13.327875
57.145 13.520383
57.150 13.234359
57.155 13.652242
57.160 14.091335
57.165 14.416723
57.170 14.034983
57.175 13.940544
57.180 13.705848
57.185 14.175878
57.190 14.13359
57.195 13.621579
57.200 13.686529
57.205 13.506346
57.210 13.566211
57.215 14.21161
57.220 14.081129
57.225 13.758758
57.230 13.391048
57.235 13.254707
57.240 13.306511
57.245 12.946372
57.250 12.779296
57.255 12.950661
57.260 13.112611
57.265 12.892956
57.270 13.058284
57.275 12.867685
57.280 12.7773
57.285 12.321564
57.290 12.058107
57.295 12.471551
57.300 12.82629
57.305 12.631906
57.310 13.307004
57.315 13.768653
57.320 14.019699
57.325 14.068316
57.330 14.1761
57.335 14.360483
57.340 14.106478
57.345 14.0438
57.350 14.000216
57.355 14.234972
57.360 14.524494
57.365 14.021286
57.370 13.561098
57.375 13.722069
57.380 13.388146
57.385 13.383251
57.390 12.81415
57.395 12.209634
57.400 12.688968
57.405 13.059109
57.410 13.145345
57.415 13.681145
57.420 13.947978
57.425 14.494828
57.430 14.506141
57.435 14.463983
57.440 14.70194
57.445 14.779275
57.450 14.77566
57.455 15.111416
57.460 14.95706
57.465 15.725189
57.470 16.172169
57.475 15.835047
57.480 15.56601
57.485 14.846254
57.490 14.486996
57.495 14.278074
57.500 13.656413
57.505 13.275157
57.510 13.126661
57.515 13.272747
57.520 13.383639
57.525 12.983767
57.530 13.121951
57.535 12.921754
57.540 13.276287
57.545 13.771396
57.550 13.559888
57.555 13.798469
57.560 14.20416
57.565 14.290255
57.570 14.134745
57.575 13.929274
57.580 13.761665
57.585 13.917183
57.590 13.990146
57.595 13.88274
57.600 13.635247
57.605 13.550224
57.610 13.54931
57.615 13.657356
57.620 13.924674
57.625 13.913717
57.630 13.659384
57.635 13.798384
57.640 13.776081
57.645 13.864676
57.650 13.594036
57.655 13.352888
57.660 13.40054
57.665 13.625963
57.670 13.516327
57.675 13.233396
57.680 12.788553
57.685 12.83079
57.690 12.441169
57.695 12.256649
57.700 12.318798
57.705 12.766455
57.710 13.167208
57.715 13.482348
57.720 13.649763
57.725 13.873417
57.730 14.183388
57.735 14.368566
57.740 14.655866
57.745 14.397387
57.750 14.254644
57.755 14.273115
57.760 14.440619
57.765 13.871249
57.770 13.593173
57.775 13.159961
57.780 12.916006
57.785 13.162481
57.790 13.639845
57.795 13.723212
57.800 13.943522
57.805 13.891146
57.810 14.321128
57.815 15.139959
57.820 15.235687
57.825 15.05614
57.830 15.232071
57.835 15.495532
57.840 15.612425
57.845 15.03543
57.850 14.722851
57.855 14.612532
57.860 14.401996
57.865 14.289045
57.870 14.199139
57.875 14.033917
57.880 14.075914
57.885 13.823967
57.890 13.696667
57.895 13.710629
57.900 13.448343
57.905 13.411337
57.910 13.873673
57.915 14.333837
57.920 14.404861
57.925 14.338847
57.930 14.261539
57.935 14.695425
57.940 14.445493
57.945 14.30382
57.950 14.236888
57.955 14.469544
57.960 14.788718
57.965 14.833679
57.970 14.719849
57.975 14.902896
57.980 14.70226
57.985 14.536919
57.990 14.218987
57.995 14.261148
58.000 14.231401
58.005 13.724993
58.010 13.668096
58.015 13.329885
58.020 13.376659
58.025 13.787268
58.030 13.747543
58.035 13.931992
58.040 14.493508
58.045 14.721843
58.050 15.042549
58.055 15.09845
58.060 14.98753
58.065 15.008109
58.070 14.619849
58.075 14.060406
58.080 13.497659
58.085 13.580426
58.090 13.319477
58.095 12.908707
58.100 12.587176
58.105 12.642269
58.110 13.062913
58.115 13.702727
58.120 13.630773
58.125 13.800698
58.130 13.970199
58.135 14.256574
58.140 14.698609
58.145 14.335626
58.150 14.057714
58.155 14.283124
58.160 14.268516
58.165 14.388284
58.170 14.57747
58.175 14.556702
58.180 14.695853
58.185 14.752343
58.190 14.614055
58.195 14.323034
58.200 13.942642
58.205 13.707513
58.210 13.953677
58.215 14.512488
58.220 14.814651
58.225 14.927289
58.230 15.237602
58.235 15.086544
58.240 15.263245
58.245 14.965219
58.250 14.105235
58.255 13.513955
58.260 13.61286
58.265 14.341037
58.270 14.818555
58.275 14.838394
58.280 14.827882
58.285 15.707887
58.290 15.80851
58.295 15.349619
58.300 14.735326
58.305 14.92515
58.310 14.696841
58.315 14.24205
58.320 13.590804
58.325 14.14076
58.330 14.595608
58.335 14.877772
58.340 14.95729
58.345 15.094431
58.350 15.354761
58.355 15.486111
58.360 15.492773
58.365 15.479417
58.370 14.894249
58.375 14.415689
58.380 14.163562
58.385 13.9052
58.390 13.773593
58.395 13.131557
58.400 13.100424
58.405 13.81459
58.410 13.970099
58.415 14.516788
58.420 14.66572
58.425 15.08071
58.430 15.183106
58.435 15.000709
58.440 14.833711
58.445 15.143753
58.450 14.886587
58.455 15.141978
58.460 15.153711
58.465 14.852941
58.470 14.473419
58.475 14.080027
58.480 13.934681
58.485 14.188094
58.490 14.745207
58.495 15.138691
58.500 15.56627
58.505 15.737401
58.510 15.699829
58.515 15.326632
58.520 14.962306
58.525 14.329114
58.530 13.968323
58.535 14.071288
58.540 13.915202
58.545 13.881285
58.550 14.597909
58.555 14.611801
58.560 14.17549
58.565 14.023148
58.570 14.464239
58.575 14.864829
58.580 14.711743
58.585 14.35705
58.590 14.486321
58.595 14.759154
58.600 15.170391
58.605 14.696424
58.610 15.01902
58.615 14.995835
58.620 15.097811
58.625 15.857987
58.630 16.11479
58.635 15.544659
58.640 15.654598
58.645 15.535806
58.650 15.769723
58.655 15.307346
58.660 14.946537
58.665 14.96959
58.670 15.903207
58.675 15.546933
58.680 15.636225
58.685 15.910486
58.690 16.021629
58.695 16.137104
58.700 15.734527
58.705 15.299286
58.710 15.426948
58.715 14.764638
58.720 14.559966
58.725 14.665306
58.730 14.940362
58.735 15.46413
58.740 15.360734
58.745 15.347776
58.750 15.433573
58.755 15.49011
58.760 15.305066
58.765 15.109245
58.770 14.820186
58.775 14.857524
58.780 15.588174
58.785 15.724237
58.790 15.474571
58.795 14.992701
58.800 14.378655
58.805 14.924831
58.810 15.142116
58.815 14.57512
58.820 14.525068
58.825 14.525718
58.830 14.588527
58.835 14.782226
58.840 14.480625
58.845 14.194995
58.850 13.908301
58.855 13.729376
58.860 14.558182
58.865 15.065128
58.870 15.204514
58.875 15.025208
58.880 15.05767
58.885 15.430156
58.890 15.814694
58.895 15.488659
58.900 15.704974
58.905 15.586232
58.910 15.538068
58.915 15.569038
58.920 15.855661
58.925 15.788585
58.930 15.545715
58.935 15.554402
58.940 15.522196
58.945 15.534528
58.950 15.414179
58.955 15.431796
58.960 15.335289
58.965 15.522058
58.970 15.105728
58.975 14.835922
58.980 14.887759
58.985 14.870417
58.990 14.259948
58.995 14.000211
59.000 13.873405
59.005 14.509897
59.010 15.312347
59.015 15.545896
59.020 15.722381
59.025 16.231878
59.030 16.465002
59.035 16.644573
59.040 16.742931
59.045 16.808764
59.050 16.682676
59.055 16.573153
59.060 16.402069
59.065 16.429132
59.070 16.74534
59.075 16.134439
59.080 16.075546
59.085 16.135368
59.090 15.936793
59.095 16.545179
59.100 16.361574
59.105 15.744163
59.110 15.507637
59.115 14.608276
59.120 14.598387
59.125 14.344026
59.130 14.386238
59.135 14.520847
59.140 14.332268
59.145 14.483453
59.150 15.035338
59.155 15.247889
59.160 15.410738
59.165 15.613542
59.170 15.870272
59.175 16.112326
59.180 16.29318
59.185 16.753557
59.190 16.74901
59.195 16.519489
59.200 15.960666
59.205 15.735978
59.210 15.846997
59.215 15.352275
59.220 14.565188
59.225 14.632419
59.230 14.893135
59.235 15.14338
59.240 15.036825
59.245 14.676656
59.250 14.974173
59.255 15.797301
59.260 16.297232
59.265 15.695753
59.270 15.454762
59.275 15.285095
59.280 15.389735
59.285 15.359615
59.290 14.972437
59.295 15.303917
59.300 15.848514
59.305 16.166569
59.310 16.037891
59.315 16.347862
59.320 16.510118
59.325 16.352108
59.330 15.89059
59.335 15.797611
59.340 15.469572
59.345 15.867369
59.350 15.473563
59.355 15.021464
59.360 14.775293
59.365 14.591922
59.370 15.103024
59.375 15.344254
59.380 15.032799
59.385 15.216158
59.390 16.248537
59.395 16.616913
59.400 17.014496
59.405 16.652081
59.410 16.92074
59.415 17.268267
59.420 16.958069
59.425 16.759155
59.430 17.077585
59.435 17.21628
59.440 16.910164
59.445 16.55094
59.450 16.563097
59.455 17.01152
59.460 17.476547
59.465 17.092764
59.470 17.132429
59.475 17.647585
59.480 17.969534
59.485 17.866585
59.490 17.918369
59.495 17.680376
59.500 17.517982
59.505 17.337463
59.510 16.812075
59.515 16.558201
59.520 16.467459
59.525 15.787283
59.530 15.724885
59.535 15.920008
59.540 15.626372
59.545 15.734117
59.550 15.902977
59.555 16.326874
59.560 16.182749
59.565 16.099964
59.570 16.240622
59.575 16.583895
59.580 16.92079
59.585 16.668238
59.590 16.81529
59.595 17.61412
59.600 17.690548
59.605 17.210159
59.610 16.848776
59.615 16.614061
59.620 16.559034
59.625 16.017843
59.630 15.565483
59.635 15.388753
59.640 15.184304
59.645 15.141603
59.650 14.950871
59.655 15.043358
59.660 15.352961
59.665 15.438396
59.670 15.649391
59.675 16.091915
59.680 16.465754
59.685 16.787834
59.690 17.369062
59.695 17.473955
59.700 18.183874
59.705 18.400862
59.710 19.03141
59.715 19.384974
59.720 19.291666
59.725 18.977636
59.730 18.811497
59.735 18.930254
59.740 19.417028
59.745 19.048363
59.750 19.570797
59.755 19.693949
59.760 19.493713
59.765 19.553534
59.770 18.658142
59.775 18.09783
59.780 17.91073
59.785 17.428761
59.790 17.31258
59.795 17.459826
59.800 17.712828
59.805 16.929592
59.810 16.83534
59.815 17.386965
59.820 17.524813
59.825 17.923132
59.830 18.033253
59.835 18.115278
59.840 19.006285
59.845 18.819996
59.850 18.241274
59.855 18.508514
59.860 18.455156
59.865 18.25024
59.870 18.524361
59.875 18.447283
59.880 18.622578
59.885 19.096785
59.890 18.923002
59.895 18.661526
59.900 18.884054
59.905 18.868151
59.910 19.081116
59.915 19.274736
59.920 19.572474
59.925 20.000319
59.930 20.234823
59.935 20.168978
59.940 20.125135
59.945 20.09811
59.950 19.896074
59.955 19.440666
59.960 19.452221
59.965 19.60755
59.970 19.398569
59.975 18.937857
59.980 18.693377
59.985 18.754509
59.990 18.592758
59.995 18.291018
60.000 18.112381
60.005 17.885794
60.010 18.208542
60.015 17.880205
60.020 17.708313
60.025 17.228258
60.030 17.551655
60.035 18.245979
60.040 18.629999
60.045 18.945162
60.050 19.782156
60.055 20.196501
60.060 20.132797
60.065 19.94459
60.070 19.537893
60.075 19.649841
60.080 20.130241
60.085 20.248575
60.090 20.615805
60.095 20.834076
60.100 21.096243
60.105 21.425644
60.110 21.316502
60.115 20.527662
60.120 21.250597
60.125 21.56834
60.130 22.143103
60.135 22.3008
60.140 22.360022
60.145 22.62809
60.150 22.503571
60.155 21.947067
60.160 21.378372
60.165 21.650845
60.170 20.967827
60.175 20.879511
60.180 20.386339
60.185 20.416653
60.190 20.082905
60.195 20.443142
60.200 20.531569
60.205 20.906887
60.210 20.790262
60.215 21.198076
60.220 21.415573
60.225 21.742767
60.230 21.605734
60.235 21.462158
60.240 21.083935
60.245 21.970869
60.250 21.71138
60.255 20.859165
60.260 20.574066
60.265 20.35639
60.270 20.07781
60.275 19.558435
60.280 18.42555
60.285 18.710598
60.290 20.167685
60.295 20.02702
60.300 20.751461
60.305 21.085178
60.310 21.622976
60.315 22.498552
60.320 22.760818
60.325 22.707378
60.330 23.230072
60.335 23.210175
60.340 23.217726
60.345 22.97583
60.350 22.39473
60.355 21.781948
60.360 21.136208
60.365 20.568756
60.370 20.45953
60.375 20.626476
60.380 21.05171
60.385 20.807281
60.390 21.146072
60.395 21.427042
60.400 21.13603
60.405 20.017962
60.410 19.549084
60.415 19.73398
60.420 19.68145
60.425 18.837467
60.430 18.745768
60.435 19.219475
60.440 19.911081
60.445 19.775053
60.450 19.114782
60.455 19.434532
60.460 19.749483
60.465 19.250546
60.470 18.850388
60.475 19.176163
60.480 19.732363
60.485 20.169731
60.490 20.471241
60.495 20.710655
60.500 20.533169
60.505 20.870939
60.510 20.791359
60.515 20.669098
60.520 20.667292
60.525 20.799318
60.530 20.666412
60.535 20.708975
60.540 20.576851
60.545 19.969992
60.550 19.377888
60.555 19.671551
60.560 19.219505
60.565 19.254311
60.570 19.07333
60.575 19.484461
60.580 20.457018
60.585 21.261086
60.590 21.041397
60.595 21.239927
60.600 21.056318
60.605 21.288126
60.610 21.732082
60.615 21.41523
60.620 20.780396
60.625 20.695881
60.630 20.278418
60.635 20.20874
60.640 20.333691
60.645 19.740318
60.650 20.256166
60.655 20.456455
60.660 20.754995
60.665 21.202141
60.670 21.541374
60.675 21.666851
60.680 21.195242
60.685 20.440212
60.690 20.238796
60.695 20.216434
60.700 19.886938
60.705 19.684155
60.710 18.785446
60.715 18.612648
60.720 17.913345
60.725 17.93264
60.730 17.63834
60.735 17.690474
60.740 17.593266
60.745 17.815981
60.750 17.694031
60.755 17.92594
60.760 17.874578
60.765 18.334059
60.770 18.674097
60.775 18.791971
60.780 19.171175
60.785 19.234333
60.790 19.348679
60.795 19.427038
60.800 19.19565
60.805 18.7416
60.810 18.773973
60.815 18.202534
60.820 18.060223
60.825 18.322266
60.830 18.439331
60.835 18.547979
60.840 18.692432
60.845 18.665201
60.850 18.981081
60.855 18.831711
60.860 18.269903
60.865 18.326658
60.870 18.199577
60.875 18.222841
60.880 18.409534
60.885 18.031693
60.890 18.315403
60.895 18.5441
60.900 18.884418
60.905 18.988678
60.910 18.972136
60.915 19.455631
60.920 19.499557
60.925 18.938515
60.930 18.507124
60.935 17.948196
60.940 18.484716
60.945 18.333965
60.950 17.7029
60.955 18.135933
60.960 18.278576
60.965 18.242785
60.970 17.908056
60.975 17.155462
60.980 16.815153
60.985 16.763172
60.990 16.53367
60.995 16.586882
61.000 16.153112
61.005 15.650504
61.010 15.444612
61.015 15.515848
61.020 15.817287
61.025 16.00815
61.030 16.467112
61.035 17.182945
61.040 17.35977
61.045 17.030811
61.050 17.484192
61.055 16.7059
61.060 16.470119
61.065 16.022547
61.070 15.198875
61.075 15.224273
61.080 15.728165
61.085 15.762245
61.090 16.157936
61.095 16.369263
61.100 16.83692
61.105 17.563766
61.110 17.530266
61.115 17.880285
61.120 17.544119
61.125 17.655781
61.130 17.239449
61.135 16.936483
61.140 16.914799
61.145 17.222088
61.150 16.396572
61.155 16.330572
61.160 16.671318
61.165 16.857002
61.170 17.222523
61.175 17.841276
61.180 18.314356
61.185 19.023361
61.190 19.364254
61.195 18.709202
61.200 18.629057
61.205 18.910952
61.210 18.339409
61.215 18.105846
61.220 18.026468
61.225 18.177868
61.230 18.959991
61.235 19.184916
61.240 18.756678
61.245 19.077858
61.250 18.801989
61.255 18.805624
61.260 18.388403
61.265 18.318399
61.270 17.90653
61.275 17.618643
61.280 17.01827
61.285 16.579195
61.290 16.835268
61.295 16.649406
61.300 15.794159
61.305 15.864052
61.310 16.281603
61.315 16.830023
61.320 17.222395
61.325 16.565056
61.330 16.711256
61.335 17.326574
61.340 17.23724
61.345 16.812796
61.350 16.837652
61.355 16.772053
61.360 17.082047
61.365 17.208803
61.370 17.177803
61.375 17.377613
61.380 17.342726
61.385 17.069748
61.390 16.981146
61.395 16.554281
61.400 16.378578
61.405 16.217876
61.410 16.003122
61.415 15.922507
61.420 16.10178
61.425 16.357813
61.430 16.636591
61.435 16.919598
61.440 17.188477
61.445 17.871519
61.450 17.961233
61.455 17.928211
61.460 18.151129
61.465 18.239798
61.470 18.280191
61.475 18.356709
61.480 18.471928
61.485 18.877665
61.490 18.609425
61.495 18.281185
61.500 18.363232
61.505 18.301594
61.510 17.824684
61.515 17.92297
61.520 18.052364
61.525 17.945269
61.530 17.792767
61.535 17.613897
61.540 16.808338
61.545 17.051512
61.550 16.626242
61.555 16.423494
61.560 16.419218
61.565 16.129944
61.570 16.458693
61.575 17.264727
61.580 17.189125
61.585 17.404291
61.590 17.308109
61.595 17.999281
61.600 18.634598
61.605 18.236864
61.610 17.784239
61.615 17.535879
61.620 17.829094
61.625 18.217411
61.630 18.103645
61.635 18.044283
61.640 17.648357
61.645 17.81768
61.650 17.901367
61.655 17.657495
61.660 17.363256
61.665 16.585991
61.670 16.283493
61.675 16.524271
61.680 16.76907
61.685 16.92651
61.690 16.496206
61.695 16.430326
61.700 16.903303
61.705 16.862711
61.710 16.790825
61.715 16.71859
61.720 16.341923
61.725 15.995291
61.730 16.008276
61.735 16.528215
61.740 16.588161
61.745 16.62879
61.750 16.625
61.755 16.637957
61.760 16.954092
61.765 16.975199
61.770 16.347271
61.775 16.762217
61.780 16.635065
61.785 16.259491
61.790 16.309065
61.795 16.268579
61.800 16.039801
61.805 16.382868
61.810 16.367889
61.815 16.786724
61.820 17.799791
61.825 18.258736
61.830 18.073708
61.835 18.512304
61.840 18.565086
61.845 18.639374
61.850 18.337151
61.855 17.756779
61.860 18.04491
61.865 18.227873
61.870 18.050299
61.875 17.693192
61.880 17.439024
61.885 17.742315
61.890 18.177341
61.895 17.791309
61.900 17.646753
61.905 17.165354
61.910 17.07917
61.915 16.931818
61.920 16.691353
61.925 16.2645
61.930 16.276001
61.935 16.379129
61.940 16.466429
61.945 16.761806
61.950 16.792118
61.955 16.388144
61.960 16.256325
61.965 16.04141
61.970 16.04586
61.975 16.532457
61.980 16.861946
61.985 17.17758
61.990 17.519865
61.995 17.997797
62.000 18.593479
62.005 18.651127
62.010 18.411579
62.015 18.044205
62.020 18.37278
62.025 18.005157
62.030 17.020245
62.035 16.508226
62.040 16.704927
62.045 16.659515
62.050 16.443777
62.055 15.937299
62.060 16.309103
62.065 16.962517
62.070 17.44084
62.075 17.245453
62.080 17.180939
62.085 17.505674
62.090 17.631899
62.095 17.416552
62.100 17.209547
62.105 17.329023
62.110 17.833809
62.115 18.441151
62.120 17.826916
62.125 17.651037
62.130 18.076359
62.135 18.497543
62.140 17.776115
62.145 16.68615
62.150 15.963887
62.155 16.255468
62.160 16.274345
62.165 16.199202
62.170 16.580471
62.175 17.212437
62.180 17.805367
62.185 18.122179
62.190 18.143805
62.195 17.646589
62.200 17.072748
62.205 15.931828
62.210 15.978139
62.215 15.779659
62.220 15.630714
62.225 15.642848
62.230 16.184746
62.235 16.008015
62.240 16.109467
62.245 16.070829
62.250 15.872478
62.255 16.082701
62.260 16.295897
62.265 16.606974
62.270 17.542809
62.275 17.892944
62.280 17.540604
62.285 17.609447
62.290 17.336374
62.295 17.249754
62.300 16.927513
62.305 16.151543
62.310 16.137897
62.315 15.963419
62.320 15.507719
62.325 15.244693
62.330 15.124391
62.335 15.369405
62.340 15.537696
62.345 15.253193
62.350 15.84909
62.355 16.740046
62.360 16.879034
62.365 16.567209
62.370 16.42424
62.375 16.577005
62.380 16.412582
62.385 16.047043
62.390 16.049625
62.395 16.198824
62.400 16.545794
62.405 16.129528
62.410 16.009039
62.415 16.048616
62.420 16.099449
62.425 15.45862
62.430 15.64366
62.435 15.731797
62.440 16.405161
62.445 17.086786
62.450 17.731647
62.455 18.693678
62.460 19.931971
62.465 20.278639
62.470 20.504852
62.475 20.694206
62.480 20.422068
62.485 19.807299
62.490 19.046476
62.495 18.676073
62.500 18.503237
62.505 18.29159
62.510 17.939241
62.515 18.553944
62.520 18.546854
62.525 18.387938
62.530 17.749811
62.535 17.399065
62.540 17.201113
62.545 16.929981
62.550 16.437651
62.555 17.169035
62.560 17.448465
62.565 17.410315
62.570 17.429893
62.575 17.095848
62.580 16.837471
62.585 16.639256
62.590 15.919623
62.595 15.920259
62.600 16.450771
62.605 16.884741
62.610 17.662817
62.615 17.96645
62.620 17.57209
62.625 17.251822
62.630 16.728321
62.635 16.065306
62.640 16.052233
62.645 15.838605
62.650 15.637554
62.655 15.629509
62.660 15.989161
62.665 16.486433
62.670 17.442286
62.675 17.688492
62.680 17.908522
62.685 17.89728
62.690 18.212639
62.695 18.122295
62.700 17.941097
62.705 17.338509
62.710 16.604925
62.715 16.659256
62.720 16.494577
62.725 16.284645
62.730 16.380215
62.735 16.61791
62.740 16.392452
62.745 16.525043
62.750 16.315042
62.755 16.478788
62.760 16.226732
62.765 16.174648
62.770 15.893444
62.775 15.771253
62.780 15.747214
62.785 15.801108
62.790 16.230064
62.795 16.415575
62.800 16.35342
62.805 16.712049
62.810 16.495632
62.815 16.751934
62.820 16.991388
62.825 17.115202
62.830 17.524527
62.835 17.735901
62.840 17.885084
62.845 17.973541
62.850 17.998543
62.855 17.87974
62.860 17.524469
62.865 17.042181
62.870 16.650431
62.875 16.345697
62.880 17.165682
62.885 16.655396
62.890 17.113655
62.895 17.297255
62.900 17.267056
62.905 17.344709
62.910 16.877586
62.915 16.65279
62.920 17.24354
62.925 16.788183
62.930 16.901142
62.935 17.143225
62.940 17.585169
62.945 17.99906
62.950 17.822374
62.955 17.420113
62.960 17.317888
62.965 17.004421
62.970 18.089355
62.975 17.738344
62.980 17.887272
62.985 17.638285
62.990 17.553623
62.995 17.774359
63.000 17.486853
63.005 16.384541
63.010 16.582277
63.015 16.555038
63.020 16.955147
63.025 17.064663
63.030 17.001869
63.035 17.687143
63.040 17.445522
63.045 17.339897
63.050 16.953053
63.055 16.900425
63.060 16.770596
63.065 16.797831
63.070 16.701113
63.075 16.862356
63.080 16.706251
63.085 16.755117
63.090 16.688181
63.095 16.34338
63.100 16.359589
63.105 16.422688
63.110 16.71814
63.115 16.94644
63.120 17.555971
63.125 17.479755
63.130 17.745462
63.135 17.575008
63.140 17.259991
63.145 17.094496
63.150 17.3351
63.155 17.380144
63.160 17.787943
63.165 17.787683
63.170 17.712769
63.175 18.039663
63.180 18.565601
63.185 18.25058
63.190 17.832388
63.195 17.223383
63.200 17.180367
63.205 16.801561
63.210 16.349667
63.215 16.033319
63.220 16.507858
63.225 16.548904
63.230 16.589109
63.235 16.311174
63.240 16.747812
63.245 16.666946
63.250 16.459003
63.255 16.457262
63.260 16.723003
63.265 16.835266
63.270 16.816607
63.275 17.328005
63.280 17.863752
63.285 18.134394
63.290 17.701317
63.295 17.793295
63.300 18.210077
63.305 18.73386
63.310 18.310232
63.315 18.019894
63.320 17.678713
63.325 17.621866
63.330 17.297634
63.335 17.057081
63.340 17.144226
63.345 17.649218
63.350 17.746077
63.355 17.978163
63.360 17.537527
63.365 17.67218
63.370 18.3074
63.375 18.754765
63.380 18.520214
63.385 18.343309
63.390 17.960545
63.395 18.363695
63.400 18.234982
63.405 17.51576
63.410 16.510025
63.415 16.011
63.420 16.029186
63.425 16.57789
63.430 17.308813
63.435 17.463783
63.440 17.52947
63.445 18.219801
63.450 19.046362
63.455 19.142662
63.460 18.263676
63.465 17.390341
63.470 17.451567
63.475 17.2096
63.480 17.052683
63.485 16.878325
63.490 17.395042
63.495 17.753578
63.500 18.266445
63.505 18.219748
63.510 18.828648
63.515 18.885149
63.520 18.494678
63.525 18.455482
63.530 18.549667
63.535 18.837275
63.540 18.658525
63.545 18.345592
63.550 17.868422
63.555 17.966702
63.560 17.843899
63.565 18.149006
63.570 17.92383
63.575 17.921852
63.580 17.954483
63.585 17.901344
63.590 17.766766
63.595 17.583797
63.600 17.489227
63.605 16.943901
63.610 17.302933
63.615 17.563959
63.620 18.128723
63.625 18.122259
63.630 17.543756
63.635 17.209066
63.640 17.374739
63.645 16.960451
63.650 16.873192
63.655 16.732735
63.660 16.543402
63.665 17.118994
63.670 17.409105
63.675 17.787811
63.680 17.464748
63.685 17.148224
63.690 17.128162
63.695 17.320717
63.700 16.749582
63.705 16.255184
63.710 16.256788
63.715 16.453653
63.720 16.078625
63.725 15.783874
63.730 16.011131
63.735 16.37499
63.740 16.960749
63.745 16.641525
63.750 16.273663
63.755 16.765703
63.760 16.668316
63.765 16.717493
63.770 16.548838
63.775 15.923756
63.780 16.515738
63.785 17.050741
63.790 17.436937
63.795 17.566437
63.800 17.454733
63.805 17.557098
63.810 17.770842
63.815 17.184219
63.820 16.761406
63.825 16.969759
63.830 17.246262
63.835 17.485111
63.840 17.536858
63.845 17.354332
63.850 17.577539
63.855 17.764261
63.860 17.319857
63.865 17.712845
63.870 18.104856
63.875 18.734436
63.880 19.280483
63.885 19.418282
63.890 19.132919
63.895 19.038004
63.900 18.604544
63.905 17.916941
63.910 17.670687
63.915 17.953356
63.920 18.010063
63.925 17.917725
63.930 17.687124
63.935 18.062529
63.940 18.387545
63.945 17.989599
63.950 17.221691
63.955 17.323519
63.960 18.067587
63.965 18.591141
63.970 18.448679
63.975 17.895943
63.980 17.957516
63.985 18.53203
63.990 18.312763
63.995 18.008802
64.000 18.026354
64.005 18.163048
64.010 18.978916
64.015 19.392406
64.020 19.627773
64.025 20.062073
64.030 20.463692
64.035 20.266882
64.040 19.865194
64.045 20.366396
64.050 20.463596
64.055 19.912189
64.060 19.490503
64.065 18.968307
64.070 18.742117
64.075 18.848524
64.080 18.10829
64.085 18.597631
64.090 18.355101
64.095 18.574539
64.100 18.688126
64.105 18.893049
64.110 19.402681
64.115 19.279644
64.120 18.323156
64.125 18.354067
64.130 18.222099
64.135 18.064682
64.140 17.706093
64.145 16.925285
64.150 17.040304
64.155 17.66404
64.160 17.784996
64.165 17.314075
64.170 17.35371
64.175 17.082281
64.180 17.381416
64.185 16.858709
64.190 16.401899
64.195 16.333565
64.200 16.227304
64.205 15.984746
64.210 16.133938
64.215 16.167936
64.220 16.070299
64.225 16.202419
64.230 16.047405
64.235 16.134735
64.240 16.705116
64.245 16.937103
64.250 16.980949
64.255 17.858234
64.260 17.590691
64.265 17.784563
64.270 17.9863
64.275 17.967577
64.280 17.883612
64.285 17.609163
64.290 17.062578
64.295 17.34317
64.300 17.926825
64.305 17.798689
64.310 17.383284
64.315 18.014824
64.320 18.085783
64.325 18.236938
64.330 18.594473
64.335 18.385403
64.340 18.963268
64.345 19.587557
64.350 19.274006
64.355 19.675367
64.360 20.166155
64.365 19.781868
64.370 19.463327
64.375 19.508921
64.380 19.661985
64.385 19.80406
64.390 20.080828
64.395 19.801716
64.400 19.925934
64.405 19.918049
64.410 20.253443
64.415 20.196783
64.420 20.344015
64.425 20.22714
64.430 19.771769
64.435 20.103458
64.440 19.853453
64.445 19.009785
64.450 18.661661
64.455 17.828981
64.460 17.239244
64.465 17.987587
64.470 18.077726
64.475 18.437185
64.480 18.254965
64.485 18.057835
64.490 18.545551
64.495 19.033787
64.500 18.155512
64.505 17.989521
64.510 17.783924
64.515 18.111814
64.520 18.664749
64.525 18.302021
64.530 18.247089
64.535 19.069342
64.540 19.189373
64.545 19.40736
64.550 19.179758
64.555 18.807856
64.560 18.852461
64.565 18.883543
64.570 18.663301
64.575 18.657057
64.580 18.871336
64.585 18.541046
64.590 18.692926
64.595 18.916557
64.600 18.81443
64.605 18.066174
64.610 17.797272
64.615 18.129322
64.620 18.471622
64.625 18.651987
64.630 18.425364
64.635 18.26498
64.640 18.991703
64.645 19.037611
64.650 18.646385
64.655 18.67182
64.660 18.600382
64.665 18.54775
64.670 19.453852
64.675 19.787294
64.680 19.696774
64.685 19.575377
64.690 19.128021
64.695 19.080709
64.700 19.207689
64.705 18.611145
64.710 18.400875
64.715 18.423048
64.720 18.876116
64.725 19.594961
64.730 19.918203
64.735 19.714581
64.740 19.566521
64.745 19.543941
64.750 19.6581
64.755 19.157228
64.760 18.614754
64.765 18.464338
64.770 19.158123
64.775 19.029251
64.780 19.080761
64.785 19.286671
64.790 19.396244
64.795 19.476379
64.800 19.282227
64.805 18.911823
64.810 18.811666
64.815 18.733902
64.820 18.737448
64.825 18.695477
64.830 19.283918
64.835 19.197535
64.840 19.106133
64.845 20.278238
64.850 21.003361
64.855 21.333612
64.860 21.827696
64.865 21.667006
64.870 21.65206
64.875 21.69961
64.880 20.974255
64.885 20.783789
64.890 20.655945
64.895 20.676023
64.900 21.154369
64.905 20.916382
64.910 20.858517
64.915 20.953381
64.920 20.667648
64.925 21.227325
64.930 21.061226
64.935 21.321381
64.940 22.054392
64.945 21.779011
64.950 21.81382
64.955 22.213577
64.960 21.722595
64.965 21.844473
64.970 21.369034
64.975 21.548372
64.980 22.313469
64.985 22.640945
64.990 22.293724
64.995 22.335636
65.000 22.128906
65.005 21.689329
65.010 21.214195
65.015 21.363569
65.020 21.631649
65.025 21.666527
65.030 21.702776
65.035 21.714708
65.040 22.050867
65.045 22.368528
65.050 21.911554
65.055 21.687027
65.060 21.972752
65.065 21.817122
65.070 21.85951
65.075 21.683035
65.080 21.200441
65.085 21.076612
65.090 20.6264
65.095 20.833263
65.100 21.540283
65.105 22.224283
65.110 22.467901
65.115 23.105364
65.120 23.399267
65.125 24.021894
65.130 23.685253
65.135 23.100992
65.140 22.559412
65.145 22.191324
65.150 21.497711
65.155 21.392328
65.160 20.964169
65.165 20.559006
65.170 20.410139
65.175 20.157391
65.180 20.658375
65.185 21.312735
65.190 20.955519
65.195 20.768984
65.200 21.67268
65.205 22.057026
65.210 22.288004
65.215 22.217134
65.220 22.239288
65.225 22.87219
65.230 23.168173
65.235 22.512762
65.240 22.131739
65.245 21.84873
65.250 21.150349
65.255 20.639547
65.260 20.654089
65.265 20.806604
65.270 21.196253
65.275 21.747953
65.280 22.44924
65.285 23.197071
65.290 23.386641
65.295 23.160217
65.300 23.12948
65.305 22.885353
65.310 23.278603
65.315 23.482927
65.320 23.336266
65.325 23.745493
65.330 24.364386
65.335 25.429558
65.340 25.406048
65.345 25.135199
65.350 25.052593
65.355 24.847437
65.360 24.824186
65.365 24.19598
65.370 22.96579
65.375 23.37838
65.380 23.301626
65.385 23.283323
65.390 23.040195
65.395 22.886143
65.400 22.891602
65.405 23.728533
65.410 23.670513
65.415 23.484301
65.420 23.527311
65.425 23.922197
65.430 23.969305
65.435 24.101238
65.440 23.481638
65.445 23.319891
65.450 24.070715
65.455 24.432327
65.460 24.501808
65.465 24.533054
65.470 24.724899
65.475 24.986994
65.480 25.417822
65.485 25.33626
65.490 25.721874
65.495 26.320269
65.500 26.743034
65.505 27.728134
65.510 27.856882
65.515 27.445383
65.520 26.744843
65.525 26.577328
65.530 26.35815
65.535 25.853447
65.540 25.49017
65.545 26.402885
65.550 27.60523
65.555 27.939453
65.560 28.255095
65.565 28.607101
65.570 28.874348
65.575 29.112953
65.580 29.224293
65.585 29.211195
65.590 29.267397
65.595 29.260656
65.600 29.053097
65.605 29.374037
65.610 29.257719
65.615 29.070681
65.620 29.395634
65.625 29.555355
65.630 29.181339
65.635 29.322266
65.640 29.788898
65.645 30.610266
65.650 30.51228
65.655 30.117413
65.660 30.76042
65.665 31.565516
65.670 32.330826
65.675 32.377327
65.680 32.218475
65.685 32.303848
65.690 32.651676
65.695 33.117863
65.700 32.912834
65.705 32.551945
65.710 32.607998
65.715 32.545307
65.720 32.970333
65.725 33.629066
65.730 33.765362
65.735 34.20372
65.740 34.325043
65.745 34.051125
65.750 34.589527
65.755 34.647202
65.760 34.724888
65.765 35.090595
65.770 35.097256
65.775 35.508026
65.780 35.995449
65.785 36.186108
65.790 36.254303
65.795 35.741756
65.800 35.868694
65.805 36.005726
65.810 35.537506
65.815 35.373043
65.820 36.063942
65.825 36.186821
65.830 36.785297
65.835 37.12183
65.840 37.312153
65.845 37.789757
65.850 37.707752
65.855 37.991718
65.860 38.117188
65.865 37.631382
65.870 36.69265
65.875 36.118473
65.880 36.249916
65.885 36.302277
65.890 36.13047
65.895 36.207447
65.900 35.935249
65.905 36.255173
65.910 36.56086
65.915 36.548748
65.920 36.789165
65.925 36.887829
65.930 37.357586
65.935 38.30352
65.940 38.805347
65.945 39.268768
65.950 39.020962
65.955 39.008801
65.960 39.885174
65.965 40.482712
65.970 41.042843
65.975 40.664124
65.980 39.968704
65.985 39.582966
65.990 38.92038
65.995 37.972965
66.000 36.695927
66.005 35.815605
66.010 36.029556
66.015 36.067486
66.020 37.071915
66.025 37.349548
66.030 37.118507
66.035 36.781536
66.040 37.053463
66.045 36.795029
66.050 36.991066
66.055 37.049725
66.060 37.162502
66.065 37.138645
66.070 37.265491
66.075 37.140015
66.080 37.492416
66.085 37.810024
66.090 37.04533
66.095 36.406055
66.100 36.150169
66.105 36.138939
66.110 36.585491
66.115 36.68988
66.120 35.304039
66.125 34.974625
66.130 35.253845
66.135 35.636379
66.140 35.630363
66.145 34.480968
66.150 34.001682
66.155 34.934841
66.160 35.100914
66.165 34.810951
66.170 34.74575
66.175 34.892921
66.180 34.833618
66.185 34.67017
66.190 34.378155
66.195 34.284698
66.200 33.580746
66.205 33.601482
66.210 33.314777
66.215 33.613144
66.220 33.610115
66.225 33.997669
66.230 34.567272
66.235 34.76086
66.240 34.609028
66.245 34.675545
66.250 34.125919
66.255 33.556599
66.260 32.720108
66.265 32.791325
66.270 33.646465
66.275 33.680309
66.280 33.21653
66.285 33.139713
66.290 33.463646
66.295 33.190632
66.300 32.592949
66.305 31.855194
66.310 31.175058
66.315 30.65074
66.320 30.663013
66.325 30.545076
66.330 30.765186
66.335 30.615316
66.340 30.20306
66.345 30.132866
66.350 29.847628
66.355 30.209984
66.360 30.596312
66.365 30.504316
66.370 30.14941
66.375 28.794807
66.380 28.767431
66.385 29.745943
66.390 29.665617
66.395 29.217321
66.400 28.743023
66.405 29.336691
66.410 30.39749
66.415 30.837721
66.420 30.220556
66.425 29.761936
66.430 29.618004
66.435 29.523638
66.440 29.909771
66.445 29.324608
66.450 29.250135
66.455 29.636351
66.460 29.105471
66.465 28.826069
66.470 28.660465
66.475 28.361801
66.480 29.118437
66.485 28.853304
66.490 29.296284
66.495 30.019684
66.500 30.139725
66.505 30.062357
66.510 29.479984
66.515 28.358891
66.520 27.935133
66.525 27.384518
66.530 27.242603
66.535 27.936327
66.540 27.349806
66.545 26.672661
66.550 26.546045
66.555 26.779093
66.560 26.543791
66.565 26.161547
66.570 26.068747
66.575 26.545462
66.580 27.253071
66.585 27.661243
66.590 27.049217
66.595 26.799414
66.600 26.72262
66.605 26.238388
66.610 25.890608
66.615 25.853554
66.620 25.265741
66.625 25.396652
66.630 25.440123
66.635 25.506454
66.640 25.797796
66.645 25.948441
66.650 25.769651
66.655 25.621002
66.660 25.52183
66.665 25.57457
66.670 25.631205
66.675 25.339088
66.680 25.421406
66.685 25.453226
66.690 26.080635
66.695 26.177809
66.700 25.580957
66.705 25.628658
66.710 25.881678
66.715 25.741838
66.720 26.151688
66.725 25.630589
66.730 25.018951
66.735 25.489019
66.740 25.603046
66.745 25.294945
66.750 25.51553
66.755 25.399101
66.760 25.922255
66.765 25.868435
66.770 25.613382
66.775 24.770414
66.780 24.391886
66.785 24.762608
66.790 24.49678
66.795 24.447254
66.800 24.355482
66.805 25.057453
66.810 25.492634
66.815 25.245548
66.820 24.147549
66.825 23.990211
66.830 23.117035
66.835 23.283857
66.840 22.546524
66.845 22.603331
66.850 22.659082
66.855 23.11611
66.860 22.885126
66.865 23.409433
66.870 23.614428
66.875 24.289055
66.880 24.596039
66.885 24.502089
66.890 24.17804
66.895 24.035618
66.900 24.103786
66.905 23.958448
66.910 23.440733
66.915 23.559681
66.920 23.882429
66.925 24.557299
66.930 24.743816
66.935 24.660822
66.940 24.158236
66.945 23.707352
66.950 23.488041
66.955 23.380331
66.960 22.810623
66.965 22.735428
66.970 22.963564
66.975 23.453897
66.980 23.604095
66.985 23.014183
66.990 22.749033
66.995 22.454704
67.000 21.737083
67.005 21.393402
67.010 21.305027
67.015 20.966158
67.020 21.416174
67.025 21.535267
67.030 21.550653
67.035 22.117193
67.040 22.048809
67.045 22.396084
67.050 22.934511
67.055 22.622103
67.060 22.588676
67.065 22.757805
67.070 22.38463
67.075 22.717228
67.080 22.85021
67.085 22.645571
67.090 22.834337
67.095 22.882296
67.100 23.188663
67.105 23.992786
67.110 24.136005
67.115 24.158762
67.120 24.130878
67.125 23.542267
67.130 23.31106
67.135 23.179882
67.140 22.208054
67.145 22.040487
67.150 21.71224
67.155 22.122255
67.160 22.720802
67.165 22.571316
67.170 22.354259
67.175 22.506851
67.180 21.960257
67.185 21.574223
67.190 21.133801
67.195 20.883614
67.200 20.857964
67.205 21.124941
67.210 21.362734
67.215 22.454203
67.220 22.938147
67.225 23.044592
67.230 23.297367
67.235 23.25565
67.240 23.027037
67.245 23.01446
67.250 22.218983
67.255 22.269945
67.260 21.921597
67.265 21.786846
67.270 21.818224
67.275 21.939846
67.280 21.62697
67.285 21.773512
67.290 21.539249
67.295 21.671736
67.300 21.40657
67.305 20.945599
67.310 20.557564
67.315 20.911617
67.320 20.726824
67.325 21.078575
67.330 20.780151
67.335 20.732744
67.340 20.787882
67.345 20.163294
67.350 19.50736
67.355 19.299053
67.360 19.011629
67.365 19.213633
67.370 19.915228
67.375 20.641611
67.380 20.613001
67.385 20.66202
67.390 21.072676
67.395 21.3435
67.400 21.456598
67.405 21.172869
67.410 21.596052
67.415 22.48225
67.420 22.679161
67.425 22.293631
67.430 22.527102
67.435 23.074123
67.440 23.157434
67.445 22.547617
67.450 22.079647
67.455 21.063274
67.460 21.257917
67.465 20.630013
67.470 20.487602
67.475 20.609747
67.480 21.000143
67.485 20.95603
67.490 21.668306
67.495 21.948511
67.500 22.923315
67.505 22.436413
67.510 22.568485
67.515 23.092636
67.520 23.788832
67.525 24.437895
67.530 24.302759
67.535 23.476006
67.540 23.212236
67.545 22.868435
67.550 22.373796
67.555 22.235207
67.560 21.373384
67.565 21.18331
67.570 21.579525
67.575 21.723618
67.580 21.541723
67.585 21.732061
67.590 22.408377
67.595 23.015333
67.600 23.142458
67.605 23.430771
67.610 23.910727
67.615 23.908083
67.620 24.054173
67.625 23.707346
67.630 22.850321
67.635 23.015432
67.640 22.788086
67.645 22.556162
67.650 22.809971
67.655 22.492325
67.660 22.091732
67.665 22.622055
67.670 22.456154
67.675 22.457954
67.680 22.184017
67.685 21.771767
67.690 21.636587
67.695 21.826941
67.700 22.015879
67.705 22.278555
67.710 21.970928
67.715 22.593784
67.720 22.907898
67.725 22.402554
67.730 22.179382
67.735 22.029625
67.740 21.792555
67.745 21.798784
67.750 21.472851
67.755 21.091528
67.760 21.589762
67.765 21.857914
67.770 21.505213
67.775 21.488308
67.780 21.536833
67.785 21.581921
67.790 21.638828
67.795 21.327633
67.800 20.441631
67.805 20.50729
67.810 20.570084
67.815 20.387396
67.820 20.396614
67.825 20.392902
67.830 20.574234
67.835 20.888308
67.840 20.744999
67.845 20.648859
67.850 20.8965
67.855 21.13036
67.860 21.104109
67.865 20.496307
67.870 20.368427
67.875 20.216185
67.880 20.239813
67.885 19.977297
67.890 19.379843
67.895 19.108353
67.900 19.960434
67.905 19.938379
67.910 20.288589
67.915 20.426006
67.920 20.410999
67.925 20.75087
67.930 21.000647
67.935 20.764828
67.940 21.296638
67.945 21.121307
67.950 21.063093
67.955 21.232296
67.960 21.345798
67.965 21.112272
67.970 20.612843
67.975 20.817825
67.980 20.660217
67.985 20.106398
67.990 19.779827
67.995 19.347363
68.000 18.975061
68.005 19.178324
68.010 18.911997
68.015 18.994814
68.020 19.685364
68.025 20.01066
68.030 20.114519
68.035 20.462286
68.040 19.967781
68.045 19.387392
68.050 19.09269
68.055 19.166843
68.060 19.49782
68.065 20.027441
68.070 20.630259
68.075 21.198736
68.080 22.30336
68.085 22.734615
68.090 22.614614
68.095 21.973648
68.100 21.24374
68.105 21.064939
68.110 21.150768
68.115 20.635792
68.120 20.459431
68.125 20.464939
68.130 20.994335
68.135 21.701696
68.140 21.560522
68.145 21.612518
68.150 21.748737
68.155 22.027454
68.160 22.137617
68.165 21.636135
68.170 21.342663
68.175 20.916101
68.180 21.036674
68.185 21.448172
68.190 21.571756
68.195 21.881674
68.200 22.337606
68.205 22.258057
68.210 22.475351
68.215 22.024258
68.220 21.6248
68.225 21.311483
68.230 20.944185
68.235 20.875551
68.240 21.530102
68.245 21.701221
68.250 21.903309
68.255 21.291615
68.260 21.393362
68.265 21.726349
68.270 21.754459
68.275 20.972933
68.280 20.499395
68.285 20.526651
68.290 20.879372
68.295 20.799109
68.300 20.191322
68.305 20.05102
68.310 20.34716
68.315 21.07926
68.320 20.915043
68.325 20.767099
68.330 20.196514
68.335 20.181164
68.340 20.134375
68.345 20.388638
68.350 20.625301
68.355 20.663963
68.360 20.639456
68.365 21.084705
68.370 21.472637
68.375 21.162235
68.380 21.147743
68.385 21.164684
68.390 22.078516
68.395 22.096752
68.400 22.0021
68.405 22.380779
68.410 22.685722
68.415 22.077042
68.420 21.611637
68.425 21.641615
68.430 22.003332
68.435 21.504824
68.440 21.476891
68.445 22.008762
68.450 22.600689
68.455 23.29936
68.460 23.413916
68.465 23.003435
68.470 22.808565
68.475 22.103075
68.480 21.739655
68.485 21.4237
68.490 20.309294
68.495 19.673021
68.500 19.915442
68.505 20.165733
68.510 20.356325
68.515 20.588671
68.520 20.953917
68.525 21.27939
68.530 21.303511
68.535 21.851801
68.540 21.871635
68.545 22.168451
68.550 22.221394
68.555 21.967567
68.560 22.603951
68.565 22.848948
68.570 22.452961
68.575 22.874088
68.580 22.747969
68.585 22.313919
68.590 21.810905
68.595 20.732615
68.600 20.563459
68.605 20.840876
68.610 20.85783
68.615 21.006895
68.620 21.63129
68.625 22.271177
68.630 22.393265
68.635 22.524357
68.640 22.520346
68.645 22.905462
68.650 22.682163
68.655 22.662844
68.660 23.028971
68.665 23.559729
68.670 23.746033
68.675 24.235531
68.680 24.295444
68.685 24.372196
68.690 23.917419
68.695 22.830435
68.700 22.378071
68.705 21.672256
68.710 20.504412
68.715 19.927515
68.720 19.783665
68.725 20.249058
68.730 19.999668
68.735 20.471748
68.740 20.657505
68.745 21.047432
68.750 21.1577
68.755 21.328917
68.760 21.252598
68.765 21.99354
68.770 21.963924
68.775 22.290483
68.780 22.55044
68.785 22.453587
68.790 21.945818
68.795 21.746531
68.800 21.324314
68.805 21.313778
68.810 21.994005
68.815 22.553137
68.820 22.842968
68.825 23.239168
68.830 24.077074
68.835 24.713888
68.840 23.987539
68.845 23.190994
68.850 22.798304
68.855 23.306648
68.860 24.284525
68.865 24.223866
68.870 24.045088
68.875 24.297533
68.880 24.444811
68.885 24.205551
68.890 23.902596
68.895 23.020229
68.900 23.011564
68.905 23.32626
68.910 23.964874
68.915 24.023119
68.920 23.737434
68.925 23.77672
68.930 23.985701
68.935 24.147333
68.940 24.42024
68.945 23.747196
68.950 24.050581
68.955 23.88739
68.960 23.938543
68.965 24.07416
68.970 23.676285
68.975 23.341618
68.980 23.510201
68.985 23.558203
68.990 23.617884
68.995 23.055962
69.000 22.837921
69.005 23.056919
69.010 23.329552
69.015 23.409517
69.020 23.519238
69.025 24.029327
69.030 24.406069
69.035 24.365921
69.040 24.767372
69.045 24.97315
69.050 25.225697
69.055 25.249857
69.060 25.113708
69.065 25.084433
69.070 25.427628
69.075 25.489779
69.080 25.791769
69.085 25.760212
69.090 25.981272
69.095 26.262377
69.100 26.786528
69.105 27.294533
69.110 26.877222
69.115 26.291958
69.120 26.366379
69.125 25.986698
69.130 25.988661
69.135 25.477331
69.140 25.710085
69.145 26.325714
69.150 26.899834
69.155 26.906879
69.160 27.011665
69.165 26.270931
69.170 25.559481
69.175 24.767941
69.180 25.152842
69.185 25.510458
69.190 25.459675
69.195 25.660069
69.200 26.135979
69.205 26.82766
69.210 27.473061
69.215 27.087748
69.220 26.635939
69.225 27.062967
69.230 27.230173
69.235 27.646086
69.240 27.168861
69.245 26.969437
69.250 27.123543
69.255 27.427557
69.260 27.230354
69.265 26.872787
69.270 26.921877
69.275 27.269463
69.280 26.485119
69.285 26.279812
69.290 26.19112
69.295 26.816252
69.300 26.850945
69.305 26.131092
69.310 26.301138
69.315 26.980841
69.320 26.920507
69.325 26.967634
69.330 26.872684
69.335 27.75967
69.340 28.191305
69.345 28.476089
69.350 28.896984
69.355 29.57095
69.360 29.689157
69.365 29.651209
69.370 29.616646
69.375 30.238194
69.380 30.665009
69.385 30.175205
69.390 30.153793
69.395 30.670841
69.400 30.60791
69.405 30.393652
69.410 29.659208
69.415 29.209696
69.420 28.751163
69.425 28.36302
69.430 28.200975
69.435 28.410069
69.440 28.094355
69.445 27.590551
69.450 27.793039
69.455 27.968296
69.460 27.824291
69.465 27.498915
69.470 27.012169
69.475 27.114948
69.480 28.430336
69.485 28.541624
69.490 27.971172
69.495 28.250427
69.500 27.995905
69.505 28.484531
69.510 28.47998
69.515 27.465246
69.520 26.952127
69.525 26.753578
69.530 26.06819
69.535 25.897467
69.540 26.099964
69.545 26.24091
69.550 26.801203
69.555 28.165018
69.560 29.663425
69.565 30.762499
69.570 31.623728
69.575 31.321955
69.580 31.289057
69.585 30.942228
69.590 30.38772
69.595 29.613388
69.600 28.691597
69.605 28.108782
69.610 28.315418
69.615 28.074352
69.620 27.500324
69.625 27.573071
69.630 27.634928
69.635 27.798632
69.640 28.406673
69.645 28.462152
69.650 28.84058
69.655 29.738361
69.660 29.267664
69.665 29.153814
69.670 29.892151
69.675 29.997845
69.680 29.551041
69.685 29.422276
69.690 29.031174
69.695 29.055693
69.700 28.868607
69.705 28.078501
69.710 27.738283
69.715 27.707552
69.720 27.538492
69.725 27.234768
69.730 27.544973
69.735 27.786081
69.740 27.738354
69.745 27.623327
69.750 27.744177
69.755 27.27586
69.760 27.236996
69.765 27.065716
69.770 26.36854
69.775 25.769857
69.780 26.127136
69.785 26.036182
69.790 26.504719
69.795 26.684607
69.800 26.315094
69.805 26.305111
69.810 26.563974
69.815 26.677959
69.820 26.89077
69.825 26.596792
69.830 26.18862
69.835 26.475779
69.840 26.446712
69.845 26.149048
69.850 25.369839
69.855 24.757813
69.860 24.755487
69.865 24.444279
69.870 24.104586
69.875 24.261295
69.880 24.253473
69.885 25.076452
69.890 25.844904
69.895 26.714186
69.900 27.063936
69.905 28.060806
69.910 28.515402
69.915 28.103233
69.920 28.032452
69.925 27.374212
69.930 26.061415
69.935 25.229286
69.940 24.585924
69.945 24.172098
69.950 24.465355
69.955 24.484926
69.960 23.809444
69.965 23.589939
69.970 23.44986
69.975 22.856173
69.980 22.649279
69.985 22.229385
69.990 21.961174
69.995 22.239187
70.000 22.592964
70.005 22.73328
70.010 22.679552
70.015 22.90192
70.020 22.668449
70.025 22.04203
70.030 22.012747
70.035 21.466778
70.040 20.915079
70.045 20.651281
70.050 20.956821
70.055 21.208454
70.060 21.221716
70.065 21.451311
70.070 21.645346
70.075 21.286018
70.080 21.189053
70.085 20.661585
70.090 20.831123
70.095 20.806208
70.100 20.144903
70.105 20.04591
70.110 20.693642
70.115 20.202833
70.120 19.962183
70.125 19.484526
70.130 19.649483
70.135 19.178886
70.140 18.993135
70.145 18.718925
70.150 19.221317
70.155 19.359879
70.160 19.320339
70.165 19.86289
70.170 20.616377
70.175 20.590958
70.180 20.733984
70.185 20.643415
70.190 20.691828
70.195 20.61964
70.200 20.208855
70.205 20.605623
70.210 20.615047
70.215 20.279236
70.220 20.490971
70.225 20.593729
70.230 20.819702
70.235 20.893906
70.240 21.352171
70.245 21.912558
70.250 22.365662
70.255 22.574106
70.260 22.766407
70.265 22.538763
70.270 22.386164
70.275 21.557175
70.280 20.780733
70.285 20.49081
70.290 19.87772
70.295 19.743416
70.300 19.464594
70.305 19.365599
70.310 19.546625
70.315 19.689951
70.320 19.364002
70.325 19.090748
70.330 18.983633
70.335 19.680908
70.340 19.89204
70.345 20.209787
70.350 20.891535
70.355 21.47541
70.360 21.480373
70.365 20.917931
70.370 20.254486
70.375 19.714577
70.380 19.342051
70.385 19.162579
70.390 19.094828
70.395 19.185741
70.400 19.162439
70.405 19.71563
70.410 19.485023
70.415 19.299543
70.420 19.13991
70.425 19.060768
70.430 19.495962
70.435 20.176754
70.440 20.337496
70.445 20.889086
70.450 20.874737
70.455 20.576077
70.460 21.490383
70.465 21.94257
70.470 21.645466
70.475 20.88032
70.480 20.584894
70.485 20.518925
70.490 20.770895
70.495 20.051718
70.500 20.259558
70.505 20.187159
70.510 19.852503
70.515 19.274418
70.520 20.045834
70.525 20.819218
70.530 20.447027
70.535 20.028448
70.540 20.53754
70.545 21.449835
70.550 22.376675
70.555 21.347895
70.560 20.26709
70.565 20.011457
70.570 19.730808
70.575 19.489731
70.580 19.267122
70.585 18.666887
70.590 18.608671
70.595 19.780127
70.600 20.130251
70.605 19.942856
70.610 19.753719
70.615 19.976707
70.620 20.574547
70.625 20.465473
70.630 19.70565
70.635 19.657677
70.640 19.710655
70.645 19.564188
70.650 19.163059
70.655 18.635279
70.660 18.110352
70.665 18.265749
70.670 17.922026
70.675 18.129436
70.680 18.459974
70.685 18.327412
70.690 18.029835
70.695 18.619349
70.700 18.902983
70.705 19.310581
70.710 19.401274
70.715 20.408386
70.720 21.695511
70.725 22.358042
70.730 21.667093
70.735 21.211306
70.740 21.029465
70.745 20.150532
70.750 18.990351
70.755 18.773924
70.760 19.29763
70.765 19.706264
70.770 19.975107
70.775 20.306274
70.780 20.940399
70.785 21.335232
70.790 21.452122
70.795 21.026104
70.800 21.032242
70.805 20.943596
70.810 20.808771
70.815 21.213312
70.820 20.987268
70.825 20.022665
70.830 19.823385
70.835 20.077078
70.840 20.683933
70.845 20.944929
70.850 20.847336
70.855 20.385979
70.860 20.445879
70.865 20.658672
70.870 19.980705
70.875 19.422592
70.880 19.197659
70.885 18.798401
70.890 19.236868
70.895 19.890217
70.900 19.654942
70.905 19.567331
70.910 18.858704
70.915 18.284437
70.920 18.313372
70.925 18.024166
70.930 17.938372
70.935 18.135807
70.940 19.112455
70.945 20.035776
70.950 20.4529
70.955 20.4142
70.960 20.502995
70.965 20.187626
70.970 19.742146
70.975 19.023136
70.980 18.628784
70.985 18.767223
70.990 19.085426
70.995 19.08062
71.000 18.997944
71.005 18.8209
71.010 18.773943
71.015 18.602179
71.020 18.453438
71.025 18.365282
71.030 18.057623
71.035 18.492981
71.040 19.217566
71.045 19.407118
71.050 19.599314
71.055 19.273426
71.060 18.613129
71.065 18.512602
71.070 18.777405
71.075 18.647161
71.080 19.223356
71.085 20.059769
71.090 20.289503
71.095 20.77054
71.100 20.200893
71.105 19.579134
71.110 19.737373
71.115 18.904209
71.120 18.620941
71.125 18.88028
71.130 19.278189
71.135 19.58922
71.140 19.757042
71.145 19.376074
71.150 19.387812
71.155 19.742762
71.160 19.443859
71.165 19.740034
71.170 19.850096
71.175 19.789865
71.180 19.872465
71.185 19.646555
71.190 19.484434
71.195 19.482019
71.200 19.358356
71.205 18.925858
71.210 18.673731
71.215 18.504965
71.220 18.288694
71.225 18.047768
71.230 17.430798
71.235 18.067192
71.240 18.8799
71.245 19.231754
71.250 19.672417
71.255 19.753332
71.260 19.712152
71.265 20.264009
71.270 19.526903
71.275 19.004627
71.280 18.664801
71.285 18.363592
71.290 18.385847
71.295 18.731606
71.300 18.37208
71.305 18.168224
71.310 18.262602
71.315 17.766298
71.320 17.555433
71.325 17.61462
71.330 17.196466
71.335 17.40556
71.340 17.7019
71.345 18.195507
71.350 18.567047
71.355 18.853643
71.360 18.497534
71.365 18.934778
71.370 19.260239
71.375 19.557707
71.380 19.530098
71.385 19.558044
71.390 19.776695
71.395 19.486273
71.400 19.125727
71.405 19.007658
71.410 19.06983
71.415 18.93651
71.420 18.695993
71.425 18.791672
71.430 19.034878
71.435 18.741854
71.440 18.156059
71.445 18.410667
71.450 18.141827
71.455 18.250519
71.460 17.802282
71.465 18.416069
71.470 19.404428
71.475 19.372816
71.480 18.759586
71.485 18.94025
71.490 18.974613
71.495 18.727045
71.500 18.543379
71.505 18.412647
71.510 18.534706
71.515 18.54038
71.520 18.837713
71.525 19.096256
71.530 19.047682
71.535 18.843035
71.540 18.646091
71.545 19.028652
71.550 18.837111
71.555 18.76372
71.560 18.324276
71.565 18.629801
71.570 18.88262
71.575 18.701851
71.580 18.559055
71.585 18.850136
71.590 18.783289
71.595 19.476553
71.600 19.330444
71.605 18.692324
71.610 18.734116
71.615 18.275949
71.620 18.202549
71.625 18.136765
71.630 17.737919
71.635 17.917238
71.640 19.036963
71.645 19.287788
71.650 19.651978
71.655 19.877626
71.660 19.551836
71.665 19.616674
71.670 19.144907
71.675 19.070078
71.680 19.259626
71.685 18.977434
71.690 19.322418
71.695 19.650322
71.700 19.868361
71.705 20.111816
71.710 19.604738
71.715 19.428143
71.720 19.723379
71.725 19.833057
71.730 19.96242
71.735 20.250978
71.740 20.664886
71.745 20.564476
71.750 20.672899
71.755 20.200914
71.760 19.957039
71.765 19.859777
71.770 19.54711
71.775 19.565367
71.780 19.774893
71.785 19.583862
71.790 19.425663
71.795 19.646646
71.800 19.46397
71.805 19.181435
71.810 18.635273
71.815 18.871641
71.820 19.383808
71.825 19.218294
71.830 18.847687
71.835 18.78816
71.840 18.438776
71.845 18.830339
71.850 18.621553
71.855 18.214075
71.860 18.434973
71.865 18.51053
71.870 17.922546
71.875 17.946423
71.880 17.379717
71.885 17.593786
71.890 17.948057
71.895 18.141636
71.900 18.35997
71.905 18.850044
71.910 19.572266
71.915 19.923552
71.920 19.923443
71.925 19.335846
71.930 19.421976
71.935 20.162565
71.940 20.056749
71.945 19.932793
71.950 19.998297
71.955 20.166203
71.960 20.885288
71.965 20.962597
71.970 20.399097
71.975 20.040344
71.980 20.500008
71.985 20.42794
71.990 20.325304
71.995 19.972843
72.000 19.458633
72.005 19.789446
72.010 19.960049
72.015 18.989437
72.020 18.727247
72.025 18.910978
72.030 18.92347
72.035 19.068476
72.040 18.449886
72.045 17.997278
72.050 18.154301
72.055 18.006029
72.060 17.760593
72.065 18.313253
72.070 18.285906
72.075 18.115259
72.080 17.994835
72.085 18.434086
72.090 18.546703
72.095 18.17408
72.100 17.802258
72.105 18.135414
72.110 18.824574
72.115 18.905243
72.120 18.545332
72.125 18.191177
72.130 18.331732
72.135 18.00493
72.140 17.582186
72.145 17.454149
72.150 17.544674
72.155 17.762735
72.160 18.076002
72.165 18.130211
72.170 19.15056
72.175 19.305769
72.180 18.773417
72.185 18.22965
72.190 17.991184
72.195 18.182077
72.200 17.591152
72.205 16.985424
72.210 17.33287
72.215 17.768755
72.220 18.319851
72.225 18.469437
72.230 18.245365
72.235 18.650747
72.240 19.088472
72.245 19.240768
72.250 19.33531
72.255 19.147495
72.260 18.932959
72.265 18.56011
72.270 18.477695
72.275 18.326647
72.280 17.883696
72.285 17.510612
72.290 17.705545
72.295 17.692219
72.300 18.116581
72.305 18.007887
72.310 18.371414
72.315 18.986477
72.320 19.092875
72.325 19.334206
72.330 20.143343
72.335 20.427902
72.340 20.702902
72.345 20.806005
72.350 20.63217
72.355 20.422697
72.360 19.595835
72.365 19.070492
72.370 18.693079
72.375 18.404486
72.380 18.254837
72.385 18.258385
72.390 18.797302
72.395 19.201359
72.400 19.155561
72.405 19.080359
72.410 19.057535
72.415 19.34413
72.420 19.48439
72.425 19.73572
72.430 19.421627
72.435 18.807217
72.440 19.190165
72.445 19.482731
72.450 19.033091
72.455 18.621456
72.460 17.936169
72.465 18.939352
72.470 19.303642
72.475 18.843315
72.480 18.89657
72.485 19.102978
72.490 19.527836
72.495 19.572189
72.500 18.84462
72.505 19.194828
72.510 19.363655
72.515 19.22414
72.520 19.113268
72.525 19.348637
72.530 19.507313
72.535 19.828878
72.540 19.719152
72.545 19.264338
72.550 19.259995
72.555 18.588028
72.560 18.024393
72.565 17.674936
72.570 17.256834
72.575 17.384308
72.580 17.852657
72.585 18.962885
72.590 19.791506
72.595 19.961485
72.600 20.178972
72.605 20.256439
72.610 20.141459
72.615 19.475147
72.620 18.843143
72.625 18.980583
72.630 19.07309
72.635 18.696566
72.640 17.867712
72.645 17.227587
72.650 16.952881
72.655 16.404018
72.660 16.128958
72.665 15.897282
72.670 15.930162
72.675 16.052883
72.680 16.20167
72.685 16.362614
72.690 16.530972
72.695 16.430967
72.700 16.301569
72.705 16.568567
72.710 17.127554
72.715 17.501617
72.720 17.712168
72.725 17.566046
72.730 17.769861
72.735 17.873569
72.740 17.355852
72.745 17.291718
72.750 16.671349
72.755 16.112518
72.760 16.100378
72.765 16.252239
72.770 16.623562
72.775 16.217962
72.780 16.044834
72.785 16.389433
72.790 17.165258
72.795 16.653582
72.800 16.314932
72.805 16.678047
72.810 16.973148
72.815 16.831459
72.820 16.727221
72.825 16.502707
72.830 17.160107
72.835 17.614971
72.840 17.650681
72.845 17.544575
72.850 17.521872
72.855 17.468185
72.860 17.351528
72.865 16.711662
72.870 15.993468
72.875 16.459066
72.880 16.512835
72.885 16.491917
72.890 16.601358
72.895 16.93243
72.900 17.121233
72.905 17.480658
72.910 17.154711
72.915 17.456993
72.920 17.730434
72.925 17.820223
72.930 17.927614
72.935 18.016111
72.940 17.938675
72.945 18.334736
72.950 18.31645
72.955 17.85084
72.960 17.610704
72.965 17.327663
72.970 17.365751
72.975 17.020977
72.980 16.274424
72.985 16.3001
72.990 16.398937
72.995 16.042498
73.000 15.721242
