!@!!GADDS PLOTSO FILE: Chi integration type
!@!!Title/SampleName: map-1
!@!!Comment: ?
!@!!User: Bruker Instrument Administrator
!@!!Site: University of Illinois Chicago
!@!!Frame: map-1_01_000.gfrm
!@!!Wavelengths    1.54184   1.54056   1.54439
!@!!Frame angles: 2Theta: 63.000 Omega: 50.000 Phi: 0.000 Chi: 90.000
!@!!Integration range: 2Theta: 53.000 to 73.000  Gamma: -105.000 to -75.000
!@!!Integration method: bin normalized
!@!N
!@!SS
!@!M
!@!L 0.0 0.0 0.0 0.0
!@!XDegrees
!@!YCounts
53.000 7.402084
53.005 7.269578
53.010 7.295624
53.015 7.0174
53.020 7.033619
53.025 7.174678
53.030 6.814971
53.035 6.622942
53.040 6.610514
53.045 6.306686
53.050 6.165192
53.055 6.126724
53.060 6.393399
53.065 6.984894
53.070 7.318796
53.075 7.392244
53.080 7.669306
53.085 7.795524
53.090 7.671046
53.095 7.305304
53.100 7.096183
53.105 7.066408
53.110 7.317455
53.115 7.327718
53.120 7.411577
53.125 7.721148
53.130 7.672907
53.135 7.687993
53.140 7.57977
53.145 7.696434
53.150 7.703816
53.155 7.457957
53.160 7.329646
53.165 7.389925
53.170 7.391164
53.175 7.126264
53.180 6.741623
53.185 7.029183
53.190 7.495245
53.195 7.301404
53.200 7.240434
53.205 7.272092
53.210 7.369933
53.215 7.742302
53.220 7.600704
53.225 7.656906
53.230 7.961261
53.235 8.290661
53.240 8.154345
53.245 8.44542
53.250 8.556347
53.255 8.58907
53.260 8.452366
53.265 8.112852
53.270 7.972386
53.275 8.099272
53.280 8.170954
53.285 7.805307
53.290 7.85768
53.295 7.928199
53.300 7.861275
53.305 7.77002
53.310 7.751759
53.315 7.928324
53.320 7.878154
53.325 7.564343
53.330 7.625903
53.335 7.868119
53.340 8.307961
53.345 8.14806
53.350 7.781621
53.355 7.831319
53.360 7.768897
53.365 8.022265
53.370 7.738982
53.375 7.574817
53.380 7.752112
53.385 8.061073
53.390 7.940044
53.395 7.798435
53.400 8.006905
53.405 8.236086
53.410 8.207785
53.415 8.27457
53.420 8.273126
53.425 8.321065
53.430 8.544464
53.435 8.121965
53.440 7.809037
53.445 7.751987
53.450 7.623285
53.455 8.084025
53.460 8.358492
53.465 8.05732
53.470 8.039001
53.475 8.030242
53.480 8.002751
53.485 7.592638
53.490 7.328706
53.495 7.075973
53.500 7.409465
53.505 7.615862
53.510 7.745574
53.515 7.793385
53.520 7.943331
53.525 8.068002
53.530 8.465173
53.535 8.444303
53.540 8.43097
53.545 8.374904
53.550 8.763797
53.555 8.935252
53.560 8.972154
53.565 8.732668
53.570 8.761925
53.575 8.953031
53.580 8.779572
53.585 8.308073
53.590 8.306903
53.595 8.224909
53.600 7.881078
53.605 7.598117
53.610 7.346559
53.615 7.667207
53.620 7.623932
53.625 7.641612
53.630 8.002352
53.635 8.229603
53.640 8.453307
53.645 8.320437
53.650 8.220682
53.655 8.294728
53.660 7.96246
53.665 7.915426
53.670 7.993653
53.675 7.818947
53.680 8.281214
53.685 8.364013
53.690 8.337412
53.695 8.678224
53.700 8.573607
53.705 8.910978
53.710 9.503901
53.715 9.304269
53.720 9.166466
53.725 9.244319
53.730 9.522356
53.735 9.668699
53.740 9.341043
53.745 8.812233
53.750 8.435414
53.755 8.318341
53.760 8.043605
53.765 7.579849
53.770 7.555468
53.775 7.397282
53.780 7.736748
53.785 8.170406
53.790 8.382204
53.795 8.413055
53.800 8.604044
53.805 8.725529
53.810 8.685497
53.815 8.448122
53.820 8.567977
53.825 8.824627
53.830 8.787003
53.835 8.687
53.840 9.198372
53.845 9.454441
53.850 9.062089
53.855 9.024971
53.860 9.167934
53.865 9.374549
53.870 9.275575
53.875 8.847692
53.880 8.97794
53.885 9.656764
53.890 9.060895
53.895 8.997119
53.900 9.062647
53.905 9.295736
53.910 9.377273
53.915 9.133748
53.920 8.837935
53.925 9.061575
53.930 9.199404
53.935 9.545669
53.940 9.373712
53.945 9.619402
53.950 10.160443
53.955 10.218182
53.960 9.905952
53.965 9.882794
53.970 9.798099
53.975 9.710326
53.980 9.801963
53.985 9.495868
53.990 9.560405
53.995 10.119785
54.000 9.739577
54.005 9.504564
54.010 9.54038
54.015 9.52035
54.020 9.661075
54.025 9.410861
54.030 8.978936
54.035 8.941697
54.040 8.96417
54.045 8.760201
54.050 8.552471
54.055 8.741603
54.060 8.980236
54.065 8.755788
54.070 8.407279
54.075 8.276541
54.080 8.19488
54.085 7.826121
54.090 7.652481
54.095 7.989933
54.100 8.219254
54.105 8.646314
54.110 8.843636
54.115 9.022856
54.120 8.883325
54.125 9.048586
54.130 8.971105
54.135 9.093544
54.140 8.847017
54.145 8.589767
54.150 8.75477
54.155 9.189775
54.160 8.82935
54.165 8.87797
54.170 8.875938
54.175 9.115883
54.180 9.142987
54.185 9.08122
54.190 8.593247
54.195 8.440952
54.200 8.202791
54.205 8.487226
54.210 8.448108
54.215 8.365138
54.220 8.39686
54.225 9.009107
54.230 9.285492
54.235 9.284821
54.240 9.04838
54.245 8.908174
54.250 8.954339
54.255 8.686702
54.260 8.96824
54.265 9.001373
54.270 9.300089
54.275 9.839931
54.280 10.288395
54.285 10.611176
54.290 11.180021
54.295 11.085958
54.300 11.21477
54.305 10.85101
54.310 10.253238
54.315 9.946843
54.320 9.810102
54.325 9.681859
54.330 9.470999
54.335 9.204597
54.340 9.176732
54.345 9.309114
54.350 9.355089
54.355 9.23497
54.360 9.063459
54.365 9.083106
54.370 9.077011
54.375 9.467011
54.380 9.814672
54.385 9.985943
54.390 10.42012
54.395 10.533599
54.400 10.637526
54.405 10.653886
54.410 10.944871
54.415 10.844326
54.420 10.739557
54.425 10.400389
54.430 10.50141
54.435 10.630246
54.440 10.545547
54.445 10.298007
54.450 9.783731
54.455 9.362475
54.460 8.974142
54.465 9.007314
54.470 8.647849
54.475 8.57841
54.480 8.349036
54.485 8.456346
54.490 8.589029
54.495 9.037398
54.500 8.679029
54.505 9.079051
54.510 9.16753
54.515 9.126289
54.520 9.548413
54.525 9.884478
54.530 9.849775
54.535 10.268486
54.540 10.04821
54.545 10.369263
54.550 10.736931
54.555 10.356115
54.560 10.107479
54.565 9.652286
54.570 9.519359
54.575 9.835409
54.580 9.85172
54.585 10.161312
54.590 10.219736
54.595 10.578161
54.600 10.68218
54.605 10.203874
54.610 9.843721
54.615 9.367704
54.620 8.676226
54.625 8.522193
54.630 8.067587
54.635 8.255702
54.640 8.419814
54.645 8.149137
54.650 8.309723
54.655 9.194421
54.660 9.137536
54.665 9.232296
54.670 9.014395
54.675 8.870934
54.680 8.710865
54.685 8.99837
54.690 8.897653
54.695 9.116443
54.700 9.440125
54.705 9.818151
54.710 10.329737
54.715 11.297309
54.720 11.162785
54.725 10.84816
54.730 10.947459
54.735 11.022337
54.740 10.973445
54.745 10.692623
54.750 9.967394
54.755 10.046787
54.760 10.201681
54.765 10.181743
54.770 10.17048
54.775 9.921447
54.780 10.053592
54.785 10.28121
54.790 10.341631
54.795 10.25808
54.800 9.851356
54.805 9.652061
54.810 9.941836
54.815 9.850856
54.820 9.536349
54.825 9.705464
54.830 10.084516
54.835 10.609724
54.840 10.80109
54.845 10.46212
54.850 10.486901
54.855 10.625892
54.860 9.95155
54.865 9.455058
54.870 9.709208
54.875 9.757676
54.880 9.69728
54.885 10.33983
54.890 10.906062
54.895 11.843474
54.900 12.138579
54.905 11.627656
54.910 11.616302
54.915 11.619637
54.920 10.823065
54.925 10.060746
54.930 9.800042
54.935 9.496403
54.940 9.703078
54.945 9.596095
54.950 9.563224
54.955 9.167136
54.960 9.086252
54.965 8.519456
54.970 8.22454
54.975 8.256557
54.980 8.521668
54.985 8.839744
54.990 9.425454
54.995 9.825841
55.000 10.374567
55.005 10.633945
55.010 10.70407
55.015 10.588545
55.020 10.599216
55.025 10.626741
55.030 10.505065
55.035 10.605237
55.040 10.660131
55.045 10.557309
55.050 10.354528
55.055 10.11062
55.060 10.075376
55.065 10.17457
55.070 9.983088
55.075 10.149481
55.080 10.333856
55.085 10.713138
55.090 11.068625
55.095 11.444633
55.100 11.548232
55.105 11.684871
55.110 11.621477
55.115 11.371708
55.120 10.684873
55.125 10.177659
55.130 9.256783
55.135 9.229977
55.140 9.108415
55.145 9.021323
55.150 8.736755
55.155 8.762553
55.160 8.996269
55.165 9.674644
55.170 9.477958
55.175 8.907891
55.180 9.008576
55.185 9.51657
55.190 9.947756
55.195 10.158641
55.200 10.421136
55.205 10.660207
55.210 11.139892
55.215 11.522055
55.220 11.857935
55.225 11.945787
55.230 12.141978
55.235 11.973774
55.240 12.108644
55.245 12.256287
55.250 12.202739
55.255 11.883899
55.260 11.265182
55.265 10.875648
55.270 10.304278
55.275 10.228905
55.280 9.901559
55.285 9.541283
55.290 9.355711
55.295 9.460986
55.300 9.887631
55.305 10.17167
55.310 9.790438
55.315 10.033768
55.320 10.451694
55.325 10.939653
55.330 11.3494
55.335 11.334473
55.340 11.394595
55.345 11.659823
55.350 11.484538
55.355 11.54459
55.360 11.287114
55.365 11.16124
55.370 11.144238
55.375 11.547712
55.380 11.873739
55.385 11.778371
55.390 11.33144
55.395 11.300285
55.400 10.809055
55.405 10.659687
55.410 10.511385
55.415 10.427343
55.420 10.571238
55.425 10.371014
55.430 9.913296
55.435 9.978628
55.440 9.696536
55.445 9.402183
55.450 9.084078
55.455 9.338208
55.460 9.46313
55.465 9.791574
55.470 9.602102
55.475 9.676615
55.480 10.049296
55.485 10.193434
55.490 10.11434
55.495 10.050625
55.500 10.486473
55.505 10.721185
55.510 10.537416
55.515 10.228145
55.520 10.077129
55.525 9.698771
55.530 9.395638
55.535 9.039377
55.540 9.355048
55.545 9.587276
55.550 9.817334
55.555 10.040922
55.560 10.667975
55.565 11.446881
55.570 11.732163
55.575 11.686151
55.580 11.301058
55.585 11.226418
55.590 11.211029
55.595 11.02141
55.600 10.231122
55.605 9.761606
55.610 9.445856
55.615 9.672191
55.620 9.615464
55.625 9.358091
55.630 9.044676
55.635 9.426876
55.640 9.847292
55.645 10.003915
55.650 10.232203
55.655 10.382332
55.660 10.356724
55.665 10.346259
55.670 10.089598
55.675 9.729331
55.680 9.693593
55.685 9.702198
55.690 9.981123
55.695 10.562525
55.700 11.465495
55.705 11.663131
55.710 12.067142
55.715 11.943339
55.720 11.725664
55.725 11.463295
55.730 10.958375
55.735 10.661825
55.740 10.742178
55.745 10.501963
55.750 10.522304
55.755 10.690499
55.760 10.728657
55.765 11.169658
55.770 11.215577
55.775 11.518522
55.780 11.860948
55.785 12.156733
55.790 12.183216
55.795 12.138785
55.800 11.824424
55.805 11.349224
55.810 10.876612
55.815 10.492392
55.820 10.426328
55.825 10.305328
55.830 10.202035
55.835 10.552425
55.840 10.913832
55.845 11.298813
55.850 11.473117
55.855 11.587637
55.860 11.840631
55.865 11.981065
55.870 11.464706
55.875 11.330606
55.880 11.714351
55.885 12.226785
55.890 12.064391
55.895 11.849069
55.900 11.722607
55.905 11.77089
55.910 12.041869
55.915 11.272127
55.920 10.448522
55.925 10.780037
55.930 10.972693
55.935 11.633251
55.940 12.013294
55.945 11.699725
55.950 12.32141
55.955 12.429927
55.960 11.952507
55.965 11.947515
55.970 11.749921
55.975 11.824286
55.980 12.063549
55.985 11.99052
55.990 12.255001
55.995 12.610044
56.000 12.696045
56.005 12.739437
56.010 12.66935
56.015 12.365696
56.020 12.200452
56.025 12.142967
56.030 11.870135
56.035 12.379247
56.040 12.293843
56.045 12.559365
56.050 12.650331
56.055 12.915381
56.060 12.889262
56.065 12.750741
56.070 12.111946
56.075 11.956936
56.080 11.474027
56.085 11.071084
56.090 10.766503
56.095 10.824274
56.100 10.900104
56.105 10.977829
56.110 10.837293
56.115 10.739544
56.120 10.923134
56.125 10.722866
56.130 10.706695
56.135 10.758313
56.140 10.942728
56.145 11.710694
56.150 12.187617
56.155 12.128151
56.160 12.169104
56.165 12.443669
56.170 12.46433
56.175 12.765742
56.180 12.823867
56.185 12.979738
56.190 13.312497
56.195 13.343948
56.200 12.748501
56.205 12.190213
56.210 11.745236
56.215 11.096241
56.220 10.86061
56.225 10.656193
56.230 11.118529
56.235 11.744352
56.240 12.213444
56.245 12.091347
56.250 12.083585
56.255 12.580695
56.260 12.807037
56.265 12.912468
56.270 12.708524
56.275 12.460302
56.280 12.824579
56.285 13.059119
56.290 12.888743
56.295 12.54376
56.300 12.207906
56.305 12.688743
56.310 12.783268
56.315 12.802423
56.320 12.690043
56.325 12.467223
56.330 12.188054
56.335 11.913446
56.340 11.317834
56.345 11.075268
56.350 11.442957
56.355 12.217765
56.360 12.557375
56.365 12.560175
56.370 12.373438
56.375 12.523918
56.380 12.697871
56.385 11.98784
56.390 11.401505
56.395 11.596982
56.400 11.918467
56.405 12.146452
56.410 12.056898
56.415 11.78729
56.420 11.832829
56.425 11.464936
56.430 10.80092
56.435 10.233006
56.440 10.182897
56.445 10.376214
56.450 10.442729
56.455 10.404654
56.460 11.062723
56.465 11.321783
56.470 11.724773
56.475 11.737748
56.480 11.607001
56.485 11.928977
56.490 11.933945
56.495 11.331813
56.500 11.292116
56.505 11.264898
56.510 11.341574
56.515 11.638542
56.520 11.760871
56.525 11.997586
56.530 12.199019
56.535 12.387516
56.540 13.022242
56.545 13.523162
56.550 13.521936
56.555 13.179507
56.560 12.782784
56.565 13.16436
56.570 13.022896
56.575 12.406439
56.580 11.678028
56.585 11.29829
56.590 11.241446
56.595 11.406668
56.600 11.121121
56.605 11.277887
56.610 11.564388
56.615 11.733178
56.620 12.003394
56.625 12.062854
56.630 12.084851
56.635 11.999784
56.640 11.771338
56.645 12.279227
56.650 12.264551
56.655 12.240084
56.660 12.255691
56.665 12.056145
56.670 12.147577
56.675 11.396859
56.680 10.771206
56.685 10.929559
56.690 10.804171
56.695 11.020699
56.700 11.343289
56.705 11.354241
56.710 11.85361
56.715 12.131979
56.720 11.89515
56.725 12.200244
56.730 12.403059
56.735 12.382673
56.740 12.226308
56.745 12.278131
56.750 12.561961
56.755 12.749807
56.760 12.468771
56.765 12.022159
56.770 12.316018
56.775 13.276022
56.780 13.25305
56.785 13.024075
56.790 12.632763
56.795 12.393689
56.800 12.684539
56.805 12.584169
56.810 11.729821
56.815 11.274742
56.820 11.374454
56.825 11.874115
56.830 12.050972
56.835 12.515229
56.840 12.873898
56.845 13.275025
56.850 13.549551
56.855 13.009931
56.860 12.91672
56.865 12.840491
56.870 12.397389
56.875 12.00205
56.880 12.095723
56.885 12.311547
56.890 12.7701
56.895 12.871576
56.900 13.221744
56.905 12.902247
56.910 12.754863
56.915 12.876471
56.920 13.192719
56.925 13.40758
56.930 13.707972
56.935 13.287642
56.940 13.433132
56.945 13.375048
56.950 13.009075
56.955 12.528557
56.960 12.602779
56.965 12.329987
56.970 12.689617
56.975 12.943251
56.980 13.069673
56.985 13.663497
56.990 13.959389
56.995 13.561971
57.000 13.534991
57.005 13.322047
57.010 13.167755
57.015 13.14822
57.020 12.724067
57.025 12.64471
57.030 12.690065
57.035 13.282172
57.040 13.631304
57.045 13.416939
57.050 13.114374
57.055 12.896663
57.060 12.576483
57.065 12.378943
57.070 11.878966
57.075 12.131933
57.080 12.628592
57.085 13.017661
57.090 13.443418
57.095 13.151884
57.100 13.188982
57.105 13.317543
57.110 13.122824
57.115 13.160226
57.120 13.202141
57.125 13.383638
57.130 13.753874
57.135 13.733484
57.140 13.001553
57.145 12.584289
57.150 12.629962
57.155 12.335032
57.160 11.932749
57.165 12.024911
57.170 12.10469
57.175 12.520093
57.180 12.317822
57.185 11.86657
57.190 11.970159
57.195 12.349092
57.200 12.26977
57.205 12.544709
57.210 12.826753
57.215 13.354032
57.220 13.449257
57.225 13.277909
57.230 12.987965
57.235 13.007024
57.240 12.758587
57.245 12.434026
57.250 11.991468
57.255 11.927867
57.260 12.397261
57.265 12.572912
57.270 12.448394
57.275 12.432681
57.280 12.722642
57.285 13.115499
57.290 13.454365
57.295 13.351345
57.300 13.108557
57.305 13.087917
57.310 13.351158
57.315 13.776596
57.320 13.725248
57.325 13.797545
57.330 14.219769
57.335 14.549285
57.340 14.320539
57.345 13.854712
57.350 13.299341
57.355 13.22634
57.360 12.405029
57.365 11.598833
57.370 11.686622
57.375 11.92457
57.380 11.993073
57.385 12.093392
57.390 12.11601
57.395 12.852981
57.400 13.502894
57.405 13.641818
57.410 13.542608
57.415 13.381837
57.420 13.77345
57.425 14.167074
57.430 13.874312
57.435 13.594352
57.440 13.004001
57.445 12.884679
57.450 13.064413
57.455 13.045261
57.460 12.588929
57.465 12.870502
57.470 12.900167
57.475 13.491816
57.480 13.662498
57.485 13.324142
57.490 12.893581
57.495 12.934161
57.500 12.303341
57.505 11.531411
57.510 11.073711
57.515 11.057961
57.520 11.04823
57.525 10.964699
57.530 11.031201
57.535 11.499464
57.540 12.362504
57.545 12.537609
57.550 12.873763
57.555 12.969424
57.560 13.097464
57.565 13.177759
57.570 13.589362
57.575 13.327714
57.580 13.642499
57.585 13.732892
57.590 14.0545
57.595 14.075706
57.600 14.025056
57.605 13.440301
57.610 12.960408
57.615 12.496634
57.620 12.270021
57.625 11.709373
57.630 11.737509
57.635 11.907695
57.640 12.239941
57.645 12.491995
57.650 12.51151
57.655 12.594783
57.660 12.617829
57.665 12.775379
57.670 12.720975
57.675 13.013707
57.680 13.236185
57.685 13.615352
57.690 13.551012
57.695 13.782293
57.700 13.864064
57.705 13.596192
57.710 13.546987
57.715 13.492938
57.720 13.364791
57.725 13.795294
57.730 13.561768
57.735 13.503096
57.740 13.607841
57.745 13.526875
57.750 13.743326
57.755 13.480998
57.760 13.430562
57.765 13.441995
57.770 13.172205
57.775 13.130052
57.780 13.169415
57.785 13.07583
57.790 13.663469
57.795 13.143304
57.800 13.307429
57.805 13.239153
57.810 13.239785
57.815 13.29508
57.820 13.097134
57.825 12.719727
57.830 13.101524
57.835 13.539619
57.840 13.431741
57.845 13.300718
57.850 13.076334
57.855 12.932576
57.860 12.948472
57.865 12.655043
57.870 12.837435
57.875 13.437613
57.880 13.562644
57.885 13.771737
57.890 14.13592
57.895 14.377507
57.900 14.344821
57.905 13.834925
57.910 14.027411
57.915 13.719832
57.920 13.399943
57.925 13.214835
57.930 12.673454
57.935 12.907183
57.940 12.889228
57.945 12.156862
57.950 12.338857
57.955 12.155461
57.960 11.740116
57.965 11.785233
57.970 12.117675
57.975 11.767774
57.980 11.672508
57.985 11.793374
57.990 12.369346
57.995 12.633092
58.000 12.573134
58.005 12.568048
58.010 13.155726
58.015 13.292147
58.020 13.03297
58.025 13.120125
58.030 13.125088
58.035 13.507642
58.040 13.548934
58.045 13.442867
58.050 13.64521
58.055 13.694751
58.060 13.752052
58.065 14.110571
58.070 13.954672
58.075 13.740849
58.080 13.950873
58.085 14.006888
58.090 14.046422
58.095 13.977578
58.100 13.857832
58.105 13.855541
58.110 13.97681
58.115 14.180092
58.120 14.405389
58.125 14.678101
58.130 14.892732
58.135 15.339953
58.140 15.173419
58.145 14.36953
58.150 13.624043
58.155 13.438851
58.160 13.572016
58.165 13.371659
58.170 13.204359
58.175 13.189731
58.180 14.204551
58.185 14.790252
58.190 14.672235
58.195 14.410702
58.200 14.339031
58.205 14.31961
58.210 14.774817
58.215 14.338959
58.220 14.30751
58.225 14.396771
58.230 14.194095
58.235 14.045323
58.240 13.859999
58.245 13.523144
58.250 13.272926
58.255 13.048837
58.260 13.290426
58.265 13.907596
58.270 14.775076
58.275 14.741767
58.280 14.231487
58.285 14.468166
58.290 14.748674
58.295 14.369075
58.300 13.780285
58.305 13.729308
58.310 14.017216
58.315 13.572475
58.320 13.610206
58.325 13.161312
58.330 12.902606
58.335 12.748997
58.340 12.863284
58.345 13.052197
58.350 13.975331
58.355 14.249722
58.360 14.773457
58.365 15.507463
58.370 15.623709
58.375 15.603826
58.380 15.408414
58.385 15.232329
58.390 15.012879
58.395 14.664207
58.400 14.607977
58.405 14.380507
58.410 13.96102
58.415 14.178971
58.420 14.198733
58.425 14.418388
58.430 14.464282
58.435 14.1222
58.440 13.766965
58.445 13.862351
58.450 13.956656
58.455 13.650869
58.460 13.661292
58.465 13.776543
58.470 13.983036
58.475 13.796465
58.480 13.326731
58.485 12.938944
58.490 13.033169
58.495 12.949726
58.500 12.76663
58.505 12.776887
58.510 13.006565
58.515 13.315329
58.520 13.536941
58.525 13.42257
58.530 13.513678
58.535 13.377645
58.540 13.857308
58.545 13.792171
58.550 13.578381
58.555 13.935685
58.560 14.280701
58.565 14.455667
58.570 14.537074
58.575 14.092987
58.580 14.512033
58.585 14.715703
58.590 14.64807
58.595 14.74241
58.600 15.111549
58.605 15.685181
58.610 15.801952
58.615 16.057823
58.620 16.030994
58.625 16.237261
58.630 16.12068
58.635 15.76248
58.640 15.138504
58.645 14.854823
58.650 14.690466
58.655 14.807998
58.660 14.024833
58.665 13.292844
58.670 13.25281
58.675 13.802659
58.680 13.914092
58.685 13.70363
58.690 13.714911
58.695 14.461212
58.700 14.96279
58.705 14.683907
58.710 14.550716
58.715 14.554832
58.720 14.6706
58.725 14.48444
58.730 14.155116
58.735 14.106197
58.740 14.546235
58.745 15.070527
58.750 15.225947
58.755 15.003737
58.760 15.020231
58.765 15.60131
58.770 15.952013
58.775 15.798931
58.780 15.947591
58.785 15.502445
58.790 15.297279
58.795 15.278016
58.800 14.8151
58.805 14.934863
58.810 14.371977
58.815 13.752191
58.820 14.131696
58.825 14.281029
58.830 13.98945
58.835 13.715329
58.840 13.354201
58.845 13.725137
58.850 13.775882
58.855 13.887877
58.860 14.161335
58.865 14.173396
58.870 13.797718
58.875 13.632749
58.880 13.392818
58.885 13.711231
58.890 14.058607
58.895 14.302887
58.900 14.755964
58.905 14.791951
58.910 14.977498
58.915 15.098692
58.920 14.797824
58.925 14.618025
58.930 14.371496
58.935 14.020451
58.940 13.970608
58.945 14.053548
58.950 14.276454
58.955 14.40184
58.960 14.104021
58.965 13.918176
58.970 13.831609
58.975 14.55252
58.980 15.242613
58.985 14.891988
58.990 14.648035
58.995 14.575495
59.000 14.59006
59.005 15.391808
59.010 15.266845
59.015 14.8228
59.020 15.165614
59.025 15.388504
59.030 15.628661
59.035 15.648072
59.040 15.411065
59.045 15.026088
59.050 14.906745
59.055 15.033381
59.060 15.123744
59.065 15.291161
59.070 14.875266
59.075 14.702748
59.080 15.065791
59.085 14.815335
59.090 14.348259
59.095 14.478783
59.100 15.232611
59.105 15.845498
59.110 15.972096
59.115 15.740116
59.120 15.939144
59.125 16.256004
59.130 16.254665
59.135 16.271935
59.140 16.662483
59.145 17.070396
59.150 16.753641
59.155 16.585312
59.160 16.661476
59.165 16.386436
59.170 15.779725
59.175 15.626346
59.180 15.174664
59.185 15.636667
59.190 15.499974
59.195 14.972607
59.200 15.05591
59.205 14.889498
59.210 14.582274
59.215 14.649645
59.220 14.571975
59.225 14.621506
59.230 14.982696
59.235 14.81914
59.240 15.070783
59.245 15.355913
59.250 15.361062
59.255 15.536091
59.260 15.407967
59.265 15.671321
59.270 15.560534
59.275 15.889158
59.280 16.073067
59.285 16.012598
59.290 16.044216
59.295 16.807436
59.300 16.739544
59.305 16.60025
59.310 16.143776
59.315 15.723342
59.320 15.759646
59.325 15.790959
59.330 15.487197
59.335 15.196699
59.340 15.075513
59.345 15.37111
59.350 15.982202
59.355 16.379213
59.360 16.257265
59.365 15.980433
59.370 15.579746
59.375 16.005253
59.380 15.788513
59.385 15.381486
59.390 15.232635
59.395 15.346557
59.400 16.001137
59.405 16.456991
59.410 16.335924
59.415 16.373459
59.420 16.162817
59.425 15.882027
59.430 16.097603
59.435 15.582997
59.440 15.105884
59.445 15.214137
59.450 15.273217
59.455 15.515791
59.460 15.538561
59.465 15.361867
59.470 15.479074
59.475 15.491177
59.480 15.337943
59.485 15.250861
59.490 15.537266
59.495 15.791414
59.500 15.557705
59.505 15.457549
59.510 16.076353
59.515 16.221338
59.520 16.43297
59.525 16.381496
59.530 16.414137
59.535 16.554087
59.540 16.700171
59.545 16.192572
59.550 16.300451
59.555 16.778923
59.560 16.540602
59.565 16.314905
59.570 16.542393
59.575 16.730568
59.580 16.661978
59.585 16.264402
59.590 15.647717
59.595 16.024101
59.600 15.911343
59.605 16.283731
59.610 16.848204
59.615 16.95299
59.620 16.947248
59.625 16.663504
59.630 16.42757
59.635 16.429996
59.640 16.010798
59.645 15.430123
59.650 15.457272
59.655 15.365822
59.660 15.189908
59.665 15.164063
59.670 15.111629
59.675 14.839006
59.680 15.158374
59.685 15.471878
59.690 16.020752
59.695 16.106245
59.700 16.521275
59.705 16.280188
59.710 16.290821
59.715 17.019197
59.720 16.621376
59.725 16.196186
59.730 16.674099
59.735 17.382963
59.740 18.014633
59.745 17.858738
59.750 17.127129
59.755 18.078329
59.760 18.32777
59.765 18.188505
59.770 17.02047
59.775 17.172676
59.780 17.620266
59.785 17.471975
59.790 16.329967
59.795 16.546307
59.800 16.858212
59.805 17.755917
59.810 17.994696
59.815 17.838104
59.820 18.271879
59.825 18.687901
59.830 18.586834
59.835 18.90885
59.840 17.954681
59.845 17.604134
59.850 17.99807
59.855 18.340528
59.860 18.417641
59.865 18.381968
59.870 18.416754
59.875 19.206007
59.880 19.238708
59.885 18.660852
59.890 18.392117
59.895 18.526182
59.900 18.885767
59.905 18.513145
59.910 17.985935
59.915 17.544464
59.920 17.765335
59.925 18.567122
59.930 18.47776
59.935 18.236652
59.940 18.832569
59.945 19.595556
59.950 20.085415
59.955 20.021162
59.960 19.575739
59.965 19.563791
59.970 19.016714
59.975 18.963057
59.980 19.375376
59.985 19.427633
59.990 19.143684
59.995 18.416523
60.000 18.29188
60.005 18.347069
60.010 18.121635
60.015 18.0464
60.020 18.139469
60.025 18.382809
60.030 18.707016
60.035 19.051743
60.040 19.143303
60.045 19.171764
60.050 19.004765
60.055 19.37191
60.060 19.416346
60.065 20.119518
60.070 20.429674
60.075 20.425234
60.080 20.655594
60.085 20.173885
60.090 19.950411
60.095 20.498213
60.100 20.342016
60.105 19.915644
60.110 19.797886
60.115 19.665215
60.120 20.598448
60.125 20.929283
60.130 21.034744
60.135 21.436359
60.140 21.72567
60.145 22.169399
60.150 21.984964
60.155 21.35022
60.160 21.244492
60.165 20.671404
60.170 20.380987
60.175 20.882635
60.180 21.129454
60.185 21.445936
60.190 21.471249
60.195 21.685028
60.200 21.641922
60.205 21.72298
60.210 21.28817
60.215 21.139299
60.220 21.173422
60.225 21.426849
60.230 21.402441
60.235 21.239666
60.240 20.983679
60.245 20.713352
60.250 20.479792
60.255 20.213465
60.260 19.970404
60.265 19.417608
60.270 19.144583
60.275 19.284903
60.280 19.205858
60.285 19.019096
60.290 19.14938
60.295 19.190023
60.300 19.31893
60.305 19.602736
60.310 19.757906
60.315 20.15066
60.320 20.433754
60.325 20.550041
60.330 20.821011
60.335 21.019079
60.340 20.947405
60.345 20.790264
60.350 20.83227
60.355 20.209316
60.360 20.308205
60.365 20.784027
60.370 21.263903
60.375 21.026117
60.380 20.861252
60.385 21.331411
60.390 21.822561
60.395 21.319906
60.400 20.535486
60.405 20.466959
60.410 20.802292
60.415 20.586626
60.420 20.21586
60.425 20.292509
60.430 21.270937
60.435 21.249857
60.440 20.825174
60.445 20.444271
60.450 20.144629
60.455 19.922596
60.460 19.642193
60.465 19.190365
60.470 19.76498
60.475 20.43272
60.480 20.965149
60.485 21.128893
60.490 21.107151
60.495 21.761084
60.500 21.315842
60.505 21.167776
60.510 20.106224
60.515 19.618458
60.520 19.561525
60.525 19.257816
60.530 18.448336
60.535 18.548437
60.540 17.835333
60.545 18.451483
60.550 18.683279
60.555 19.038034
60.560 19.203211
60.565 19.400053
60.570 19.377373
60.575 19.735281
60.580 19.803946
60.585 20.169996
60.590 20.168652
60.595 20.484449
60.600 19.864756
60.605 19.56398
60.610 19.268833
60.615 19.127457
60.620 19.127907
60.625 19.163363
60.630 19.385883
60.635 19.750854
60.640 19.77866
60.645 20.108898
60.650 20.492043
60.655 19.686256
60.660 19.464779
60.665 19.061321
60.670 18.950113
60.675 18.947092
60.680 19.050953
60.685 18.223642
60.690 18.050491
60.695 17.536526
60.700 17.755297
60.705 18.354998
60.710 18.833939
60.715 18.983456
60.720 19.782009
60.725 20.392565
60.730 21.115749
60.735 21.448162
60.740 21.172077
60.745 20.721125
60.750 19.971952
60.755 19.985905
60.760 20.858255
60.765 20.930386
60.770 20.171623
60.775 19.938255
60.780 19.431633
60.785 19.573999
60.790 18.930874
60.795 18.057487
60.800 17.559843
60.805 17.183987
60.810 16.926697
60.815 16.997583
60.820 17.293724
60.825 17.42358
60.830 16.991373
60.835 17.429283
60.840 18.46966
60.845 18.746361
60.850 19.271868
60.855 18.817558
60.860 18.150953
60.865 18.043804
60.870 17.345659
60.875 17.205339
60.880 17.490431
60.885 17.363506
60.890 18.287495
60.895 18.912071
60.900 19.513983
60.905 19.573671
60.910 19.468168
60.915 19.248859
60.920 18.867596
60.925 18.183165
60.930 17.912195
60.935 17.57103
60.940 17.422436
60.945 17.51296
60.950 17.774103
60.955 18.036106
60.960 18.497274
60.965 18.131447
60.970 17.960905
60.975 18.070314
60.980 18.015217
60.985 17.954466
60.990 18.136915
60.995 17.44676
61.000 17.234953
61.005 16.673992
61.010 16.833923
61.015 16.191053
61.020 15.718204
61.025 15.329347
61.030 15.332267
61.035 15.733549
61.040 16.248287
61.045 15.66341
61.050 15.599065
61.055 14.911475
61.060 14.675584
61.065 14.920929
61.070 15.356565
61.075 15.789493
61.080 16.536808
61.085 17.223627
61.090 18.445133
61.095 18.540283
61.100 18.740677
61.105 18.089838
61.110 17.750473
61.115 17.164309
61.120 16.905714
61.125 16.211473
61.130 16.605076
61.135 16.49902
61.140 16.592306
61.145 16.337296
61.150 16.270834
61.155 16.353783
61.160 16.43265
61.165 15.828037
61.170 16.367022
61.175 17.12752
61.180 17.666637
61.185 18.039145
61.190 17.687708
61.195 17.975426
61.200 18.205006
61.205 17.665487
61.210 17.2299
61.215 16.912703
61.220 16.741831
61.225 17.263306
61.230 17.367397
61.235 17.402277
61.240 17.740025
61.245 17.199873
61.250 17.347759
61.255 17.533815
61.260 17.370068
61.265 17.323988
61.270 17.465019
61.275 17.397118
61.280 17.567062
61.285 17.489819
61.290 17.076681
61.295 17.065441
61.300 17.115479
61.305 16.017359
61.310 15.712307
61.315 15.408262
61.320 16.103722
61.325 16.677782
61.330 16.480455
61.335 15.793543
61.340 16.275204
61.345 16.003656
61.350 15.874295
61.355 15.031004
61.360 14.712109
61.365 14.988229
61.370 15.788901
61.375 15.660449
61.380 16.040609
61.385 16.742884
61.390 17.166723
61.395 17.192459
61.400 17.033298
61.405 16.547192
61.410 16.760296
61.415 16.68425
61.420 16.237215
61.425 16.142023
61.430 15.945241
61.435 15.402612
61.440 15.416617
61.445 15.264526
61.450 15.230279
61.455 15.348844
61.460 15.067987
61.465 15.363423
61.470 16.328043
61.475 17.136793
61.480 17.451603
61.485 17.147337
61.490 17.43034
61.495 17.425894
61.500 17.295818
61.505 16.880707
61.510 16.223003
61.515 16.215425
61.520 16.250402
61.525 16.523218
61.530 16.659056
61.535 16.571409
61.540 16.521812
61.545 16.77561
61.550 16.980982
61.555 17.142168
61.560 16.840052
61.565 16.697489
61.570 16.706619
61.575 16.591974
61.580 16.293005
61.585 16.221724
61.590 16.101833
61.595 15.940234
61.600 16.346987
61.605 16.671589
61.610 17.32247
61.615 17.56188
61.620 17.681532
61.625 18.054106
61.630 17.778072
61.635 17.391937
61.640 16.931377
61.645 16.441654
61.650 16.17543
61.655 15.790486
61.660 15.546542
61.665 16.000572
61.670 16.599596
61.675 17.366001
61.680 17.649139
61.685 17.691465
61.690 17.90423
61.695 17.669689
61.700 17.240051
61.705 17.004704
61.710 16.623077
61.715 16.507463
61.720 16.411402
61.725 16.519175
61.730 16.681232
61.735 16.915119
61.740 16.90531
61.745 16.605745
61.750 16.428253
61.755 16.317869
61.760 16.490263
61.765 16.579685
61.770 16.05658
61.775 15.427848
61.780 15.948616
61.785 16.065281
61.790 16.476986
61.795 16.437307
61.800 16.408087
61.805 17.183699
61.810 18.119011
61.815 18.106291
61.820 18.333126
61.825 17.992725
61.830 18.001417
61.835 17.674088
61.840 17.155493
61.845 16.415794
61.850 16.296339
61.855 16.525452
61.860 16.863205
61.865 17.257526
61.870 17.936533
61.875 18.000172
61.880 17.885044
61.885 18.177795
61.890 17.753008
61.895 17.341452
61.900 16.988312
61.905 16.587429
61.910 16.772501
61.915 16.736376
61.920 16.351843
61.925 16.585537
61.930 16.590752
61.935 16.600306
61.940 17.217474
61.945 17.122675
61.950 17.43062
61.955 17.786036
61.960 17.576851
61.965 17.400908
61.970 17.231005
61.975 17.061716
61.980 16.897341
61.985 16.774355
61.990 16.293238
61.995 15.865262
62.000 15.356484
62.005 14.918558
62.010 15.21089
62.015 15.074118
62.020 14.899887
62.025 15.341522
62.030 15.139546
62.035 15.646116
62.040 16.130823
62.045 15.522346
62.050 15.643562
62.055 15.686062
62.060 15.702535
62.065 16.401501
62.070 16.038177
62.075 16.04521
62.080 16.477011
62.085 16.828884
62.090 16.470901
62.095 16.218479
62.100 16.279343
62.105 16.568012
62.110 16.232643
62.115 15.794289
62.120 15.367693
62.125 15.977921
62.130 16.905977
62.135 16.85524
62.140 16.668739
62.145 16.660696
62.150 17.366673
62.155 17.503948
62.160 17.100731
62.165 16.521156
62.170 17.221901
62.175 18.207731
62.180 18.222782
62.185 17.743256
62.190 17.985483
62.195 17.95507
62.200 17.785475
62.205 16.849691
62.210 16.313805
62.215 16.162518
62.220 16.196138
62.225 16.139784
62.230 15.843616
62.235 16.250269
62.240 16.226709
62.245 16.068342
62.250 16.351486
62.255 16.43096
62.260 16.397392
62.265 16.30624
62.270 15.894096
62.275 16.233934
62.280 16.04965
62.285 15.92071
62.290 15.689769
62.295 15.61381
62.300 15.854974
62.305 16.32407
62.310 17.155355
62.315 17.584473
62.320 17.842083
62.325 18.435688
62.330 18.741848
62.335 18.144981
62.340 17.093485
62.345 15.97117
62.350 15.79887
62.355 15.664576
62.360 15.255288
62.365 15.343534
62.370 15.911992
62.375 16.473763
62.380 16.422012
62.385 16.470961
62.390 16.808064
62.395 17.166689
62.400 17.435225
62.405 17.220221
62.410 16.93187
62.415 17.27121
62.420 17.13521
62.425 16.888844
62.430 16.632215
62.435 16.791103
62.440 17.405516
62.445 17.749281
62.450 18.113859
62.455 18.414257
62.460 18.594805
62.465 18.723455
62.470 18.412865
62.475 18.197571
62.480 17.894815
62.485 17.133039
62.490 16.971188
62.495 16.645451
62.500 16.348913
62.505 16.377541
62.510 16.599974
62.515 16.371004
62.520 16.43516
62.525 16.13328
62.530 16.081059
62.535 16.163651
62.540 16.189274
62.545 16.216248
62.550 16.625654
62.555 16.729782
62.560 16.665735
62.565 16.313803
62.570 16.396004
62.575 15.994566
62.580 15.435899
62.585 15.017929
62.590 14.890676
62.595 15.309145
62.600 15.904653
62.605 15.867931
62.610 15.665994
62.615 15.715816
62.620 16.179337
62.625 16.536966
62.630 16.208033
62.635 16.276249
62.640 16.343819
62.645 16.564873
62.650 16.700424
62.655 15.881296
62.660 15.839448
62.665 15.900318
62.670 15.540988
62.675 15.661279
62.680 16.143793
62.685 16.19919
62.690 16.904573
62.695 16.667877
62.700 16.345194
62.705 16.48329
62.710 16.46237
62.715 16.667284
62.720 17.266811
62.725 17.430288
62.730 17.939287
62.735 18.503687
62.740 18.309742
62.745 18.295403
62.750 18.173393
62.755 17.853563
62.760 17.741959
62.765 17.652782
62.770 17.602943
62.775 17.448874
62.780 17.158951
62.785 16.817804
62.790 16.802898
62.795 16.882521
62.800 16.808744
62.805 16.589968
62.810 16.271727
62.815 16.111826
62.820 16.078444
62.825 15.85826
62.830 16.108284
62.835 16.597525
62.840 16.898634
62.845 17.384981
62.850 17.605442
62.855 17.780172
62.860 18.064125
62.865 18.049511
62.870 17.103546
62.875 16.885216
62.880 16.587845
62.885 16.372707
62.890 16.187807
62.895 15.975585
62.900 15.797029
62.905 15.689122
62.910 15.571038
62.915 15.671766
62.920 15.766613
62.925 15.576003
62.930 15.419423
62.935 14.610209
62.940 15.180125
62.945 15.204931
62.950 14.980145
62.955 15.325272
62.960 15.688526
62.965 15.720162
62.970 16.391151
62.975 16.457047
62.980 17.307817
62.985 17.329597
62.990 16.863411
62.995 16.535189
63.000 17.099867
63.005 17.13431
63.010 16.545149
63.015 16.338446
63.020 16.598391
63.025 16.947054
63.030 17.163116
63.035 17.048376
63.040 17.483829
63.045 17.833601
63.050 17.502554
63.055 17.405935
63.060 17.210255
63.065 17.006962
63.070 16.926125
63.075 16.476507
63.080 16.232677
63.085 15.90743
63.090 15.743314
63.095 16.153713
63.100 16.05751
63.105 16.100214
63.110 16.271158
63.115 16.381495
63.120 16.834715
63.125 17.06181
63.130 16.697701
63.135 16.918812
63.140 16.844196
63.145 16.763702
63.150 16.543928
63.155 16.671297
63.160 16.135618
63.165 16.142706
63.170 15.867177
63.175 15.264678
63.180 15.235459
63.185 15.907797
63.190 16.337259
63.195 16.602114
63.200 16.584686
63.205 16.867809
63.210 16.912888
63.215 16.744261
63.220 16.225504
63.225 15.485927
63.230 15.402171
63.235 15.399792
63.240 15.610269
63.245 15.433855
63.250 15.690448
63.255 16.104498
63.260 16.402205
63.265 16.714235
63.270 16.510235
63.275 16.510218
63.280 16.927906
63.285 16.732733
63.290 16.583185
63.295 16.693474
63.300 16.899237
63.305 17.001869
63.310 16.92753
63.315 17.73753
63.320 18.126238
63.325 18.18778
63.330 18.471943
63.335 18.098269
63.340 18.038734
63.345 17.573864
63.350 17.274359
63.355 17.257597
63.360 17.256977
63.365 17.437407
63.370 17.427732
63.375 17.50704
63.380 17.340223
63.385 17.264503
63.390 17.134735
63.395 16.926151
63.400 16.195913
63.405 16.034605
63.410 16.224771
63.415 16.69857
63.420 16.483807
63.425 16.492966
63.430 16.889534
63.435 17.095663
63.440 17.437416
63.445 17.596514
63.450 17.56428
63.455 18.268314
63.460 18.10531
63.465 17.852251
63.470 18.102003
63.475 18.097019
63.480 18.149223
63.485 17.943815
63.490 16.976206
63.495 17.28406
63.500 17.71137
63.505 17.586899
63.510 17.288815
63.515 17.268181
63.520 17.317156
63.525 17.866295
63.530 17.212223
63.535 16.330833
63.540 16.681532
63.545 16.669533
63.550 16.365189
63.555 16.239845
63.560 15.834753
63.565 16.371023
63.570 16.69174
63.575 16.550325
63.580 16.79944
63.585 16.937223
63.590 16.881956
63.595 17.118925
63.600 16.738888
63.605 16.479086
63.610 15.897422
63.615 15.465014
63.620 15.654704
63.625 16.242783
63.630 16.187408
63.635 16.474707
63.640 16.688486
63.645 17.391617
63.650 17.943993
63.655 18.149561
63.660 18.063284
63.665 18.567507
63.670 18.719597
63.675 18.455917
63.680 18.228077
63.685 18.247931
63.690 18.003788
63.695 17.679857
63.700 16.799202
63.705 16.972044
63.710 16.978401
63.715 16.831678
63.720 17.005152
63.725 16.898058
63.730 16.933922
63.735 17.315308
63.740 17.046593
63.745 17.497631
63.750 17.318008
63.755 17.02384
63.760 16.977732
63.765 16.620378
63.770 16.522207
63.775 16.814726
63.780 16.912888
63.785 16.9776
63.790 16.599865
63.795 17.04294
63.800 17.487545
63.805 17.128435
63.810 16.435497
63.815 16.228811
63.820 15.819248
63.825 15.833719
63.830 15.476052
63.835 16.250668
63.840 16.862062
63.845 17.095793
63.850 17.248606
63.855 17.599199
63.860 18.359173
63.865 18.886518
63.870 18.550714
63.875 18.535917
63.880 18.507402
63.885 18.650036
63.890 18.540525
63.895 17.972563
63.900 17.61717
63.905 17.213552
63.910 16.721573
63.915 16.639841
63.920 16.592762
63.925 16.705099
63.930 16.963848
63.935 16.73749
63.940 16.32477
63.945 16.371859
63.950 16.214745
63.955 15.752146
63.960 15.49649
63.965 15.234603
63.970 15.109186
63.975 15.555995
63.980 15.846942
63.985 15.770576
63.990 16.177849
63.995 16.606188
64.000 16.782118
64.005 17.500605
64.010 18.194515
64.015 18.706717
64.020 19.401861
64.025 19.485123
64.030 19.575861
64.035 19.753019
64.040 19.095177
64.045 19.055975
64.050 19.571623
64.055 19.293524
64.060 19.191126
64.065 19.623241
64.070 20.267776
64.075 20.937084
64.080 20.802315
64.085 20.378792
64.090 20.969538
64.095 21.001989
64.100 20.548313
64.105 19.669413
64.110 18.69771
64.115 18.654699
64.120 18.53574
64.125 18.004957
64.130 17.956837
64.135 18.190975
64.140 18.481075
64.145 19.065449
64.150 18.899805
64.155 18.121054
64.160 17.806061
64.165 17.876865
64.170 17.499748
64.175 17.090046
64.180 16.635252
64.185 16.078789
64.190 16.662605
64.195 16.792803
64.200 16.294605
64.205 15.687417
64.210 15.340316
64.215 15.066495
64.220 15.497751
64.225 15.456712
64.230 15.201291
64.235 15.62632
64.240 16.492262
64.245 17.508041
64.250 17.843016
64.255 17.802618
64.260 17.487516
64.265 17.668219
64.270 17.333433
64.275 16.950729
64.280 16.472218
64.285 16.290304
64.290 16.745991
64.295 16.974989
64.300 17.347202
64.305 18.245813
64.310 18.149679
64.315 18.551319
64.320 18.466259
64.325 17.763992
64.330 17.407454
64.335 16.992769
64.340 16.375587
64.345 16.769501
64.350 16.954662
64.355 17.194738
64.360 18.033888
64.365 18.263258
64.370 18.663664
64.375 18.656637
64.380 18.757008
64.385 18.404734
64.390 18.763605
64.395 18.638094
64.400 18.735903
64.405 18.244888
64.410 18.580336
64.415 17.958254
64.420 17.916323
64.425 17.755091
64.430 17.510939
64.435 17.461689
64.440 17.795341
64.445 18.023302
64.450 18.212999
64.455 18.375237
64.460 18.208872
64.465 18.470972
64.470 18.699167
64.475 18.946138
64.480 18.800577
64.485 18.866491
64.490 19.101147
64.495 18.986467
64.500 18.964916
64.505 19.107191
64.510 19.057072
64.515 19.287838
64.520 19.225328
64.525 19.0765
64.530 18.93503
64.535 19.269627
64.540 19.209568
64.545 18.813
64.550 18.838751
64.555 19.106497
64.560 19.415352
64.565 19.630297
64.570 19.340521
64.575 19.272915
64.580 19.435486
64.585 19.219749
64.590 18.411049
64.595 18.403591
64.600 18.631262
64.605 18.018646
64.610 17.874567
64.615 17.685236
64.620 17.613001
64.625 17.464956
64.630 17.166876
64.635 16.802364
64.640 16.994234
64.645 17.28949
64.650 17.17017
64.655 17.080662
64.660 17.587898
64.665 17.185555
64.670 17.126011
64.675 17.392365
64.680 17.653963
64.685 17.409897
64.690 17.875648
64.695 17.995314
64.700 19.017286
64.705 18.913576
64.710 18.845055
64.715 19.01129
64.720 19.562288
64.725 18.905926
64.730 19.098284
64.735 19.001915
64.740 19.112873
64.745 18.045431
64.750 17.949245
64.755 17.879606
64.760 18.338314
64.765 18.108343
64.770 18.051964
64.775 18.704844
64.780 20.042145
64.785 20.333485
64.790 20.103899
64.795 19.953344
64.800 19.964998
64.805 19.253361
64.810 18.862448
64.815 18.706064
64.820 18.948177
64.825 18.898916
64.830 19.545036
64.835 19.68926
64.840 20.228073
64.845 20.213892
64.850 19.750774
64.855 18.835981
64.860 18.60741
64.865 18.842289
64.870 18.413168
64.875 18.733696
64.880 19.292223
64.885 19.35618
64.890 19.631483
64.895 19.723577
64.900 19.82296
64.905 20.481195
64.910 20.260399
64.915 20.274742
64.920 20.439426
64.925 20.167498
64.930 20.44343
64.935 19.794033
64.940 19.371593
64.945 19.294678
64.950 19.34285
64.955 19.798138
64.960 20.018278
64.965 19.644096
64.970 19.84219
64.975 19.920586
64.980 20.005865
64.985 19.78301
64.990 20.197306
64.995 20.571499
65.000 20.76989
65.005 20.754131
65.010 20.817184
65.015 20.710394
65.020 20.613602
65.025 20.257271
65.030 20.686024
65.035 21.328428
65.040 21.109312
65.045 21.040876
65.050 21.165497
65.055 21.372818
65.060 21.44203
65.065 21.535707
65.070 21.472343
65.075 21.523407
65.080 21.795887
65.085 21.979521
65.090 21.778585
65.095 21.357285
65.100 20.77422
65.105 21.008413
65.110 21.208597
65.115 21.333708
65.120 20.989735
65.125 21.716093
65.130 22.349422
65.135 22.268261
65.140 22.411655
65.145 22.589865
65.150 21.75955
65.155 21.775003
65.160 21.088936
65.165 20.82766
65.170 20.054533
65.175 19.362133
65.180 19.417305
65.185 20.278078
65.190 20.890696
65.195 20.921648
65.200 21.550642
65.205 23.054367
65.210 23.814445
65.215 23.60862
65.220 23.494131
65.225 23.723307
65.230 23.61277
65.235 23.366306
65.240 23.050238
65.245 22.874613
65.250 22.884798
65.255 22.797741
65.260 22.235764
65.265 22.917978
65.270 22.959953
65.275 23.070086
65.280 23.276655
65.285 23.393202
65.290 23.18112
65.295 23.841501
65.300 23.262804
65.305 22.956614
65.310 22.439939
65.315 22.059587
65.320 22.340126
65.325 22.296539
65.330 22.170967
65.335 21.854355
65.340 22.560877
65.345 23.04142
65.350 23.066673
65.355 22.995655
65.360 23.241112
65.365 23.191204
65.370 23.36095
65.375 22.841284
65.380 22.7778
65.385 23.090826
65.390 22.936052
65.395 22.814898
65.400 22.093338
65.405 21.309433
65.410 21.114202
65.415 20.926203
65.420 20.689514
65.425 20.940428
65.430 20.876963
65.435 21.926435
65.440 23.662868
65.445 23.774227
65.450 23.653185
65.455 23.40954
65.460 23.780714
65.465 24.170881
65.470 23.895967
65.475 22.673615
65.480 22.481115
65.485 22.905363
65.490 23.861338
65.495 24.09388
65.500 24.216606
65.505 24.862951
65.510 25.415819
65.515 25.903374
65.520 25.909361
65.525 25.56411
65.530 25.753386
65.535 25.966379
65.540 25.988991
65.545 25.973513
65.550 26.277685
65.555 26.618114
65.560 26.389462
65.565 26.439199
65.570 26.503513
65.575 27.092037
65.580 28.062843
65.585 28.381779
65.590 28.455389
65.595 28.621952
65.600 28.101114
65.605 28.001488
65.610 27.852818
65.615 28.109921
65.620 28.114658
65.625 28.353477
65.630 28.621067
65.635 29.249672
65.640 30.275675
65.645 30.399323
65.650 29.767918
65.655 29.713173
65.660 29.506542
65.665 29.372192
65.670 28.99719
65.675 29.028061
65.680 29.724165
65.685 30.294399
65.690 30.51306
65.695 30.727163
65.700 31.28046
65.705 31.707335
65.710 31.718309
65.715 31.524952
65.720 32.231144
65.725 32.562496
65.730 32.747013
65.735 33.402031
65.740 33.705608
65.745 33.886417
65.750 34.71629
65.755 34.369263
65.760 34.528561
65.765 35.39159
65.770 35.090157
65.775 35.061237
65.780 35.771927
65.785 36.317623
65.790 36.919132
65.795 37.330765
65.800 37.200508
65.805 37.598526
65.810 37.719959
65.815 36.467102
65.820 35.28017
65.825 34.508003
65.830 34.376495
65.835 33.225971
65.840 33.060909
65.845 33.083187
65.850 34.001911
65.855 34.826431
65.860 35.555496
65.865 36.050217
65.870 37.297302
65.875 37.104935
65.880 36.596508
65.885 36.156799
65.890 35.993629
65.895 35.432896
65.900 35.975044
65.905 35.951202
65.910 36.181297
65.915 36.224445
65.920 36.746426
65.925 37.203514
65.930 37.771168
65.935 37.353699
65.940 36.631557
65.945 36.388206
65.950 36.30814
65.955 35.883503
65.960 36.237007
65.965 34.841404
65.970 34.509018
65.975 35.341267
65.980 36.029373
65.985 36.11105
65.990 35.832886
65.995 35.818413
66.000 36.96526
66.005 36.87928
66.010 36.754494
66.015 36.232758
66.020 36.137165
66.025 35.484222
66.030 34.792465
66.035 35.286606
66.040 35.07901
66.045 34.654976
66.050 35.560146
66.055 35.576443
66.060 35.829453
66.065 36.017609
66.070 35.686394
66.075 35.298641
66.080 35.453205
66.085 34.608704
66.090 34.58321
66.095 34.276661
66.100 34.072159
66.105 33.873459
66.110 34.675217
66.115 34.986294
66.120 35.174225
66.125 35.397617
66.130 35.822739
66.135 35.7061
66.140 36.074963
66.145 36.251534
66.150 36.144684
66.155 36.516716
66.160 36.422268
66.165 36.742023
66.170 35.789387
66.175 34.967045
66.180 34.664291
66.185 34.271759
66.190 33.60704
66.195 33.247532
66.200 32.351505
66.205 32.635883
66.210 32.841572
66.215 32.458237
66.220 32.059395
66.225 32.075836
66.230 32.30991
66.235 32.503021
66.240 32.69611
66.245 33.004047
66.250 32.739494
66.255 33.056786
66.260 33.206478
66.265 33.3116
66.270 34.014397
66.275 33.884056
66.280 33.805248
66.285 33.645882
66.290 32.675335
66.295 32.779331
66.300 33.001724
66.305 31.90646
66.310 30.936632
66.315 30.253527
66.320 30.352192
66.325 29.96867
66.330 29.232473
66.335 28.520836
66.340 27.89065
66.345 28.915754
66.350 28.725843
66.355 29.277985
66.360 30.456322
66.365 30.14385
66.370 29.514109
66.375 30.226847
66.380 29.798067
66.385 30.095213
66.390 29.537374
66.395 29.116405
66.400 29.472811
66.405 30.548018
66.410 29.988871
66.415 29.838751
66.420 29.400164
66.425 29.435236
66.430 29.16671
66.435 28.871056
66.440 28.631006
66.445 28.86095
66.450 28.191887
66.455 27.21356
66.460 27.086952
66.465 27.371288
66.470 27.650513
66.475 27.182167
66.480 27.068996
66.485 26.858566
66.490 27.271917
66.495 26.845734
66.500 26.572733
66.505 26.228199
66.510 27.057543
66.515 26.901451
66.520 27.368044
66.525 26.81325
66.530 26.597515
66.535 26.402641
66.540 26.253748
66.545 25.203445
66.550 24.486099
66.555 24.272617
66.560 24.59301
66.565 24.728067
66.570 25.352957
66.575 25.978975
66.580 26.2164
66.585 26.278101
66.590 26.785175
66.595 26.889151
66.600 26.859598
66.605 26.12344
66.610 25.338045
66.615 25.163296
66.620 25.234821
66.625 25.024487
66.630 24.362494
66.635 24.386871
66.640 24.790573
66.645 24.898348
66.650 25.08069
66.655 24.396799
66.660 24.187153
66.665 23.849758
66.670 23.28718
66.675 22.814396
66.680 23.552755
66.685 23.556351
66.690 23.853224
66.695 23.290031
66.700 23.700235
66.705 23.655581
66.710 24.011742
66.715 23.772301
66.720 23.765425
66.725 23.593243
66.730 24.136248
66.735 24.491024
66.740 24.865923
66.745 24.614254
66.750 24.862822
66.755 25.166706
66.760 25.72954
66.765 25.763235
66.770 25.048384
66.775 24.782051
66.780 24.202868
66.785 23.222536
66.790 22.835941
66.795 22.381659
66.800 22.163305
66.805 22.332758
66.810 22.14747
66.815 22.115149
66.820 22.142859
66.825 22.586414
66.830 22.793175
66.835 23.134258
66.840 23.234447
66.845 23.223707
66.850 23.559706
66.855 23.529844
66.860 23.407732
66.865 23.874889
66.870 24.238245
66.875 24.426077
66.880 24.36841
66.885 24.456999
66.890 24.154613
66.895 23.681505
66.900 23.104366
66.905 22.255005
66.910 21.887823
66.915 21.661184
66.920 21.859964
66.925 22.075029
66.930 22.171263
66.935 22.228386
66.940 23.649475
66.945 24.316341
66.950 24.134144
66.955 23.410101
66.960 23.489321
66.965 23.168262
66.970 22.732712
66.975 21.795725
66.980 21.688948
66.985 21.836611
66.990 22.415005
66.995 22.387779
67.000 23.118599
67.005 23.710005
67.010 23.622547
67.015 23.598986
67.020 23.330458
67.025 23.040154
67.030 23.037067
67.035 22.897718
67.040 22.2388
67.045 21.708946
67.050 21.519323
67.055 22.201944
67.060 22.319851
67.065 21.860569
67.070 22.479979
67.075 22.81424
67.080 22.960928
67.085 22.793051
67.090 22.824631
67.095 22.768734
67.100 23.075361
67.105 21.914225
67.110 21.811386
67.115 21.664478
67.120 21.413656
67.125 20.556528
67.130 20.817436
67.135 20.502483
67.140 20.800131
67.145 20.636971
67.150 20.636305
67.155 21.214413
67.160 21.792931
67.165 21.456547
67.170 21.400814
67.175 21.928741
67.180 22.13063
67.185 22.094652
67.190 21.921152
67.195 21.402294
67.200 21.608713
67.205 21.631758
67.210 20.7332
67.215 21.037294
67.220 21.44021
67.225 21.559387
67.230 21.890646
67.235 22.140459
67.240 22.349447
67.245 22.507637
67.250 22.73613
67.255 23.362154
67.260 23.451735
67.265 23.610811
67.270 23.5408
67.275 23.684019
67.280 23.469528
67.285 23.038309
67.290 23.142719
67.295 23.091406
67.300 23.096008
67.305 23.079676
67.310 23.174824
67.315 23.522503
67.320 23.373512
67.325 22.437222
67.330 22.153124
67.335 21.535578
67.340 21.304436
67.345 21.69544
67.350 21.672209
67.355 22.05307
67.360 22.183432
67.365 22.312809
67.370 22.952604
67.375 22.939144
67.380 22.771837
67.385 22.269247
67.390 21.661793
67.395 21.597958
67.400 21.730961
67.405 21.397285
67.410 21.527
67.415 21.223547
67.420 20.938454
67.425 20.635077
67.430 21.102041
67.435 20.764347
67.440 20.962587
67.445 21.066265
67.450 20.807671
67.455 20.798269
67.460 21.183987
67.465 21.018717
67.470 21.018965
67.475 20.208708
67.480 19.716906
67.485 20.563526
67.490 20.884312
67.495 20.523638
67.500 19.977655
67.505 20.186876
67.510 20.885057
67.515 20.749035
67.520 20.804134
67.525 21.107079
67.530 21.316843
67.535 21.786039
67.540 21.709532
67.545 21.763031
67.550 21.809416
67.555 21.782448
67.560 21.831646
67.565 22.015203
67.570 22.282658
67.575 22.497852
67.580 22.706171
67.585 22.662909
67.590 22.379143
67.595 22.484053
67.600 22.49225
67.605 22.457003
67.610 22.545055
67.615 21.924381
67.620 21.932858
67.625 22.375523
67.630 22.799496
67.635 22.851219
67.640 22.746595
67.645 22.716404
67.650 23.307831
67.655 23.464752
67.660 23.092211
67.665 22.774242
67.670 22.44002
67.675 22.673748
67.680 22.782116
67.685 22.671368
67.690 22.418856
67.695 21.860445
67.700 21.655064
67.705 21.192366
67.710 20.61795
67.715 20.383242
67.720 19.568031
67.725 19.490288
67.730 20.330378
67.735 20.800135
67.740 20.673487
67.745 20.653522
67.750 21.29405
67.755 21.845894
67.760 21.44116
67.765 20.368134
67.770 19.936728
67.775 20.443163
67.780 19.740635
67.785 19.022102
67.790 18.89444
67.795 19.483805
67.800 19.812681
67.805 19.768282
67.810 19.428665
67.815 19.474388
67.820 19.542685
67.825 19.733027
67.830 19.57177
67.835 19.684273
67.840 19.905689
67.845 20.228903
67.850 20.531927
67.855 20.691648
67.860 20.979877
67.865 20.688135
67.870 20.776346
67.875 21.047104
67.880 20.705385
67.885 20.987185
67.890 21.047256
67.895 21.045853
67.900 21.398901
67.905 21.410944
67.910 21.181505
67.915 20.990124
67.920 20.482239
67.925 20.199137
67.930 19.905441
67.935 19.570164
67.940 19.434364
67.945 20.043747
67.950 20.522152
67.955 21.116846
67.960 20.622623
67.965 20.675081
67.970 20.87022
67.975 20.362659
67.980 20.27594
67.985 20.18631
67.990 19.744169
67.995 20.018202
68.000 19.735533
68.005 19.963448
68.010 20.564119
68.015 20.722675
68.020 20.941751
68.025 21.225529
68.030 21.890959
68.035 22.09634
68.040 21.866884
68.045 21.171478
68.050 20.618755
68.055 20.512207
68.060 20.474936
68.065 20.020014
68.070 20.283037
68.075 20.3057
68.080 20.912249
68.085 20.73374
68.090 20.481379
68.095 20.929836
68.100 21.020489
68.105 21.057846
68.110 21.050688
68.115 20.730623
68.120 20.542826
68.125 20.853941
68.130 20.251604
68.135 20.016598
68.140 20.198694
68.145 20.13113
68.150 20.055883
68.155 19.839281
68.160 19.776703
68.165 20.472759
68.170 20.724819
68.175 20.103107
68.180 20.453018
68.185 21.029732
68.190 21.576418
68.195 22.048574
68.200 21.937485
68.205 21.905699
68.210 22.233038
68.215 22.084864
68.220 21.948849
68.225 21.70299
68.230 21.639805
68.235 21.463097
68.240 21.731897
68.245 21.995039
68.250 21.70096
68.255 21.407999
68.260 21.182543
68.265 20.769081
68.270 20.941605
68.275 21.081781
68.280 21.006773
68.285 21.516367
68.290 21.721289
68.295 21.628418
68.300 21.31185
68.305 21.121935
68.310 20.945284
68.315 20.591063
68.320 20.940897
68.325 21.253147
68.330 21.194637
68.335 21.770939
68.340 21.808573
68.345 22.095564
68.350 22.251383
68.355 21.919403
68.360 21.354774
68.365 21.406441
68.370 20.902063
68.375 20.590935
68.380 20.708651
68.385 20.472416
68.390 19.874386
68.395 20.286009
68.400 20.22683
68.405 20.539253
68.410 20.860081
68.415 20.424166
68.420 20.750767
68.425 21.140272
68.430 21.197559
68.435 21.544254
68.440 21.383307
68.445 20.902109
68.450 21.02894
68.455 21.164658
68.460 21.747065
68.465 22.033783
68.470 22.104094
68.475 22.203875
68.480 22.666544
68.485 22.920191
68.490 22.46755
68.495 21.67189
68.500 21.706022
68.505 21.575785
68.510 20.919916
68.515 20.2724
68.520 20.175238
68.525 20.028936
68.530 19.970387
68.535 19.255146
68.540 18.776571
68.545 19.728542
68.550 20.258158
68.555 20.470968
68.560 20.762497
68.565 20.840267
68.570 21.371897
68.575 22.333048
68.580 21.595821
68.585 21.043024
68.590 20.878286
68.595 21.514807
68.600 21.961096
68.605 21.997593
68.610 21.321226
68.615 21.833483
68.620 22.053988
68.625 21.728104
68.630 21.514925
68.635 21.130312
68.640 20.785715
68.645 20.599337
68.650 20.452814
68.655 21.190149
68.660 21.551849
68.665 20.984941
68.670 20.928078
68.675 20.713678
68.680 21.341227
68.685 21.224413
68.690 20.447748
68.695 19.550825
68.700 19.880384
68.705 20.338291
68.710 20.756186
68.715 20.797735
68.720 21.03648
68.725 22.04689
68.730 22.932013
68.735 22.944393
68.740 23.038485
68.745 23.173254
68.750 23.169273
68.755 23.111904
68.760 22.602613
68.765 22.259314
68.770 22.249405
68.775 22.126589
68.780 21.820538
68.785 21.050161
68.790 20.208597
68.795 19.651039
68.800 19.980497
68.805 20.151714
68.810 20.08316
68.815 20.572874
68.820 21.305941
68.825 21.644285
68.830 21.438536
68.835 21.356365
68.840 21.219507
68.845 21.112564
68.850 21.249691
68.855 21.017258
68.860 21.244612
68.865 21.41338
68.870 21.783379
68.875 22.250381
68.880 21.949913
68.885 21.528976
68.890 21.741392
68.895 22.280621
68.900 23.054592
68.905 22.467768
68.910 22.784641
68.915 23.306976
68.920 23.243036
68.925 23.345259
68.930 22.743994
68.935 22.788269
68.940 22.967842
68.945 22.630747
68.950 22.988668
68.955 23.259253
68.960 23.396097
68.965 23.568628
68.970 23.228239
68.975 23.601147
68.980 23.888597
68.985 22.961716
68.990 22.797037
68.995 22.688313
69.000 23.469568
69.005 23.985695
69.010 23.499149
69.015 23.043461
69.020 23.449987
69.025 24.521891
69.030 24.98757
69.035 24.785826
69.040 24.484303
69.045 24.308355
69.050 24.202276
69.055 23.836008
69.060 23.434523
69.065 23.345716
69.070 23.068672
69.075 23.558048
69.080 24.143785
69.085 24.492706
69.090 25.155937
69.095 24.780424
69.100 25.177998
69.105 25.871357
69.110 25.620703
69.115 26.175291
69.120 26.518299
69.125 26.291477
69.130 25.963375
69.135 25.441881
69.140 25.153801
69.145 25.404243
69.150 24.859793
69.155 25.059109
69.160 25.560459
69.165 26.132196
69.170 25.901829
69.175 25.763454
69.180 25.277807
69.185 26.026638
69.190 25.788988
69.195 25.157705
69.200 24.842688
69.205 24.776659
69.210 25.070061
69.215 25.197937
69.220 25.026678
69.225 24.933893
69.230 25.000189
69.235 24.992548
69.240 25.628431
69.245 25.605761
69.250 25.730646
69.255 25.713892
69.260 26.077904
69.265 26.4161
69.270 27.212904
69.275 27.006617
69.280 26.86389
69.285 27.710674
69.290 27.400833
69.295 27.389048
69.300 27.767651
69.305 27.588154
69.310 27.251604
69.315 26.533583
69.320 25.777769
69.325 25.873781
69.330 26.062801
69.335 25.993494
69.340 25.570511
69.345 26.344353
69.350 27.676332
69.355 28.066957
69.360 28.370417
69.365 27.968985
69.370 27.387533
69.375 28.16391
69.380 28.808146
69.385 28.157463
69.390 27.952993
69.395 27.661388
69.400 27.897188
69.405 27.906391
69.410 27.536858
69.415 27.148399
69.420 27.590265
69.425 27.472639
69.430 28.131069
69.435 28.274487
69.440 28.639868
69.445 28.332472
69.450 27.643377
69.455 27.416817
69.460 27.37112
69.465 26.878696
69.470 26.855135
69.475 26.641512
69.480 27.175581
69.485 27.466066
69.490 27.864567
69.495 28.330433
69.500 28.796524
69.505 29.102335
69.510 29.864979
69.515 29.609402
69.520 30.184147
69.525 30.275669
69.530 30.430796
69.535 30.868816
69.540 30.461834
69.545 30.786781
69.550 31.155554
69.555 30.48451
69.560 30.061125
69.565 29.368345
69.570 28.714169
69.575 29.225985
69.580 27.891842
69.585 27.649233
69.590 27.845488
69.595 28.429268
69.600 28.757175
69.605 28.199514
69.610 28.043818
69.615 28.146502
69.620 28.025572
69.625 27.471853
69.630 27.080936
69.635 26.876799
69.640 26.738922
69.645 26.361898
69.650 26.586514
69.655 26.674931
69.660 26.355227
69.665 26.416817
69.670 26.232235
69.675 26.432882
69.680 26.583693
69.685 26.14258
69.690 26.397791
69.695 26.728926
69.700 26.864616
69.705 26.611399
69.710 26.423384
69.715 26.316837
69.720 26.575567
69.725 26.170483
69.730 25.708527
69.735 25.581684
69.740 26.031673
69.745 26.092236
69.750 25.941435
69.755 25.865673
69.760 26.466242
69.765 27.263935
69.770 27.46665
69.775 27.117094
69.780 26.83746
69.785 27.141129
69.790 26.996002
69.795 26.551159
69.800 26.274483
69.805 26.228937
69.810 26.472286
69.815 26.948553
69.820 27.361847
69.825 27.441547
69.830 27.055552
69.835 26.611673
69.840 26.361807
69.845 26.2701
69.850 25.428232
69.855 24.621191
69.860 24.405798
69.865 24.627686
69.870 24.589157
69.875 24.584364
69.880 24.513239
69.885 24.785975
69.890 25.094868
69.895 24.705732
69.900 24.370813
69.905 24.230726
69.910 23.895384
69.915 23.646917
69.920 22.982597
69.925 22.430225
69.930 21.890818
69.935 21.518007
69.940 21.276443
69.945 21.596357
69.950 21.756901
69.955 21.313679
69.960 21.495739
69.965 21.372751
69.970 20.983027
69.975 20.813814
69.980 20.544302
69.985 20.687555
69.990 21.04995
69.995 20.440092
70.000 20.709846
70.005 20.815224
70.010 20.450945
70.015 20.543896
70.020 20.30106
70.025 20.935005
70.030 21.393572
70.035 21.494118
70.040 21.56134
70.045 21.935789
70.050 21.806074
70.055 22.01326
70.060 21.954689
70.065 21.909843
70.070 21.621557
70.075 21.526556
70.080 21.15172
70.085 20.571095
70.090 20.49728
70.095 20.268024
70.100 20.152134
70.105 20.286686
70.110 20.36145
70.115 20.658268
70.120 20.775181
70.125 20.52112
70.130 20.913469
70.135 21.054731
70.140 21.279453
70.145 20.864731
70.150 20.981979
70.155 21.294725
70.160 21.101236
70.165 20.617271
70.170 20.078894
70.175 19.841869
70.180 19.821739
70.185 19.771082
70.190 19.670635
70.195 19.535149
70.200 19.541683
70.205 20.404253
70.210 20.29035
70.215 20.275179
70.220 19.785002
70.225 20.1143
70.230 20.297604
70.235 19.887669
70.240 19.284584
70.245 19.479139
70.250 20.113083
70.255 20.258677
70.260 19.869671
70.265 19.980373
70.270 20.146395
70.275 20.08322
70.280 19.491955
70.285 19.775373
70.290 20.188423
70.295 20.373287
70.300 20.333408
70.305 20.178385
70.310 20.682278
70.315 20.61788
70.320 19.944004
70.325 19.680014
70.330 19.389086
70.335 19.571068
70.340 19.360229
70.345 19.164021
70.350 18.633116
70.355 18.701334
70.360 18.860979
70.365 19.087116
70.370 18.842375
70.375 19.049877
70.380 19.668245
70.385 19.986971
70.390 20.53891
70.395 20.314602
70.400 20.024637
70.405 20.057127
70.410 19.405811
70.415 18.626617
70.420 18.278681
70.425 17.282007
70.430 17.444498
70.435 17.680279
70.440 17.600082
70.445 17.91202
70.450 18.747675
70.455 18.942358
70.460 19.537966
70.465 19.351593
70.470 19.388147
70.475 19.575598
70.480 20.00095
70.485 19.880041
70.490 19.37042
70.495 18.857613
70.500 19.331875
70.505 19.751406
70.510 20.432405
70.515 20.491501
70.520 20.184591
70.525 20.83411
70.530 20.946629
70.535 20.538364
70.540 20.359251
70.545 20.221714
70.550 20.002365
70.555 20.160032
70.560 20.481339
70.565 20.399147
70.570 20.016718
70.575 19.95232
70.580 19.316784
70.585 19.791479
70.590 19.264006
70.595 19.053038
70.600 19.53558
70.605 19.684713
70.610 19.423576
70.615 18.860003
70.620 19.020348
70.625 18.914783
70.630 18.524782
70.635 18.505049
70.640 19.12674
70.645 19.261339
70.650 19.495749
70.655 20.091179
70.660 20.705462
70.665 20.664209
70.670 20.578993
70.675 19.501007
70.680 19.528229
70.685 19.613901
70.690 19.249054
70.695 19.127035
70.700 19.109112
70.705 19.533451
70.710 19.996454
70.715 19.528069
70.720 19.157379
70.725 19.095518
70.730 19.16036
70.735 19.358089
70.740 19.076496
70.745 18.859362
70.750 19.344078
70.755 19.419163
70.760 18.902779
70.765 18.475286
70.770 18.259094
70.775 18.663902
70.780 19.355244
70.785 19.656881
70.790 19.78253
70.795 20.137899
70.800 20.371212
70.805 19.597063
70.810 19.250153
70.815 18.775375
70.820 18.926641
70.825 18.992752
70.830 19.420574
70.835 19.592443
70.840 20.466562
70.845 21.181555
70.850 21.040295
70.855 19.945036
70.860 19.648129
70.865 19.770391
70.870 19.482857
70.875 19.069008
70.880 18.718864
70.885 19.363615
70.890 20.121887
70.895 20.018749
70.900 20.219259
70.905 20.118706
70.910 19.832399
70.915 19.945381
70.920 19.350456
70.925 18.994713
70.930 18.685596
70.935 18.108768
70.940 17.933674
70.945 17.819601
70.950 17.734901
70.955 17.732975
70.960 17.976521
70.965 18.229996
70.970 18.260187
70.975 18.465122
70.980 18.181566
70.985 17.868755
70.990 18.138361
70.995 18.243076
71.000 18.356432
71.005 18.372618
71.010 18.425732
71.015 18.88595
71.020 19.544508
71.025 18.837309
71.030 18.086082
71.035 17.953358
71.040 17.730648
71.045 17.8169
71.050 17.186974
71.055 17.49893
71.060 18.799889
71.065 19.596394
71.070 19.72773
71.075 19.856709
71.080 20.246683
71.085 20.618916
71.090 20.158962
71.095 19.207462
71.100 18.643496
71.105 19.426239
71.110 19.511065
71.115 19.049965
71.120 18.933342
71.125 18.347963
71.130 18.892307
71.135 18.949558
71.140 18.937777
71.145 19.371157
71.150 19.534506
71.155 19.757706
71.160 19.988256
71.165 19.813694
71.170 19.665058
71.175 18.913902
71.180 18.761282
71.185 19.563265
71.190 19.443205
71.195 19.16954
71.200 18.898884
71.205 19.136349
71.210 19.459244
71.215 18.961134
71.220 18.273767
71.225 18.673429
71.230 19.626617
71.235 19.697891
71.240 19.499662
71.245 19.521357
71.250 19.690584
71.255 19.779354
71.260 19.530493
71.265 19.931763
71.270 19.990423
71.275 20.056665
71.280 19.869448
71.285 19.492168
71.290 19.104082
71.295 18.97089
71.300 18.289171
71.305 18.21162
71.310 18.332249
71.315 18.598267
71.320 19.124878
71.325 19.398743
71.330 20.166761
71.335 20.543415
71.340 20.257725
71.345 19.674217
71.350 19.081566
71.355 18.507214
71.360 18.1817
71.365 17.133871
71.370 17.685078
71.375 18.717466
71.380 19.044823
71.385 19.193712
71.390 19.724157
71.395 19.825155
71.400 19.318529
71.405 18.621689
71.410 18.702482
71.415 19.290503
71.420 19.317827
71.425 19.016439
71.430 19.17778
71.435 19.356977
71.440 19.827637
71.445 19.655058
71.450 19.610142
71.455 19.544775
71.460 19.610353
71.465 19.566324
71.470 19.730976
71.475 18.852497
71.480 17.902374
71.485 17.57148
71.490 17.711361
71.495 18.137993
71.500 18.39938
71.505 18.331841
71.510 19.534389
71.515 20.154102
71.520 20.454464
71.525 20.032425
71.530 19.008253
71.535 18.614546
71.540 17.883579
71.545 17.740458
71.550 18.231478
71.555 18.780647
71.560 18.712563
71.565 18.872326
71.570 18.697227
71.575 19.06566
71.580 18.325319
71.585 17.798651
71.590 17.249844
71.595 17.347239
71.600 17.66324
71.605 17.52121
71.610 17.532064
71.615 17.692102
71.620 18.12751
71.625 18.682074
71.630 19.474842
71.635 19.811184
71.640 19.832659
71.645 19.836908
71.650 19.919044
71.655 19.21303
71.660 18.795479
71.665 18.551723
71.670 18.250631
71.675 18.755152
71.680 19.155861
71.685 19.244379
71.690 19.335911
71.695 19.707331
71.700 19.499315
71.705 19.810246
71.710 18.885258
71.715 18.486771
71.720 18.720228
71.725 18.939444
71.730 19.104025
71.735 19.195576
71.740 19.344852
71.745 19.847231
71.750 19.301012
71.755 19.030453
71.760 19.513371
71.765 19.084011
71.770 19.052376
71.775 19.50635
71.780 19.726177
71.785 20.149557
71.790 19.754114
71.795 19.40873
71.800 19.32058
71.805 18.755377
71.810 18.953766
71.815 18.743755
71.820 19.021145
71.825 19.164602
71.830 18.900686
71.835 19.074884
71.840 19.298695
71.845 19.292946
71.850 19.302652
71.855 18.660959
71.860 18.304922
71.865 18.596476
71.870 18.996971
71.875 19.29735
71.880 19.000473
71.885 19.177557
71.890 19.376379
71.895 18.939579
71.900 18.72246
71.905 18.285688
71.910 17.576292
71.915 17.60428
71.920 17.682425
71.925 17.672216
71.930 17.707176
71.935 17.296795
71.940 17.191423
71.945 17.272219
71.950 16.978548
71.955 17.054014
71.960 17.257381
71.965 18.098961
71.970 18.735306
71.975 18.773432
71.980 19.200687
71.985 19.738867
71.990 19.678114
71.995 19.725586
72.000 19.557692
72.005 18.915194
72.010 19.278582
72.015 19.068775
72.020 19.228296
72.025 19.36517
72.030 19.231112
72.035 19.420263
72.040 19.981258
72.045 19.597414
72.050 18.798578
72.055 18.73065
72.060 19.118017
72.065 18.677378
72.070 18.172182
72.075 17.737928
72.080 17.830523
72.085 18.547695
72.090 18.15333
72.095 17.671614
72.100 18.338818
72.105 18.197918
72.110 17.995916
72.115 17.734104
72.120 17.496733
72.125 17.883163
72.130 18.142212
72.135 18.302639
72.140 18.526737
72.145 18.839117
72.150 18.540974
72.155 17.894974
72.160 17.302643
72.165 16.956755
72.170 16.956562
72.175 16.690035
72.180 17.223885
72.185 18.079098
72.190 18.672606
72.195 18.867474
72.200 19.404297
72.205 19.98687
72.210 19.693373
72.215 19.289131
72.220 18.923172
72.225 18.705524
72.230 18.450996
72.235 18.040844
72.240 18.002249
72.245 18.426476
72.250 18.260529
72.255 18.713879
72.260 18.537849
72.265 18.963011
72.270 18.74828
72.275 18.167263
72.280 17.661293
72.285 16.672977
72.290 15.844161
72.295 16.082552
72.300 15.651234
72.305 15.81453
72.310 16.04944
72.315 16.457747
72.320 17.174019
72.325 17.513611
72.330 17.449659
72.335 17.302153
72.340 17.304842
72.345 17.358822
72.350 17.473135
72.355 17.627113
72.360 17.627249
72.365 17.580629
72.370 18.004929
72.375 18.417458
72.380 18.97311
72.385 19.139833
72.390 19.49703
72.395 19.856205
72.400 19.637283
72.405 19.356316
72.410 19.23173
72.415 18.985485
72.420 18.841909
72.425 18.024473
72.430 18.097351
72.435 17.786234
72.440 18.019175
72.445 17.753141
72.450 17.386883
72.455 17.51837
72.460 17.706936
72.465 17.271189
72.470 18.085464
72.475 18.01799
72.480 18.563139
72.485 18.684752
72.490 19.020079
72.495 19.420454
72.500 19.894207
72.505 19.290461
72.510 18.79003
72.515 19.135485
72.520 19.138882
72.525 18.767284
72.530 18.366541
72.535 18.121714
72.540 18.552181
72.545 18.834087
72.550 18.323734
72.555 18.596231
72.560 18.87936
72.565 18.606007
72.570 18.395119
72.575 17.974545
72.580 18.250586
72.585 18.655767
72.590 18.984011
72.595 18.809427
72.600 18.948706
72.605 19.118744
72.610 19.381672
72.615 19.163465
72.620 18.626221
72.625 18.044085
72.630 17.931524
72.635 18.699255
72.640 19.02866
72.645 18.692722
72.650 19.365234
72.655 19.548069
72.660 19.826
72.665 19.530603
72.670 18.746462
72.675 18.735834
72.680 18.331274
72.685 17.882433
72.690 17.807051
72.695 18.044077
72.700 18.329781
72.705 18.345102
72.710 18.167933
72.715 17.99605
72.720 17.735916
72.725 17.454006
72.730 17.100754
72.735 17.029547
72.740 16.993784
72.745 17.078371
72.750 16.856524
72.755 16.9646
72.760 17.364338
72.765 17.639717
72.770 17.970661
72.775 17.538584
72.780 17.324759
72.785 17.693743
72.790 17.834322
72.795 17.462503
72.800 17.63414
72.805 17.36503
72.810 17.857655
72.815 18.118111
72.820 18.024977
72.825 17.944357
72.830 18.08515
72.835 18.145182
72.840 17.829884
72.845 17.575275
72.850 17.884829
72.855 17.865459
72.860 17.775177
72.865 17.058205
72.870 16.939837
72.875 17.62607
72.880 18.232832
72.885 17.420465
72.890 17.146694
72.895 17.521122
72.900 17.621765
72.905 17.459486
72.910 17.104042
72.915 16.815207
72.920 17.361866
72.925 17.339952
72.930 17.296926
72.935 17.218138
72.940 17.354609
72.945 17.43824
72.950 17.252537
72.955 16.887602
72.960 16.574108
72.965 17.018152
72.970 17.309591
72.975 17.231218
72.980 17.206541
72.985 17.265568
72.990 17.299477
72.995 17.582947
73.000 17.246099
