!@!!GADDS PLOTSO FILE: Chi integration type
!@!!Title/SampleName: map-80
!@!!Comment: ?
!@!!User: Bruker Instrument Administrator
!@!!Site: University of Illinois Chicago
!@!!Frame: map-80_01_000.gfrm
!@!!Wavelengths    1.54184   1.54056   1.54439
!@!!Frame angles: 2Theta: 63.000 Omega: 50.000 Phi: 0.000 Chi: 90.000
!@!!Integration range: 2Theta: 53.000 to 73.000  Gamma: -105.000 to -75.000
!@!!Integration method: bin normalized
!@!N
!@!SS
!@!M
!@!L 0.0 0.0 0.0 0.0
!@!XDegrees
!@!YCounts
53.000 9.741098
53.005 9.911337
53.010 10.0102
53.015 9.516633
53.020 9.407204
53.025 9.993687
53.030 10.118306
53.035 10.48237
53.040 10.723949
53.045 10.48099
53.050 10.718603
53.055 10.504722
53.060 9.830957
53.065 9.686822
53.070 9.50669
53.075 9.134438
53.080 9.083778
53.085 8.85594
53.090 9.046636
53.095 9.487978
53.100 9.497939
53.105 9.330705
53.110 9.262164
53.115 10.137218
53.120 10.591021
53.125 10.412217
53.130 10.406629
53.135 10.429134
53.140 11.061639
53.145 10.883045
53.150 10.416751
53.155 10.30135
53.160 10.259849
53.165 10.082451
53.170 9.964749
53.175 9.397964
53.180 9.51641
53.185 9.482618
53.190 9.359636
53.195 9.695722
53.200 9.592597
53.205 9.493486
53.210 9.890347
53.215 9.906363
53.220 9.921378
53.225 9.999153
53.230 9.672805
53.235 10.04744
53.240 10.346973
53.245 10.669821
53.250 10.941925
53.255 11.093356
53.260 10.893132
53.265 10.876881
53.270 10.830239
53.275 10.340055
53.280 10.322026
53.285 10.605127
53.290 10.459334
53.295 10.968007
53.300 11.485744
53.305 11.648904
53.310 11.845517
53.315 11.469754
53.320 11.177691
53.325 11.365072
53.330 10.575506
53.335 9.908236
53.340 9.805943
53.345 10.060152
53.350 10.078861
53.355 10.313149
53.360 10.138439
53.365 10.638499
53.370 10.700709
53.375 10.537647
53.380 10.165347
53.385 10.527914
53.390 10.923614
53.395 10.909966
53.400 10.710423
53.405 11.040444
53.410 11.204789
53.415 11.663286
53.420 11.399189
53.425 11.38662
53.430 11.092463
53.435 10.982552
53.440 10.656919
53.445 10.351417
53.450 9.949509
53.455 9.832108
53.460 10.308631
53.465 11.219974
53.470 11.615965
53.475 12.150297
53.480 12.580315
53.485 12.554814
53.490 12.294221
53.495 11.998258
53.500 11.659735
53.505 11.399645
53.510 11.023138
53.515 10.890165
53.520 11.112398
53.525 10.960585
53.530 10.936585
53.535 10.790418
53.540 10.495784
53.545 10.63028
53.550 10.550166
53.555 10.779858
53.560 10.79987
53.565 10.667676
53.570 11.222168
53.575 11.618859
53.580 11.910611
53.585 11.974046
53.590 11.749778
53.595 12.120378
53.600 12.105513
53.605 11.505442
53.610 11.515813
53.615 11.6609
53.620 11.700556
53.625 11.719355
53.630 11.88812
53.635 12.51811
53.640 13.060237
53.645 12.495644
53.650 11.867695
53.655 12.29178
53.660 12.045074
53.665 11.483613
53.670 10.872667
53.675 10.974676
53.680 10.931752
53.685 10.998591
53.690 10.829851
53.695 10.998669
53.700 11.273614
53.705 11.201784
53.710 11.335662
53.715 11.6216
53.720 11.561666
53.725 11.342685
53.730 11.356153
53.735 11.103606
53.740 10.356447
53.745 9.809077
53.750 9.613653
53.755 9.645217
53.760 10.02742
53.765 9.672283
53.770 9.97107
53.775 10.174486
53.780 10.467422
53.785 10.784556
53.790 10.810554
53.795 11.084272
53.800 11.363414
53.805 11.364533
53.810 11.683527
53.815 11.534194
53.820 11.145213
53.825 11.169715
53.830 10.570861
53.835 10.656541
53.840 11.135254
53.845 11.241267
53.850 11.001837
53.855 10.792903
53.860 10.204676
53.865 10.285586
53.870 9.981243
53.875 9.640993
53.880 9.749272
53.885 10.101912
53.890 10.59146
53.895 10.912829
53.900 10.345789
53.905 10.697025
53.910 10.925915
53.915 11.057319
53.920 11.510072
53.925 11.125169
53.930 11.390246
53.935 11.631479
53.940 11.542384
53.945 11.413709
53.950 11.031325
53.955 11.087848
53.960 11.42547
53.965 11.524816
53.970 11.112132
53.975 10.504125
53.980 10.56594
53.985 10.425407
53.990 10.356297
53.995 10.214441
54.000 10.375316
54.005 11.134668
54.010 11.455742
54.015 11.536362
54.020 11.86178
54.025 11.871202
54.030 12.475212
54.035 12.535987
54.040 13.058765
54.045 13.354903
54.050 13.542577
54.055 13.993886
54.060 13.871768
54.065 13.595351
54.070 13.064674
54.075 12.748667
54.080 12.406837
54.085 12.430719
54.090 12.119268
54.095 12.348241
54.100 12.190104
54.105 11.770847
54.110 11.1442
54.115 11.068706
54.120 10.453035
54.125 9.866069
54.130 9.813864
54.135 10.344775
54.140 10.430419
54.145 10.693798
54.150 10.894179
54.155 11.23204
54.160 11.891469
54.165 11.612532
54.170 11.746791
54.175 12.044273
54.180 12.553442
54.185 12.309737
54.190 12.254867
54.195 12.243393
54.200 12.049788
54.205 11.947737
54.210 11.550119
54.215 11.011499
54.220 11.065775
54.225 10.679706
54.230 10.676339
54.235 10.5308
54.240 10.394814
54.245 10.57764
54.250 10.279531
54.255 10.402601
54.260 10.072928
54.265 10.091067
54.270 10.621571
54.275 10.612078
54.280 10.807631
54.285 11.490458
54.290 12.041284
54.295 12.477607
54.300 12.828961
54.305 12.593421
54.310 12.655773
54.315 13.088483
54.320 12.776238
54.325 12.289192
54.330 11.840958
54.335 12.078418
54.340 12.512133
54.345 12.606206
54.350 12.053003
54.355 12.215279
54.360 12.232268
54.365 12.311205
54.370 11.620799
54.375 11.494115
54.380 11.190448
54.385 10.816666
54.390 10.985847
54.395 11.03216
54.400 11.216928
54.405 11.327559
54.410 10.834835
54.415 11.113958
54.420 11.194079
54.425 10.672535
54.430 10.831122
54.435 10.860575
54.440 11.097569
54.445 11.342947
54.450 11.435302
54.455 11.320033
54.460 11.553724
54.465 11.889135
54.470 12.095966
54.475 12.446105
54.480 12.140479
54.485 12.473126
54.490 12.993807
54.495 12.663299
54.500 12.320814
54.505 11.494609
54.510 11.480232
54.515 11.374162
54.520 11.545817
54.525 11.826806
54.530 11.838654
54.535 11.926067
54.540 12.498705
54.545 12.359754
54.550 12.651559
54.555 11.96525
54.560 11.505579
54.565 11.305499
54.570 11.248917
54.575 11.107018
54.580 11.324119
54.585 10.902275
54.590 10.823372
54.595 11.287765
54.600 11.761004
54.605 12.198112
54.610 12.110796
54.615 12.235723
54.620 12.490284
54.625 12.758662
54.630 13.005422
54.635 12.945489
54.640 12.368194
54.645 12.239449
54.650 12.29909
54.655 12.187477
54.660 12.001599
54.665 11.985544
54.670 11.89331
54.675 12.160138
54.680 12.553687
54.685 12.975912
54.690 13.391571
54.695 13.00131
54.700 12.378923
54.705 12.386789
54.710 12.65568
54.715 12.687558
54.720 12.204343
54.725 11.583778
54.730 11.748781
54.735 11.950426
54.740 11.658636
54.745 11.085061
54.750 10.777015
54.755 10.928413
54.760 11.120724
54.765 11.246077
54.770 11.593835
54.775 11.984555
54.780 11.975711
54.785 11.678905
54.790 11.619011
54.795 12.02678
54.800 12.15231
54.805 11.667028
54.810 11.596813
54.815 12.095332
54.820 12.973324
54.825 13.183091
54.830 12.866011
54.835 12.60384
54.840 12.868352
54.845 12.60154
54.850 12.493677
54.855 11.744
54.860 11.423687
54.865 11.227839
54.870 11.173444
54.875 11.34149
54.880 11.405432
54.885 11.505038
54.890 11.92257
54.895 12.262847
54.900 12.825961
54.905 12.614434
54.910 12.684667
54.915 12.843362
54.920 12.663247
54.925 12.306818
54.930 12.159544
54.935 11.764055
54.940 11.509582
54.945 11.227326
54.950 11.312629
54.955 11.227688
54.960 11.403506
54.965 11.313832
54.970 11.557194
54.975 11.673429
54.980 11.802647
54.985 11.641933
54.990 11.67078
54.995 11.797369
55.000 11.69728
55.005 11.91372
55.010 11.897494
55.015 12.08274
55.020 11.94482
55.025 11.82579
55.030 11.700194
55.035 11.547829
55.040 11.507195
55.045 11.590143
55.050 11.505612
55.055 11.725222
55.060 11.716689
55.065 11.591869
55.070 11.731363
55.075 11.880802
55.080 11.9832
55.085 12.081305
55.090 12.280296
55.095 12.804148
55.100 13.151304
55.105 13.237846
55.110 13.291563
55.115 13.221463
55.120 13.209622
55.125 13.040626
55.130 12.761173
55.135 13.167761
55.140 13.353329
55.145 13.406491
55.150 13.355878
55.155 13.120458
55.160 13.310268
55.165 13.694298
55.170 13.40303
55.175 12.809967
55.180 12.499577
55.185 12.56995
55.190 13.080408
55.195 13.23941
55.200 12.481326
55.205 12.666778
55.210 12.816733
55.215 12.766097
55.220 12.618803
55.225 12.241484
55.230 11.756327
55.235 11.915929
55.240 12.287069
55.245 12.911612
55.250 13.083393
55.255 13.404831
55.260 12.879688
55.265 12.988442
55.270 13.10043
55.275 13.106301
55.280 12.503555
55.285 12.486826
55.290 12.302322
55.295 12.762744
55.300 12.709138
55.305 12.390474
55.310 12.333529
55.315 12.877633
55.320 12.741
55.325 12.574649
55.330 12.123448
55.335 12.523556
55.340 12.442292
55.345 12.094755
55.350 11.964193
55.355 12.097146
55.360 12.270555
55.365 12.632288
55.370 12.116945
55.375 11.776012
55.380 11.96207
55.385 12.289591
55.390 12.922066
55.395 12.808428
55.400 12.757926
55.405 12.652212
55.410 13.087046
55.415 12.832635
55.420 12.549678
55.425 12.281648
55.430 12.780067
55.435 13.200606
55.440 13.169725
55.445 13.027455
55.450 13.21263
55.455 13.125403
55.460 12.772962
55.465 12.50313
55.470 12.369856
55.475 12.496014
55.480 12.753408
55.485 12.629839
55.490 12.9757
55.495 13.131322
55.500 13.737136
55.505 14.199093
55.510 14.309611
55.515 14.038431
55.520 14.546807
55.525 14.658049
55.530 14.647929
55.535 13.853639
55.540 13.456258
55.545 13.440037
55.550 13.563616
55.555 13.054062
55.560 12.939902
55.565 13.160158
55.570 13.333674
55.575 14.131491
55.580 14.287899
55.585 14.454625
55.590 14.521389
55.595 14.382278
55.600 13.728084
55.605 13.264043
55.610 12.590235
55.615 12.166311
55.620 11.739429
55.625 11.211423
55.630 11.573044
55.635 11.786724
55.640 11.898911
55.645 12.129734
55.650 12.299891
55.655 12.232877
55.660 12.435031
55.665 11.859827
55.670 12.366968
55.675 12.287889
55.680 12.125634
55.685 12.719252
55.690 12.979491
55.695 13.314617
55.700 13.43194
55.705 13.675783
55.710 14.022119
55.715 14.183541
55.720 13.914644
55.725 13.937599
55.730 13.905914
55.735 13.519373
55.740 13.048863
55.745 12.980806
55.750 12.767025
55.755 12.036801
55.760 11.863925
55.765 12.092913
55.770 12.364718
55.775 12.179543
55.780 12.268446
55.785 12.622015
55.790 13.349846
55.795 13.254319
55.800 13.083975
55.805 13.468436
55.810 13.472599
55.815 13.976357
55.820 13.775346
55.825 13.813804
55.830 14.188315
55.835 15.102322
55.840 15.453237
55.845 14.998824
55.850 14.889293
55.855 15.255106
55.860 14.579074
55.865 13.882848
55.870 13.397964
55.875 13.54346
55.880 13.804465
55.885 13.354635
55.890 13.630995
55.895 14.013386
55.900 14.493092
55.905 14.457944
55.910 14.671056
55.915 14.635136
55.920 14.553131
55.925 14.393073
55.930 14.599102
55.935 14.401778
55.940 14.23014
55.945 14.682933
55.950 14.794515
55.955 15.422224
55.960 15.500644
55.965 15.127698
55.970 15.240808
55.975 14.734115
55.980 14.489121
55.985 14.353251
55.990 13.686951
55.995 13.557148
56.000 14.069225
56.005 13.950188
56.010 13.972198
56.015 13.164625
56.020 13.086893
56.025 13.085796
56.030 13.561395
56.035 13.517424
56.040 13.134938
56.045 12.901565
56.050 13.872318
56.055 14.65427
56.060 14.809299
56.065 14.629306
56.070 14.349459
56.075 14.598435
56.080 14.549951
56.085 13.921333
56.090 13.201596
56.095 13.222892
56.100 12.768866
56.105 13.328234
56.110 13.154737
56.115 12.893022
56.120 12.664287
56.125 13.007133
56.130 13.021459
56.135 13.235609
56.140 13.222694
56.145 13.532866
56.150 13.871965
56.155 13.944097
56.160 13.319511
56.165 12.908008
56.170 12.575494
56.175 12.575522
56.180 12.677249
56.185 12.481887
56.190 12.614562
56.195 13.476892
56.200 13.716224
56.205 13.551468
56.210 13.292583
56.215 13.07354
56.220 13.17764
56.225 13.253915
56.230 12.817456
56.235 13.41695
56.240 14.044879
56.245 14.015534
56.250 14.464943
56.255 14.785822
56.260 14.559212
56.265 14.945528
56.270 15.041179
56.275 14.88039
56.280 14.514413
56.285 14.065714
56.290 14.101558
56.295 14.138357
56.300 13.883091
56.305 13.554922
56.310 13.935138
56.315 14.373401
56.320 14.52657
56.325 14.51305
56.330 14.682425
56.335 14.743924
56.340 14.850666
56.345 14.457469
56.350 14.287316
56.355 14.285054
56.360 14.674205
56.365 14.287578
56.370 13.876492
56.375 13.897919
56.380 13.552915
56.385 13.472889
56.390 12.768991
56.395 12.191513
56.400 12.714365
56.405 12.738024
56.410 12.78985
56.415 12.711637
56.420 12.907824
56.425 12.910861
56.430 12.764296
56.435 12.754571
56.440 13.312572
56.445 13.309016
56.450 13.304528
56.455 13.146441
56.460 13.45744
56.465 13.487664
56.470 13.219227
56.475 13.350309
56.480 13.505784
56.485 14.080504
56.490 14.527994
56.495 14.391231
56.500 13.912675
56.505 13.551551
56.510 13.029049
56.515 13.092236
56.520 12.897861
56.525 12.718596
56.530 12.989837
56.535 13.652884
56.540 13.812525
56.545 13.931372
56.550 14.147171
56.555 14.115026
56.560 14.066975
56.565 14.068649
56.570 13.985804
56.575 13.679258
56.580 13.357243
56.585 13.069569
56.590 12.637569
56.595 12.69015
56.600 12.768748
56.605 13.072055
56.610 13.542334
56.615 13.818972
56.620 13.76475
56.625 14.519139
56.630 14.391842
56.635 14.176719
56.640 13.917521
56.645 13.712013
56.650 14.067156
56.655 14.264668
56.660 14.333915
56.665 14.544017
56.670 14.513336
56.675 14.536664
56.680 14.296693
56.685 13.96462
56.690 14.015229
56.695 13.79194
56.700 13.830695
56.705 14.098158
56.710 14.526414
56.715 14.946056
56.720 14.829691
56.725 14.19961
56.730 13.710288
56.735 13.847901
56.740 13.057917
56.745 12.785358
56.750 13.34348
56.755 13.881672
56.760 14.407792
56.765 15.236958
56.770 15.330542
56.775 15.6563
56.780 15.846767
56.785 15.466
56.790 15.497907
56.795 15.427773
56.800 15.481933
56.805 15.577457
56.810 15.899484
56.815 15.805292
56.820 15.390318
56.825 15.498905
56.830 15.241786
56.835 15.125029
56.840 14.961793
56.845 14.9519
56.850 14.787088
56.855 14.666352
56.860 14.653964
56.865 14.891833
56.870 15.081783
56.875 15.094028
56.880 14.94292
56.885 15.081487
56.890 15.353042
56.895 15.389033
56.900 16.04937
56.905 16.790594
56.910 16.945971
56.915 17.118858
56.920 17.142029
56.925 17.183098
56.930 17.01512
56.935 16.255463
56.940 15.338174
56.945 14.764705
56.950 14.446354
56.955 14.365874
56.960 13.846047
56.965 13.817945
56.970 13.2707
56.975 12.705955
56.980 13.067233
56.985 12.889555
56.990 13.120124
56.995 13.060315
57.000 12.68006
57.005 13.029759
57.010 13.449896
57.015 13.646901
57.020 13.574
57.025 13.353947
57.030 13.883033
57.035 14.708694
57.040 15.170698
57.045 15.268479
57.050 15.727272
57.055 16.37052
57.060 16.504362
57.065 16.49081
57.070 15.808924
57.075 15.618411
57.080 15.57663
57.085 14.730262
57.090 14.502933
57.095 14.27864
57.100 13.933838
57.105 14.103528
57.110 14.013695
57.115 13.738776
57.120 13.485778
57.125 13.25188
57.130 13.148952
57.135 13.447963
57.140 13.784119
57.145 13.923838
57.150 14.607958
57.155 15.093207
57.160 15.332622
57.165 15.038397
57.170 14.818969
57.175 15.184852
57.180 15.633656
57.185 15.401273
57.190 15.709922
57.195 15.970343
57.200 16.8545
57.205 16.683153
57.210 15.906635
57.215 15.361896
57.220 15.092566
57.225 14.957578
57.230 14.445315
57.235 13.993074
57.240 14.344477
57.245 14.328184
57.250 13.848369
57.255 14.24088
57.260 14.193676
57.265 14.724668
57.270 15.350907
57.275 14.938354
57.280 15.403493
57.285 15.963496
57.290 15.461827
57.295 15.175374
57.300 14.730894
57.305 14.258555
57.310 14.503942
57.315 14.375916
57.320 14.258122
57.325 14.499199
57.330 15.067186
57.335 15.124611
57.340 15.496078
57.345 15.526193
57.350 15.64364
57.355 16.065247
57.360 16.045525
57.365 15.801697
57.370 15.283295
57.375 15.004815
57.380 15.5666
57.385 15.67223
57.390 15.557408
57.395 15.411191
57.400 15.859308
57.405 16.579041
57.410 16.578976
57.415 16.372957
57.420 16.148121
57.425 16.325638
57.430 16.456074
57.435 15.819413
57.440 15.550464
57.445 15.441783
57.450 15.744411
57.455 15.790491
57.460 15.386937
57.465 15.290277
57.470 15.82952
57.475 15.476747
57.480 15.198591
57.485 15.040763
57.490 15.066571
57.495 15.490027
57.500 15.506588
57.505 15.681704
57.510 16.275446
57.515 16.727417
57.520 16.230389
57.525 16.280937
57.530 16.226845
57.535 15.761087
57.540 15.660042
57.545 15.364036
57.550 15.3337
57.555 15.647441
57.560 15.76251
57.565 15.67114
57.570 15.672937
57.575 15.301788
57.580 15.272797
57.585 15.291326
57.590 14.746473
57.595 14.148656
57.600 14.331626
57.605 15.221941
57.610 15.576105
57.615 15.54221
57.620 15.617538
57.625 15.368985
57.630 15.237552
57.635 14.696166
57.640 13.833468
57.645 14.031596
57.650 13.742537
57.655 13.54307
57.660 14.18513
57.665 14.439164
57.670 14.686337
57.675 14.999378
57.680 14.918868
57.685 14.958928
57.690 15.231812
57.695 14.874143
57.700 15.058406
57.705 15.596558
57.710 15.44069
57.715 15.545567
57.720 15.809335
57.725 16.508774
57.730 17.230982
57.735 17.434328
57.740 17.632969
57.745 17.56525
57.750 17.439478
57.755 17.291718
57.760 16.845253
57.765 16.350943
57.770 15.740618
57.775 15.094703
57.780 14.697097
57.785 14.387951
57.790 14.006151
57.795 13.472774
57.800 14.012098
57.805 14.099836
57.810 14.703909
57.815 15.596766
57.820 15.969654
57.825 16.158968
57.830 16.543352
57.835 16.295673
57.840 16.46162
57.845 16.306149
57.850 15.993831
57.855 15.710501
57.860 15.761707
57.865 15.970785
57.870 15.982883
57.875 15.843795
57.880 15.583449
57.885 15.766054
57.890 16.375799
57.895 16.124729
57.900 15.628761
57.905 15.834503
57.910 15.743335
57.915 15.571319
57.920 15.471685
57.925 15.475744
57.930 15.959843
57.935 16.300173
57.940 16.317877
57.945 16.212326
57.950 15.984055
57.955 15.385416
57.960 14.957341
57.965 14.746012
57.970 14.39049
57.975 14.204543
57.980 14.156095
57.985 14.774052
57.990 14.642997
57.995 14.642059
58.000 14.337523
58.005 14.182514
58.010 14.053991
58.015 14.298
58.020 13.977962
58.025 14.209665
58.030 13.796752
58.035 13.807835
58.040 14.144038
58.045 14.74709
58.050 14.410166
58.055 14.642606
58.060 14.923965
58.065 15.344114
58.070 15.370247
58.075 15.27
58.080 15.539866
58.085 16.135996
58.090 16.105368
58.095 15.926794
58.100 16.127396
58.105 16.465158
58.110 16.1987
58.115 16.329712
58.120 16.119087
58.125 16.169621
58.130 16.452559
58.135 16.183268
58.140 16.518911
58.145 16.389166
58.150 15.775271
58.155 15.835913
58.160 15.644551
58.165 15.287876
58.170 15.363021
58.175 15.629543
58.180 16.105732
58.185 16.445
58.190 16.450762
58.195 16.53863
58.200 16.758297
58.205 16.40913
58.210 16.591448
58.215 16.484346
58.220 16.380463
58.225 16.657934
58.230 16.802427
58.235 16.995785
58.240 16.981686
58.245 16.00104
58.250 15.969221
58.255 15.418962
58.260 14.751528
58.265 14.882446
58.270 15.165522
58.275 14.862621
58.280 14.436601
58.285 14.61684
58.290 15.023954
58.295 15.597572
58.300 15.459532
58.305 15.419085
58.310 15.745428
58.315 15.706608
58.320 15.200515
58.325 14.84058
58.330 14.583741
58.335 14.12369
58.340 13.824314
58.345 13.978601
58.350 13.824813
58.355 14.155822
58.360 14.109008
58.365 14.385593
58.370 14.970555
58.375 14.862164
58.380 14.732269
58.385 15.186079
58.390 14.991384
58.395 15.248498
58.400 15.274721
58.405 14.838758
58.410 14.700552
58.415 14.85674
58.420 15.07885
58.425 15.615034
58.430 16.2882
58.435 16.18882
58.440 16.297039
58.445 16.674292
58.450 16.674683
58.455 16.164053
58.460 15.16969
58.465 14.52659
58.470 14.521454
58.475 14.148507
58.480 13.977128
58.485 14.040748
58.490 14.419968
58.495 14.840279
58.500 15.544603
58.505 15.983595
58.510 16.291744
58.515 16.304262
58.520 16.119022
58.525 15.682391
58.530 15.566261
58.535 14.675673
58.540 14.473022
58.545 14.826647
58.550 14.608258
58.555 14.906696
58.560 15.883115
58.565 16.386679
58.570 16.528515
58.575 16.712151
58.580 16.980896
58.585 17.36455
58.590 17.059221
58.595 16.779873
58.600 16.63002
58.605 16.305925
58.610 15.811589
58.615 15.44716
58.620 15.499603
58.625 15.667089
58.630 15.632355
58.635 16.350603
58.640 16.756273
58.645 17.102705
58.650 17.147606
58.655 17.499937
58.660 17.458078
58.665 16.746376
58.670 16.253462
58.675 16.435087
58.680 16.307327
58.685 16.166235
58.690 16.121716
58.695 16.428072
58.700 16.485476
58.705 16.187666
58.710 16.193457
58.715 16.260546
58.720 16.614502
58.725 16.165916
58.730 15.847969
58.735 15.649403
58.740 15.499268
58.745 15.715798
58.750 15.995337
58.755 15.664033
58.760 16.060541
58.765 16.744738
58.770 17.625967
58.775 17.756186
58.780 17.409395
58.785 16.950285
58.790 16.781849
58.795 16.589277
58.800 16.647081
58.805 16.626059
58.810 17.407747
58.815 17.512995
58.820 17.697088
58.825 18.459604
58.830 18.501308
58.835 17.680983
58.840 17.555063
58.845 17.659428
58.850 17.900442
58.855 18.168554
58.860 17.53429
58.865 17.526367
58.870 17.288223
58.875 17.158558
58.880 16.113127
58.885 15.543216
58.890 15.158383
58.895 15.736084
58.900 15.987029
58.905 16.279259
58.910 16.301521
58.915 16.916517
58.920 17.752604
58.925 18.049023
58.930 17.636108
58.935 17.925247
58.940 17.922821
58.945 18.040646
58.950 17.288013
58.955 16.375519
58.960 16.458065
58.965 16.249205
58.970 16.229027
58.975 16.581701
58.980 16.51969
58.985 16.815454
58.990 16.953957
58.995 16.762119
59.000 16.347685
59.005 15.902866
59.010 15.47839
59.015 15.781125
59.020 15.949944
59.025 15.773972
59.030 15.884624
59.035 16.36689
59.040 16.982508
59.045 17.062527
59.050 17.042286
59.055 16.945137
59.060 16.96236
59.065 17.177372
59.070 17.29216
59.075 17.215532
59.080 17.602278
59.085 17.544823
59.090 18.706282
59.095 19.135658
59.100 18.556658
59.105 18.201365
59.110 17.812305
59.115 17.132645
59.120 16.536728
59.125 15.663218
59.130 15.484317
59.135 15.969336
59.140 15.900972
59.145 16.569923
59.150 16.963324
59.155 17.407366
59.160 17.529936
59.165 17.178305
59.170 17.827471
59.175 18.053455
59.180 17.546274
59.185 17.368015
59.190 17.491823
59.195 17.252369
59.200 17.165604
59.205 16.025583
59.210 15.50034
59.215 16.168373
59.220 16.30813
59.225 15.740633
59.230 16.06288
59.235 16.709663
59.240 17.617903
59.245 17.903315
59.250 16.705544
59.255 16.25448
59.260 16.312555
59.265 16.163734
59.270 16.039953
59.275 15.850612
59.280 15.698022
59.285 16.067398
59.290 16.007339
59.295 16.461895
59.300 16.491665
59.305 16.576794
59.310 16.879045
59.315 17.600321
59.320 17.914419
59.325 18.323814
59.330 18.36488
59.335 18.158228
59.340 17.537947
59.345 17.201517
59.350 16.548964
59.355 16.583208
59.360 16.805084
59.365 17.096647
59.370 17.273134
59.375 17.276066
59.380 17.230217
59.385 17.623611
59.390 17.866503
59.395 17.46867
59.400 17.3011
59.405 17.422297
59.410 17.527933
59.415 17.729389
59.420 17.946346
59.425 18.186836
59.430 18.346464
59.435 18.475412
59.440 18.479315
59.445 18.529968
59.450 18.428312
59.455 18.261515
59.460 17.993248
59.465 17.659052
59.470 17.440054
59.475 17.738207
59.480 18.126972
59.485 18.410572
59.490 18.117172
59.495 18.385078
59.500 18.642685
59.505 18.753448
59.510 18.518614
59.515 18.591482
59.520 18.417833
59.525 18.952909
59.530 18.494741
59.535 18.48551
59.540 18.223875
59.545 18.264809
59.550 18.196896
59.555 18.378286
59.560 18.059917
59.565 18.371378
59.570 18.366537
59.575 18.573044
59.580 18.113544
59.585 17.465561
59.590 16.687336
59.595 16.301531
59.600 16.149588
59.605 16.134104
59.610 16.033695
59.615 16.48262
59.620 17.024551
59.625 17.923092
59.630 18.562494
59.635 18.373497
59.640 18.730347
59.645 18.758345
59.650 18.864182
59.655 18.975161
59.660 18.715254
59.665 18.574902
59.670 18.725414
59.675 18.965244
59.680 19.720245
59.685 19.727875
59.690 20.105993
59.695 20.228474
59.700 20.702423
59.705 20.888971
59.710 20.787106
59.715 20.471542
59.720 20.479856
59.725 20.136454
59.730 20.045956
59.735 20.486332
59.740 20.446962
59.745 20.571186
59.750 20.645489
59.755 21.004887
59.760 21.306486
59.765 21.369244
59.770 21.315372
59.775 21.694963
59.780 21.630068
59.785 21.64818
59.790 21.250471
59.795 21.339586
59.800 21.415863
59.805 21.375374
59.810 20.87591
59.815 21.088522
59.820 21.23702
59.825 21.749296
59.830 21.649176
59.835 21.980511
59.840 21.593124
59.845 21.669256
59.850 20.897371
59.855 20.155859
59.860 19.692503
59.865 19.35998
59.870 18.695486
59.875 19.227831
59.880 19.667433
59.885 20.444324
59.890 20.650234
59.895 20.904076
59.900 21.305077
59.905 22.236246
59.910 22.154415
59.915 21.49884
59.920 21.576015
59.925 22.206917
59.930 22.929619
59.935 22.774643
59.940 22.445612
59.945 22.637411
59.950 22.574692
59.955 22.357162
59.960 21.778368
59.965 20.952927
59.970 20.858055
59.975 20.555878
59.980 20.556126
59.985 21.396757
59.990 22.031445
59.995 21.656336
60.000 21.442415
60.005 21.554409
60.010 21.584269
60.015 21.250631
60.020 20.61484
60.025 20.117334
60.030 20.757889
60.035 21.056677
60.040 21.846697
60.045 22.420012
60.050 22.449377
60.055 22.747677
60.060 22.952944
60.065 23.211819
60.070 22.923603
60.075 22.055328
60.080 21.601086
60.085 22.30426
60.090 22.366161
60.095 22.46623
60.100 22.613621
60.105 22.858624
60.110 23.280174
60.115 23.264666
60.120 23.453686
60.125 23.837698
60.130 23.877546
60.135 23.147827
60.140 23.374636
60.145 23.317961
60.150 22.930447
60.155 22.421484
60.160 22.0935
60.165 22.096737
60.170 22.529961
60.175 22.211666
60.180 21.725433
60.185 22.33143
60.190 22.571753
60.195 22.889318
60.200 22.722746
60.205 22.97246
60.210 23.387394
60.215 24.190735
60.220 24.237186
60.225 23.990833
60.230 24.298313
60.235 25.431406
60.240 25.72303
60.245 25.526991
60.250 25.197456
60.255 25.303814
60.260 24.850077
60.265 23.460428
60.270 22.309225
60.275 22.013054
60.280 22.110401
60.285 21.917137
60.290 22.132948
60.295 23.305273
60.300 23.95525
60.305 23.996691
60.310 23.663692
60.315 23.965092
60.320 24.189686
60.325 23.497513
60.330 22.926855
60.335 22.605556
60.340 22.918495
60.345 23.393009
60.350 23.528465
60.355 23.347172
60.360 23.234467
60.365 23.606853
60.370 23.72506
60.375 23.838371
60.380 23.628262
60.385 23.04591
60.390 22.979271
60.395 23.024008
60.400 22.372196
60.405 22.411634
60.410 22.295774
60.415 22.053501
60.420 22.406397
60.425 22.631838
60.430 21.934078
60.435 22.029446
60.440 22.033405
60.445 22.02873
60.450 22.144739
60.455 21.779408
60.460 22.077627
60.465 23.000887
60.470 22.855593
60.475 22.789713
60.480 22.878887
60.485 22.621367
60.490 22.461952
60.495 22.413719
60.500 22.12007
60.505 22.598619
60.510 22.096672
60.515 21.543837
60.520 21.811502
60.525 22.477295
60.530 22.371971
60.535 22.526915
60.540 22.121122
60.545 22.903509
60.550 23.321127
60.555 23.000223
60.560 22.799541
60.565 23.02383
60.570 22.679468
60.575 22.981907
60.580 23.012728
60.585 22.907379
60.590 22.919649
60.595 22.570473
60.600 22.508039
60.605 22.567451
60.610 22.145712
60.615 21.633728
60.620 22.257658
60.625 22.665892
60.630 22.374329
60.635 22.595034
60.640 22.386923
60.645 22.755878
60.650 22.971331
60.655 21.940502
60.660 21.430834
60.665 20.953358
60.670 20.240236
60.675 20.047804
60.680 20.126978
60.685 20.288399
60.690 20.499538
60.695 20.383711
60.700 20.574808
60.705 20.7605
60.710 20.945848
60.715 20.378412
60.720 20.232929
60.725 20.008413
60.730 20.079727
60.735 20.066704
60.740 19.793884
60.745 20.17004
60.750 20.464304
60.755 20.268461
60.760 20.735685
60.765 21.087887
60.770 21.158237
60.775 21.07402
60.780 20.228735
60.785 20.153877
60.790 20.239262
60.795 20.040091
60.800 20.12834
60.805 20.148531
60.810 20.365143
60.815 20.77862
60.820 20.200918
60.825 20.244062
60.830 19.686487
60.835 18.994158
60.840 18.761299
60.845 18.583801
60.850 18.401611
60.855 18.634174
60.860 18.257435
60.865 18.652752
60.870 19.139542
60.875 19.705002
60.880 19.729643
60.885 19.813148
60.890 19.900558
60.895 20.295488
60.900 20.598824
60.905 20.83975
60.910 20.287689
60.915 20.349773
60.920 20.766998
60.925 20.807287
60.930 20.746929
60.935 20.329298
60.940 19.679161
60.945 19.648882
60.950 19.507549
60.955 19.47574
60.960 20.028748
60.965 19.559418
60.970 19.331852
60.975 19.600777
60.980 19.9356
60.985 20.314569
60.990 19.510746
60.995 18.993988
61.000 19.244123
61.005 19.360476
61.010 19.391022
61.015 19.529598
61.020 19.240623
61.025 19.391134
61.030 19.006844
61.035 18.176222
61.040 18.150112
61.045 17.996935
61.050 17.883183
61.055 17.357607
61.060 17.057003
61.065 17.286289
61.070 17.881983
61.075 17.768972
61.080 17.739916
61.085 17.002796
61.090 16.737032
61.095 16.897161
61.100 17.159588
61.105 16.984444
61.110 17.031696
61.115 17.218077
61.120 17.923273
61.125 18.107096
61.130 18.000799
61.135 17.645233
61.140 17.782661
61.145 17.282545
61.150 17.238329
61.155 17.235451
61.160 17.681633
61.165 17.882124
61.170 18.04623
61.175 18.263834
61.180 18.641119
61.185 18.412302
61.190 18.234524
61.195 17.833172
61.200 17.901457
61.205 17.789431
61.210 17.884693
61.215 17.911877
61.220 18.040922
61.225 18.50918
61.230 18.855772
61.235 18.97123
61.240 18.984665
61.245 18.657049
61.250 18.738859
61.255 18.779078
61.260 18.253687
61.265 18.254147
61.270 17.700399
61.275 17.790907
61.280 17.961918
61.285 17.877258
61.290 17.986832
61.295 17.988529
61.300 17.567873
61.305 17.490198
61.310 17.560003
61.315 17.239546
61.320 16.668842
61.325 16.510111
61.330 16.3957
61.335 16.21414
61.340 16.313023
61.345 16.004644
61.350 16.113081
61.355 16.132132
61.360 16.214052
61.365 16.637674
61.370 17.220528
61.375 17.742846
61.380 18.144579
61.385 18.467655
61.390 18.437716
61.395 18.15373
61.400 17.919485
61.405 17.634777
61.410 17.298306
61.415 16.68041
61.420 16.444599
61.425 16.607824
61.430 16.430416
61.435 16.981464
61.440 17.421265
61.445 17.779013
61.450 18.033901
61.455 17.844738
61.460 18.621271
61.465 19.296598
61.470 19.15435
61.475 18.572479
61.480 18.729738
61.485 19.114319
61.490 18.984665
61.495 18.414553
61.500 17.612473
61.505 16.865673
61.510 16.640047
61.515 15.902545
61.520 15.993952
61.525 17.010923
61.530 17.312599
61.535 17.484829
61.540 17.411432
61.545 17.623175
61.550 18.323017
61.555 17.881912
61.560 17.145275
61.565 17.041128
61.570 17.589699
61.575 18.40275
61.580 18.882294
61.585 18.820158
61.590 19.263636
61.595 19.555304
61.600 19.336737
61.605 18.865242
61.610 18.816029
61.615 18.051464
61.620 17.197588
61.625 16.95763
61.630 16.634953
61.635 16.669903
61.640 16.749151
61.645 16.90947
61.650 17.606173
61.655 18.126526
61.660 18.205366
61.665 18.391691
61.670 18.735359
61.675 18.833017
61.680 18.199747
61.685 18.025259
61.690 17.827496
61.695 17.604385
61.700 17.217402
61.705 16.845018
61.710 17.226116
61.715 17.557465
61.720 17.475367
61.725 17.334587
61.730 17.796486
61.735 17.95302
61.740 17.710056
61.745 17.06436
61.750 16.656406
61.755 15.892278
61.760 15.628855
61.765 15.554155
61.770 15.718003
61.775 15.928818
61.780 15.885391
61.785 16.036085
61.790 16.996836
61.795 17.508307
61.800 17.268488
61.805 17.308123
61.810 17.439285
61.815 17.211853
61.820 17.361532
61.825 17.417265
61.830 17.508604
61.835 17.635614
61.840 17.610086
61.845 18.028074
61.850 18.393194
61.855 18.588737
61.860 18.427116
61.865 17.9235
61.870 17.580618
61.875 17.376369
61.880 17.066412
61.885 17.365646
61.890 17.422171
61.895 17.711695
61.900 18.072605
61.905 18.500275
61.910 18.719467
61.915 19.065744
61.920 18.955639
61.925 18.916183
61.930 19.349148
61.935 19.501795
61.940 19.543356
61.945 19.703234
61.950 19.439913
61.955 19.693401
61.960 19.611853
61.965 18.559669
61.970 18.122854
61.975 17.855289
61.980 17.777672
61.985 17.554996
61.990 17.417542
61.995 16.970942
62.000 17.592516
62.005 18.060055
62.010 18.375973
62.015 17.79739
62.020 17.818123
62.025 17.695887
62.030 17.494165
62.035 17.360279
62.040 17.449013
62.045 16.854586
62.050 16.923313
62.055 16.891989
62.060 16.651148
62.065 16.772493
62.070 16.536983
62.075 16.239727
62.080 17.103046
62.085 17.249674
62.090 17.237131
62.095 17.712629
62.100 17.874741
62.105 18.050037
62.110 17.989511
62.115 17.409573
62.120 17.062071
62.125 16.98778
62.130 16.935469
62.135 17.078562
62.140 16.356911
62.145 16.102104
62.150 16.288126
62.155 16.390553
62.160 16.754435
62.165 16.906973
62.170 17.295193
62.175 18.552355
62.180 18.811247
62.185 19.211096
62.190 19.514236
62.195 19.041037
62.200 18.269979
62.205 17.936682
62.210 17.692835
62.215 17.057575
62.220 16.817913
62.225 16.797758
62.230 16.97121
62.235 17.990416
62.240 18.397352
62.245 18.719347
62.250 18.985563
62.255 18.708164
62.260 18.888844
62.265 18.593452
62.270 17.924107
62.275 17.199322
62.280 16.874924
62.285 16.881998
62.290 17.077843
62.295 16.962933
62.300 17.268066
62.305 17.166586
62.310 17.007813
62.315 16.93327
62.320 17.218834
62.325 17.292955
62.330 17.595762
62.335 17.916182
62.340 18.083961
62.345 17.654842
62.350 17.492912
62.355 17.133993
62.360 17.378998
62.365 17.160883
62.370 17.149693
62.375 16.92779
62.380 17.2218
62.385 17.30748
62.390 17.260801
62.395 17.22843
62.400 17.52487
62.405 17.83757
62.410 18.428574
62.415 18.864332
62.420 19.110695
62.425 19.031927
62.430 18.387722
62.435 18.31657
62.440 17.40885
62.445 17.494993
62.450 18.063131
62.455 18.324467
62.460 18.934322
62.465 19.581783
62.470 19.374327
62.475 20.037613
62.480 19.924992
62.485 19.386961
62.490 18.976236
62.495 18.646751
62.500 18.77088
62.505 18.745916
62.510 18.329058
62.515 18.514879
62.520 18.593143
62.525 19.096445
62.530 18.824038
62.535 18.746206
62.540 19.433931
62.545 19.479385
62.550 19.160297
62.555 18.853899
62.560 18.819014
62.565 18.811127
62.570 18.372061
62.575 17.498837
62.580 17.284958
62.585 17.49571
62.590 17.286709
62.595 17.073851
62.600 16.988256
62.605 16.934475
62.610 16.945814
62.615 17.231064
62.620 16.914463
62.625 16.813278
62.630 16.705353
62.635 16.807158
62.640 17.066219
62.645 17.496162
62.650 17.913391
62.655 18.201885
62.660 18.461712
62.665 18.199369
62.670 18.06152
62.675 18.344858
62.680 18.13401
62.685 17.937284
62.690 17.516325
62.695 17.584837
62.700 17.963093
62.705 18.287786
62.710 17.52869
62.715 17.655165
62.720 17.370396
62.725 17.845425
62.730 18.194847
62.735 18.338255
62.740 18.0762
62.745 18.229408
62.750 18.020212
62.755 18.235449
62.760 18.22138
62.765 18.208361
62.770 17.953934
62.775 17.63887
62.780 17.556805
62.785 17.403936
62.790 17.115616
62.795 16.72444
62.800 16.369381
62.805 16.299955
62.810 16.971796
62.815 17.121437
62.820 17.355944
62.825 17.28174
62.830 16.722757
62.835 16.938665
62.840 17.192774
62.845 17.55842
62.850 18.286366
62.855 18.316639
62.860 18.284163
62.865 18.116816
62.870 17.909473
62.875 17.690483
62.880 17.094032
62.885 16.907185
62.890 16.791643
62.895 16.796003
62.900 17.377819
62.905 17.640556
62.910 17.768114
62.915 17.589344
62.920 17.176184
62.925 17.376749
62.930 17.723305
62.935 17.969265
62.940 18.194757
62.945 18.297117
62.950 18.221985
62.955 18.11729
62.960 17.621737
62.965 17.238113
62.970 17.151115
62.975 16.648378
62.980 17.263302
62.985 17.586021
62.990 17.82268
62.995 17.862144
63.000 18.029018
63.005 17.871101
63.010 17.738096
63.015 17.130892
63.020 16.691702
63.025 16.704559
63.030 16.87414
63.035 16.986607
63.040 17.53989
63.045 17.645439
63.050 17.889254
63.055 18.34107
63.060 18.615576
63.065 19.446451
63.070 19.515448
63.075 18.958412
63.080 18.507721
63.085 17.903786
63.090 17.356031
63.095 16.666946
63.100 15.771588
63.105 15.375421
63.110 15.759981
63.115 16.358332
63.120 16.847168
63.125 17.03409
63.130 17.301023
63.135 17.336731
63.140 17.467442
63.145 17.537201
63.150 17.461287
63.155 16.958574
63.160 16.705826
63.165 16.65074
63.170 17.262749
63.175 17.341187
63.180 17.213949
63.185 17.380966
63.190 18.096352
63.195 18.041931
63.200 17.987438
63.205 17.446768
63.210 17.184219
63.215 16.800901
63.220 16.382664
63.225 16.281111
63.230 16.312384
63.235 16.301025
63.240 16.59672
63.245 16.988861
63.250 17.209675
63.255 17.906664
63.260 18.163572
63.265 18.578365
63.270 18.91761
63.275 18.636166
63.280 18.684034
63.285 18.815891
63.290 18.244303
63.295 18.0257
63.300 18.157118
63.305 18.219849
63.310 18.271852
63.315 17.986496
63.320 17.690889
63.325 17.738325
63.330 17.517061
63.335 16.996006
63.340 16.234938
63.345 16.225632
63.350 16.875179
63.355 16.792702
63.360 17.0543
63.365 17.243895
63.370 17.111715
63.375 17.123312
63.380 17.420204
63.385 17.844255
63.390 18.363731
63.395 18.0245
63.400 18.198278
63.405 18.436483
63.410 18.680817
63.415 18.432901
63.420 18.142626
63.425 18.237062
63.430 18.457138
63.435 18.730726
63.440 19.367031
63.445 19.742371
63.450 19.82753
63.455 19.810293
63.460 19.456068
63.465 19.62253
63.470 19.491442
63.475 18.945614
63.480 18.710016
63.485 19.069859
63.490 19.101507
63.495 19.785234
63.500 19.444677
63.505 18.828224
63.510 18.882902
63.515 18.990522
63.520 18.258348
63.525 17.471416
63.530 16.696325
63.535 16.780548
63.540 17.461788
63.545 17.500612
63.550 17.473217
63.555 18.367302
63.560 18.327726
63.565 18.178114
63.570 17.558722
63.575 17.201921
63.580 16.870501
63.585 17.196602
63.590 17.283592
63.595 18.118799
63.600 18.294521
63.605 18.901434
63.610 18.966089
63.615 18.689213
63.620 18.374392
63.625 17.790913
63.630 17.564289
63.635 18.320435
63.640 18.557552
63.645 18.747799
63.650 19.305441
63.655 18.759176
63.660 18.756943
63.665 18.604465
63.670 18.419111
63.675 18.595108
63.680 18.321424
63.685 18.233463
63.690 18.875896
63.695 18.790052
63.700 18.910263
63.705 18.148939
63.710 17.367552
63.715 16.966553
63.720 16.420864
63.725 16.602144
63.730 16.979982
63.735 16.950106
63.740 17.513014
63.745 17.946491
63.750 18.495285
63.755 18.714912
63.760 18.641834
63.765 18.046986
63.770 17.980143
63.775 18.28821
63.780 18.205406
63.785 18.367033
63.790 18.556503
63.795 18.165504
63.800 18.46475
63.805 18.470623
63.810 18.576748
63.815 19.013927
63.820 18.621765
63.825 18.34771
63.830 18.227503
63.835 18.683046
63.840 18.436762
63.845 17.74365
63.850 18.070175
63.855 18.486391
63.860 18.800932
63.865 19.244921
63.870 19.674189
63.875 20.159267
63.880 20.047846
63.885 20.092211
63.890 20.407961
63.895 20.124151
63.900 19.23074
63.905 18.326075
63.910 18.335119
63.915 18.750067
63.920 18.350264
63.925 18.132156
63.930 18.638096
63.935 19.284
63.940 19.192419
63.945 18.901987
63.950 18.785374
63.955 18.821375
63.960 18.582619
63.965 18.377008
63.970 18.316406
63.975 18.58074
63.980 18.479586
63.985 17.927757
63.990 17.552153
63.995 17.91695
64.000 18.202009
64.005 17.981525
64.010 18.801182
64.015 19.573444
64.020 20.24054
64.025 21.063612
64.030 20.966671
64.035 21.283886
64.040 21.702694
64.045 21.233231
64.050 21.086376
64.055 20.860704
64.060 20.066328
64.065 19.679022
64.070 19.465218
64.075 19.352468
64.080 19.010242
64.085 18.680254
64.090 19.114656
64.095 19.478033
64.100 19.829639
64.105 19.625143
64.110 19.800016
64.115 20.280149
64.120 20.133863
64.125 19.529123
64.130 19.315084
64.135 18.935843
64.140 18.596455
64.145 17.950111
64.150 16.647802
64.155 16.493809
64.160 16.459145
64.165 16.550882
64.170 16.88686
64.175 17.443188
64.180 17.657179
64.185 18.450771
64.190 18.802177
64.195 18.944439
64.200 18.935953
64.205 18.588528
64.210 18.494581
64.215 19.145113
64.220 19.13213
64.225 19.072863
64.230 18.976379
64.235 18.956541
64.240 19.617825
64.245 19.577282
64.250 18.921959
64.255 18.737997
64.260 18.737583
64.265 19.108761
64.270 18.241488
64.275 17.274841
64.280 16.953554
64.285 16.742895
64.290 16.703066
64.295 16.168373
64.300 16.222818
64.305 17.523977
64.310 18.133728
64.315 18.50205
64.320 18.831955
64.325 19.438023
64.330 19.80122
64.335 19.734922
64.340 20.009062
64.345 20.087666
64.350 20.033409
64.355 19.758329
64.360 19.488661
64.365 19.532795
64.370 19.28813
64.375 18.520231
64.380 18.244976
64.385 18.121534
64.390 18.839087
64.395 18.794294
64.400 19.090826
64.405 19.549963
64.410 20.072275
64.415 20.70492
64.420 21.059956
64.425 20.739992
64.430 21.034529
64.435 21.045166
64.440 21.066797
64.445 20.588737
64.450 19.881945
64.455 20.109486
64.460 20.245178
64.465 19.751724
64.470 19.498943
64.475 18.926006
64.480 19.167521
64.485 19.734995
64.490 19.612074
64.495 20.10083
64.500 20.374029
64.505 20.263559
64.510 20.563698
64.515 20.19747
64.520 19.959042
64.525 19.677195
64.530 18.960712
64.535 18.448729
64.540 18.605673
64.545 18.452482
64.550 18.522018
64.555 18.336752
64.560 17.868286
64.565 17.871933
64.570 18.096079
64.575 18.07407
64.580 17.997652
64.585 17.936384
64.590 18.455069
64.595 18.844023
64.600 18.850706
64.605 18.909674
64.610 19.336267
64.615 19.530386
64.620 19.687965
64.625 19.840462
64.630 19.834703
64.635 20.04191
64.640 19.572157
64.645 19.405861
64.650 19.756731
64.655 19.37849
64.660 19.205774
64.665 19.033892
64.670 19.136988
64.675 19.906639
64.680 19.758888
64.685 19.234119
64.690 19.423742
64.695 18.916294
64.700 18.810825
64.705 18.647112
64.710 18.103565
64.715 18.458366
64.720 18.950743
64.725 18.933199
64.730 19.364134
64.735 19.723083
64.740 19.709314
64.745 19.985901
64.750 20.302954
64.755 20.401052
64.760 20.309618
64.765 20.027906
64.770 20.01951
64.775 20.338253
64.780 20.390421
64.785 20.14061
64.790 20.341656
64.795 20.676949
64.800 21.109583
64.805 21.179798
64.810 20.530376
64.815 20.220381
64.820 19.902288
64.825 19.64496
64.830 19.399826
64.835 19.314167
64.840 19.905022
64.845 20.353575
64.850 20.361622
64.855 19.957527
64.860 20.158056
64.865 20.762386
64.870 20.828215
64.875 20.523802
64.880 21.104786
64.885 21.319883
64.890 21.611412
64.895 21.259609
64.900 20.860764
64.905 21.020605
64.910 21.079664
64.915 20.819639
64.920 21.034933
64.925 20.959728
64.930 21.166058
64.935 21.512409
64.940 21.224266
64.945 20.728687
64.950 21.06748
64.955 21.717302
64.960 22.484081
64.965 21.951445
64.970 21.360823
64.975 21.545115
64.980 21.822395
64.985 21.779581
64.990 21.577543
64.995 21.057888
65.000 21.731804
65.005 21.918892
65.010 22.168987
65.015 22.590294
65.020 23.247726
65.025 22.85405
65.030 22.831467
65.035 23.316029
65.040 24.146755
65.045 24.757637
65.050 24.873344
65.055 24.031107
65.060 24.718355
65.065 24.740299
65.070 24.17919
65.075 24.502319
65.080 24.659281
65.085 24.04353
65.090 23.631413
65.095 23.48797
65.100 23.778875
65.105 24.039787
65.110 23.13166
65.115 22.777037
65.120 22.83679
65.125 23.09079
65.130 23.139097
65.135 23.131285
65.140 22.672112
65.145 23.042051
65.150 22.7945
65.155 23.415857
65.160 23.926577
65.165 24.070953
65.170 24.194429
65.175 23.905151
65.180 23.677391
65.185 23.919741
65.190 23.748697
65.195 23.536345
65.200 23.14426
65.205 22.790638
65.210 22.87208
65.215 22.591524
65.220 22.272419
65.225 22.259638
65.230 22.777283
65.235 22.756479
65.240 23.327188
65.245 23.63678
65.250 23.295979
65.255 22.980694
65.260 23.038132
65.265 22.53899
65.270 22.74728
65.275 23.15579
65.280 23.085026
65.285 23.692015
65.290 23.941313
65.295 24.044384
65.300 24.121195
65.305 23.816683
65.310 23.143618
65.315 23.426764
65.320 23.905195
65.325 24.169365
65.330 24.162245
65.335 24.252623
65.340 25.091492
65.345 25.518255
65.350 25.581972
65.355 25.427168
65.360 25.497412
65.365 25.016363
65.370 25.368614
65.375 24.907932
65.380 24.257906
65.385 24.383987
65.390 25.011276
65.395 24.849792
65.400 25.391481
65.405 25.028763
65.410 24.880163
65.415 25.182663
65.420 25.23057
65.425 24.484724
65.430 24.398607
65.435 24.41749
65.440 24.250223
65.445 24.739119
65.450 24.451925
65.455 24.047699
65.460 23.753908
65.465 24.03367
65.470 24.749552
65.475 25.331682
65.480 25.689304
65.485 25.748814
65.490 25.751413
65.495 26.333687
65.500 26.380991
65.505 26.575594
65.510 26.833565
65.515 27.04372
65.520 27.635841
65.525 27.878288
65.530 28.596699
65.535 29.059504
65.540 29.053274
65.545 28.445223
65.550 27.656139
65.555 27.505373
65.560 27.994047
65.565 27.614588
65.570 27.546347
65.575 27.804523
65.580 28.901701
65.585 29.566994
65.590 30.299541
65.595 30.343531
65.600 30.397604
65.605 30.499069
65.610 30.789961
65.615 30.519352
65.620 30.943333
65.625 31.320673
65.630 31.523787
65.635 31.771645
65.640 31.86063
65.645 31.335497
65.650 31.272099
65.655 31.020996
65.660 30.455698
65.665 30.364979
65.670 30.696125
65.675 30.885612
65.680 31.725296
65.685 31.881525
65.690 32.333691
65.695 33.290367
65.700 33.608456
65.705 33.762333
65.710 33.761757
65.715 33.217995
65.720 33.402931
65.725 33.4006
65.730 33.718628
65.735 33.438782
65.740 33.496555
65.745 33.341171
65.750 33.809025
65.755 33.794586
65.760 33.868008
65.765 33.145058
65.770 33.217407
65.775 33.894733
65.780 35.181843
65.785 35.883251
65.790 36.81918
65.795 37.23315
65.800 37.365711
65.805 37.89444
65.810 37.383862
65.815 36.6619
65.820 36.326942
65.825 36.128822
65.830 36.516678
65.835 37.669998
65.840 37.996029
65.845 38.127174
65.850 38.027603
65.855 37.794136
65.860 37.961212
65.865 37.767159
65.870 36.935558
65.875 36.787235
65.880 37.648006
65.885 38.130596
65.890 38.988556
65.895 39.637386
65.900 40.247337
65.905 40.829948
65.910 40.587551
65.915 40.430538
65.920 40.429119
65.925 40.286247
65.930 39.9939
65.935 39.669788
65.940 39.807396
65.945 39.945858
65.950 39.743542
65.955 39.802639
65.960 39.507629
65.965 39.938835
65.970 40.529846
65.975 40.772362
65.980 41.602936
65.985 42.058025
65.990 41.848522
65.995 41.81921
66.000 40.813644
66.005 39.944569
66.010 39.199913
66.015 38.45451
66.020 38.5746
66.025 39.474072
66.030 39.722778
66.035 39.99894
66.040 40.594242
66.045 41.067959
66.050 41.128094
66.055 40.517292
66.060 40.275547
66.065 40.849964
66.070 40.627193
66.075 40.477928
66.080 40.544205
66.085 40.316422
66.090 40.58852
66.095 40.432388
66.100 40.008869
66.105 39.800762
66.110 39.533218
66.115 39.596764
66.120 39.714111
66.125 40.272163
66.130 40.480747
66.135 40.652187
66.140 40.976963
66.145 41.202034
66.150 41.267803
66.155 40.298779
66.160 39.604561
66.165 38.537865
66.170 37.605713
66.175 37.562462
66.180 37.235367
66.185 35.981003
66.190 35.899616
66.195 35.304951
66.200 35.88224
66.205 35.826473
66.210 35.148144
66.215 34.284264
66.220 34.952988
66.225 35.231335
66.230 35.17672
66.235 35.300026
66.240 36.321175
66.245 36.598518
66.250 37.025078
66.255 36.483955
66.260 36.166
66.265 35.83601
66.270 35.244461
66.275 34.404163
66.280 34.397343
66.285 34.570454
66.290 34.094822
66.295 33.87138
66.300 34.154503
66.305 33.86338
66.310 33.099785
66.315 32.442196
66.320 32.551029
66.325 32.972794
66.330 32.898167
66.335 33.062328
66.340 32.705578
66.345 33.006054
66.350 32.489864
66.355 33.223274
66.360 33.532028
66.365 33.636711
66.370 32.762623
66.375 31.943096
66.380 32.567577
66.385 33.22583
66.390 32.797958
66.395 32.422939
66.400 32.616825
66.405 33.049068
66.410 33.118958
66.415 32.017262
66.420 30.905024
66.425 30.956121
66.430 31.137005
66.435 31.195107
66.440 31.327593
66.445 31.828934
66.450 32.310814
66.455 32.312138
66.460 31.821306
66.465 31.455641
66.470 31.50206
66.475 31.917547
66.480 32.289757
66.485 32.32933
66.490 33.293571
66.495 33.003696
66.500 33.339012
66.505 32.866528
66.510 31.971804
66.515 31.457432
66.520 31.384806
66.525 30.75231
66.530 30.67351
66.535 30.869909
66.540 30.903389
66.545 31.137642
66.550 30.325987
66.555 29.451813
66.560 29.43786
66.565 29.368927
66.570 28.813173
66.575 28.517731
66.580 27.716686
66.585 27.315281
66.590 27.906015
66.595 27.558712
66.600 27.416855
66.605 27.046741
66.610 27.105371
66.615 27.70549
66.620 28.316124
66.625 28.275749
66.630 28.079882
66.635 27.076748
66.640 26.912415
66.645 27.033382
66.650 26.608809
66.655 25.985641
66.660 25.36237
66.665 25.507849
66.670 26.420387
66.675 26.67909
66.680 25.953434
66.685 25.376534
66.690 25.475527
66.695 24.828236
66.700 24.591105
66.705 23.787174
66.710 23.504103
66.715 23.890142
66.720 24.774111
66.725 24.897684
66.730 25.170336
66.735 25.516676
66.740 25.59038
66.745 25.479197
66.750 25.684938
66.755 25.105635
66.760 24.859093
66.765 24.431988
66.770 24.178099
66.775 24.616188
66.780 24.895145
66.785 24.858984
66.790 24.8174
66.795 24.977112
66.800 25.326303
66.805 25.617128
66.810 25.784275
66.815 25.89826
66.820 25.314278
66.825 25.567465
66.830 25.23386
66.835 25.083025
66.840 24.805626
66.845 24.812941
66.850 24.699902
66.855 24.993879
66.860 25.266733
66.865 25.762512
66.870 25.750095
66.875 26.001299
66.880 25.7535
66.885 25.885906
66.890 25.480198
66.895 25.593
66.900 26.014807
66.905 26.139439
66.910 25.319748
66.915 24.656523
66.920 24.32478
66.925 24.9771
66.930 24.224543
66.935 23.364859
66.940 22.49411
66.945 22.711964
66.950 22.975058
66.955 23.230886
66.960 23.144028
66.965 23.077919
66.970 23.507607
66.975 23.389832
66.980 22.952145
66.985 22.891813
66.990 23.014576
66.995 22.867893
67.000 22.80155
67.005 23.010565
67.010 23.663876
67.015 23.613611
67.020 23.705515
67.025 22.559507
67.030 22.276468
67.035 22.971373
67.040 22.716471
67.045 22.571959
67.050 23.092852
67.055 23.060255
67.060 23.518414
67.065 23.947018
67.070 23.547066
67.075 23.879627
67.080 23.936649
67.085 23.758249
67.090 23.895838
67.095 23.681044
67.100 23.451679
67.105 23.837372
67.110 24.113569
67.115 24.309271
67.120 24.370455
67.125 24.086512
67.130 24.084938
67.135 24.331402
67.140 23.670074
67.145 23.631744
67.150 23.344818
67.155 22.662769
67.160 22.884846
67.165 23.274483
67.170 22.717043
67.175 22.60667
67.180 22.478514
67.185 22.62174
67.190 22.970093
67.195 23.131102
67.200 22.621696
67.205 22.848448
67.210 22.831268
67.215 22.457077
67.220 22.783104
67.225 22.838764
67.230 22.553463
67.235 23.004126
67.240 22.742453
67.245 22.548113
67.250 22.817097
67.255 22.711815
67.260 22.460428
67.265 22.920237
67.270 22.640112
67.275 22.167194
67.280 22.055794
67.285 22.083683
67.290 22.063372
67.295 22.044727
67.300 21.591852
67.305 21.459026
67.310 21.957123
67.315 21.953886
67.320 21.771973
67.325 21.961491
67.330 21.815258
67.335 21.710251
67.340 22.261995
67.345 22.272728
67.350 22.480654
67.355 22.101002
67.360 21.545618
67.365 21.629639
67.370 21.905418
67.375 21.647146
67.380 21.40457
67.385 21.736874
67.390 22.162453
67.395 22.706001
67.400 22.720463
67.405 22.511578
67.410 23.028694
67.415 23.172619
67.420 23.301577
67.425 23.414049
67.430 23.67
67.435 23.983002
67.440 23.955175
67.445 23.503355
67.450 23.911354
67.455 23.717211
67.460 23.058771
67.465 22.484112
67.470 22.244917
67.475 22.294117
67.480 22.229612
67.485 22.388807
67.490 22.564524
67.495 23.462626
67.500 24.174828
67.505 24.039572
67.510 24.167788
67.515 23.462799
67.520 22.736454
67.525 22.570894
67.530 22.768944
67.535 22.44635
67.540 22.439091
67.545 22.188837
67.550 22.994965
67.555 23.473211
67.560 23.242268
67.565 22.505035
67.570 22.210577
67.575 22.1539
67.580 22.458923
67.585 21.95162
67.590 22.001503
67.595 22.878288
67.600 23.500925
67.605 23.662079
67.610 23.802076
67.615 24.197559
67.620 24.265373
67.625 23.872803
67.630 22.575283
67.635 21.72678
67.640 21.778809
67.645 22.208763
67.650 21.818588
67.655 22.214382
67.660 21.983324
67.665 22.156008
67.670 22.469172
67.675 21.886698
67.680 21.200438
67.685 21.69515
67.690 21.550697
67.695 22.017254
67.700 21.97551
67.705 21.965446
67.710 22.492403
67.715 22.527275
67.720 21.817049
67.725 22.376698
67.730 22.532578
67.735 22.607254
67.740 22.343863
67.745 21.591267
67.750 21.886194
67.755 21.616411
67.760 20.553083
67.765 20.627451
67.770 20.794249
67.775 21.187782
67.780 21.73333
67.785 21.966959
67.790 22.152843
67.795 21.837917
67.800 21.460182
67.805 21.823891
67.810 22.638779
67.815 22.386389
67.820 22.403532
67.825 22.853907
67.830 22.768436
67.835 22.980484
67.840 22.172443
67.845 20.664265
67.850 20.258293
67.855 19.867523
67.860 19.707493
67.865 19.922659
67.870 19.167553
67.875 19.683996
67.880 20.336235
67.885 20.61231
67.890 20.470123
67.895 20.420742
67.900 20.756054
67.905 20.80352
67.910 20.57519
67.915 20.630291
67.920 20.621367
67.925 20.704473
67.930 21.005451
67.935 21.351843
67.940 21.784853
67.945 21.944147
67.950 21.843586
67.955 21.894802
67.960 21.6507
67.965 21.163353
67.970 21.547615
67.975 21.509756
67.980 21.528608
67.985 21.681152
67.990 21.579237
67.995 21.972036
68.000 22.067158
68.005 21.621689
68.010 21.49609
68.015 21.975849
68.020 22.084818
68.025 21.755909
68.030 21.811085
68.035 22.419882
68.040 22.691608
68.045 22.525879
68.050 22.092064
68.055 22.047791
68.060 22.336878
68.065 22.399912
68.070 21.452293
68.075 21.244112
68.080 21.549429
68.085 22.05695
68.090 21.821796
68.095 22.169724
68.100 22.309721
68.105 22.97249
68.110 22.646898
68.115 22.417791
68.120 22.011419
68.125 21.90015
68.130 22.110268
68.135 22.026871
68.140 22.049665
68.145 22.313015
68.150 22.709675
68.155 22.597588
68.160 22.945694
68.165 23.000366
68.170 22.89208
68.175 22.748398
68.180 22.610767
68.185 22.008442
68.190 22.026093
68.195 21.645117
68.200 20.786816
68.205 20.667948
68.210 20.933708
68.215 20.570894
68.220 21.055332
68.225 21.33186
68.230 21.156609
68.235 21.062284
68.240 20.471071
68.245 19.880949
68.250 20.474091
68.255 20.025774
68.260 19.700726
68.265 19.98807
68.270 20.464708
68.275 21.11471
68.280 21.664766
68.285 21.45059
68.290 21.454006
68.295 21.38545
68.300 21.016943
68.305 20.821753
68.310 20.906374
68.315 21.078487
68.320 20.950731
68.325 20.556669
68.330 20.289616
68.335 20.778442
68.340 20.791756
68.345 21.074156
68.350 20.818895
68.355 21.068113
68.360 21.352247
68.365 21.413198
68.370 21.182978
68.375 20.757586
68.380 19.732811
68.385 20.056559
68.390 19.770895
68.395 19.991674
68.400 20.926512
68.405 20.711382
68.410 21.328203
68.415 21.450851
68.420 21.618639
68.425 22.357107
68.430 22.153618
68.435 21.397184
68.440 21.629789
68.445 21.787758
68.450 22.096609
68.455 21.692469
68.460 20.972588
68.465 20.744846
68.470 20.763491
68.475 20.821791
68.480 20.894152
68.485 20.766899
68.490 20.814125
68.495 21.69665
68.500 22.263918
68.505 22.332979
68.510 21.714249
68.515 21.322136
68.520 20.91573
68.525 20.663132
68.530 20.111795
68.535 20.302412
68.540 20.579153
68.545 20.427509
68.550 20.502956
68.555 21.250429
68.560 21.850388
68.565 21.92927
68.570 21.730871
68.575 21.915339
68.580 21.937035
68.585 22.206034
68.590 21.916199
68.595 21.300116
68.600 21.150749
68.605 21.056593
68.610 21.673672
68.615 21.671007
68.620 20.821695
68.625 20.601692
68.630 20.947939
68.635 21.313242
68.640 20.823298
68.645 20.249653
68.650 20.707237
68.655 21.103407
68.660 21.574171
68.665 21.615259
68.670 21.074776
68.675 21.150785
68.680 21.141727
68.685 20.674818
68.690 20.708639
68.695 20.651974
68.700 20.640038
68.705 21.274071
68.710 21.841038
68.715 21.967863
68.720 22.730145
68.725 22.821499
68.730 23.145462
68.735 23.079582
68.740 23.121777
68.745 23.120977
68.750 22.351448
68.755 22.285692
68.760 22.146465
68.765 21.98815
68.770 22.038475
68.775 21.343056
68.780 21.385626
68.785 21.944469
68.790 21.006348
68.795 20.854961
68.800 20.298796
68.805 20.787338
68.810 20.964041
68.815 21.119888
68.820 21.195797
68.825 21.788101
68.830 21.642456
68.835 22.19486
68.840 21.999743
68.845 22.31933
68.850 22.843794
68.855 23.327854
68.860 23.672571
68.865 24.084105
68.870 24.235434
68.875 24.718166
68.880 24.589954
68.885 24.074577
68.890 23.929832
68.895 23.788809
68.900 23.964214
68.905 23.352287
68.910 23.113953
68.915 22.844288
68.920 22.79949
68.925 22.682932
68.930 22.164074
68.935 21.928892
68.940 22.246611
68.945 22.50168
68.950 23.263796
68.955 23.149689
68.960 23.481153
68.965 24.041151
68.970 24.698784
68.975 24.818449
68.980 24.846313
68.985 24.736509
68.990 25.007128
68.995 25.306568
69.000 25.364458
69.005 24.746834
69.010 24.570187
69.015 24.52659
69.020 24.756538
69.025 24.73321
69.030 24.597746
69.035 24.803137
69.040 25.15728
69.045 25.438871
69.050 24.839155
69.055 24.609838
69.060 24.360214
69.065 23.789677
69.070 23.449635
69.075 24.09408
69.080 24.82147
69.085 25.347153
69.090 25.385757
69.095 25.812347
69.100 26.680132
69.105 27.454435
69.110 27.399696
69.115 26.737986
69.120 26.809692
69.125 27.111629
69.130 27.318764
69.135 27.115456
69.140 26.367506
69.145 25.4935
69.150 25.521116
69.155 25.749563
69.160 25.788654
69.165 26.151814
69.170 25.838305
69.175 25.461369
69.180 25.450022
69.185 25.745611
69.190 25.275013
69.195 24.46694
69.200 24.420774
69.205 25.505589
69.210 26.291939
69.215 27.098061
69.220 27.161226
69.225 27.931479
69.230 28.452106
69.235 28.242826
69.240 28.829487
69.245 29.276258
69.250 28.655807
69.255 29.194206
69.260 29.293039
69.265 29.773863
69.270 29.56794
69.275 28.624388
69.280 28.330301
69.285 28.522158
69.290 28.461006
69.295 28.145748
69.300 27.803278
69.305 28.184334
69.310 28.250628
69.315 27.903761
69.320 27.156715
69.325 26.840303
69.330 27.029612
69.335 26.636126
69.340 26.783726
69.345 27.907042
69.350 28.621807
69.355 29.183044
69.360 29.166956
69.365 29.054853
69.370 29.366173
69.375 29.106583
69.380 29.153139
69.385 29.858597
69.390 30.267654
69.395 30.108831
69.400 30.28257
69.405 30.018253
69.410 30.026903
69.415 30.234081
69.420 29.642319
69.425 29.677977
69.430 30.47999
69.435 30.426222
69.440 30.105646
69.445 29.618767
69.450 29.793472
69.455 30.060856
69.460 29.760321
69.465 29.03371
69.470 29.374269
69.475 29.955692
69.480 30.261868
69.485 29.969162
69.490 30.019573
69.495 30.346268
69.500 31.038864
69.505 31.273607
69.510 31.61363
69.515 31.468311
69.520 31.12554
69.525 30.392836
69.530 30.516924
69.535 30.123924
69.540 30.212709
69.545 30.198957
69.550 30.150084
69.555 30.82041
69.560 30.970839
69.565 29.86491
69.570 29.509192
69.575 29.022007
69.580 29.286789
69.585 29.261555
69.590 28.817516
69.595 28.760874
69.600 28.803188
69.605 29.529854
69.610 29.727474
69.615 29.315781
69.620 29.437309
69.625 29.216333
69.630 29.660215
69.635 29.378317
69.640 29.498901
69.645 29.635876
69.650 29.880272
69.655 29.151321
69.660 29.720913
69.665 30.050907
69.670 30.338209
69.675 30.044672
69.680 28.912931
69.685 28.704021
69.690 29.516047
69.695 29.547506
69.700 30.344078
69.705 30.202879
69.710 29.856092
69.715 29.891018
69.720 29.824797
69.725 28.37023
69.730 27.841875
69.735 26.780245
69.740 25.79533
69.745 25.868475
69.750 25.70351
69.755 25.830032
69.760 26.656307
69.765 26.39291
69.770 26.42063
69.775 26.435566
69.780 26.445126
69.785 26.827175
69.790 26.578501
69.795 25.822422
69.800 25.535044
69.805 25.618231
69.810 25.424992
69.815 25.769804
69.820 25.036848
69.825 24.9027
69.830 25.419968
69.835 25.077976
69.840 24.598932
69.845 24.560732
69.850 24.095039
69.855 24.935104
69.860 24.422554
69.865 24.343525
69.870 25.463833
69.875 26.306438
69.880 26.831982
69.885 26.399097
69.890 26.100807
69.895 26.344761
69.900 25.750551
69.905 25.241518
69.910 25.064426
69.915 24.482023
69.920 24.89753
69.925 24.548824
69.930 24.419437
69.935 24.533232
69.940 23.815231
69.945 24.240002
69.950 24.487888
69.955 24.46307
69.960 24.575024
69.965 24.575035
69.970 25.169031
69.975 25.72143
69.980 25.070211
69.985 25.079659
69.990 24.623081
69.995 24.503803
70.000 23.818966
70.005 23.162575
70.010 22.773281
70.015 22.858173
70.020 22.887938
70.025 23.208656
70.030 23.536747
70.035 23.752628
70.040 23.898302
70.045 23.989218
70.050 23.873657
70.055 23.1091
70.060 22.402475
70.065 22.241537
70.070 22.388557
70.075 22.313709
70.080 21.881876
70.085 21.600691
70.090 21.834963
70.095 22.073103
70.100 21.684958
70.105 21.753168
70.110 21.249163
70.115 21.438679
70.120 22.291248
70.125 22.063671
70.130 22.07654
70.135 22.719328
70.140 23.273571
70.145 23.529301
70.150 23.062346
70.155 22.510685
70.160 22.944572
70.165 22.975901
70.170 22.373672
70.175 21.442669
70.180 21.213823
70.185 21.616091
70.190 21.66246
70.195 21.464931
70.200 21.059935
70.205 21.459999
70.210 21.694658
70.215 21.782013
70.220 21.619896
70.225 21.439402
70.230 21.449018
70.235 21.305958
70.240 21.614265
70.245 21.871098
70.250 22.066992
70.255 22.532274
70.260 22.630907
70.265 22.340906
70.270 21.855413
70.275 21.271948
70.280 20.770128
70.285 20.61051
70.290 20.172554
70.295 20.470245
70.300 20.930582
70.305 21.766226
70.310 21.440725
70.315 21.566658
70.320 21.226542
70.325 21.475399
70.330 21.309092
70.335 21.505911
70.340 21.231134
70.345 21.339016
70.350 21.493467
70.355 21.25148
70.360 21.036625
70.365 21.103228
70.370 20.673489
70.375 20.523365
70.380 20.541664
70.385 20.332605
70.390 20.285028
70.395 20.322954
70.400 20.667612
70.405 20.875504
70.410 20.867609
70.415 20.537868
70.420 20.514521
70.425 20.083115
70.430 19.988518
70.435 19.635874
70.440 19.268169
70.445 19.862507
70.450 20.243053
70.455 20.800074
70.460 21.147461
70.465 21.129957
70.470 21.454857
70.475 21.68327
70.480 21.769815
70.485 21.318892
70.490 21.111172
70.495 21.186457
70.500 21.183418
70.505 21.564701
70.510 21.058275
70.515 20.277046
70.520 20.209469
70.525 20.16412
70.530 20.267456
70.535 19.857904
70.540 19.331636
70.545 19.781076
70.550 20.750622
70.555 21.366186
70.560 21.370018
70.565 21.504969
70.570 21.55028
70.575 21.381998
70.580 21.119362
70.585 20.619366
70.590 20.446884
70.595 20.087585
70.600 20.308237
70.605 20.637695
70.610 20.82827
70.615 20.866617
70.620 20.656069
70.625 20.689316
70.630 20.937983
70.635 20.674829
70.640 20.635103
70.645 20.426968
70.650 20.388092
70.655 20.49419
70.660 20.104435
70.665 19.439262
70.670 18.73786
70.675 18.377941
70.680 18.479176
70.685 18.259644
70.690 18.305183
70.695 18.555378
70.700 19.144915
70.705 19.519026
70.710 19.33803
70.715 19.287842
70.720 19.603844
70.725 19.747248
70.730 20.003208
70.735 20.07012
70.740 19.869532
70.745 20.336617
70.750 20.554428
70.755 20.150846
70.760 19.46439
70.765 18.984888
70.770 18.646111
70.775 18.717278
70.780 18.179199
70.785 17.990683
70.790 18.340364
70.795 18.645992
70.800 19.036221
70.805 19.87579
70.810 19.493509
70.815 19.757092
70.820 20.256006
70.825 20.757853
70.830 21.031536
70.835 20.444029
70.840 20.174025
70.845 20.68676
70.850 20.735289
70.855 20.64344
70.860 19.980743
70.865 20.168837
70.870 19.738407
70.875 19.602652
70.880 19.648972
70.885 19.171383
70.890 19.010746
70.895 18.992397
70.900 19.220541
70.905 19.938131
70.910 19.774981
70.915 19.773756
70.920 19.897362
70.925 19.841808
70.930 19.804718
70.935 19.737192
70.940 19.599472
70.945 19.777601
70.950 19.975729
70.955 20.180567
70.960 19.824459
70.965 19.592615
70.970 19.721869
70.975 19.793722
70.980 19.023624
70.985 18.602955
70.990 18.427912
70.995 18.769104
71.000 19.066799
71.005 19.102478
71.010 19.204149
71.015 19.362711
71.020 19.379021
71.025 19.608101
71.030 19.732115
71.035 19.335907
71.040 19.569342
71.045 19.739773
71.050 20.043074
71.055 19.902832
71.060 19.57086
71.065 19.577227
71.070 19.707493
71.075 19.837166
71.080 19.649889
71.085 19.760105
71.090 20.478392
71.095 20.743759
71.100 20.727983
71.105 20.160158
71.110 19.851105
71.115 19.922424
71.120 19.68148
71.125 18.333059
71.130 17.893717
71.135 18.630423
71.140 18.843178
71.145 18.475807
71.150 18.583416
71.155 18.613333
71.160 19.473965
71.165 19.440323
71.170 19.347555
71.175 19.517303
71.180 19.152397
71.185 18.983767
71.190 18.999891
71.195 19.099352
71.200 19.195549
71.205 18.873755
71.210 19.264532
71.215 19.385475
71.220 19.271507
71.225 19.264791
71.230 18.418863
71.235 17.977451
71.240 17.691477
71.245 17.57197
71.250 17.286963
71.255 17.447376
71.260 17.166666
71.265 17.328312
71.270 17.739101
71.275 17.843941
71.280 17.898682
71.285 18.269182
71.290 18.122162
71.295 19.08687
71.300 18.91843
71.305 18.600965
71.310 18.695646
71.315 19.264544
71.320 19.300322
71.325 19.349752
71.330 19.528345
71.335 20.358198
71.340 20.299007
71.345 19.873621
71.350 20.038599
71.355 20.078434
71.360 19.397905
71.365 18.909544
71.370 19.041864
71.375 19.43981
71.380 19.820217
71.385 19.310963
71.390 19.512259
71.395 19.948156
71.400 19.981981
71.405 20.15432
71.410 20.222305
71.415 20.208534
71.420 20.525278
71.425 20.366823
71.430 19.975273
71.435 20.255955
71.440 19.919216
71.445 19.541183
71.450 19.823338
71.455 20.150309
71.460 20.581062
71.465 20.393827
71.470 20.171635
71.475 20.411304
71.480 20.456244
71.485 20.014395
71.490 20.031582
71.495 19.432949
71.500 19.055771
71.505 18.566723
71.510 18.146984
71.515 18.260155
71.520 18.268082
71.525 18.226845
71.530 18.857689
71.535 20.097567
71.540 20.758348
71.545 20.433502
71.550 19.758345
71.555 19.163963
71.560 19.256586
71.565 18.973738
71.570 18.861408
71.575 18.10153
71.580 18.606707
71.585 19.063679
71.590 19.692993
71.595 19.681513
71.600 19.824478
71.605 19.828848
71.610 20.266819
71.615 19.87746
71.620 19.495047
71.625 19.514271
71.630 19.619801
71.635 19.277081
71.640 18.502821
71.645 18.893698
71.650 19.797569
71.655 19.706409
71.660 19.263758
71.665 19.203291
71.670 19.789984
71.675 20.254284
71.680 19.433567
71.685 19.613955
71.690 20.048056
71.695 20.11718
71.700 19.478939
71.705 19.132723
71.710 19.494942
71.715 19.26643
71.720 19.368736
71.725 19.554926
71.730 20.013556
71.735 20.394894
71.740 20.37582
71.745 20.297401
71.750 19.870773
71.755 19.216118
71.760 19.353094
71.765 19.925028
71.770 20.351934
71.775 20.294971
71.780 20.380327
71.785 20.589754
71.790 20.120243
71.795 19.39872
71.800 18.874992
71.805 18.86812
71.810 19.286396
71.815 19.336893
71.820 19.628408
71.825 19.834635
71.830 19.927164
71.835 19.75148
71.840 19.421234
71.845 19.169853
71.850 19.279579
71.855 19.225981
71.860 19.207357
71.865 19.265987
71.870 19.802334
71.875 19.378725
71.880 19.11627
71.885 18.971066
71.890 19.358788
71.895 19.033178
71.900 18.879263
71.905 18.776613
71.910 18.769796
71.915 18.503376
71.920 18.668825
71.925 18.667923
71.930 19.276815
71.935 19.551222
71.940 19.90057
71.945 20.017063
71.950 19.963076
71.955 19.838999
71.960 19.906643
71.965 19.465254
71.970 19.33774
71.975 19.055666
71.980 19.759026
71.985 20.220446
71.990 20.190344
71.995 20.369354
72.000 19.973162
72.005 19.757231
72.010 19.210901
72.015 19.040449
72.020 19.281441
72.025 18.989969
72.030 18.662792
72.035 18.759602
72.040 18.906292
72.045 19.365387
72.050 19.390802
72.055 18.547831
72.060 18.487745
72.065 18.354408
72.070 18.184349
72.075 18.054577
72.080 17.299753
72.085 16.5847
72.090 17.070934
72.095 17.121227
72.100 17.240509
72.105 17.777517
72.110 18.147919
72.115 18.93379
72.120 19.860998
72.125 19.868858
72.130 20.139059
72.135 20.490616
72.140 20.396772
72.145 20.360996
72.150 19.978321
72.155 19.762562
72.160 20.089933
72.165 20.372126
72.170 20.543364
72.175 20.263872
72.180 20.028137
72.185 20.567621
72.190 20.579739
72.195 20.160398
72.200 19.618362
72.205 19.274996
72.210 19.316719
72.215 19.436882
72.220 19.02051
72.225 18.650408
72.230 18.875967
72.235 18.829123
72.240 19.154682
72.245 19.535336
72.250 20.117538
72.255 20.171919
72.260 20.039825
72.265 20.133009
72.270 19.81488
72.275 19.768293
72.280 19.467388
72.285 18.792849
72.290 19.166073
72.295 19.278343
72.300 18.964064
72.305 18.671654
72.310 18.444305
72.315 18.084888
72.320 17.975296
72.325 17.756315
72.330 18.004513
72.335 18.281372
72.340 18.489252
72.345 18.487656
72.350 18.618849
72.355 18.343601
72.360 18.480415
72.365 17.919678
72.370 17.977531
72.375 18.524368
72.380 18.846748
72.385 18.784014
72.390 19.089573
72.395 19.399603
72.400 20.084265
72.405 19.441366
72.410 18.829845
72.415 19.307859
72.420 19.51161
72.425 19.254164
72.430 18.635788
72.435 18.436022
72.440 18.783634
72.445 19.045572
72.450 18.86672
72.455 18.803553
72.460 18.190205
72.465 18.231234
72.470 18.456312
72.475 18.097612
72.480 17.795742
72.485 17.26494
72.490 17.638628
72.495 18.006657
72.500 17.87579
72.505 18.043377
72.510 18.221092
72.515 17.796627
72.520 17.663235
72.525 17.568623
72.530 17.658173
72.535 17.925837
72.540 18.079414
72.545 18.247639
72.550 18.576145
72.555 18.631258
72.560 18.874964
72.565 19.037819
72.570 19.275532
72.575 19.033972
72.580 18.967243
72.585 18.832033
72.590 18.635754
72.595 18.618542
72.600 18.839983
72.605 18.699018
72.610 18.931253
72.615 19.003679
72.620 18.973721
72.625 19.293341
72.630 18.98278
72.635 18.814726
72.640 18.305145
72.645 17.55545
72.650 17.605585
72.655 17.838161
72.660 18.127604
72.665 17.63467
72.670 17.415047
72.675 17.966816
72.680 18.287138
72.685 17.885
72.690 17.479185
72.695 17.733149
72.700 18.116859
72.705 17.9352
72.710 17.743784
72.715 18.033014
72.720 18.26433
72.725 18.23525
72.730 18.429388
72.735 18.554379
72.740 18.376572
72.745 18.525585
72.750 18.654142
72.755 19.096182
72.760 19.504414
72.765 19.042109
72.770 18.528913
72.775 18.188126
72.780 18.664436
72.785 18.760092
72.790 18.194315
72.795 17.737673
72.800 17.800177
72.805 17.892624
72.810 17.954996
72.815 17.547918
72.820 17.656239
72.825 18.400867
72.830 17.955866
72.835 18.127916
72.840 18.161827
72.845 18.218803
72.850 18.012445
72.855 17.726946
72.860 17.221003
72.865 16.992325
72.870 17.051395
72.875 16.880869
72.880 16.999369
72.885 17.116419
72.890 16.651327
72.895 16.729624
72.900 17.292736
72.905 17.726803
72.910 17.986971
72.915 17.578779
72.920 17.017351
72.925 17.353798
72.930 17.024382
72.935 16.650106
72.940 16.371403
72.945 15.695217
72.950 15.959334
72.955 16.510033
72.960 16.886581
72.965 17.124775
72.970 17.032999
72.975 17.54147
72.980 18.397245
72.985 18.756666
72.990 18.112341
72.995 17.47953
73.000 17.536253
