!@!!GADDS PLOTSO FILE: Chi integration type
!@!!Title/SampleName: map-145
!@!!Comment: ?
!@!!User: Bruker Instrument Administrator
!@!!Site: University of Illinois Chicago
!@!!Frame: map-145_01_000.gfrm
!@!!Wavelengths    1.54184   1.54056   1.54439
!@!!Frame angles: 2Theta: 63.000 Omega: 50.000 Phi: 0.000 Chi: 90.000
!@!!Integration range: 2Theta: 53.000 to 73.000  Gamma: -105.000 to -75.000
!@!!Integration method: bin normalized
!@!N
!@!SS
!@!M
!@!L 0.0 0.0 0.0 0.0
!@!XDegrees
!@!YCounts
53.000 8.301133
53.005 8.634392
53.010 8.892383
53.015 8.60279
53.020 8.66048
53.025 8.971236
53.030 8.97805
53.035 8.889744
53.040 9.240541
53.045 9.556767
53.050 9.87313
53.055 10.069666
53.060 10.134171
53.065 10.172844
53.070 10.176511
53.075 9.753653
53.080 9.520279
53.085 9.786989
53.090 9.554177
53.095 9.654615
53.100 9.86321
53.105 9.667537
53.110 9.043455
53.115 9.078167
53.120 9.193911
53.125 9.192745
53.130 9.593422
53.135 10.217618
53.140 10.365818
53.145 10.664595
53.150 10.721025
53.155 11.220984
53.160 11.604676
53.165 11.035519
53.170 10.441278
53.175 10.450147
53.180 10.707886
53.185 10.46209
53.190 10.273144
53.195 10.132068
53.200 10.418609
53.205 10.434085
53.210 10.455125
53.215 10.034998
53.220 9.800732
53.225 9.225418
53.230 8.779737
53.235 9.271092
53.240 9.593284
53.245 10.034456
53.250 10.171146
53.255 10.01068
53.260 10.191467
53.265 9.704963
53.270 8.953711
53.275 8.732993
53.280 8.868361
53.285 9.049332
53.290 9.464687
53.295 9.429415
53.300 9.723386
53.305 10.274819
53.310 10.257998
53.315 10.538775
53.320 10.667268
53.325 10.54322
53.330 10.909599
53.335 11.107835
53.340 10.851816
53.345 10.731523
53.350 9.717487
53.355 9.530725
53.360 9.371895
53.365 8.937517
53.370 8.559403
53.375 8.342973
53.380 8.491084
53.385 8.943147
53.390 9.058167
53.395 9.279402
53.400 9.521841
53.405 9.936692
53.410 10.171009
53.415 10.053658
53.420 10.121043
53.425 9.828099
53.430 9.937687
53.435 9.774049
53.440 9.764144
53.445 9.665452
53.450 9.554171
53.455 9.627972
53.460 9.577386
53.465 9.732182
53.470 9.747995
53.475 9.528429
53.480 9.35442
53.485 9.631474
53.490 9.538403
53.495 9.437238
53.500 9.311086
53.505 9.317
53.510 10.082264
53.515 10.857658
53.520 10.684742
53.525 10.782996
53.530 10.848266
53.535 11.118028
53.540 11.223485
53.545 10.704614
53.550 10.582903
53.555 10.540987
53.560 10.910914
53.565 10.896156
53.570 10.673767
53.575 10.498479
53.580 10.22163
53.585 10.293919
53.590 10.627096
53.595 10.34584
53.600 10.811919
53.605 11.029767
53.610 11.240282
53.615 11.614702
53.620 11.831658
53.625 12.394598
53.630 12.40593
53.635 12.285405
53.640 12.202218
53.645 11.692141
53.650 11.794246
53.655 11.213971
53.660 10.526022
53.665 10.812918
53.670 10.563797
53.675 10.810318
53.680 10.962148
53.685 11.02307
53.690 11.28337
53.695 11.263952
53.700 11.144626
53.705 11.447782
53.710 11.309306
53.715 11.112769
53.720 10.858059
53.725 11.051192
53.730 11.58678
53.735 11.598751
53.740 11.752247
53.745 11.69338
53.750 11.627724
53.755 11.52881
53.760 11.193211
53.765 10.612491
53.770 10.268669
53.775 9.795704
53.780 10.192384
53.785 10.31659
53.790 10.154701
53.795 10.110159
53.800 10.153571
53.805 9.988081
53.810 9.976848
53.815 9.8989
53.820 10.060061
53.825 10.102085
53.830 9.67274
53.835 9.756177
53.840 9.753914
53.845 10.064506
53.850 9.99068
53.855 9.937808
53.860 10.190801
53.865 10.273164
53.870 10.28081
53.875 10.749312
53.880 10.434284
53.885 10.383361
53.890 10.280462
53.895 9.889151
53.900 10.227365
53.905 10.222428
53.910 10.520754
53.915 10.630425
53.920 10.717806
53.925 10.690972
53.930 11.277946
53.935 11.337602
53.940 11.354188
53.945 11.521572
53.950 11.094189
53.955 11.213349
53.960 11.054697
53.965 10.583512
53.970 10.611837
53.975 10.447693
53.980 10.115809
53.985 10.520886
53.990 10.948051
53.995 11.589378
54.000 11.710532
54.005 11.104839
54.010 11.522102
54.015 11.53928
54.020 11.582732
54.025 11.405725
54.030 11.171848
54.035 11.622757
54.040 11.632536
54.045 11.188022
54.050 11.523739
54.055 11.497834
54.060 11.681936
54.065 11.549722
54.070 11.220712
54.075 11.306914
54.080 11.727729
54.085 11.346551
54.090 11.278172
54.095 10.898325
54.100 11.033903
54.105 11.361278
54.110 11.348318
54.115 11.165814
54.120 11.225548
54.125 11.367901
54.130 11.260148
54.135 11.143229
54.140 10.765611
54.145 10.528921
54.150 10.1844
54.155 9.582994
54.160 9.160392
54.165 9.528697
54.170 9.576903
54.175 9.634054
54.180 9.678329
54.185 10.062226
54.190 10.438102
54.195 10.310937
54.200 10.423339
54.205 10.217146
54.210 10.457869
54.215 10.741302
54.220 10.796103
54.225 10.980393
54.230 11.247568
54.235 11.791564
54.240 11.889578
54.245 11.34166
54.250 11.265689
54.255 11.763267
54.260 12.290792
54.265 12.292447
54.270 12.145555
54.275 12.322994
54.280 12.435095
54.285 12.277716
54.290 11.896248
54.295 11.569895
54.300 11.809472
54.305 11.888483
54.310 11.854082
54.315 11.829369
54.320 11.594479
54.325 11.492493
54.330 11.591923
54.335 11.748793
54.340 11.759885
54.345 11.71325
54.350 12.125733
54.355 12.162573
54.360 11.844119
54.365 11.515764
54.370 11.149519
54.375 11.426477
54.380 11.528253
54.385 11.214299
54.390 11.239284
54.395 11.280109
54.400 11.580249
54.405 11.924009
54.410 12.221433
54.415 11.990267
54.420 12.18868
54.425 12.545743
54.430 12.713134
54.435 12.261332
54.440 11.610966
54.445 11.097369
54.450 11.626491
54.455 11.770656
54.460 11.35456
54.465 11.328261
54.470 12.460352
54.475 13.071412
54.480 12.735206
54.485 12.311834
54.490 12.106776
54.495 12.251722
54.500 12.106166
54.505 11.420562
54.510 11.535348
54.515 12.509072
54.520 12.822096
54.525 13.01383
54.530 12.527812
54.535 12.137098
54.540 11.831822
54.545 11.079578
54.550 10.76584
54.555 10.742562
54.560 11.179623
54.565 11.353458
54.570 11.641144
54.575 12.101706
54.580 12.511073
54.585 12.445374
54.590 12.307961
54.595 12.207426
54.600 12.222242
54.605 12.044926
54.610 11.311116
54.615 11.117206
54.620 11.385403
54.625 11.125693
54.630 11.187094
54.635 11.430734
54.640 11.649103
54.645 12.050233
54.650 12.252503
54.655 12.573071
54.660 12.73452
54.665 12.516566
54.670 12.450203
54.675 12.426678
54.680 11.992537
54.685 11.827548
54.690 11.497387
54.695 11.716382
54.700 11.876089
54.705 11.760562
54.710 11.623659
54.715 11.682112
54.720 11.183456
54.725 10.647898
54.730 10.493546
54.735 10.320728
54.740 10.713062
54.745 10.818808
54.750 10.833971
54.755 11.266042
54.760 11.621356
54.765 11.374763
54.770 11.41748
54.775 11.34329
54.780 11.651437
54.785 12.324011
54.790 12.304817
54.795 12.13534
54.800 12.031048
54.805 11.915307
54.810 11.709735
54.815 11.612958
54.820 10.682825
54.825 10.559157
54.830 10.711769
54.835 10.779646
54.840 10.833615
54.845 11.093019
54.850 11.200066
54.855 11.457723
54.860 11.356434
54.865 11.72075
54.870 12.108692
54.875 11.987629
54.880 11.511088
54.885 11.140741
54.890 11.233462
54.895 11.431895
54.900 11.344077
54.905 11.136823
54.910 11.460408
54.915 11.510621
54.920 11.467769
54.925 11.500624
54.930 11.846917
54.935 12.052879
54.940 12.166097
54.945 12.104477
54.950 12.466765
54.955 12.47982
54.960 12.491363
54.965 12.285014
54.970 12.044616
54.975 11.84675
54.980 12.086022
54.985 12.529906
54.990 13.039657
54.995 13.014159
55.000 12.720141
55.005 12.880132
55.010 13.548182
55.015 13.367406
55.020 12.975598
55.025 12.925943
55.030 13.293831
55.035 13.580494
55.040 13.343241
55.045 12.729589
55.050 12.99578
55.055 13.28669
55.060 13.006911
55.065 12.673063
55.070 12.546316
55.075 12.406569
55.080 12.63114
55.085 11.858045
55.090 11.48392
55.095 11.392499
55.100 11.744905
55.105 11.806057
55.110 11.511643
55.115 11.423941
55.120 11.829112
55.125 11.795018
55.130 11.704201
55.135 11.144935
55.140 11.760945
55.145 12.596712
55.150 12.514124
55.155 12.38644
55.160 12.397452
55.165 12.304161
55.170 12.18141
55.175 11.891932
55.180 11.686053
55.185 12.040345
55.190 12.260558
55.195 12.552681
55.200 12.665719
55.205 13.003953
55.210 12.941345
55.215 12.846795
55.220 12.70805
55.225 12.855351
55.230 13.114493
55.235 13.276222
55.240 13.249852
55.245 13.134539
55.250 12.954557
55.255 11.882237
55.260 11.925118
55.265 11.535054
55.270 11.086106
55.275 10.646397
55.280 10.585271
55.285 10.612494
55.290 11.053844
55.295 10.770712
55.300 11.641625
55.305 12.305761
55.310 12.272109
55.315 12.634338
55.320 12.70108
55.325 12.951041
55.330 12.597908
55.335 12.005887
55.340 11.810504
55.345 11.991333
55.350 12.07028
55.355 12.387031
55.360 12.530365
55.365 12.537343
55.370 12.536544
55.375 12.298676
55.380 12.076167
55.385 12.343908
55.390 12.727804
55.395 12.797632
55.400 12.840261
55.405 12.948159
55.410 12.99932
55.415 13.093261
55.420 12.983006
55.425 12.62077
55.430 12.517704
55.435 12.166613
55.440 12.082479
55.445 12.314912
55.450 12.851665
55.455 12.582514
55.460 12.668036
55.465 12.55388
55.470 12.756537
55.475 12.640329
55.480 12.560596
55.485 12.167425
55.490 12.313601
55.495 12.581638
55.500 12.576884
55.505 12.996465
55.510 13.615894
55.515 13.996597
55.520 14.175131
55.525 13.948617
55.530 13.379549
55.535 13.557943
55.540 13.038819
55.545 12.282327
55.550 11.485079
55.555 11.533435
55.560 11.761207
55.565 11.95914
55.570 11.948061
55.575 12.259154
55.580 12.764806
55.585 12.842324
55.590 12.910116
55.595 12.941293
55.600 13.255926
55.605 13.227682
55.610 12.983634
55.615 12.536756
55.620 12.228045
55.625 12.22839
55.630 12.363691
55.635 12.044014
55.640 12.096251
55.645 12.199485
55.650 12.080682
55.655 12.14965
55.660 11.568204
55.665 11.667299
55.670 11.661281
55.675 11.876033
55.680 12.423483
55.685 12.956447
55.690 13.13722
55.695 13.112886
55.700 13.1566
55.705 13.623587
55.710 13.337938
55.715 12.78688
55.720 12.682588
55.725 12.547312
55.730 12.382489
55.735 11.973146
55.740 11.459065
55.745 11.841441
55.750 12.446955
55.755 12.460076
55.760 12.543131
55.765 12.818621
55.770 13.397519
55.775 13.45848
55.780 13.429501
55.785 13.107779
55.790 12.799665
55.795 12.398076
55.800 11.840755
55.805 11.262445
55.810 11.286638
55.815 11.609609
55.820 12.144456
55.825 12.476532
55.830 12.508501
55.835 13.229698
55.840 13.436846
55.845 13.234262
55.850 12.539456
55.855 12.354032
55.860 12.341451
55.865 12.519027
55.870 11.622406
55.875 11.636136
55.880 11.312181
55.885 10.996862
55.890 10.551416
55.895 10.94709
55.900 11.648621
55.905 12.545288
55.910 12.521377
55.915 12.972398
55.920 13.43413
55.925 13.425925
55.930 13.160091
55.935 12.608494
55.940 12.39671
55.945 13.016196
55.950 12.855697
55.955 13.039071
55.960 13.120601
55.965 12.679023
55.970 12.957901
55.975 12.679554
55.980 12.388639
55.985 12.492975
55.990 12.285018
55.995 12.124038
56.000 12.092545
56.005 11.842092
56.010 11.95723
56.015 11.997869
56.020 12.509301
56.025 12.892909
56.030 13.562286
56.035 13.832875
56.040 13.927007
56.045 14.033516
56.050 13.69381
56.055 13.643108
56.060 13.284554
56.065 12.9358
56.070 12.806612
56.075 12.632579
56.080 12.773343
56.085 12.961529
56.090 12.923555
56.095 13.345716
56.100 13.538164
56.105 13.797321
56.110 13.59604
56.115 13.190434
56.120 12.624121
56.125 12.061886
56.130 11.579978
56.135 11.509011
56.140 11.843344
56.145 12.337423
56.150 12.461947
56.155 13.076923
56.160 13.307484
56.165 13.822705
56.170 13.587337
56.175 13.267159
56.180 13.113838
56.185 13.442959
56.190 13.357546
56.195 13.767618
56.200 14.295405
56.205 14.358777
56.210 14.370959
56.215 14.57941
56.220 14.100956
56.225 14.166848
56.230 14.187716
56.235 13.806916
56.240 14.255077
56.245 14.63216
56.250 14.589241
56.255 14.670639
56.260 14.188426
56.265 13.385427
56.270 13.231645
56.275 12.720176
56.280 12.284093
56.285 12.383678
56.290 12.781788
56.295 13.339052
56.300 13.367959
56.305 13.195328
56.310 13.463301
56.315 13.605375
56.320 13.895096
56.325 14.124555
56.330 13.967079
56.335 14.016248
56.340 14.219004
56.345 14.186735
56.350 13.771024
56.355 13.443179
56.360 13.208464
56.365 12.98455
56.370 12.936174
56.375 12.642604
56.380 12.698277
56.385 13.05222
56.390 12.960068
56.395 12.725434
56.400 13.175149
56.405 13.457354
56.410 13.995398
56.415 13.873649
56.420 13.359243
56.425 12.773303
56.430 12.736078
56.435 12.32708
56.440 12.416657
56.445 12.342617
56.450 12.950687
56.455 13.219125
56.460 13.719518
56.465 14.094692
56.470 14.613271
56.475 14.684172
56.480 14.489767
56.485 14.41566
56.490 15.11403
56.495 15.681292
56.500 15.440066
56.505 14.960718
56.510 14.702371
56.515 14.18871
56.520 13.676909
56.525 12.988287
56.530 12.557545
56.535 12.543775
56.540 12.53444
56.545 12.177116
56.550 12.121077
56.555 12.621652
56.560 13.158567
56.565 13.072757
56.570 13.046137
56.575 12.972284
56.580 13.406403
56.585 13.653187
56.590 13.536938
56.595 12.912084
56.600 12.5054
56.605 12.605089
56.610 12.717665
56.615 13.047482
56.620 12.976428
56.625 13.14174
56.630 13.96351
56.635 15.139793
56.640 15.336631
56.645 15.4547
56.650 15.432583
56.655 15.839149
56.660 15.504885
56.665 14.786358
56.670 14.026302
56.675 14.543993
56.680 14.504596
56.685 14.953589
56.690 15.193137
56.695 15.165151
56.700 15.692831
56.705 15.656641
56.710 15.483408
56.715 15.246062
56.720 14.823148
56.725 14.732637
56.730 14.834615
56.735 14.690269
56.740 14.332217
56.745 14.304092
56.750 14.150427
56.755 14.158599
56.760 14.375023
56.765 14.606406
56.770 14.583973
56.775 15.208467
56.780 15.199422
56.785 15.174571
56.790 14.824777
56.795 14.65677
56.800 14.854836
56.805 15.006109
56.810 14.350372
56.815 14.44455
56.820 14.93996
56.825 14.878668
56.830 14.618521
56.835 13.928769
56.840 14.168351
56.845 14.265809
56.850 13.887638
56.855 13.558672
56.860 13.249699
56.865 13.025833
56.870 13.137733
56.875 12.752789
56.880 12.650366
56.885 13.105176
56.890 13.081366
56.895 12.866771
56.900 13.105569
56.905 13.26624
56.910 13.690354
56.915 14.127176
56.920 13.760252
56.925 13.905709
56.930 14.436428
56.935 13.798851
56.940 13.757453
56.945 13.491134
56.950 13.364418
56.955 13.521713
56.960 13.525825
56.965 13.494211
56.970 14.222554
56.975 14.12423
56.980 13.928152
56.985 14.271852
56.990 14.616129
56.995 14.61779
57.000 14.458255
57.005 14.402884
57.010 14.570041
57.015 14.209554
57.020 13.433213
57.025 13.322231
57.030 13.471634
57.035 13.58322
57.040 13.769536
57.045 13.902796
57.050 14.410344
57.055 14.488767
57.060 14.04214
57.065 13.605457
57.070 13.458539
57.075 13.224986
57.080 13.188772
57.085 12.816674
57.090 12.432102
57.095 12.391607
57.100 12.464258
57.105 12.129376
57.110 12.10622
57.115 12.28749
57.120 12.631776
57.125 13.298591
57.130 14.039195
57.135 14.930327
57.140 14.952392
57.145 14.752747
57.150 14.643225
57.155 14.539187
57.160 13.937385
57.165 13.466517
57.170 13.048686
57.175 13.527213
57.180 14.221755
57.185 14.158005
57.190 13.920656
57.195 14.144402
57.200 14.298717
57.205 14.807352
57.210 14.754304
57.215 14.43656
57.220 14.530103
57.225 14.861123
57.230 14.79364
57.235 14.098411
57.240 13.654274
57.245 13.327089
57.250 13.991173
57.255 14.320579
57.260 14.633693
57.265 14.95057
57.270 15.244652
57.275 14.894732
57.280 14.744309
57.285 14.115336
57.290 14.294518
57.295 14.103253
57.300 14.119151
57.305 14.78136
57.310 15.143076
57.315 15.332411
57.320 15.560007
57.325 15.434474
57.330 15.311177
57.335 14.916588
57.340 14.391619
57.345 14.394406
57.350 13.869137
57.355 13.824224
57.360 13.875735
57.365 14.460275
57.370 15.301486
57.375 15.694825
57.380 15.584404
57.385 15.753177
57.390 15.596589
57.395 15.62675
57.400 15.311133
57.405 14.875259
57.410 14.629971
57.415 14.51286
57.420 14.270062
57.425 14.008136
57.430 13.815657
57.435 14.1694
57.440 14.040838
57.445 14.232982
57.450 14.154495
57.455 14.313375
57.460 13.804505
57.465 13.575963
57.470 12.980198
57.475 13.422642
57.480 13.681108
57.485 14.006327
57.490 14.359628
57.495 15.606006
57.500 15.870871
57.505 16.240215
57.510 16.465219
57.515 16.944435
57.520 17.454681
57.525 17.335238
57.530 17.206871
57.535 17.154854
57.540 17.068237
57.545 17.052919
57.550 16.366369
57.555 15.995577
57.560 16.271229
57.565 15.485221
57.570 15.200519
57.575 15.07212
57.580 14.912238
57.585 15.195783
57.590 14.568461
57.595 14.6747
57.600 15.076375
57.605 14.899949
57.610 14.481252
57.615 14.309261
57.620 14.277023
57.625 15.021624
57.630 14.817626
57.635 14.995506
57.640 15.547865
57.645 15.572103
57.650 15.384851
57.655 15.361573
57.660 15.032591
57.665 14.616307
57.670 14.228135
57.675 14.195623
57.680 14.136774
57.685 14.532698
57.690 15.228294
57.695 15.509086
57.700 15.645841
57.705 15.777992
57.710 15.306729
57.715 15.492514
57.720 15.07073
57.725 14.438923
57.730 13.854411
57.735 13.359716
57.740 13.173953
57.745 13.323587
57.750 13.274962
57.755 13.111512
57.760 12.74493
57.765 12.786943
57.770 13.29156
57.775 13.613096
57.780 14.182377
57.785 14.132399
57.790 13.81764
57.795 13.852753
57.800 14.597933
57.805 15.03211
57.810 15.383742
57.815 15.30884
57.820 15.759178
57.825 16.469269
57.830 16.896893
57.835 16.684528
57.840 16.396324
57.845 16.264145
57.850 16.020441
57.855 15.781807
57.860 15.396742
57.865 15.001931
57.870 15.021114
57.875 14.971462
57.880 14.573918
57.885 14.094121
57.890 13.817472
57.895 13.92008
57.900 13.9903
57.905 13.638271
57.910 13.520144
57.915 14.063905
57.920 14.865063
57.925 15.303258
57.930 15.368826
57.935 15.57791
57.940 16.128691
57.945 15.92076
57.950 15.900133
57.955 15.88923
57.960 15.896443
57.965 16.307272
57.970 16.518921
57.975 16.362585
57.980 16.613041
57.985 16.536457
57.990 16.608253
57.995 16.289639
58.000 15.881264
58.005 15.965434
58.010 16.159739
58.015 16.068457
58.020 16.013741
58.025 15.476078
58.030 15.361675
58.035 15.251642
58.040 14.949006
58.045 14.704565
58.050 14.678774
58.055 14.708473
58.060 15.003624
58.065 15.471237
58.070 15.002737
58.075 14.786107
58.080 15.606565
58.085 15.493699
58.090 15.223153
58.095 15.172354
58.100 15.004412
58.105 15.487274
58.110 15.662659
58.115 14.620181
58.120 14.426268
58.125 14.588211
58.130 14.435197
58.135 14.849689
58.140 14.768197
58.145 14.329967
58.150 14.538805
58.155 14.934793
58.160 15.229214
58.165 15.395867
58.170 15.019378
58.175 14.775903
58.180 15.126548
58.185 15.516484
58.190 15.864858
58.195 15.894847
58.200 15.637076
58.205 15.698297
58.210 16.159313
58.215 15.975735
58.220 15.887042
58.225 15.573264
58.230 15.507102
58.235 15.581721
58.240 15.372303
58.245 15.198009
58.250 15.006962
58.255 14.700014
58.260 14.654711
58.265 15.023396
58.270 15.647544
58.275 15.635467
58.280 16.129135
58.285 16.653034
58.290 16.771229
58.295 16.142056
58.300 16.136147
58.305 16.414072
58.310 16.868196
58.315 16.421522
58.320 16.047628
58.325 16.185278
58.330 16.717361
58.335 16.177301
58.340 15.777599
58.345 15.727408
58.350 15.985716
58.355 16.199787
58.360 16.207701
58.365 16.167072
58.370 16.072557
58.375 16.070738
58.380 15.838569
58.385 15.716014
58.390 15.714565
58.395 15.653612
58.400 15.575299
58.405 15.734464
58.410 16.074011
58.415 16.388397
58.420 16.802494
58.425 16.755133
58.430 16.92363
58.435 17.336731
58.440 17.236288
58.445 17.381849
58.450 17.398479
58.455 17.311419
58.460 17.287539
58.465 17.461241
58.470 17.325411
58.475 17.107258
58.480 16.5019
58.485 16.255976
58.490 15.894711
58.495 15.591597
58.500 15.119516
58.505 15.08674
58.510 15.249404
58.515 15.218216
58.520 15.268022
58.525 15.895553
58.530 15.852531
58.535 15.520912
58.540 15.344509
58.545 15.256033
58.550 15.421878
58.555 15.698167
58.560 15.410028
58.565 15.526181
58.570 15.973519
58.575 16.025385
58.580 16.000996
58.585 16.114046
58.590 16.337622
58.595 16.101906
58.600 16.083012
58.605 16.161411
58.610 16.067585
58.615 16.000237
58.620 15.808408
58.625 15.991534
58.630 16.529722
58.635 17.014219
58.640 17.324387
58.645 17.485817
58.650 17.627247
58.655 17.097368
58.660 16.887476
58.665 16.938555
58.670 16.223597
58.675 16.051252
58.680 15.666958
58.685 15.356606
58.690 15.669786
58.695 16.072077
58.700 15.740932
58.705 15.653544
58.710 15.759968
58.715 16.17259
58.720 16.793577
58.725 16.744844
58.730 16.460056
58.735 17.054365
58.740 17.836174
58.745 17.842644
58.750 17.313505
58.755 16.774603
58.760 17.186522
58.765 16.919899
58.770 16.790445
58.775 16.069887
58.780 16.182934
58.785 16.721731
58.790 16.661434
58.795 15.95884
58.800 15.929519
58.805 15.209729
58.810 15.603223
58.815 15.644307
58.820 15.811696
58.825 16.374399
58.830 16.13814
58.835 16.313765
58.840 17.166927
58.845 16.571545
58.850 15.959959
58.855 15.618727
58.860 15.515295
58.865 15.606435
58.870 15.899712
58.875 15.905399
58.880 16.170492
58.885 16.656166
58.890 16.966637
58.895 16.983456
58.900 17.166107
58.905 16.359755
58.910 16.532602
58.915 16.83292
58.920 16.895718
58.925 17.141151
58.930 17.679281
58.935 17.894234
58.940 18.199696
58.945 17.979836
58.950 17.979387
58.955 17.998964
58.960 17.607685
58.965 17.011477
58.970 16.582376
58.975 16.219614
58.980 15.859929
58.985 15.71582
58.990 15.466496
58.995 16.000195
59.000 16.29628
59.005 16.994097
59.010 17.872967
59.015 18.02416
59.020 18.04929
59.025 17.961029
59.030 17.845125
59.035 17.686872
59.040 17.086906
59.045 17.397497
59.050 17.724529
59.055 18.365105
59.060 18.618658
59.065 17.936747
59.070 17.756622
59.075 17.748489
59.080 16.840494
59.085 16.209173
59.090 15.290142
59.095 15.392685
59.100 16.091679
59.105 16.617325
59.110 16.883051
59.115 17.102493
59.120 17.389969
59.125 17.943302
59.130 17.820904
59.135 17.511974
59.140 17.145868
59.145 17.263636
59.150 17.25086
59.155 16.952301
59.160 16.667486
59.165 16.926388
59.170 17.06041
59.175 16.959436
59.180 16.666754
59.185 16.395334
59.190 16.690008
59.195 16.389883
59.200 15.422583
59.205 15.120092
59.210 14.986441
59.215 14.669014
59.220 15.10901
59.225 15.667193
59.230 16.003801
59.235 16.444351
59.240 16.382524
59.245 16.32419
59.250 16.279467
59.255 16.054249
59.260 15.697594
59.265 15.765718
59.270 16.116547
59.275 16.130886
59.280 16.618771
59.285 16.818369
59.290 16.768072
59.295 16.804552
59.300 16.520157
59.305 16.296804
59.310 15.834564
59.315 15.281954
59.320 15.191566
59.325 15.047277
59.330 15.170708
59.335 15.749082
59.340 15.942145
59.345 16.713903
59.350 16.868431
59.355 17.362356
59.360 17.161116
59.365 17.066437
59.370 16.932009
59.375 16.763941
59.380 16.721182
59.385 17.310419
59.390 17.676895
59.395 18.292509
59.400 18.589485
59.405 18.699736
59.410 18.843143
59.415 19.339277
59.420 19.405928
59.425 18.263659
59.430 17.716763
59.435 17.460737
59.440 17.626736
59.445 18.335958
59.450 18.135235
59.455 18.011499
59.460 19.115046
59.465 19.503067
59.470 18.65233
59.475 18.292665
59.480 18.087519
59.485 17.98461
59.490 18.742346
59.495 18.545095
59.500 18.808071
59.505 19.252653
59.510 19.350336
59.515 18.938829
59.520 18.932629
59.525 18.31801
59.530 18.595125
59.535 18.274889
59.540 18.220009
59.545 18.097572
59.550 18.702963
59.555 18.675537
59.560 18.406454
59.565 18.039165
59.570 18.97101
59.575 19.353018
59.580 19.648726
59.585 19.295435
59.590 19.146971
59.595 19.414215
59.600 19.589809
59.605 19.279631
59.610 19.539862
59.615 19.266869
59.620 19.022167
59.625 18.70961
59.630 18.378098
59.635 18.154743
59.640 18.021114
59.645 17.827391
59.650 18.212488
59.655 18.549397
59.660 18.788652
59.665 18.966513
59.670 19.673729
59.675 20.138699
59.680 20.558069
59.685 20.866783
59.690 21.547535
59.695 22.179871
59.700 22.123672
59.705 21.778603
59.710 20.908163
59.715 20.586929
59.720 20.085258
59.725 19.898884
59.730 19.958738
59.735 20.146292
59.740 20.133862
59.745 20.633926
59.750 20.354343
59.755 20.13341
59.760 20.177288
59.765 20.806208
59.770 21.186691
59.775 21.578287
59.780 21.861221
59.785 22.190699
59.790 22.295649
59.795 21.900639
59.800 21.569168
59.805 21.130163
59.810 20.872662
59.815 20.626747
59.820 20.681992
59.825 20.704679
59.830 20.968927
59.835 20.875595
59.840 21.377331
59.845 21.219061
59.850 21.523954
59.855 21.874361
59.860 21.929291
59.865 21.727814
59.870 21.612846
59.875 21.764565
59.880 22.291443
59.885 22.081873
59.890 21.788954
59.895 21.972952
59.900 21.990345
59.905 22.206261
59.910 21.791567
59.915 20.84997
59.920 21.26362
59.925 21.95075
59.930 22.281258
59.935 22.09812
59.940 21.877731
59.945 22.341946
59.950 22.991152
59.955 22.649982
59.960 21.987885
59.965 22.419489
59.970 23.214624
59.975 23.25284
59.980 22.712141
59.985 22.858177
59.990 23.080465
59.995 23.220631
60.000 22.430878
60.005 22.551016
60.010 23.20656
60.015 23.741278
60.020 23.489882
60.025 23.532141
60.030 23.58564
60.035 23.673504
60.040 23.460627
60.045 23.339952
60.050 23.735744
60.055 23.853884
60.060 23.627462
60.065 23.813091
60.070 23.890511
60.075 23.454096
60.080 23.160133
60.085 23.009241
60.090 22.690311
60.095 22.209814
60.100 22.027948
60.105 22.101107
60.110 22.117081
60.115 22.124598
60.120 22.168083
60.125 22.81818
60.130 23.328598
60.135 22.951878
60.140 22.789835
60.145 23.082201
60.150 22.943193
60.155 22.876459
60.160 23.261417
60.165 23.587717
60.170 23.621506
60.175 22.944822
60.180 22.781137
60.185 22.756105
60.190 22.492449
60.195 21.889587
60.200 22.073471
60.205 23.049345
60.210 23.558399
60.215 23.420912
60.220 23.225121
60.225 23.628035
60.230 24.284363
60.235 23.743038
60.240 22.721781
60.245 22.759949
60.250 23.030661
60.255 22.58156
60.260 21.407181
60.265 20.234879
60.270 19.855877
60.275 20.085546
60.280 19.778063
60.285 19.364071
60.290 19.734118
60.295 20.656975
60.300 21.514687
60.305 21.92211
60.310 22.140968
60.315 22.064075
60.320 22.186623
60.325 21.70936
60.330 21.263494
60.335 20.720947
60.340 20.448101
60.345 20.182789
60.350 20.942156
60.355 21.733105
60.360 21.845198
60.365 21.523594
60.370 22.115862
60.375 22.285952
60.380 22.232656
60.385 21.655409
60.390 21.389212
60.395 22.14064
60.400 22.595913
60.405 22.522167
60.410 22.299017
60.415 22.551233
60.420 22.174902
60.425 21.626329
60.430 21.381697
60.435 20.898096
60.440 20.467232
60.445 20.703053
60.450 20.50148
60.455 20.744843
60.460 20.739229
60.465 20.410641
60.470 20.885452
60.475 21.254333
60.480 21.312693
60.485 21.367657
60.490 21.49769
60.495 21.771973
60.500 21.783278
60.505 21.639912
60.510 20.847967
60.515 20.56739
60.520 20.375345
60.525 20.17392
60.530 20.0327
60.535 19.78949
60.540 19.755535
60.545 19.809406
60.550 19.85829
60.555 20.180092
60.560 19.973581
60.565 19.749182
60.570 20.213964
60.575 20.072622
60.580 20.068081
60.585 20.002674
60.590 20.544992
60.595 21.271294
60.600 20.99029
60.605 19.849224
60.610 19.804117
60.615 19.781622
60.620 19.826216
60.625 19.358961
60.630 18.672157
60.635 19.155596
60.640 19.89958
60.645 20.096087
60.650 20.232792
60.655 19.981234
60.660 19.777267
60.665 19.943575
60.670 19.63842
60.675 19.062834
60.680 18.634092
60.685 18.395081
60.690 18.529137
60.695 18.971504
60.700 18.966337
60.705 19.125189
60.710 19.192608
60.715 19.438295
60.720 19.712727
60.725 19.489964
60.730 18.710993
60.735 18.508316
60.740 18.42989
60.745 18.700844
60.750 19.028576
60.755 18.901463
60.760 18.461037
60.765 18.603878
60.770 18.973469
60.775 19.286444
60.780 19.230843
60.785 19.172239
60.790 18.970589
60.795 19.314945
60.800 19.176531
60.805 19.05862
60.810 18.802444
60.815 18.470558
60.820 18.475744
60.825 18.926371
60.830 18.831123
60.835 18.866749
60.840 18.839815
60.845 18.873264
60.850 19.471245
60.855 18.883472
60.860 18.977333
60.865 19.26025
60.870 19.628248
60.875 20.0763
60.880 20.416187
60.885 20.326143
60.890 20.484756
60.895 20.577177
60.900 20.711451
60.905 19.949856
60.910 19.029688
60.915 18.31525
60.920 17.802734
60.925 18.415249
60.930 18.505249
60.935 18.603699
60.940 19.584236
60.945 20.178566
60.950 20.255194
60.955 20.40243
60.960 20.021444
60.965 20.399706
60.970 20.596546
60.975 20.147507
60.980 20.210569
60.985 20.038834
60.990 20.015926
60.995 19.854893
61.000 18.970318
61.005 18.103456
61.010 17.357119
61.015 16.579533
61.020 17.741478
61.025 17.549973
61.030 17.193438
61.035 16.954308
61.040 16.773035
61.045 17.129555
61.050 17.302296
61.055 16.166626
61.060 16.459637
61.065 16.704237
61.070 16.913198
61.075 17.220793
61.080 17.367771
61.085 17.964405
61.090 18.317432
61.095 18.538465
61.100 18.80719
61.105 18.67388
61.110 18.465857
61.115 18.327183
61.120 17.852175
61.125 17.33836
61.130 16.588278
61.135 16.076635
61.140 16.178577
61.145 16.778841
61.150 16.852087
61.155 16.482954
61.160 17.126324
61.165 17.55731
61.170 17.474995
61.175 17.397459
61.180 17.069042
61.185 16.859257
61.190 16.708595
61.195 16.641966
61.200 16.914356
61.205 17.054882
61.210 17.101048
61.215 17.235306
61.220 17.451853
61.225 17.862209
61.230 17.607298
61.235 17.591063
61.240 18.018801
61.245 18.16996
61.250 18.284256
61.255 18.430841
61.260 18.603895
61.265 18.161922
61.270 17.670565
61.275 17.17697
61.280 17.27553
61.285 17.01693
61.290 16.902056
61.295 16.73332
61.300 17.037216
61.305 17.128508
61.310 17.248413
61.315 17.037336
61.320 17.633202
61.325 17.838377
61.330 18.396896
61.335 18.092676
61.340 17.779888
61.345 17.564619
61.350 17.47908
61.355 16.931107
61.360 16.542208
61.365 15.925942
61.370 16.362858
61.375 16.914753
61.380 17.474773
61.385 17.427851
61.390 17.943108
61.395 18.415997
61.400 18.607023
61.405 18.015806
61.410 17.352919
61.415 16.88905
61.420 17.008888
61.425 16.606459
61.430 16.582787
61.435 16.991034
61.440 17.533911
61.445 18.218483
61.450 18.529591
61.455 18.301908
61.460 18.139757
61.465 17.960941
61.470 18.196789
61.475 18.263744
61.480 17.88905
61.485 17.61952
61.490 17.697355
61.495 17.805511
61.500 17.971384
61.505 17.851606
61.510 18.459568
61.515 18.598679
61.520 18.644157
61.525 18.333151
61.530 17.758476
61.535 17.219488
61.540 16.283747
61.545 15.360759
61.550 15.282345
61.555 15.746521
61.560 16.378433
61.565 16.971209
61.570 17.782837
61.575 18.664364
61.580 18.977819
61.585 18.942122
61.590 18.567751
61.595 18.142471
61.600 17.856567
61.605 17.227362
61.610 17.265129
61.615 17.545282
61.620 17.910564
61.625 18.281832
61.630 18.69112
61.635 19.028992
61.640 18.884157
61.645 18.511705
61.650 17.900528
61.655 18.313093
61.660 18.153753
61.665 17.935032
61.670 18.259966
61.675 18.727341
61.680 18.862644
61.685 18.949463
61.690 18.475863
61.695 18.60607
61.700 19.080219
61.705 19.186373
61.710 19.10738
61.715 19.350443
61.720 19.502432
61.725 19.355051
61.730 18.954584
61.735 18.041203
61.740 17.258043
61.745 17.249369
61.750 17.132423
61.755 16.980968
61.760 17.125177
61.765 17.562874
61.770 17.817371
61.775 18.062311
61.780 18.021179
61.785 17.584013
61.790 18.028494
61.795 18.325588
61.800 17.897419
61.805 18.008383
61.810 18.028242
61.815 18.012644
61.820 18.117743
61.825 18.087399
61.830 17.87393
61.835 18.018097
61.840 18.088057
61.845 18.040754
61.850 18.163261
61.855 18.283258
61.860 18.019089
61.865 18.133205
61.870 18.217358
61.875 17.91902
61.880 18.183371
61.885 18.082663
61.890 18.577133
61.895 19.292377
61.900 19.329908
61.905 19.066061
61.910 19.11484
61.915 19.41412
61.920 19.491726
61.925 18.961641
61.930 18.404982
61.935 18.458597
61.940 18.894802
61.945 18.631931
61.950 18.011442
61.955 17.848532
61.960 17.710598
61.965 17.011921
61.970 16.899374
61.975 17.595606
61.980 17.985821
61.985 17.805077
61.990 17.85751
61.995 17.59107
62.000 17.704885
62.005 17.663689
62.010 16.837906
62.015 16.760393
62.020 16.779446
62.025 16.542828
62.030 16.681236
62.035 16.541908
62.040 16.112978
62.045 16.320715
62.050 16.291395
62.055 16.380775
62.060 16.191246
62.065 16.371796
62.070 16.682953
62.075 16.551394
62.080 16.391134
62.085 16.225079
62.090 16.68001
62.095 17.04418
62.100 16.872147
62.105 16.886
62.110 17.334171
62.115 17.639458
62.120 17.699703
62.125 17.969357
62.130 18.712961
62.135 19.435682
62.140 19.322041
62.145 18.890354
62.150 18.916664
62.155 18.950884
62.160 18.80954
62.165 18.193703
62.170 17.92132
62.175 18.775042
62.180 19.215534
62.185 18.77161
62.190 18.470724
62.195 17.837959
62.200 17.4006
62.205 17.502527
62.210 17.17737
62.215 17.049667
62.220 17.663765
62.225 17.452791
62.230 17.711899
62.235 17.970028
62.240 18.124798
62.245 18.364971
62.250 18.460606
62.255 18.52454
62.260 18.854805
62.265 19.043709
62.270 18.11747
62.275 17.598896
62.280 17.017872
62.285 17.255672
62.290 16.974058
62.295 16.983864
62.300 17.184952
62.305 17.932484
62.310 18.27363
62.315 18.284582
62.320 18.125639
62.325 18.22653
62.330 18.092882
62.335 18.011446
62.340 17.779047
62.345 17.34816
62.350 17.661528
62.355 17.522799
62.360 17.863417
62.365 18.081001
62.370 18.32193
62.375 18.688154
62.380 18.970362
62.385 18.218073
62.390 17.551144
62.395 16.822737
62.400 16.498037
62.405 15.953098
62.410 16.117146
62.415 15.749804
62.420 16.174669
62.425 16.691135
62.430 17.426306
62.435 17.875832
62.440 18.614044
62.445 18.62587
62.450 19.213058
62.455 19.35881
62.460 19.737629
62.465 19.724056
62.470 19.600636
62.475 19.063429
62.480 19.386005
62.485 19.186016
62.490 18.42532
62.495 17.736351
62.500 17.598969
62.505 17.466972
62.510 17.190971
62.515 16.312086
62.520 16.15159
62.525 16.59651
62.530 16.844112
62.535 16.81967
62.540 16.838558
62.545 17.085361
62.550 17.447226
62.555 17.460756
62.560 17.271475
62.565 17.3878
62.570 17.288103
62.575 16.825556
62.580 16.489597
62.585 16.527834
62.590 16.803392
62.595 16.613482
62.600 16.397572
62.605 16.401077
62.610 16.996683
62.615 17.369925
62.620 17.046068
62.625 17.169102
62.630 17.754871
62.635 18.104692
62.640 18.522404
62.645 18.559643
62.650 18.436491
62.655 18.382296
62.660 18.198439
62.665 18.309696
62.670 18.22872
62.675 18.333069
62.680 18.298342
62.685 18.140997
62.690 19.205433
62.695 19.526939
62.700 19.194874
62.705 18.993816
62.710 19.136503
62.715 19.721012
62.720 20.299591
62.725 19.479687
62.730 19.630293
62.735 20.035391
62.740 20.226906
62.745 20.134197
62.750 20.020899
62.755 19.954767
62.760 19.960836
62.765 19.617067
62.770 19.388895
62.775 18.873598
62.780 18.740053
62.785 19.009108
62.790 19.139961
62.795 19.829147
62.800 20.43244
62.805 20.370108
62.810 20.925678
62.815 20.496134
62.820 20.153282
62.825 20.113731
62.830 19.067736
62.835 18.412165
62.840 18.287745
62.845 17.588301
62.850 17.20952
62.855 16.453197
62.860 16.021095
62.865 17.003054
62.870 17.33828
62.875 17.362301
62.880 17.671562
62.885 17.785143
62.890 17.712173
62.895 17.674288
62.900 17.158312
62.905 17.144987
62.910 17.40909
62.915 17.558506
62.920 18.131207
62.925 18.338842
62.930 18.59548
62.935 18.811106
62.940 18.841137
62.945 18.772482
62.950 18.376389
62.955 17.615559
62.960 17.536793
62.965 17.230669
62.970 17.190212
62.975 17.091476
62.980 17.21982
62.985 17.779055
62.990 19.086781
62.995 19.822327
63.000 19.671637
63.005 19.241371
63.010 18.85075
63.015 18.404545
63.020 18.231203
63.025 18.112953
63.030 17.91256
63.035 17.777939
63.040 17.743755
63.045 18.148939
63.050 18.615486
63.055 18.34082
63.060 17.909163
63.065 17.76615
63.070 18.216726
63.075 18.581638
63.080 18.671526
63.085 18.447708
63.090 18.289461
63.095 18.198605
63.100 17.797714
63.105 17.251219
63.110 17.252558
63.115 17.269484
63.120 16.898657
63.125 16.917938
63.130 16.914867
63.135 16.902605
63.140 17.241819
63.145 17.413216
63.150 17.21431
63.155 17.590698
63.160 17.63187
63.165 17.416391
63.170 18.010592
63.175 17.60223
63.180 17.37167
63.185 17.643068
63.190 17.989691
63.195 17.832691
63.200 18.414778
63.205 18.558277
63.210 19.07221
63.215 18.659695
63.220 18.315966
63.225 18.106031
63.230 18.225157
63.235 17.920353
63.240 17.414869
63.245 16.955662
63.250 17.634052
63.255 18.10158
63.260 17.973322
63.265 17.82526
63.270 18.061502
63.275 18.504177
63.280 18.861691
63.285 18.711796
63.290 18.406357
63.295 18.581924
63.300 19.159184
63.305 19.311346
63.310 19.250381
63.315 19.095264
63.320 19.524464
63.325 20.263083
63.330 20.564791
63.335 20.749708
63.340 20.821615
63.345 20.695528
63.350 20.743313
63.355 20.907854
63.360 20.315931
63.365 20.016632
63.370 18.923925
63.375 18.557264
63.380 19.221725
63.385 19.370176
63.390 18.549488
63.395 18.343662
63.400 18.891397
63.405 19.283825
63.410 18.710014
63.415 17.727688
63.420 17.377213
63.425 17.300354
63.430 17.146935
63.435 16.82774
63.440 17.246212
63.445 17.676954
63.450 18.252586
63.455 18.735008
63.460 20.134806
63.465 20.857815
63.470 21.062326
63.475 21.015133
63.480 21.398754
63.485 20.657356
63.490 19.773287
63.495 19.01697
63.500 18.741764
63.505 18.454357
63.510 18.204529
63.515 18.344019
63.520 18.672127
63.525 18.735115
63.530 18.374134
63.535 18.070723
63.540 18.213358
63.545 17.814766
63.550 17.119036
63.555 17.463758
63.560 17.76911
63.565 18.073261
63.570 18.332766
63.575 18.581295
63.580 19.59201
63.585 19.825924
63.590 19.756622
63.595 19.522436
63.600 19.236721
63.605 18.952963
63.610 18.310163
63.615 17.814474
63.620 18.156479
63.625 18.377939
63.630 18.296497
63.635 18.45997
63.640 18.765158
63.645 18.838699
63.650 18.411945
63.655 18.003868
63.660 17.590536
63.665 18.703444
63.670 18.892948
63.675 19.075113
63.680 19.199409
63.685 19.830404
63.690 20.047438
63.695 19.551468
63.700 18.832581
63.705 18.651241
63.710 18.391048
63.715 18.340595
63.720 18.194263
63.725 18.242212
63.730 18.933641
63.735 18.885086
63.740 19.096025
63.745 19.178558
63.750 19.523819
63.755 19.49297
63.760 19.509712
63.765 19.253582
63.770 19.165232
63.775 19.062122
63.780 19.653181
63.785 19.598736
63.790 19.52367
63.795 19.30422
63.800 19.270683
63.805 19.255602
63.810 18.857504
63.815 18.194138
63.820 18.064867
63.825 18.34704
63.830 18.872299
63.835 19.12085
63.840 18.908373
63.845 18.780411
63.850 18.744963
63.855 18.252918
63.860 18.231794
63.865 18.108128
63.870 18.054901
63.875 17.412981
63.880 17.739908
63.885 18.02294
63.890 18.829451
63.895 18.458691
63.900 18.126637
63.905 18.621943
63.910 19.416468
63.915 19.273899
63.920 18.74127
63.925 18.469727
63.930 18.721119
63.935 18.376566
63.940 17.64064
63.945 17.235184
63.950 17.189596
63.955 17.552433
63.960 17.946756
63.965 18.230707
63.970 19.077967
63.975 19.153587
63.980 19.175945
63.985 19.028502
63.990 19.067284
63.995 18.355106
64.000 18.612173
64.005 18.540236
64.010 19.101055
64.015 19.494587
64.020 19.861046
64.025 19.25395
64.030 19.373495
64.035 19.212507
64.040 18.67536
64.045 18.406906
64.050 18.436726
64.055 17.932577
64.060 18.165627
64.065 18.330545
64.070 17.583284
64.075 17.481581
64.080 17.161995
64.085 17.017113
64.090 17.324289
64.095 17.567625
64.100 17.27392
64.105 17.60008
64.110 17.861235
64.115 18.16053
64.120 18.383438
64.125 18.75458
64.130 18.778683
64.135 18.956491
64.140 19.194178
64.145 19.296453
64.150 18.952496
64.155 18.584352
64.160 18.333452
64.165 18.039616
64.170 18.324072
64.175 18.502214
64.180 18.643055
64.185 19.158234
64.190 19.256933
64.195 18.868984
64.200 18.684078
64.205 18.323439
64.210 18.194778
64.215 17.960274
64.220 17.554766
64.225 18.321417
64.230 18.677086
64.235 18.978317
64.240 19.099783
64.245 19.015471
64.250 19.010281
64.255 18.972929
64.260 18.059242
64.265 17.975624
64.270 17.948261
64.275 18.028955
64.280 18.111712
64.285 17.671835
64.290 18.303835
64.295 18.643656
64.300 18.99626
64.305 18.902691
64.310 18.610252
64.315 18.105761
64.320 18.015953
64.325 17.890217
64.330 17.303333
64.335 17.155602
64.340 17.247574
64.345 17.199333
64.350 17.626915
64.355 18.245258
64.360 18.194921
64.365 18.83736
64.370 19.065594
64.375 19.661898
64.380 20.640276
64.385 20.62529
64.390 20.441082
64.395 20.839689
64.400 21.328539
64.405 21.205158
64.410 20.482315
64.415 19.999212
64.420 20.136786
64.425 20.615528
64.430 20.512976
64.435 19.773899
64.440 19.997118
64.445 20.307095
64.450 20.342928
64.455 20.159576
64.460 19.64719
64.465 19.164921
64.470 19.109085
64.475 18.719355
64.480 19.319134
64.485 19.148939
64.490 19.115074
64.495 19.580011
64.500 19.985546
64.505 20.393387
64.510 20.15341
64.515 19.881205
64.520 20.508993
64.525 20.5441
64.530 20.651028
64.535 20.562954
64.540 20.829517
64.545 21.027613
64.550 20.843224
64.555 20.500942
64.560 20.367971
64.565 20.189117
64.570 19.732038
64.575 19.185328
64.580 18.771906
64.585 18.485928
64.590 18.446177
64.595 18.124184
64.600 17.956699
64.605 17.919504
64.610 18.089264
64.615 17.971872
64.620 18.096895
64.625 18.049295
64.630 18.231211
64.635 18.564425
64.640 19.147711
64.645 19.852583
64.650 20.18631
64.655 20.526554
64.660 20.891502
64.665 21.16173
64.670 20.882771
64.675 21.021887
64.680 21.022617
64.685 20.924028
64.690 20.798651
64.695 20.854412
64.700 20.561472
64.705 20.378031
64.710 20.397028
64.715 20.66498
64.720 20.964993
64.725 20.846016
64.730 20.504158
64.735 20.497599
64.740 20.691385
64.745 20.516375
64.750 20.856354
64.755 20.823067
64.760 20.41091
64.765 20.192802
64.770 20.079411
64.775 20.242857
64.780 20.319775
64.785 19.761229
64.790 19.788826
64.795 20.486444
64.800 20.996536
64.805 20.991814
64.810 21.055763
64.815 20.904341
64.820 20.765919
64.825 20.816599
64.830 20.519159
64.835 20.890585
64.840 21.485729
64.845 21.54529
64.850 21.984282
64.855 22.5662
64.860 22.5919
64.865 22.910223
64.870 22.927603
64.875 22.821377
64.880 22.862093
64.885 22.373287
64.890 22.598318
64.895 22.593576
64.900 22.36862
64.905 22.473715
64.910 22.762066
64.915 22.653017
64.920 23.490391
64.925 23.438019
64.930 24.080706
64.935 25.028147
64.940 25.832773
64.945 26.034918
64.950 26.302425
64.955 25.633783
64.960 24.774872
64.965 23.885406
64.970 23.174873
64.975 22.529915
64.980 22.275644
64.985 22.456152
64.990 23.129622
64.995 24.043823
65.000 24.284889
65.005 24.241598
65.010 24.010813
65.015 23.916817
65.020 23.658745
65.025 23.679626
65.030 23.950266
65.035 24.177254
65.040 24.071411
65.045 23.83604
65.050 24.046564
65.055 23.857691
65.060 23.397974
65.065 23.182373
65.070 23.285763
65.075 23.775023
65.080 23.899246
65.085 23.952068
65.090 24.422705
65.095 24.415068
65.100 24.752964
65.105 25.31435
65.110 25.499788
65.115 26.223347
65.120 26.654646
65.125 25.946655
65.130 25.695047
65.135 25.054752
65.140 24.165751
65.145 24.01923
65.150 23.237089
65.155 22.759916
65.160 23.055513
65.165 23.626217
65.170 23.937891
65.175 23.698231
65.180 23.686193
65.185 24.474064
65.190 24.365675
65.195 24.463552
65.200 24.741398
65.205 24.866701
65.210 25.342688
65.215 24.665358
65.220 24.196438
65.225 24.466362
65.230 24.016287
65.235 23.01992
65.240 23.116604
65.245 22.813993
65.250 22.829103
65.255 22.486725
65.260 23.078003
65.265 23.804789
65.270 24.107092
65.275 23.683292
65.280 24.378334
65.285 24.844444
65.290 24.902449
65.295 24.492683
65.300 24.224443
65.305 24.474823
65.310 24.367165
65.315 24.062887
65.320 24.139357
65.325 24.529709
65.330 24.317284
65.335 24.548632
65.340 24.362091
65.345 24.207897
65.350 24.280123
65.355 24.258844
65.360 23.930611
65.365 23.888546
65.370 23.331244
65.375 23.514389
65.380 23.837082
65.385 24.377859
65.390 24.338188
65.395 24.337835
65.400 24.929947
65.405 25.825693
65.410 25.997572
65.415 26.270027
65.420 26.147902
65.425 26.553127
65.430 26.661921
65.435 26.10853
65.440 25.503462
65.445 25.544821
65.450 26.110369
65.455 25.712679
65.460 26.242598
65.465 26.973915
65.470 26.81793
65.475 26.702766
65.480 26.90004
65.485 27.018148
65.490 27.011501
65.495 26.581432
65.500 25.967348
65.505 27.344084
65.510 27.928019
65.515 28.079405
65.520 27.634226
65.525 27.746029
65.530 27.95104
65.535 27.848532
65.540 27.160568
65.545 27.566498
65.550 27.49733
65.555 27.674849
65.560 27.468307
65.565 27.87285
65.570 28.167141
65.575 28.598675
65.580 28.785934
65.585 29.048094
65.590 29.130449
65.595 28.873604
65.600 28.683001
65.605 29.536949
65.610 30.315058
65.615 30.308947
65.620 30.5933
65.625 31.15159
65.630 32.233479
65.635 32.789246
65.640 33.260574
65.645 32.888172
65.650 32.986099
65.655 33.083527
65.660 32.836975
65.665 32.685276
65.670 32.024891
65.675 31.41637
65.680 32.386917
65.685 33.285267
65.690 33.976101
65.695 34.259323
65.700 34.563046
65.705 35.041363
65.710 34.577728
65.715 34.528427
65.720 34.016472
65.725 34.248741
65.730 35.252575
65.735 36.070301
65.740 36.665215
65.745 36.862049
65.750 36.609795
65.755 36.923851
65.760 35.859825
65.765 35.69207
65.770 35.305119
65.775 35.330849
65.780 35.644127
65.785 35.72467
65.790 36.046722
65.795 37.169739
65.800 36.867355
65.805 36.849861
65.810 36.463219
65.815 36.751308
65.820 37.165306
65.825 36.792786
65.830 36.745529
65.835 36.52737
65.840 37.05875
65.845 37.427383
65.850 36.997978
65.855 36.94405
65.860 37.075275
65.865 37.151321
65.870 37.308769
65.875 36.410816
65.880 36.630058
65.885 36.98452
65.890 37.061375
65.895 37.516792
65.900 37.406078
65.905 37.620403
65.910 37.921463
65.915 38.595665
65.920 39.188103
65.925 39.825989
65.930 40.249836
65.935 40.459694
65.940 41.100555
65.945 41.228123
65.950 40.438183
65.955 40.187675
65.960 39.866875
65.965 38.85902
65.970 38.594513
65.975 38.795288
65.980 39.449928
65.985 40.068871
65.990 40.628593
65.995 41.246506
66.000 42.327446
66.005 42.340797
66.010 41.690174
66.015 41.011253
66.020 40.887196
66.025 40.909214
66.030 40.560696
66.035 40.293472
66.040 40.644657
66.045 40.787914
66.050 41.015934
66.055 40.401169
66.060 40.106419
66.065 40.519638
66.070 40.427788
66.075 40.529606
66.080 39.841919
66.085 40.079865
66.090 39.792637
66.095 39.485134
66.100 38.851475
66.105 38.236748
66.110 37.933578
66.115 38.179905
66.120 37.686066
66.125 37.64465
66.130 36.956688
66.135 36.545746
66.140 36.707138
66.145 36.730064
66.150 35.788589
66.155 36.377262
66.160 36.786366
66.165 37.415199
66.170 37.931396
66.175 37.169235
66.180 37.642887
66.185 38.661705
66.190 37.829025
66.195 37.161423
66.200 36.53537
66.205 36.050343
66.210 36.2384
66.215 35.193783
66.220 34.904583
66.225 35.647236
66.230 36.484062
66.235 36.76437
66.240 37.117397
66.245 36.828911
66.250 37.592869
66.255 37.95821
66.260 37.768681
66.265 37.131702
66.270 36.453537
66.275 36.092438
66.280 36.383453
66.285 36.377544
66.290 36.163624
66.295 35.604698
66.300 35.228062
66.305 34.783501
66.310 35.036541
66.315 34.84309
66.320 34.197498
66.325 33.517437
66.330 33.336666
66.335 33.651859
66.340 33.674671
66.345 32.921013
66.350 32.449474
66.355 31.727917
66.360 31.36994
66.365 31.535049
66.370 30.993626
66.375 30.795256
66.380 30.964983
66.385 30.316038
66.390 30.104818
66.395 29.987507
66.400 29.436665
66.405 29.36323
66.410 29.813023
66.415 30.473394
66.420 30.997936
66.425 31.582737
66.430 32.360889
66.435 32.367096
66.440 32.179192
66.445 31.103996
66.450 30.818375
66.455 30.911875
66.460 30.213762
66.465 29.772976
66.470 29.840609
66.475 30.612793
66.480 30.98914
66.485 30.608583
66.490 30.269562
66.495 30.043022
66.500 29.856676
66.505 29.488108
66.510 28.47942
66.515 28.259392
66.520 27.636934
66.525 27.538755
66.530 27.701412
66.535 28.013124
66.540 29.153133
66.545 29.732004
66.550 29.928293
66.555 30.623377
66.560 30.517008
66.565 30.76129
66.570 30.168243
66.575 29.665247
66.580 28.990572
66.585 27.870564
66.590 27.453455
66.595 27.576122
66.600 26.678339
66.605 26.665272
66.610 25.997925
66.615 26.065338
66.620 26.391106
66.625 26.504965
66.630 26.70919
66.635 26.497726
66.640 26.607681
66.645 26.661797
66.650 26.529627
66.655 26.487909
66.660 25.309662
66.665 24.70863
66.670 25.2901
66.675 25.298561
66.680 25.527122
66.685 25.660357
66.690 26.460888
66.695 26.846033
66.700 26.873289
66.705 26.021372
66.710 25.582293
66.715 25.141851
66.720 25.080484
66.725 24.894251
66.730 24.723547
66.735 24.796511
66.740 24.910351
66.745 24.783756
66.750 24.987268
66.755 24.399059
66.760 23.591406
66.765 23.690546
66.770 24.03496
66.775 24.346783
66.780 24.246704
66.785 24.82482
66.790 24.5425
66.795 24.454702
66.800 24.654963
66.805 24.464046
66.810 24.546694
66.815 24.420229
66.820 24.002897
66.825 24.589252
66.830 25.134542
66.835 25.086061
66.840 25.720917
66.845 25.409143
66.850 25.469053
66.855 24.617104
66.860 24.44836
66.865 23.999784
66.870 23.358875
66.875 23.044142
66.880 22.908848
66.885 22.978436
66.890 23.592644
66.895 23.180971
66.900 22.901964
66.905 23.006554
66.910 22.955112
66.915 23.734604
66.920 23.576777
66.925 22.944599
66.930 23.503199
66.935 23.745621
66.940 23.794567
66.945 23.511856
66.950 23.065861
66.955 22.757347
66.960 23.022036
66.965 23.632465
66.970 23.843718
66.975 23.45373
66.980 23.10051
66.985 23.251654
66.990 23.515985
66.995 23.553196
67.000 23.047306
67.005 23.836926
67.010 23.954372
67.015 24.0417
67.020 24.041479
67.025 24.143492
67.030 24.675232
67.035 23.82555
67.040 22.852739
67.045 22.982252
67.050 22.925533
67.055 22.426291
67.060 21.575439
67.065 20.88364
67.070 21.097435
67.075 21.549147
67.080 22.154425
67.085 22.537535
67.090 22.819174
67.095 22.934311
67.100 23.136234
67.105 23.216467
67.110 23.390934
67.115 23.319931
67.120 23.222733
67.125 22.760767
67.130 22.657448
67.135 22.500357
67.140 21.581421
67.145 21.108156
67.150 20.406776
67.155 20.002432
67.160 20.712809
67.165 20.918758
67.170 21.231136
67.175 22.044449
67.180 22.173815
67.185 22.328907
67.190 22.358562
67.195 22.275595
67.200 22.387167
67.205 22.125637
67.210 22.111469
67.215 21.712399
67.220 21.630857
67.225 21.243025
67.230 21.340361
67.235 20.851986
67.240 21.045784
67.245 20.725475
67.250 20.84709
67.255 21.24544
67.260 21.579517
67.265 21.417969
67.270 22.124922
67.275 21.499022
67.280 22.04936
67.285 22.636932
67.290 22.80941
67.295 23.247494
67.300 23.458017
67.305 22.854666
67.310 23.01054
67.315 22.499548
67.320 21.694029
67.325 21.355679
67.330 21.142265
67.335 20.920448
67.340 21.183439
67.345 21.381285
67.350 21.702225
67.355 22.077246
67.360 21.831018
67.365 21.968006
67.370 22.049925
67.375 22.125523
67.380 22.713612
67.385 22.148752
67.390 22.536776
67.395 22.605749
67.400 22.087702
67.405 21.883602
67.410 21.965754
67.415 21.187838
67.420 21.559254
67.425 21.332653
67.430 21.063393
67.435 21.051062
67.440 21.768787
67.445 21.604675
67.450 22.034643
67.455 22.279322
67.460 22.517265
67.465 23.154377
67.470 23.45578
67.475 23.368797
67.480 24.260691
67.485 25.220774
67.490 24.774729
67.495 24.354679
67.500 24.088882
67.505 24.204302
67.510 23.717628
67.515 22.824923
67.520 21.740351
67.525 21.582197
67.530 21.717709
67.535 21.435051
67.540 20.575678
67.545 20.469116
67.550 20.317694
67.555 20.441603
67.560 20.628176
67.565 20.721506
67.570 21.153116
67.575 21.737558
67.580 21.800737
67.585 22.050817
67.590 22.398737
67.595 22.132185
67.600 21.569172
67.605 21.79014
67.610 22.448603
67.615 22.650867
67.620 22.416605
67.625 22.080633
67.630 22.127686
67.635 22.207787
67.640 21.857433
67.645 21.266291
67.650 21.100372
67.655 21.163315
67.660 21.507715
67.665 21.606276
67.670 21.931925
67.675 22.675556
67.680 23.030832
67.685 23.149416
67.690 22.909346
67.695 22.462786
67.700 22.283995
67.705 21.690342
67.710 20.748264
67.715 20.563229
67.720 20.60467
67.725 20.563324
67.730 20.770784
67.735 20.848312
67.740 21.803629
67.745 22.224648
67.750 21.964615
67.755 21.665886
67.760 21.801636
67.765 21.810991
67.770 22.130207
67.775 21.855629
67.780 21.686066
67.785 22.065676
67.790 22.242996
67.795 22.934015
67.800 23.459999
67.805 23.348961
67.810 22.742046
67.815 22.613972
67.820 22.591602
67.825 22.827002
67.830 21.930712
67.835 21.281721
67.840 21.699297
67.845 21.747858
67.850 21.750946
67.855 21.848724
67.860 21.477617
67.865 21.539528
67.870 21.580574
67.875 21.242842
67.880 21.536476
67.885 21.677628
67.890 21.510517
67.895 21.587679
67.900 22.408287
67.905 22.950436
67.910 22.789051
67.915 23.070978
67.920 22.726994
67.925 22.726456
67.930 23.114893
67.935 22.512182
67.940 22.254978
67.945 22.102524
67.950 21.363367
67.955 21.263479
67.960 21.182203
67.965 20.404711
67.970 20.188192
67.975 19.758711
67.980 19.843725
67.985 20.999929
67.990 20.754025
67.995 20.54731
68.000 20.756618
68.005 20.436867
68.010 21.023798
68.015 21.121952
68.020 21.202595
68.025 21.818571
68.030 22.152205
68.035 22.163296
68.040 22.692083
68.045 22.623453
68.050 22.583616
68.055 22.257727
68.060 21.880594
68.065 21.816729
68.070 22.095575
68.075 22.336523
68.080 22.518322
68.085 22.550541
68.090 22.056278
68.095 21.738947
68.100 21.258486
68.105 20.668608
68.110 20.046888
68.115 19.996742
68.120 19.714764
68.125 20.318815
68.130 20.912973
68.135 21.143837
68.140 21.387648
68.145 21.128876
68.150 21.045141
68.155 20.941048
68.160 20.589073
68.165 20.819923
68.170 20.736631
68.175 20.727989
68.180 20.898224
68.185 21.249556
68.190 21.520226
68.195 21.01926
68.200 20.07645
68.205 19.636229
68.210 19.357376
68.215 19.496216
68.220 19.489775
68.225 19.523951
68.230 19.84944
68.235 20.574574
68.240 21.440483
68.245 21.715803
68.250 21.73798
68.255 21.680521
68.260 21.806658
68.265 22.272888
68.270 22.012772
68.275 21.862452
68.280 22.023005
68.285 22.010431
68.290 21.553919
68.295 21.318954
68.300 20.916822
68.305 21.302078
68.310 21.597044
68.315 20.918194
68.320 20.550863
68.325 20.642714
68.330 20.655106
68.335 20.894218
68.340 21.098543
68.345 20.883556
68.350 21.139874
68.355 21.355358
68.360 21.607836
68.365 21.224249
68.370 20.50168
68.375 20.11496
68.380 20.538292
68.385 21.159296
68.390 21.078545
68.395 21.561701
68.400 22.102434
68.405 22.758595
68.410 22.59523
68.415 22.227261
68.420 22.227091
68.425 22.143322
68.430 21.677206
68.435 20.957676
68.440 20.477953
68.445 20.909798
68.450 21.852642
68.455 21.973103
68.460 22.491755
68.465 22.690195
68.470 23.303392
68.475 23.487297
68.480 23.224226
68.485 22.500288
68.490 22.261086
68.495 22.257397
68.500 22.177319
68.505 22.393747
68.510 23.24292
68.515 23.35099
68.520 23.307127
68.525 23.044315
68.530 22.521072
68.535 21.939842
68.540 21.171921
68.545 20.139408
68.550 20.967766
68.555 21.271034
68.560 21.986534
68.565 22.600313
68.570 23.367933
68.575 24.203981
68.580 23.655825
68.585 23.289028
68.590 23.156784
68.595 22.562389
68.600 22.282654
68.605 22.952517
68.610 23.000343
68.615 23.169365
68.620 22.813118
68.625 23.077801
68.630 22.838717
68.635 22.435923
68.640 21.825686
68.645 21.893686
68.650 22.055632
68.655 22.118593
68.660 21.772345
68.665 21.366564
68.670 21.963425
68.675 22.539139
68.680 23.137543
68.685 23.277708
68.690 23.447611
68.695 24.05685
68.700 25.030701
68.705 24.857998
68.710 24.33926
68.715 23.379467
68.720 22.642155
68.725 22.240444
68.730 22.008158
68.735 21.213018
68.740 20.929344
68.745 20.593168
68.750 20.616234
68.755 20.667873
68.760 20.33548
68.765 20.490114
68.770 20.891775
68.775 20.281618
68.780 20.126009
68.785 20.493401
68.790 20.537035
68.795 20.473248
68.800 20.238098
68.805 20.426462
68.810 21.054235
68.815 21.517281
68.820 22.013968
68.825 22.799696
68.830 23.499571
68.835 23.602234
68.840 23.601389
68.845 23.491285
68.850 23.610678
68.855 23.007095
68.860 23.118023
68.865 23.172298
68.870 23.582117
68.875 23.867887
68.880 24.34218
68.885 24.150208
68.890 24.64267
68.895 24.138529
68.900 24.088413
68.905 23.97555
68.910 23.511003
68.915 23.662125
68.920 23.90947
68.925 24.093185
68.930 24.081909
68.935 24.31007
68.940 24.166513
68.945 24.42049
68.950 24.505888
68.955 24.540627
68.960 24.466442
68.965 24.94636
68.970 24.902185
68.975 25.240244
68.980 25.002264
68.985 24.770811
68.990 24.854284
68.995 25.068741
69.000 24.82423
69.005 24.512745
69.010 24.633835
69.015 25.082487
69.020 25.451347
69.025 24.844599
69.030 24.360775
69.035 24.105556
69.040 24.090561
69.045 23.345984
69.050 22.688793
69.055 22.442406
69.060 23.03504
69.065 23.106497
69.070 23.115295
69.075 23.758062
69.080 24.609087
69.085 24.942678
69.090 25.222691
69.095 25.027449
69.100 26.089792
69.105 26.69396
69.110 26.094595
69.115 26.288342
69.120 26.497887
69.125 26.268002
69.130 26.184795
69.135 25.544771
69.140 25.305826
69.145 25.638918
69.150 25.085249
69.155 24.796551
69.160 24.898294
69.165 25.112429
69.170 25.358366
69.175 25.879818
69.180 26.113474
69.185 26.604067
69.190 27.026794
69.195 27.048359
69.200 27.098654
69.205 27.038218
69.210 27.660583
69.215 28.199001
69.220 28.479788
69.225 28.576651
69.230 28.246067
69.235 28.007496
69.240 27.532774
69.245 26.987087
69.250 26.414682
69.255 25.815147
69.260 26.658558
69.265 27.474218
69.270 27.78096
69.275 28.011
69.280 28.277702
69.285 28.720032
69.290 29.096542
69.295 28.303436
69.300 28.607332
69.305 28.62149
69.310 28.810575
69.315 28.622395
69.320 28.320496
69.325 28.646049
69.330 28.381508
69.335 28.056423
69.340 27.56455
69.345 27.92263
69.350 28.564785
69.355 28.360832
69.360 28.074007
69.365 28.309227
69.370 28.49403
69.375 29.148817
69.380 29.624866
69.385 29.585567
69.390 29.746681
69.395 29.913528
69.400 30.233416
69.405 30.142405
69.410 30.100771
69.415 29.162121
69.420 29.185303
69.425 29.486431
69.430 29.521278
69.435 29.977489
69.440 30.183744
69.445 30.647663
69.450 31.271666
69.455 31.052614
69.460 30.758884
69.465 30.454948
69.470 29.908062
69.475 29.747633
69.480 29.029257
69.485 29.25312
69.490 29.53686
69.495 29.268148
69.500 29.292078
69.505 29.155411
69.510 29.219267
69.515 29.734535
69.520 29.634802
69.525 29.833305
69.530 30.101995
69.535 30.299952
69.540 29.995916
69.545 30.105957
69.550 30.282799
69.555 30.060032
69.560 29.957542
69.565 29.846533
69.570 30.554478
69.575 31.665882
69.580 31.718405
69.585 32.005917
69.590 31.934782
69.595 32.446873
69.600 32.914257
69.605 32.205116
69.610 31.994865
69.615 31.589069
69.620 31.290457
69.625 31.527815
69.630 31.368139
69.635 31.272892
69.640 31.675127
69.645 31.951023
69.650 31.963263
69.655 30.689388
69.660 30.654779
69.665 31.034866
69.670 30.796345
69.675 30.312979
69.680 30.132568
69.685 30.782295
69.690 31.496307
69.695 31.808279
69.700 31.216526
69.705 30.888895
69.710 30.633625
69.715 30.458847
69.720 29.556738
69.725 29.384829
69.730 28.682989
69.735 29.51494
69.740 29.624647
69.745 29.539663
69.750 29.378645
69.755 29.363142
69.760 29.888369
69.765 29.870338
69.770 29.661535
69.775 29.837704
69.780 29.512096
69.785 29.424353
69.790 29.075602
69.795 28.846857
69.800 28.088205
69.805 27.413603
69.810 27.717812
69.815 28.388361
69.820 28.715343
69.825 28.212648
69.830 28.119581
69.835 28.352329
69.840 28.161467
69.845 27.382032
69.850 26.733282
69.855 26.769739
69.860 27.037788
69.865 26.729208
69.870 26.432709
69.875 26.496412
69.880 26.976027
69.885 27.484282
69.890 27.564322
69.895 27.011385
69.900 26.082933
69.905 26.947905
69.910 26.469309
69.915 25.685291
69.920 24.930805
69.925 24.02018
69.930 23.808838
69.935 23.509619
69.940 22.637739
69.945 22.545946
69.950 22.057955
69.955 22.143311
69.960 22.244505
69.965 22.681276
69.970 23.11161
69.975 23.195105
69.980 22.851002
69.985 23.117468
69.990 23.639711
69.995 24.567772
70.000 24.491648
70.005 24.004578
70.010 23.883066
70.015 24.449942
70.020 24.870029
70.025 24.502039
70.030 23.459131
70.035 22.698851
70.040 22.685219
70.045 22.050491
70.050 21.540098
70.055 20.788603
70.060 20.261705
70.065 20.50515
70.070 20.444763
70.075 20.847115
70.080 20.744139
70.085 20.352032
70.090 20.202908
70.095 20.498814
70.100 21.152636
70.105 21.000614
70.110 20.659685
70.115 21.298721
70.120 21.808548
70.125 22.310354
70.130 21.963617
70.135 21.655079
70.140 22.229771
70.145 22.336653
70.150 22.42288
70.155 21.97456
70.160 21.65402
70.165 21.709253
70.170 21.567863
70.175 21.32115
70.180 21.066494
70.185 21.294346
70.190 21.221416
70.195 21.554012
70.200 21.307489
70.205 21.522829
70.210 22.168703
70.215 22.738691
70.220 22.23131
70.225 22.110504
70.230 21.783861
70.235 21.7327
70.240 20.957548
70.245 20.373394
70.250 20.008753
70.255 20.368937
70.260 20.82439
70.265 20.67577
70.270 20.228991
70.275 19.841707
70.280 19.762608
70.285 19.671019
70.290 19.348202
70.295 19.715559
70.300 20.178904
70.305 20.860256
70.310 20.84355
70.315 21.044348
70.320 21.132885
70.325 21.367422
70.330 21.084419
70.335 20.660902
70.340 20.380911
70.345 20.577898
70.350 19.950394
70.355 19.608088
70.360 19.311663
70.365 19.941656
70.370 20.40526
70.375 20.93523
70.380 21.022928
70.385 21.651516
70.390 21.641973
70.395 21.276115
70.400 20.777954
70.405 20.555698
70.410 19.948351
70.415 19.703093
70.420 19.14797
70.425 19.012184
70.430 18.959879
70.435 18.844799
70.440 19.146679
70.445 19.669273
70.450 19.860151
70.455 20.356989
70.460 20.769907
70.465 20.783489
70.470 20.737286
70.475 20.477919
70.480 20.220879
70.485 20.158394
70.490 19.756538
70.495 19.961084
70.500 19.887329
70.505 20.049768
70.510 20.006783
70.515 20.033226
70.520 20.494865
70.525 20.725967
70.530 20.774231
70.535 20.808844
70.540 19.973555
70.545 19.309628
70.550 19.028175
70.555 18.861553
70.560 18.760696
70.565 18.694971
70.570 19.378551
70.575 19.874308
70.580 20.587477
70.585 20.823103
70.590 20.505314
70.595 20.932121
70.600 20.438032
70.605 20.54351
70.610 20.591351
70.615 20.918865
70.620 20.803438
70.625 21.21191
70.630 21.385422
70.635 21.549046
70.640 21.915205
70.645 22.097834
70.650 22.178295
70.655 22.212898
70.660 22.073343
70.665 22.165562
70.670 22.594152
70.675 22.509056
70.680 22.09379
70.685 21.669222
70.690 22.320103
70.695 22.258327
70.700 21.732975
70.705 21.034298
70.710 20.810148
70.715 21.056364
70.720 20.818727
70.725 20.268332
70.730 20.140783
70.735 19.953737
70.740 19.813787
70.745 19.184608
70.750 18.827627
70.755 19.183805
70.760 19.058111
70.765 19.800272
70.770 20.320927
70.775 20.816944
70.780 21.700275
70.785 21.982311
70.790 21.695726
70.795 21.750994
70.800 20.972515
70.805 20.467148
70.810 19.836903
70.815 19.646322
70.820 19.966717
70.825 20.403259
70.830 20.29809
70.835 20.582146
70.840 20.710247
70.845 20.888145
70.850 20.699739
70.855 20.708828
70.860 20.507442
70.865 20.588272
70.870 20.617592
70.875 20.582529
70.880 20.906807
70.885 20.928524
70.890 20.409258
70.895 19.981749
70.900 20.03512
70.905 19.703926
70.910 19.750113
70.915 19.132172
70.920 18.929996
70.925 19.058889
70.930 19.129099
70.935 18.962
70.940 19.087004
70.945 19.108873
70.950 19.292374
70.955 18.813118
70.960 18.515511
70.965 18.297989
70.970 18.238266
70.975 18.062458
70.980 18.066324
70.985 18.173553
70.990 18.556459
70.995 18.07209
71.000 17.723269
71.005 17.351955
71.010 17.80847
71.015 18.021397
71.020 18.663757
71.025 18.521276
71.030 18.873522
71.035 18.605116
71.040 18.569757
71.045 18.409016
71.050 18.613436
71.055 18.324581
71.060 18.631166
71.065 18.929602
71.070 19.705111
71.075 19.863518
71.080 19.640404
71.085 19.42548
71.090 19.779139
71.095 19.588707
71.100 19.461859
71.105 19.212011
71.110 19.789963
71.115 20.346228
71.120 20.417601
71.125 20.104471
71.130 20.170807
71.135 20.444841
71.140 20.066814
71.145 19.677588
71.150 18.947676
71.155 18.761675
71.160 18.965059
71.165 19.281437
71.170 19.593231
71.175 19.476315
71.180 20.297993
71.185 20.859688
71.190 21.420874
71.195 21.168024
71.200 20.939999
71.205 20.787233
71.210 20.921951
71.215 20.040005
71.220 19.306303
71.225 18.880978
71.230 18.333916
71.235 18.366365
71.240 18.42008
71.245 18.571703
71.250 18.613125
71.255 18.625057
71.260 19.001432
71.265 19.710133
71.270 19.567043
71.275 19.608627
71.280 19.233364
71.285 18.951403
71.290 18.907995
71.295 18.776566
71.300 18.607607
71.305 18.385284
71.310 18.184938
71.315 18.428478
71.320 18.925863
71.325 19.170416
71.330 18.981873
71.335 19.242729
71.340 19.274826
71.345 20.022404
71.350 19.816193
71.355 19.473269
71.360 19.508642
71.365 19.981676
71.370 20.390106
71.375 20.420748
71.380 20.28182
71.385 20.479511
71.390 20.603907
71.395 19.95311
71.400 18.610479
71.405 18.111908
71.410 18.041632
71.415 17.72728
71.420 17.937983
71.425 18.029732
71.430 18.356876
71.435 18.972206
71.440 18.740967
71.445 18.323584
71.450 18.32029
71.455 18.722
71.460 19.089724
71.465 19.487835
71.470 20.153046
71.475 20.703794
71.480 21.152472
71.485 21.160772
71.490 20.404289
71.495 20.154684
71.500 20.014877
71.505 19.735165
71.510 19.138556
71.515 19.179358
71.520 19.554354
71.525 19.617565
71.530 19.124245
71.535 18.647062
71.540 18.633268
71.545 18.787733
71.550 18.286425
71.555 18.011236
71.560 18.229197
71.565 18.778543
71.570 19.551931
71.575 19.788069
71.580 19.835714
71.585 20.012264
71.590 19.790901
71.595 19.921408
71.600 19.716375
71.605 19.261847
71.610 19.182142
71.615 19.172222
71.620 19.038771
71.625 18.953636
71.630 19.124054
71.635 18.886444
71.640 18.828594
71.645 18.708075
71.650 18.995619
71.655 19.288635
71.660 18.997366
71.665 19.044434
71.670 19.329067
71.675 19.763475
71.680 19.275442
71.685 19.044464
71.690 18.852053
71.695 18.911766
71.700 18.772985
71.705 18.401236
71.710 18.89765
71.715 19.080677
71.720 18.732851
71.725 18.435904
71.730 18.827267
71.735 18.751133
71.740 18.121836
71.745 17.455502
71.750 17.756117
71.755 18.828243
71.760 19.097712
71.765 18.846361
71.770 19.33147
71.775 19.851913
71.780 19.575098
71.785 19.2232
71.790 18.850172
71.795 18.362162
71.800 18.162663
71.805 17.956627
71.810 17.897861
71.815 18.167919
71.820 17.602722
71.825 17.122032
71.830 17.572674
71.835 18.074068
71.840 18.016273
71.845 18.279949
71.850 17.990915
71.855 18.202896
71.860 18.101189
71.865 18.050602
71.870 17.5217
71.875 17.830462
71.880 18.128485
71.885 18.519728
71.890 18.982235
71.895 19.33363
71.900 19.391176
71.905 20.048084
71.910 20.327614
71.915 20.270885
71.920 20.409418
71.925 19.881289
71.930 20.227882
71.935 20.125317
71.940 19.609907
71.945 18.91798
71.950 18.734493
71.955 18.641851
71.960 18.382036
71.965 18.235363
71.970 18.237135
71.975 18.038633
71.980 18.352686
71.985 18.716516
71.990 18.601357
71.995 18.380083
72.000 18.491011
72.005 18.702482
72.010 18.653658
72.015 18.918318
72.020 19.19585
72.025 19.85556
72.030 20.250963
72.035 20.223194
72.040 19.932264
72.045 19.667549
72.050 19.080332
72.055 18.968187
72.060 18.685934
72.065 18.455667
72.070 18.663912
72.075 19.123966
72.080 19.168766
72.085 19.184006
72.090 19.301014
72.095 19.385893
72.100 19.056215
72.105 18.381231
72.110 18.755976
72.115 18.49962
72.120 17.725029
72.125 17.179605
72.130 17.283863
72.135 17.310249
72.140 17.282944
72.145 17.077274
72.150 17.406578
72.155 18.149635
72.160 18.839405
72.165 19.095074
72.170 19.667576
72.175 20.190298
72.180 20.079943
72.185 20.429787
72.190 20.457077
72.195 20.070604
72.200 19.47555
72.205 19.231661
72.210 19.261761
72.215 19.48436
72.220 18.615934
72.225 18.630501
72.230 18.702097
72.235 18.783531
72.240 18.605551
72.245 18.400141
72.250 18.512402
72.255 18.484011
72.260 18.726742
72.265 18.673706
72.270 18.798353
72.275 19.07472
72.280 19.304359
72.285 19.659304
72.290 19.782177
72.295 19.366327
72.300 20.01437
72.305 19.960381
72.310 19.758551
72.315 19.435514
72.320 19.348866
72.325 19.196457
72.330 18.809273
72.335 18.129255
72.340 17.763512
72.345 17.408848
72.350 16.763447
72.355 16.64431
72.360 16.895485
72.365 17.888687
72.370 18.233273
72.375 18.69758
72.380 19.27565
72.385 20.635286
72.390 20.911205
72.395 20.385321
72.400 19.317476
72.405 19.155569
72.410 18.782082
72.415 18.494452
72.420 17.642292
72.425 17.485994
72.430 17.764059
72.435 18.215244
72.440 18.127394
72.445 17.777025
72.450 16.969467
72.455 16.481142
72.460 16.009085
72.465 15.957812
72.470 15.894329
72.475 16.004271
72.480 16.693485
72.485 17.497204
72.490 17.985577
72.495 18.647627
72.500 18.963467
72.505 18.886288
72.510 18.800125
72.515 18.339069
72.520 18.37664
72.525 19.00662
72.530 19.147772
72.535 19.104631
72.540 19.324039
72.545 19.395382
72.550 19.424171
72.555 19.284878
72.560 18.481197
72.565 17.965075
72.570 17.507778
72.575 17.263363
72.580 17.406097
72.585 17.515707
72.590 17.654221
72.595 18.001211
72.600 18.315664
72.605 18.574265
72.610 18.620026
72.615 18.551228
72.620 18.259903
72.625 18.064907
72.630 18.104439
72.635 17.710831
72.640 17.403639
72.645 17.347643
72.650 16.693796
72.655 16.421938
72.660 16.3188
72.665 15.873299
72.670 15.967073
72.675 16.476345
72.680 16.6329
72.685 17.225851
72.690 17.308212
72.695 17.298357
72.700 17.676483
72.705 17.537617
72.710 17.109158
72.715 17.565557
72.720 17.44022
72.725 17.523788
72.730 18.118528
72.735 18.535751
72.740 18.513083
72.745 18.570301
72.750 18.112469
72.755 18.363291
72.760 17.922562
72.765 17.235811
72.770 17.26827
72.775 17.689886
72.780 18.445377
72.785 18.880295
72.790 18.377256
72.795 18.52775
72.800 18.883879
72.805 18.844837
72.810 18.264605
72.815 17.764309
72.820 17.460276
72.825 17.929445
72.830 18.376122
72.835 18.256203
72.840 18.303823
72.845 18.86161
72.850 18.848944
72.855 19.117222
72.860 19.134054
72.865 18.933058
72.870 19.063242
72.875 18.595201
72.880 18.128799
72.885 17.722258
72.890 17.422926
72.895 17.154238
72.900 16.538227
72.905 16.846071
72.910 17.825331
72.915 18.389854
72.920 18.845398
72.925 19.38925
72.930 19.837425
72.935 20.117847
72.940 19.230938
72.945 18.153399
72.950 17.596884
72.955 16.977173
72.960 16.089869
72.965 15.582888
72.970 15.299148
72.975 15.672515
72.980 16.116243
72.985 16.204992
72.990 16.539886
72.995 16.606575
73.000 17.021238
