!@!!GADDS PLOTSO FILE: Chi integration type
!@!!Title/SampleName: map-81
!@!!Comment: ?
!@!!User: Bruker Instrument Administrator
!@!!Site: University of Illinois Chicago
!@!!Frame: map-81_01_000.gfrm
!@!!Wavelengths    1.54184   1.54056   1.54439
!@!!Frame angles: 2Theta: 63.000 Omega: 50.000 Phi: 0.000 Chi: 90.000
!@!!Integration range: 2Theta: 53.000 to 73.000  Gamma: -105.000 to -75.000
!@!!Integration method: bin normalized
!@!N
!@!SS
!@!M
!@!L 0.0 0.0 0.0 0.0
!@!XDegrees
!@!YCounts
53.000 9.595833
53.005 9.435552
53.010 9.152675
53.015 9.088309
53.020 8.696512
53.025 8.777508
53.030 9.270466
53.035 9.40773
53.040 9.677855
53.045 9.833658
53.050 9.742572
53.055 10.009881
53.060 9.919048
53.065 9.757503
53.070 10.087854
53.075 10.038521
53.080 9.555889
53.085 9.485373
53.090 9.820275
53.095 10.133269
53.100 9.899356
53.105 9.109801
53.110 9.441768
53.115 9.830578
53.120 9.936147
53.125 9.751086
53.130 10.016861
53.135 10.221931
53.140 10.207993
53.145 10.075761
53.150 9.706561
53.155 9.377207
53.160 9.041507
53.165 8.688544
53.170 8.832286
53.175 9.117139
53.180 9.298005
53.185 9.574136
53.190 9.856483
53.195 9.682784
53.200 9.916702
53.205 9.969039
53.210 10.188285
53.215 10.772537
53.220 10.91378
53.225 11.038129
53.230 10.923997
53.235 10.674469
53.240 11.034431
53.245 10.997005
53.250 10.524071
53.255 10.334791
53.260 10.201268
53.265 10.443491
53.270 10.43797
53.275 9.777847
53.280 10.045622
53.285 10.829346
53.290 10.839323
53.295 10.942569
53.300 11.009928
53.305 11.154034
53.310 11.311907
53.315 11.054725
53.320 10.35359
53.325 10.565579
53.330 10.365826
53.335 10.060621
53.340 9.938787
53.345 9.755127
53.350 9.70333
53.355 10.206489
53.360 10.805215
53.365 11.138577
53.370 11.271416
53.375 11.203558
53.380 11.139567
53.385 11.138792
53.390 10.992103
53.395 10.652913
53.400 10.649182
53.405 10.579004
53.410 10.690974
53.415 10.575179
53.420 10.814354
53.425 10.724076
53.430 10.490196
53.435 10.425543
53.440 10.896712
53.445 10.940871
53.450 10.749367
53.455 9.935346
53.460 9.380823
53.465 9.739515
53.470 9.930452
53.475 9.466088
53.480 9.407948
53.485 9.478267
53.490 9.923927
53.495 10.385628
53.500 9.600472
53.505 9.880287
53.510 10.262156
53.515 10.707194
53.520 10.982709
53.525 10.893684
53.530 11.183931
53.535 11.609962
53.540 10.990725
53.545 10.90022
53.550 10.415771
53.555 10.174422
53.560 9.852652
53.565 9.393074
53.570 9.110322
53.575 8.920663
53.580 9.162535
53.585 9.570092
53.590 9.959183
53.595 9.815507
53.600 10.04458
53.605 10.4235
53.610 10.507217
53.615 10.444624
53.620 10.425458
53.625 10.447158
53.630 10.750036
53.635 10.130715
53.640 10.242287
53.645 9.94803
53.650 9.608288
53.655 9.937959
53.660 10.109783
53.665 10.417968
53.670 10.768052
53.675 11.158177
53.680 11.473805
53.685 11.802364
53.690 11.510342
53.695 11.559335
53.700 11.375378
53.705 11.265206
53.710 11.39281
53.715 11.449051
53.720 10.921197
53.725 10.599375
53.730 10.302094
53.735 10.225619
53.740 10.175703
53.745 10.257216
53.750 10.371543
53.755 10.782887
53.760 10.812639
53.765 11.215056
53.770 11.530511
53.775 11.387784
53.780 10.671786
53.785 10.398244
53.790 10.521961
53.795 10.150767
53.800 9.757526
53.805 9.379955
53.810 9.232832
53.815 9.517095
53.820 9.280148
53.825 9.299489
53.830 9.698261
53.835 9.983766
53.840 10.234081
53.845 9.8955
53.850 9.813038
53.855 10.140261
53.860 10.222508
53.865 10.832907
53.870 11.006172
53.875 11.529869
53.880 12.222771
53.885 12.648498
53.890 12.472399
53.895 12.036992
53.900 11.015817
53.905 10.605418
53.910 10.155832
53.915 9.753349
53.920 9.335858
53.925 9.325096
53.930 9.613245
53.935 10.062464
53.940 10.146391
53.945 10.332375
53.950 10.635668
53.955 10.627182
53.960 10.637382
53.965 10.721251
53.970 10.772766
53.975 11.021766
53.980 11.128375
53.985 10.84105
53.990 10.844866
53.995 10.897725
54.000 10.730378
54.005 10.602186
54.010 11.005659
54.015 11.0909
54.020 11.38855
54.025 11.390133
54.030 11.124249
54.035 11.322482
54.040 10.847757
54.045 10.705588
54.050 10.8704
54.055 11.50217
54.060 11.809094
54.065 11.761792
54.070 11.693357
54.075 12.214149
54.080 12.504841
54.085 12.529151
54.090 11.839602
54.095 11.795516
54.100 12.113529
54.105 12.02809
54.110 11.568755
54.115 11.170492
54.120 11.191239
54.125 11.502749
54.130 11.620375
54.135 11.520975
54.140 11.130044
54.145 11.307961
54.150 11.522703
54.155 11.281678
54.160 10.95879
54.165 10.657645
54.170 11.175872
54.175 11.154176
54.180 11.008222
54.185 10.738091
54.190 10.790347
54.195 10.95922
54.200 11.123706
54.205 11.074466
54.210 11.248609
54.215 11.03639
54.220 11.074997
54.225 11.370641
54.230 11.805836
54.235 11.909245
54.240 12.110392
54.245 12.929588
54.250 13.131322
54.255 13.301374
54.260 13.226918
54.265 12.870674
54.270 12.880172
54.275 12.463255
54.280 11.739931
54.285 11.368763
54.290 11.298936
54.295 11.233485
54.300 11.289489
54.305 11.214413
54.310 11.450076
54.315 11.736644
54.320 11.8684
54.325 12.135825
54.330 11.907393
54.335 11.667331
54.340 11.449717
54.345 11.652012
54.350 11.655914
54.355 11.510859
54.360 10.896823
54.365 11.004563
54.370 11.655089
54.375 12.256216
54.380 11.914783
54.385 12.066465
54.390 12.193557
54.395 12.083662
54.400 11.798665
54.405 11.48033
54.410 11.556057
54.415 11.85281
54.420 11.841976
54.425 11.714045
54.430 11.825777
54.435 12.546473
54.440 12.373935
54.445 12.047278
54.450 11.775015
54.455 11.519286
54.460 12.689003
54.465 12.885509
54.470 12.315549
54.475 12.399706
54.480 12.6752
54.485 12.774552
54.490 12.599019
54.495 11.919079
54.500 11.881296
54.505 11.953213
54.510 11.655524
54.515 11.594266
54.520 11.529945
54.525 11.364382
54.530 11.245023
54.535 11.055293
54.540 11.336532
54.545 11.214181
54.550 11.050165
54.555 11.604244
54.560 12.190436
54.565 12.101843
54.570 12.114383
54.575 12.14437
54.580 12.320677
54.585 12.13312
54.590 12.014157
54.595 12.269458
54.600 12.335737
54.605 11.978466
54.610 11.222405
54.615 11.396615
54.620 11.453173
54.625 11.369047
54.630 11.301893
54.635 11.498218
54.640 11.851165
54.645 12.088618
54.650 11.854184
54.655 12.111533
54.660 12.22347
54.665 12.118256
54.670 12.062334
54.675 12.022388
54.680 11.858686
54.685 11.398604
54.690 11.061002
54.695 10.918372
54.700 11.324415
54.705 11.117987
54.710 10.983624
54.715 11.286939
54.720 11.465488
54.725 11.293948
54.730 11.116962
54.735 10.765313
54.740 11.405673
54.745 11.511043
54.750 11.282536
54.755 11.508874
54.760 11.49132
54.765 11.170347
54.770 11.425868
54.775 11.144944
54.780 11.44116
54.785 11.339954
54.790 11.523741
54.795 12.064098
54.800 12.365315
54.805 11.793459
54.810 11.705653
54.815 11.762048
54.820 12.188968
54.825 12.084346
54.830 11.429147
54.835 11.441704
54.840 11.565144
54.845 11.344417
54.850 11.101192
54.855 10.778174
54.860 11.057614
54.865 11.44129
54.870 11.379832
54.875 11.558352
54.880 11.851743
54.885 11.829403
54.890 11.288997
54.895 11.10761
54.900 11.229556
54.905 11.098028
54.910 10.584074
54.915 10.764391
54.920 10.831346
54.925 11.22111
54.930 11.197872
54.935 11.293858
54.940 11.604194
54.945 11.577216
54.950 11.037258
54.955 11.366923
54.960 11.343847
54.965 11.579786
54.970 11.46679
54.975 11.540983
54.980 12.211432
54.985 12.684889
54.990 12.732422
54.995 13.0764
55.000 12.763987
55.005 12.76221
55.010 12.78756
55.015 12.195167
55.020 12.242197
55.025 11.944305
55.030 11.353799
55.035 11.454098
55.040 11.385418
55.045 11.269872
55.050 11.470716
55.055 11.182918
55.060 10.986105
55.065 11.267074
55.070 10.838552
55.075 10.699528
55.080 10.850986
55.085 10.899782
55.090 10.682859
55.095 10.754155
55.100 10.763024
55.105 11.133252
55.110 11.428635
55.115 11.433684
55.120 11.722546
55.125 11.770714
55.130 11.714785
55.135 11.506453
55.140 11.126349
55.145 10.789134
55.150 10.678144
55.155 10.427082
55.160 10.533423
55.165 10.088418
55.170 10.407172
55.175 10.64854
55.180 10.896492
55.185 11.224827
55.190 11.311718
55.195 11.563749
55.200 11.795314
55.205 11.909913
55.210 11.87586
55.215 11.623547
55.220 12.138646
55.225 12.57199
55.230 13.178345
55.235 13.594763
55.240 13.866726
55.245 14.126
55.250 13.906655
55.255 13.218928
55.260 12.810799
55.265 12.156294
55.270 12.093529
55.275 12.098762
55.280 12.358056
55.285 12.631991
55.290 12.466214
55.295 12.259991
55.300 12.043217
55.305 11.565726
55.310 11.024462
55.315 10.717375
55.320 10.288671
55.325 10.386518
55.330 10.803798
55.335 10.861804
55.340 11.111803
55.345 11.130684
55.350 11.127815
55.355 11.27763
55.360 11.347919
55.365 11.088803
55.370 11.329674
55.375 10.980124
55.380 11.020004
55.385 11.487283
55.390 11.140444
55.395 11.573584
55.400 11.262039
55.405 11.125652
55.410 11.338315
55.415 11.160315
55.420 10.801872
55.425 11.785375
55.430 11.61369
55.435 11.581445
55.440 11.532047
55.445 11.662731
55.450 12.297004
55.455 12.488744
55.460 12.184281
55.465 12.743055
55.470 13.240814
55.475 13.936855
55.480 13.837756
55.485 13.790747
55.490 13.778007
55.495 13.622169
55.500 13.221133
55.505 13.07969
55.510 13.08584
55.515 13.148
55.520 12.904938
55.525 12.89258
55.530 13.205134
55.535 13.657354
55.540 13.404489
55.545 12.680436
55.550 13.016023
55.555 13.285018
55.560 12.981668
55.565 12.945815
55.570 13.18808
55.575 13.44827
55.580 13.923461
55.585 13.440307
55.590 13.589891
55.595 13.834048
55.600 14.062084
55.605 13.966681
55.610 13.562636
55.615 13.05031
55.620 12.983265
55.625 12.4144
55.630 11.919043
55.635 11.30683
55.640 11.181306
55.645 11.521338
55.650 11.747854
55.655 11.969907
55.660 12.362673
55.665 12.322986
55.670 12.363931
55.675 12.256017
55.680 12.396741
55.685 12.896987
55.690 13.492617
55.695 13.959523
55.700 14.660139
55.705 15.124268
55.710 15.600686
55.715 15.720245
55.720 15.188148
55.725 14.164115
55.730 14.066868
55.735 14.16331
55.740 13.950206
55.745 13.563067
55.750 13.158551
55.755 12.998661
55.760 13.178257
55.765 12.779907
55.770 12.274909
55.775 12.26937
55.780 12.102797
55.785 12.268278
55.790 12.302341
55.795 12.456443
55.800 12.526011
55.805 12.808908
55.810 12.679365
55.815 12.834078
55.820 13.242598
55.825 13.30868
55.830 13.060579
55.835 12.813693
55.840 12.43159
55.845 12.578241
55.850 12.509058
55.855 12.579569
55.860 12.850368
55.865 13.343862
55.870 13.565063
55.875 14.074665
55.880 14.070466
55.885 13.500094
55.890 13.219164
55.895 12.824626
55.900 12.506721
55.905 11.53431
55.910 11.037834
55.915 11.361076
55.920 11.314
55.925 11.183161
55.930 11.064376
55.935 11.032699
55.940 11.625745
55.945 11.612403
55.950 11.907685
55.955 11.963683
55.960 12.068231
55.965 12.732929
55.970 13.08706
55.975 13.140567
55.980 13.072903
55.985 12.850166
55.990 12.897248
55.995 12.800508
56.000 12.716056
56.005 12.778833
56.010 13.183124
56.015 13.109639
56.020 13.348327
56.025 13.356924
56.030 13.065511
56.035 12.654003
56.040 12.657508
56.045 12.60448
56.050 12.576793
56.055 12.327331
56.060 12.708826
56.065 13.265087
56.070 13.301852
56.075 13.740317
56.080 14.141569
56.085 14.075014
56.090 13.87914
56.095 13.877074
56.100 13.840875
56.105 13.941666
56.110 12.986027
56.115 12.210981
56.120 12.568501
56.125 12.734848
56.130 12.52209
56.135 12.411717
56.140 12.580651
56.145 12.682041
56.150 12.683229
56.155 12.855189
56.160 12.704376
56.165 12.782584
56.170 13.332123
56.175 13.162649
56.180 12.716609
56.185 12.624321
56.190 12.520624
56.195 13.344575
56.200 13.43862
56.205 13.182178
56.210 13.452187
56.215 14.574243
56.220 14.427498
56.225 14.35514
56.230 13.843949
56.235 13.512589
56.240 13.480307
56.245 13.205359
56.250 12.917365
56.255 12.618777
56.260 12.188325
56.265 12.160645
56.270 12.692135
56.275 12.689108
56.280 12.663638
56.285 12.80472
56.290 13.861961
56.295 14.612371
56.300 15.053615
56.305 14.508559
56.310 14.529967
56.315 14.5758
56.320 14.604554
56.325 13.48838
56.330 12.146581
56.335 11.279902
56.340 11.130151
56.345 10.645351
56.350 10.229053
56.355 10.205319
56.360 10.615862
56.365 11.231765
56.370 11.85185
56.375 12.376575
56.380 12.663279
56.385 13.063455
56.390 13.553869
56.395 13.742023
56.400 13.950908
56.405 13.948762
56.410 14.015992
56.415 14.193731
56.420 14.471853
56.425 14.861871
56.430 15.160429
56.435 15.045923
56.440 14.907
56.445 15.078742
56.450 14.968187
56.455 14.696074
56.460 14.317202
56.465 14.445052
56.470 14.496043
56.475 14.786691
56.480 14.662703
56.485 14.768548
56.490 14.981373
56.495 14.623746
56.500 14.430611
56.505 14.30376
56.510 13.836649
56.515 13.670652
56.520 13.949448
56.525 14.066504
56.530 14.468634
56.535 14.546944
56.540 14.428881
56.545 14.777084
56.550 14.939017
56.555 14.965158
56.560 14.777573
56.565 14.873824
56.570 15.194345
56.575 15.304396
56.580 15.44418
56.585 15.31578
56.590 15.40156
56.595 15.510519
56.600 15.031244
56.605 14.596625
56.610 14.208147
56.615 13.958756
56.620 13.986709
56.625 14.068534
56.630 13.573203
56.635 13.04707
56.640 12.793128
56.645 12.66145
56.650 12.366746
56.655 12.077546
56.660 11.482838
56.665 12.094491
56.670 12.873116
56.675 13.197989
56.680 13.446058
56.685 13.500468
56.690 13.676012
56.695 13.797592
56.700 13.614292
56.705 13.537992
56.710 13.650804
56.715 13.358786
56.720 13.147008
56.725 13.260813
56.730 13.09528
56.735 12.708776
56.740 13.06734
56.745 13.362803
56.750 13.722525
56.755 13.784338
56.760 13.709873
56.765 14.156696
56.770 14.409264
56.775 14.209516
56.780 14.767581
56.785 14.694742
56.790 14.503296
56.795 14.290546
56.800 14.259521
56.805 14.453953
56.810 14.287062
56.815 13.756646
56.820 13.699583
56.825 14.122662
56.830 14.601049
56.835 14.552197
56.840 14.134714
56.845 13.797547
56.850 13.959183
56.855 14.187551
56.860 13.650495
56.865 13.912386
56.870 13.703786
56.875 13.348248
56.880 13.501901
56.885 13.691934
56.890 13.785643
56.895 14.088355
56.900 13.4424
56.905 13.513318
56.910 13.509307
56.915 13.277709
56.920 12.789706
56.925 12.987962
56.930 13.074679
56.935 13.518603
56.940 13.831918
56.945 13.841879
56.950 13.909497
56.955 13.953049
56.960 13.378437
56.965 13.589576
56.970 13.284912
56.975 13.278778
56.980 13.386807
56.985 13.218708
56.990 13.41258
56.995 14.122905
57.000 13.743801
57.005 14.42509
57.010 14.804137
57.015 14.972172
57.020 15.35043
57.025 15.378787
57.030 15.311311
57.035 15.124772
57.040 14.408265
57.045 13.951059
57.050 13.898465
57.055 13.841418
57.060 13.286207
57.065 12.916926
57.070 12.999201
57.075 13.358811
57.080 14.371392
57.085 14.749975
57.090 14.150927
57.095 14.540059
57.100 14.735512
57.105 14.711958
57.110 14.116284
57.115 13.586497
57.120 13.552538
57.125 13.926248
57.130 14.213661
57.135 14.479901
57.140 14.430411
57.145 14.635535
57.150 15.045448
57.155 15.090658
57.160 14.892783
57.165 14.402538
57.170 14.286297
57.175 14.473574
57.180 14.388791
57.185 14.267627
57.190 14.518784
57.195 14.856454
57.200 14.967565
57.205 14.448484
57.210 14.524749
57.215 14.898762
57.220 14.816755
57.225 14.516251
57.230 14.161166
57.235 14.070153
57.240 14.440516
57.245 14.353285
57.250 14.124832
57.255 14.014307
57.260 13.919102
57.265 14.09897
57.270 14.571353
57.275 14.720097
57.280 14.571936
57.285 14.258165
57.290 13.905593
57.295 14.705086
57.300 15.099193
57.305 14.658617
57.310 14.881182
57.315 14.889786
57.320 15.202389
57.325 15.882108
57.330 15.511182
57.335 14.961878
57.340 14.983745
57.345 14.830184
57.350 14.949755
57.355 14.995299
57.360 14.751532
57.365 14.67309
57.370 14.77446
57.375 14.687625
57.380 15.114421
57.385 15.184052
57.390 15.664483
57.395 15.188963
57.400 14.604038
57.405 14.794559
57.410 14.606673
57.415 13.947656
57.420 13.33906
57.425 13.11402
57.430 13.390392
57.435 13.715316
57.440 13.477947
57.445 13.398747
57.450 13.509439
57.455 13.224322
57.460 13.198297
57.465 13.807967
57.470 13.919041
57.475 14.137181
57.480 14.163021
57.485 14.472756
57.490 14.863419
57.495 15.022163
57.500 15.117617
57.505 15.05428
57.510 14.491138
57.515 14.308959
57.520 13.917176
57.525 13.513867
57.530 12.786179
57.535 12.549364
57.540 12.6396
57.545 13.037004
57.550 13.060156
57.555 13.095724
57.560 13.85768
57.565 14.217963
57.570 14.008101
57.575 13.853136
57.580 13.884538
57.585 13.801355
57.590 13.635821
57.595 13.841729
57.600 14.464322
57.605 15.206086
57.610 15.806247
57.615 16.123674
57.620 16.410816
57.625 16.583315
57.630 16.427292
57.635 15.680911
57.640 15.285034
57.645 14.916851
57.650 14.584295
57.655 14.568295
57.660 14.177663
57.665 14.366247
57.670 14.313393
57.675 13.950422
57.680 13.98956
57.685 14.462891
57.690 14.168777
57.695 14.293382
57.700 13.993291
57.705 14.051848
57.710 14.416731
57.715 14.061229
57.720 14.337056
57.725 15.026003
57.730 14.766623
57.735 14.381899
57.740 14.078625
57.745 13.986697
57.750 14.219193
57.755 13.826988
57.760 13.64017
57.765 14.251207
57.770 14.172703
57.775 14.294724
57.780 14.339075
57.785 14.241401
57.790 14.453032
57.795 14.477319
57.800 14.369491
57.805 14.753787
57.810 14.6876
57.815 14.768183
57.820 14.973571
57.825 14.656065
57.830 14.670327
57.835 14.551235
57.840 14.422264
57.845 14.301191
57.850 14.072232
57.855 14.087933
57.860 14.161991
57.865 13.955465
57.870 14.003259
57.875 13.912327
57.880 14.160402
57.885 13.929424
57.890 13.704667
57.895 13.824614
57.900 14.224645
57.905 14.38201
57.910 14.553493
57.915 14.805984
57.920 15.443871
57.925 15.533001
57.930 15.296951
57.935 14.844707
57.940 14.553876
57.945 15.143773
57.950 15.567393
57.955 15.298092
57.960 15.438563
57.965 15.713024
57.970 16.4722
57.975 16.965902
57.980 16.349083
57.985 15.566261
57.990 15.35245
57.995 15.84162
58.000 16.038219
58.005 15.51965
58.010 15.515747
58.015 15.454022
58.020 15.377405
58.025 15.309212
58.030 15.217216
58.035 14.86408
58.040 15.144829
58.045 14.98585
58.050 15.285986
58.055 15.608255
58.060 15.780351
58.065 14.858348
58.070 15.041718
58.075 14.691907
58.080 14.166405
58.085 14.008869
58.090 13.977983
58.095 13.801991
58.100 14.389044
58.105 14.820211
58.110 14.962532
58.115 15.611095
58.120 15.875348
58.125 15.845066
58.130 16.321997
58.135 16.270666
58.140 15.705982
58.145 15.624164
58.150 15.144693
58.155 14.898006
58.160 14.740161
58.165 14.997294
58.170 15.100553
58.175 15.330799
58.180 15.056298
58.185 15.810536
58.190 16.080097
58.195 16.340649
58.200 15.931347
58.205 15.828063
58.210 14.994388
58.215 14.797634
58.220 14.180761
58.225 14.3848
58.230 13.818669
58.235 13.423754
58.240 13.697053
58.245 14.453526
58.250 14.805578
58.255 15.030169
58.260 15.420178
58.265 16.355934
58.270 15.95732
58.275 15.119861
58.280 15.346175
58.285 16.289598
58.290 15.968162
58.295 15.364187
58.300 14.842785
58.305 15.058789
58.310 15.80366
58.315 15.069445
58.320 13.829182
58.325 14.010864
58.330 14.32453
58.335 14.220248
58.340 14.600609
58.345 14.423089
58.350 15.198357
58.355 15.985133
58.360 15.831058
58.365 15.969016
58.370 16.182537
58.375 15.950727
58.380 15.976538
58.385 15.914636
58.390 15.714654
58.395 15.68709
58.400 16.113323
58.405 16.8078
58.410 17.097095
58.415 17.10589
58.420 17.75494
58.425 17.972496
58.430 18.065744
58.435 17.200605
58.440 16.380396
58.445 16.316341
58.450 16.705349
58.455 15.904514
58.460 16.175587
58.465 16.335663
58.470 16.68681
58.475 16.934507
58.480 16.922913
58.485 16.504635
58.490 16.583799
58.495 16.261095
58.500 15.789947
58.505 16.084593
58.510 16.039658
58.515 16.091427
58.520 15.944992
58.525 16.501471
58.530 16.885515
58.535 16.888319
58.540 16.496035
58.545 16.356123
58.550 15.839118
58.555 15.249911
58.560 14.141554
58.565 13.896356
58.570 14.007112
58.575 14.410042
58.580 14.233054
58.585 14.529226
58.590 15.113257
58.595 15.427549
58.600 15.299657
58.605 15.208523
58.610 15.189949
58.615 15.379066
58.620 15.349202
58.625 15.465021
58.630 15.601269
58.635 15.840252
58.640 15.872607
58.645 15.362543
58.650 15.119868
58.655 14.981456
58.660 14.767508
58.665 14.589414
58.670 14.680362
58.675 14.897896
58.680 15.623226
58.685 16.5329
58.690 16.743073
58.695 17.15346
58.700 17.621614
58.705 17.200212
58.710 16.992912
58.715 16.559875
58.720 16.296406
58.725 16.161015
58.730 16.193686
58.735 16.076437
58.740 15.864066
58.745 16.003113
58.750 15.471563
58.755 15.070211
58.760 15.143912
58.765 14.303964
58.770 14.299226
58.775 14.738116
58.780 15.363064
58.785 15.712639
58.790 15.674621
58.795 16.055876
58.800 16.001772
58.805 15.984043
58.810 15.795866
58.815 14.857983
58.820 15.085539
58.825 15.347012
58.830 15.287573
58.835 15.056273
58.840 14.527529
58.845 15.198406
58.850 15.811231
58.855 15.90666
58.860 16.196848
58.865 16.399136
58.870 17.032475
58.875 17.01697
58.880 16.724117
58.885 16.993313
58.890 16.840797
58.895 16.229605
58.900 16.021769
58.905 16.105042
58.910 16.347538
58.915 16.083986
58.920 15.847462
58.925 16.088516
58.930 16.893736
58.935 16.987888
58.940 16.587313
58.945 17.481607
58.950 17.523899
58.955 17.20195
58.960 17.225822
58.965 16.848282
58.970 16.38014
58.975 17.122725
58.980 16.607168
58.985 16.706825
58.990 16.618507
58.995 16.2577
59.000 16.053558
59.005 16.246788
59.010 15.949194
59.015 15.820063
59.020 16.05435
59.025 16.614649
59.030 16.572372
59.035 16.703836
59.040 17.311537
59.045 17.417217
59.050 17.421291
59.055 17.410175
59.060 17.455088
59.065 17.767679
59.070 17.455156
59.075 17.132267
59.080 16.758083
59.085 16.553488
59.090 16.767326
59.095 16.18099
59.100 16.293653
59.105 16.789511
59.110 16.618025
59.115 16.733967
59.120 16.881819
59.125 16.433228
59.130 16.999786
59.135 17.028919
59.140 16.350199
59.145 16.102873
59.150 15.998442
59.155 16.131752
59.160 16.869635
59.165 16.666147
59.170 16.522226
59.175 17.083881
59.180 17.588419
59.185 17.974838
59.190 17.995039
59.195 17.372175
59.200 16.90062
59.205 17.137873
59.210 17.645397
59.215 17.609062
59.220 17.218399
59.225 16.574808
59.230 16.739231
59.235 17.127426
59.240 16.874197
59.245 16.469189
59.250 15.99575
59.255 16.391756
59.260 16.806408
59.265 17.059444
59.270 17.148933
59.275 17.436043
59.280 17.427891
59.285 17.895779
59.290 18.392357
59.295 18.659538
59.300 18.735155
59.305 18.336544
59.310 18.049648
59.315 18.36713
59.320 18.057405
59.325 17.369091
59.330 16.862234
59.335 17.153927
59.340 17.092779
59.345 17.013885
59.350 16.568687
59.355 16.2155
59.360 16.474846
59.365 16.796192
59.370 16.81315
59.375 17.448559
59.380 17.485538
59.385 17.764879
59.390 18.279978
59.395 17.954184
59.400 17.388409
59.405 17.041586
59.410 16.797865
59.415 16.756626
59.420 16.945534
59.425 16.437124
59.430 16.38472
59.435 16.858263
59.440 17.210108
59.445 17.421593
59.450 17.182852
59.455 16.713018
59.460 17.055241
59.465 17.326885
59.470 17.1506
59.475 16.276993
59.480 16.202845
59.485 16.945198
59.490 17.892508
59.495 18.194437
59.500 18.02869
59.505 18.255636
59.510 18.415895
59.515 18.064497
59.520 17.57346
59.525 17.589497
59.530 17.392015
59.535 17.784922
59.540 18.084972
59.545 18.651512
59.550 18.592319
59.555 18.850061
59.560 18.363758
59.565 18.086369
59.570 17.686062
59.575 17.49247
59.580 17.67585
59.585 18.18335
59.590 18.751396
59.595 19.315741
59.600 19.45393
59.605 19.582457
59.610 19.485329
59.615 19.30447
59.620 18.804029
59.625 18.135971
59.630 18.064791
59.635 18.285368
59.640 18.423765
59.645 18.73807
59.650 18.811398
59.655 18.879208
59.660 18.507795
59.665 18.272966
59.670 18.611277
59.675 17.952213
59.680 17.846989
59.685 17.89348
59.690 17.64007
59.695 17.492533
59.700 17.67659
59.705 17.531626
59.710 18.538588
59.715 18.418259
59.720 18.823383
59.725 19.225433
59.730 19.230461
59.735 18.710192
59.740 18.283659
59.745 18.074863
59.750 18.593374
59.755 18.012737
59.760 18.195917
59.765 18.575306
59.770 19.004786
59.775 19.780525
59.780 19.643147
59.785 19.599829
59.790 19.638741
59.795 19.645172
59.800 19.614515
59.805 19.901995
59.810 19.865168
59.815 19.760479
59.820 19.778612
59.825 20.439104
59.830 20.15976
59.835 20.140142
59.840 20.037579
59.845 20.122879
59.850 20.140055
59.855 20.155725
59.860 20.253088
59.865 20.597206
59.870 21.345457
59.875 22.047165
59.880 22.056618
59.885 22.152119
59.890 22.433252
59.895 22.370802
59.900 22.669367
59.905 22.848154
59.910 22.312801
59.915 22.482296
59.920 22.180771
59.925 21.729059
59.930 21.38559
59.935 21.288183
59.940 21.424288
59.945 21.491671
59.950 21.097685
59.955 21.205021
59.960 20.8288
59.965 21.281733
59.970 21.207859
59.975 20.645521
59.980 20.528685
59.985 21.022566
59.990 21.506647
59.995 21.843451
60.000 22.035831
60.005 22.116121
60.010 21.674189
60.015 21.60516
60.020 21.428238
60.025 21.6269
60.030 21.834917
60.035 21.519329
60.040 21.588123
60.045 22.258492
60.050 22.463856
60.055 22.413643
60.060 22.190664
60.065 21.816359
60.070 21.229437
60.075 20.991207
60.080 20.377541
60.085 20.355753
60.090 20.18523
60.095 19.842918
60.100 20.216433
60.105 20.950089
60.110 20.969215
60.115 21.399225
60.120 21.991123
60.125 22.152048
60.130 22.08217
60.135 22.087097
60.140 22.324802
60.145 22.882484
60.150 23.724152
60.155 23.543201
60.160 23.355436
60.165 23.622976
60.170 24.044979
60.175 24.168659
60.180 24.474041
60.185 23.622417
60.190 24.179762
60.195 25.110563
60.200 25.278666
60.205 25.134991
60.210 25.13545
60.215 24.847799
60.220 24.752857
60.225 24.159298
60.230 23.778769
60.235 23.83606
60.240 23.697041
60.245 23.405579
60.250 23.408386
60.255 23.735109
60.260 23.643373
60.265 23.54784
60.270 23.185371
60.275 22.988844
60.280 23.027693
60.285 23.130051
60.290 22.775532
60.295 22.410013
60.300 22.428577
60.305 22.766176
60.310 22.823793
60.315 22.251657
60.320 21.431709
60.325 21.207129
60.330 21.644241
60.335 21.581116
60.340 21.105371
60.345 21.586058
60.350 22.386747
60.355 23.210976
60.360 23.522045
60.365 23.088867
60.370 22.713947
60.375 23.049185
60.380 22.629
60.385 22.123241
60.390 21.722582
60.395 22.098488
60.400 22.166246
60.405 22.164196
60.410 21.889843
60.415 21.635925
60.420 21.389738
60.425 21.558304
60.430 21.030239
60.435 21.074348
60.440 21.688828
60.445 21.490263
60.450 21.741926
60.455 22.115032
60.460 22.048126
60.465 21.854698
60.470 22.07156
60.475 22.521576
60.480 22.71744
60.485 22.56477
60.490 21.878443
60.495 22.066378
60.500 22.086374
60.505 21.734383
60.510 21.020548
60.515 20.660734
60.520 21.036215
60.525 21.122824
60.530 20.769577
60.535 20.535034
60.540 20.653254
60.545 20.557543
60.550 20.766262
60.555 20.701195
60.560 20.869545
60.565 20.95627
60.570 21.466385
60.575 21.278135
60.580 21.313824
60.585 21.605558
60.590 22.071541
60.595 22.221853
60.600 21.746883
60.605 21.625381
60.610 22.44845
60.615 22.93302
60.620 23.095757
60.625 22.260536
60.630 21.939545
60.635 22.084785
60.640 21.521051
60.645 21.089287
60.650 20.576538
60.655 19.604347
60.660 19.620777
60.665 19.500645
60.670 19.940683
60.675 20.085621
60.680 19.670179
60.685 19.347229
60.690 19.62175
60.695 19.565434
60.700 20.254612
60.705 20.49968
60.710 20.556864
60.715 20.323336
60.720 20.552807
60.725 20.261011
60.730 20.528307
60.735 19.596941
60.740 18.794748
60.745 18.319019
60.750 18.630117
60.755 19.13382
60.760 19.508223
60.765 19.692701
60.770 20.255146
60.775 20.081291
60.780 19.998241
60.785 19.767313
60.790 18.840256
60.795 18.344627
60.800 17.824291
60.805 17.471888
60.810 17.769825
60.815 18.160851
60.820 17.954687
60.825 18.206959
60.830 18.576836
60.835 18.686207
60.840 19.261305
60.845 19.373123
60.850 19.392935
60.855 19.605471
60.860 19.753033
60.865 19.691055
60.870 19.319073
60.875 19.053528
60.880 19.383709
60.885 19.505276
60.890 20.399221
60.895 20.5947
60.900 20.291037
60.905 20.233139
60.910 20.174656
60.915 19.59708
60.920 19.696611
60.925 18.744661
60.930 18.53973
60.935 18.902822
60.940 19.040754
60.945 18.69203
60.950 18.948658
60.955 18.975985
60.960 19.124243
60.965 18.902506
60.970 18.812431
60.975 19.084034
60.980 19.479437
60.985 19.042902
60.990 18.993204
60.995 19.022049
61.000 19.020435
61.005 18.92099
61.010 18.519337
61.015 17.479843
61.020 17.525244
61.025 17.057623
61.030 16.653067
61.035 16.584381
61.040 16.61508
61.045 16.999939
61.050 18.228533
61.055 17.87022
61.060 18.562737
61.065 18.609093
61.070 18.93784
61.075 19.210009
61.080 18.867285
61.085 18.096235
61.090 18.283726
61.095 18.391047
61.100 18.52219
61.105 18.224386
61.110 17.892975
61.115 17.79607
61.120 18.168606
61.125 17.86898
61.130 17.87089
61.135 18.134441
61.140 17.877424
61.145 17.684622
61.150 17.428549
61.155 17.166672
61.160 16.871628
61.165 16.649477
61.170 16.844952
61.175 17.454613
61.180 17.553953
61.185 17.967611
61.190 18.035578
61.195 17.855659
61.200 17.740622
61.205 17.534212
61.210 17.45521
61.215 17.280437
61.220 17.503937
61.225 17.816927
61.230 17.866144
61.235 18.084478
61.240 18.341885
61.245 17.927967
61.250 17.557756
61.255 17.288103
61.260 17.592609
61.265 17.791588
61.270 16.774694
61.275 16.301891
61.280 16.141394
61.285 15.929858
61.290 15.643553
61.295 14.962408
61.300 14.902909
61.305 14.909161
61.310 15.397593
61.315 15.469949
61.320 15.936441
61.325 16.255592
61.330 16.106434
61.335 16.047506
61.340 16.500244
61.345 16.402737
61.350 16.961555
61.355 16.709364
61.360 16.895884
61.365 17.442318
61.370 17.861708
61.375 17.676907
61.380 17.187241
61.385 16.813385
61.390 17.355206
61.395 17.329298
61.400 17.665527
61.405 17.590279
61.410 16.93545
61.415 16.870186
61.420 17.162012
61.425 17.169065
61.430 16.753439
61.435 16.477039
61.440 16.498556
61.445 17.026278
61.450 17.405806
61.455 17.50242
61.460 17.500738
61.465 17.613787
61.470 17.685863
61.475 17.605637
61.480 17.989672
61.485 18.252062
61.490 17.825514
61.495 17.597288
61.500 17.971283
61.505 17.652714
61.510 17.97341
61.515 18.126726
61.520 18.240967
61.525 18.725515
61.530 18.621696
61.535 18.11722
61.540 17.728271
61.545 17.29582
61.550 17.053846
61.555 16.905056
61.560 16.769621
61.565 17.186586
61.570 17.929478
61.575 18.302158
61.580 18.561024
61.585 18.70311
61.590 18.476414
61.595 18.150953
61.600 17.090952
61.605 17.117353
61.610 17.387878
61.615 17.057375
61.620 16.341549
61.625 15.924111
61.630 15.862092
61.635 16.091431
61.640 15.804749
61.645 15.637365
61.650 15.995846
61.655 16.120317
61.660 16.34936
61.665 16.641708
61.670 16.583681
61.675 16.379091
61.680 16.028667
61.685 16.049067
61.690 16.290695
61.695 15.829695
61.700 15.699745
61.705 16.008059
61.710 16.086304
61.715 16.370148
61.720 16.449516
61.725 16.992905
61.730 17.639196
61.735 17.63201
61.740 17.435823
61.745 17.408264
61.750 16.932602
61.755 17.016224
61.760 16.785475
61.765 16.275423
61.770 16.562269
61.775 17.175091
61.780 17.595526
61.785 17.977411
61.790 17.412262
61.795 17.512615
61.800 18.234133
61.805 18.280357
61.810 17.878887
61.815 17.556705
61.820 17.517015
61.825 17.864767
61.830 18.221951
61.835 18.058001
61.840 17.730255
61.845 17.374975
61.850 17.6049
61.855 18.064917
61.860 18.263079
61.865 18.13105
61.870 17.831598
61.875 17.71019
61.880 18.226748
61.885 17.926254
61.890 17.612963
61.895 17.771166
61.900 17.640703
61.905 18.258093
61.910 18.734058
61.915 18.645861
61.920 18.841673
61.925 18.698298
61.930 17.749201
61.935 17.745232
61.940 17.124588
61.945 16.947365
61.950 16.706902
61.955 16.764151
61.960 16.55637
61.965 15.998043
61.970 15.997534
61.975 16.037386
61.980 16.202711
61.985 15.917931
61.990 15.343569
61.995 15.790681
62.000 17.233089
62.005 17.332266
62.010 17.424957
62.015 17.092583
62.020 17.414061
62.025 17.950367
62.030 17.882938
62.035 17.400154
62.040 17.65221
62.045 18.62323
62.050 18.719809
62.055 18.866705
62.060 18.771471
62.065 18.245718
62.070 18.164461
62.075 17.359711
62.080 16.939381
62.085 16.776213
62.090 16.834412
62.095 16.476524
62.100 16.606258
62.105 17.153732
62.110 17.489798
62.115 17.486382
62.120 17.924875
62.125 17.897192
62.130 18.147671
62.135 18.178278
62.140 17.405041
62.145 17.254845
62.150 17.176128
62.155 17.255705
62.160 17.39176
62.165 17.407286
62.170 18.036507
62.175 18.411791
62.180 18.264158
62.185 18.356102
62.190 18.181389
62.195 18.383474
62.200 18.526157
62.205 17.780323
62.210 17.675695
62.215 17.335939
62.220 17.039932
62.225 16.435987
62.230 15.808163
62.235 15.637002
62.240 16.095377
62.245 16.012642
62.250 16.591841
62.255 16.535488
62.260 16.717678
62.265 16.965881
62.270 16.646252
62.275 16.765974
62.280 17.02807
62.285 17.220903
62.290 17.050436
62.295 16.940781
62.300 16.871019
62.305 16.662853
62.310 16.545084
62.315 16.05809
62.320 15.820706
62.325 15.75141
62.330 15.751541
62.335 15.808618
62.340 16.097675
62.345 15.81419
62.350 15.724009
62.355 15.722349
62.360 16.209675
62.365 17.028049
62.370 17.267332
62.375 17.069574
62.380 17.046072
62.385 17.117523
62.390 17.151459
62.395 17.122839
62.400 17.305033
62.405 17.650301
62.410 17.886913
62.415 18.411837
62.420 18.445204
62.425 18.331753
62.430 17.946384
62.435 18.063482
62.440 17.913105
62.445 18.171638
62.450 18.170889
62.455 18.377031
62.460 18.974155
62.465 18.979227
62.470 18.209696
62.475 18.360664
62.480 18.48027
62.485 18.508825
62.490 18.137428
62.495 17.631163
62.500 17.673872
62.505 17.283035
62.510 16.890076
62.515 16.551826
62.520 16.236145
62.525 16.063818
62.530 15.874486
62.535 16.034069
62.540 16.568113
62.545 16.584505
62.550 16.695139
62.555 16.885109
62.560 17.399546
62.565 18.183954
62.570 18.323313
62.575 18.25099
62.580 18.40168
62.585 17.989513
62.590 18.326468
62.595 17.963646
62.600 17.593693
62.605 17.51652
62.610 17.768797
62.615 17.491135
62.620 17.484533
62.625 17.674513
62.630 18.005861
62.635 18.099703
62.640 18.159447
62.645 18.153536
62.650 18.583334
62.655 18.142214
62.660 17.129457
62.665 16.461409
62.670 15.878052
62.675 15.351369
62.680 15.037597
62.685 15.371264
62.690 16.077868
62.695 17.095766
62.700 18.093536
62.705 18.736933
62.710 18.938643
62.715 18.638582
62.720 18.172029
62.725 18.143818
62.730 17.71596
62.735 17.108284
62.740 16.918327
62.745 17.000757
62.750 16.910191
62.755 16.774487
62.760 17.26075
62.765 17.246893
62.770 17.301617
62.775 17.056423
62.780 17.203123
62.785 18.105463
62.790 18.189043
62.795 17.499298
62.800 17.199043
62.805 17.380043
62.810 17.72485
62.815 17.572598
62.820 17.398443
62.825 17.7174
62.830 18.3855
62.835 19.053698
62.840 18.896364
62.845 19.608608
62.850 19.752426
62.855 19.663212
62.860 19.635666
62.865 19.454828
62.870 18.954037
62.875 18.652885
62.880 18.013058
62.885 18.045799
62.890 17.62604
62.895 17.444586
62.900 17.212515
62.905 17.235182
62.910 17.472364
62.915 17.352972
62.920 17.600338
62.925 17.866213
62.930 17.60498
62.935 17.23122
62.940 17.246572
62.945 17.151031
62.950 16.973423
62.955 16.825211
62.960 16.920403
62.965 17.007355
62.970 17.800501
62.975 18.461725
62.980 19.08009
62.985 19.621763
62.990 19.240574
62.995 18.791908
63.000 19.285482
63.005 19.526611
63.010 18.858517
63.015 18.460251
63.020 18.304741
63.025 18.619383
63.030 19.088461
63.035 18.60828
63.040 17.761318
63.045 18.006823
63.050 18.096451
63.055 17.836918
63.060 17.95034
63.065 17.84177
63.070 17.772703
63.075 17.882133
63.080 18.244478
63.085 18.144552
63.090 17.767282
63.095 17.620546
63.100 17.645056
63.105 17.537386
63.110 17.163996
63.115 16.525949
63.120 16.204386
63.125 16.067932
63.130 16.020304
63.135 15.935597
63.140 16.292942
63.145 16.576185
63.150 16.48127
63.155 16.764633
63.160 17.537302
63.165 18.161007
63.170 18.809092
63.175 18.484034
63.180 18.33366
63.185 18.608482
63.190 18.534912
63.195 18.399115
63.200 18.024038
63.205 17.58235
63.210 17.798468
63.215 17.668165
63.220 17.179779
63.225 17.198765
63.230 17.136854
63.235 16.724497
63.240 16.389025
63.245 16.067301
63.250 15.854396
63.255 16.374447
63.260 16.526386
63.265 16.573366
63.270 16.887369
63.275 16.635221
63.280 17.02199
63.285 17.258917
63.290 16.864576
63.295 16.531559
63.300 16.54598
63.305 17.039036
63.310 17.948427
63.315 17.966856
63.320 18.543104
63.325 18.804741
63.330 19.194145
63.335 19.014835
63.340 18.716467
63.345 18.129097
63.350 17.94804
63.355 17.502619
63.360 17.299694
63.365 16.763208
63.370 16.872633
63.375 17.183683
63.380 17.704
63.385 17.856792
63.390 18.501005
63.395 19.150209
63.400 19.579937
63.405 19.146751
63.410 18.571058
63.415 17.841681
63.420 17.547083
63.425 17.248444
63.430 17.482418
63.435 17.797066
63.440 17.93067
63.445 17.347818
63.450 17.539219
63.455 17.917198
63.460 18.055882
63.465 17.998991
63.470 17.772692
63.475 17.992046
63.480 17.768623
63.485 17.605858
63.490 17.647293
63.495 17.643425
63.500 17.574677
63.505 17.531776
63.510 17.656891
63.515 18.468779
63.520 18.38426
63.525 18.405537
63.530 18.086914
63.535 17.663441
63.540 17.989714
63.545 17.916317
63.550 18.288427
63.555 18.692144
63.560 18.975576
63.565 18.903927
63.570 18.419582
63.575 17.85759
63.580 17.896753
63.585 17.10088
63.590 16.86986
63.595 16.903517
63.600 16.905233
63.605 17.504412
63.610 17.640591
63.615 17.481108
63.620 18.108871
63.625 18.060642
63.630 18.055159
63.635 17.677162
63.640 17.075375
63.645 17.24271
63.650 17.429821
63.655 17.679146
63.660 18.312916
63.665 18.469191
63.670 18.717037
63.675 19.104441
63.680 18.875217
63.685 18.777597
63.690 18.372593
63.695 17.441366
63.700 17.196753
63.705 17.626684
63.710 17.50318
63.715 17.708147
63.720 17.886051
63.725 17.810062
63.730 18.352064
63.735 18.100826
63.740 18.146933
63.745 18.145411
63.750 17.904982
63.755 18.047159
63.760 18.512928
63.765 18.503693
63.770 18.318893
63.775 18.134066
63.780 18.380688
63.785 18.57062
63.790 18.44659
63.795 18.159199
63.800 17.955
63.805 17.321289
63.810 16.957222
63.815 17.485138
63.820 17.222729
63.825 16.934483
63.830 16.608931
63.835 16.728886
63.840 17.988249
63.845 18.250288
63.850 18.039881
63.855 18.332275
63.860 18.320105
63.865 18.846912
63.870 18.531763
63.875 17.752127
63.880 17.847654
63.885 17.715174
63.890 18.153435
63.895 18.569805
63.900 18.603292
63.905 19.226393
63.910 19.611492
63.915 19.32085
63.920 19.228313
63.925 18.997488
63.930 18.660622
63.935 18.21423
63.940 17.736759
63.945 17.648584
63.950 17.341913
63.955 17.275667
63.960 17.555517
63.965 17.474062
63.970 17.659012
63.975 17.674376
63.980 18.141443
63.985 18.150175
63.990 17.685616
63.995 17.265709
64.000 17.546961
64.005 17.617756
64.010 18.031233
64.015 18.880423
64.020 19.988024
64.025 20.206175
64.030 20.376625
64.035 20.046099
64.040 19.935719
64.045 19.424519
64.050 18.056118
64.055 17.107975
64.060 17.391546
64.065 17.463995
64.070 18.196342
64.075 18.281122
64.080 18.125351
64.085 18.674984
64.090 19.124413
64.095 18.737871
64.100 18.64801
64.105 18.138281
64.110 18.105082
64.115 18.219955
64.120 17.55604
64.125 17.177378
64.130 17.484289
64.135 17.599161
64.140 17.827986
64.145 17.901052
64.150 17.789431
64.155 18.635763
64.160 18.872763
64.165 18.498419
64.170 18.71104
64.175 18.635292
64.180 18.824978
64.185 19.674269
64.190 19.562815
64.195 19.537615
64.200 19.646502
64.205 19.104837
64.210 19.382648
64.215 19.116652
64.220 18.208881
64.225 18.121176
64.230 18.720501
64.235 18.526197
64.240 18.495476
64.245 18.537687
64.250 18.00428
64.255 18.319445
64.260 18.540554
64.265 17.972469
64.270 17.669605
64.275 17.489614
64.280 17.319231
64.285 17.50659
64.290 17.433792
64.295 17.086367
64.300 17.492573
64.305 18.27524
64.310 18.359406
64.315 18.274605
64.320 18.414991
64.325 18.149229
64.330 17.649782
64.335 17.212734
64.340 16.669281
64.345 17.448893
64.350 17.475115
64.355 17.815605
64.360 18.957697
64.365 19.394526
64.370 20.110783
64.375 20.202139
64.380 20.149536
64.385 20.066093
64.390 20.012707
64.395 19.604279
64.400 19.799879
64.405 20.104588
64.410 20.238255
64.415 19.867002
64.420 19.617256
64.425 19.57955
64.430 19.518187
64.435 19.635187
64.440 19.492731
64.445 19.478748
64.450 19.957911
64.455 20.292372
64.460 20.584084
64.465 20.45476
64.470 20.159216
64.475 20.264368
64.480 20.386379
64.485 20.425169
64.490 20.366014
64.495 20.736048
64.500 21.339703
64.505 21.312468
64.510 21.162296
64.515 21.044514
64.520 20.928869
64.525 21.522743
64.530 21.650892
64.535 22.047148
64.540 21.799658
64.545 21.694263
64.550 21.215351
64.555 20.9858
64.560 20.371025
64.565 19.565556
64.570 19.031435
64.575 20.159185
64.580 20.005886
64.585 19.876493
64.590 19.855356
64.595 19.781134
64.600 19.371166
64.605 19.099194
64.610 18.549116
64.615 18.890287
64.620 19.307785
64.625 19.536287
64.630 19.615511
64.635 20.133709
64.640 20.110395
64.645 19.589808
64.650 19.1381
64.655 19.128736
64.660 19.095411
64.665 19.262373
64.670 19.100164
64.675 18.849518
64.680 18.872759
64.685 19.102322
64.690 18.656527
64.695 18.371323
64.700 18.121475
64.705 17.825024
64.710 18.263325
64.715 19.027773
64.720 19.220484
64.725 19.434244
64.730 20.201683
64.735 21.077259
64.740 21.730049
64.745 21.190559
64.750 20.822309
64.755 20.65279
64.760 20.477848
64.765 20.04574
64.770 19.258944
64.775 19.006069
64.780 20.511572
64.785 20.522739
64.790 20.876465
64.795 21.15789
64.800 21.435776
64.805 21.363441
64.810 21.037079
64.815 19.566998
64.820 19.414722
64.825 19.148222
64.830 19.076872
64.835 19.000904
64.840 19.790066
64.845 19.873549
64.850 19.784021
64.855 19.924694
64.860 20.212147
64.865 20.528687
64.870 20.344023
64.875 20.068933
64.880 20.202202
64.885 20.805737
64.890 21.063303
64.895 21.014561
64.900 21.067781
64.905 21.538071
64.910 21.717688
64.915 21.719149
64.920 21.059984
64.925 20.592854
64.930 20.476315
64.935 20.37373
64.940 19.71487
64.945 18.838062
64.950 19.078465
64.955 19.483179
64.960 19.695835
64.965 20.496595
64.970 20.60034
64.975 20.379354
64.980 20.561827
64.985 20.468941
64.990 20.880333
64.995 20.876657
65.000 19.676123
65.005 19.642099
65.010 20.078316
65.015 20.803534
65.020 21.562012
65.025 21.007496
65.030 21.129789
65.035 21.598183
65.040 21.328747
65.045 21.560511
65.050 21.609943
65.055 21.504654
65.060 22.149979
65.065 22.81687
65.070 23.0319
65.075 23.621918
65.080 24.136618
65.085 23.875301
65.090 23.300007
65.095 23.081089
65.100 22.588774
65.105 22.847589
65.110 23.22607
65.115 22.762316
65.120 22.771538
65.125 23.512817
65.130 23.793039
65.135 23.571802
65.140 22.956133
65.145 22.316734
65.150 22.087706
65.155 22.523426
65.160 22.08856
65.165 22.538631
65.170 23.236542
65.175 23.776447
65.180 23.816761
65.185 23.657127
65.190 23.487011
65.195 23.263107
65.200 22.361683
65.205 22.041403
65.210 22.264692
65.215 22.600237
65.220 22.842976
65.225 23.000637
65.230 23.461416
65.235 23.241732
65.240 23.461168
65.245 23.623655
65.250 23.475365
65.255 23.366264
65.260 22.749405
65.265 22.196579
65.270 22.385336
65.275 21.707195
65.280 21.258177
65.285 21.789692
65.290 21.607929
65.295 21.748732
65.300 22.384375
65.305 22.686939
65.310 23.113276
65.315 23.140385
65.320 22.688253
65.325 22.586838
65.330 23.037106
65.335 23.078245
65.340 22.53858
65.345 21.724594
65.350 21.733208
65.355 21.444456
65.360 21.55789
65.365 21.389297
65.370 21.469286
65.375 22.510977
65.380 23.29216
65.385 23.691298
65.390 24.476076
65.395 25.030777
65.400 25.240017
65.405 25.893599
65.410 26.450182
65.415 26.548239
65.420 26.375376
65.425 26.030121
65.430 25.627428
65.435 26.207451
65.440 25.94652
65.445 25.405367
65.450 25.676086
65.455 25.786005
65.460 26.09528
65.465 26.733471
65.470 26.584002
65.475 26.034971
65.480 25.586302
65.485 26.150139
65.490 26.690039
65.495 26.819424
65.500 26.673462
65.505 26.622868
65.510 27.196743
65.515 27.440121
65.520 26.180632
65.525 25.917028
65.530 26.530106
65.535 26.588943
65.540 26.697922
65.545 26.791676
65.550 27.221365
65.555 27.955439
65.560 28.641224
65.565 28.274136
65.570 28.077295
65.575 28.271957
65.580 28.933811
65.585 29.27636
65.590 29.437519
65.595 28.332554
65.600 28.729744
65.605 29.222368
65.610 29.296804
65.615 29.710312
65.620 30.292929
65.625 30.730761
65.630 31.6031
65.635 31.264771
65.640 31.397663
65.645 32.038166
65.650 31.801605
65.655 31.098724
65.660 30.627909
65.665 30.427198
65.670 30.924532
65.675 30.722271
65.680 30.732668
65.685 31.069893
65.690 31.081825
65.695 31.384357
65.700 31.875731
65.705 32.174126
65.710 32.379246
65.715 32.101238
65.720 31.744379
65.725 32.122383
65.730 32.761375
65.735 32.785316
65.740 32.794399
65.745 32.801296
65.750 33.773006
65.755 34.605236
65.760 35.756153
65.765 35.953262
65.770 36.55294
65.775 36.839249
65.780 37.723557
65.785 38.836784
65.790 39.055889
65.795 38.264866
65.800 39.01664
65.805 39.792427
65.810 40.582855
65.815 40.631523
65.820 39.218967
65.825 38.57814
65.830 39.025043
65.835 38.8652
65.840 38.533661
65.845 38.874405
65.850 38.736454
65.855 39.344074
65.860 39.486519
65.865 39.210052
65.870 38.901779
65.875 39.515614
65.880 39.635017
65.885 40.026096
65.890 40.660866
65.895 41.267128
65.900 42.018482
65.905 41.801659
65.910 41.1511
65.915 40.897987
65.920 41.237495
65.925 41.087337
65.930 41.505779
65.935 41.061508
65.940 40.873764
65.945 40.766819
65.950 40.083912
65.955 39.624275
65.960 39.628563
65.965 39.346004
65.970 39.60569
65.975 39.881737
65.980 40.170773
65.985 40.421055
65.990 40.367424
65.995 40.063969
66.000 39.811306
66.005 39.047928
66.010 39.039444
66.015 39.163231
66.020 39.18782
66.025 39.44709
66.030 38.462856
66.035 38.699215
66.040 38.86935
66.045 37.45583
66.050 37.154236
66.055 37.610287
66.060 37.394524
66.065 37.629082
66.070 38.313831
66.075 38.563511
66.080 39.321449
66.085 39.273174
66.090 38.341122
66.095 38.189167
66.100 38.818489
66.105 38.40205
66.110 38.52636
66.115 38.405907
66.120 38.318741
66.125 39.044533
66.130 39.641823
66.135 39.395325
66.140 39.665836
66.145 40.061954
66.150 39.227421
66.155 38.67791
66.160 38.784554
66.165 38.713387
66.170 38.480286
66.175 37.919006
66.180 37.95034
66.185 39.414406
66.190 40.178925
66.195 39.291336
66.200 38.521412
66.205 38.789185
66.210 39.097347
66.215 39.490681
66.220 38.64996
66.225 37.628685
66.230 37.835274
66.235 37.491211
66.240 37.232998
66.245 36.805943
66.250 36.620182
66.255 37.082649
66.260 37.672909
66.265 37.664993
66.270 38.263607
66.275 37.603287
66.280 36.866714
66.285 36.046467
66.290 36.095055
66.295 35.957302
66.300 35.621338
66.305 35.735676
66.310 35.512356
66.315 35.450108
66.320 35.078671
66.325 34.022308
66.330 34.054443
66.335 34.519337
66.340 33.699055
66.345 34.091881
66.350 34.569752
66.355 34.411663
66.360 34.084457
66.365 33.163845
66.370 32.712097
66.375 32.003399
66.380 31.782948
66.385 31.102743
66.390 30.996984
66.395 31.81156
66.400 31.817772
66.405 31.632774
66.410 32.779362
66.415 32.41597
66.420 32.401211
66.425 32.950443
66.430 32.836109
66.435 32.749706
66.440 32.639309
66.445 31.740978
66.450 31.409941
66.455 31.353521
66.460 30.999029
66.465 30.551888
66.470 30.181286
66.475 29.834351
66.480 29.842314
66.485 29.557571
66.490 28.601912
66.495 27.79327
66.500 27.304966
66.505 27.413498
66.510 27.589525
66.515 28.130339
66.520 28.427032
66.525 28.595131
66.530 28.602674
66.535 28.986572
66.540 28.636532
66.545 28.400824
66.550 28.192188
66.555 27.993904
66.560 28.695124
66.565 29.266287
66.570 29.46026
66.575 29.630016
66.580 29.772066
66.585 28.996786
66.590 28.806398
66.595 28.424397
66.600 28.20929
66.605 27.519012
66.610 27.531387
66.615 27.14361
66.620 27.135712
66.625 27.378235
66.630 27.466621
66.635 27.231133
66.640 27.651684
66.645 28.125166
66.650 27.649761
66.655 27.309669
66.660 26.691078
66.665 26.529854
66.670 26.098616
66.675 25.531641
66.680 24.681047
66.685 24.237131
66.690 24.162848
66.695 24.143843
66.700 23.974369
66.705 23.663633
66.710 23.777992
66.715 24.212324
66.720 24.94742
66.725 24.87561
66.730 24.509846
66.735 24.814539
66.740 25.281469
66.745 24.298243
66.750 24.415844
66.755 23.962084
66.760 24.154243
66.765 24.418854
66.770 24.256205
66.775 24.191238
66.780 24.446655
66.785 24.133593
66.790 24.074783
66.795 24.248045
66.800 23.786749
66.805 23.658075
66.810 23.861303
66.815 24.242588
66.820 24.015221
66.825 24.507895
66.830 23.882549
66.835 24.107914
66.840 23.993338
66.845 24.289782
66.850 23.971048
66.855 23.650644
66.860 22.843285
66.865 23.34515
66.870 23.193825
66.875 23.366463
66.880 22.915283
66.885 22.204422
66.890 22.320082
66.895 23.150438
66.900 22.719738
66.905 22.469933
66.910 23.089808
66.915 23.248774
66.920 23.698786
66.925 23.578234
66.930 23.252073
66.935 23.462051
66.940 23.583456
66.945 22.742182
66.950 22.550802
66.955 22.665022
66.960 23.11438
66.965 23.277412
66.970 23.127039
66.975 23.3036
66.980 23.585604
66.985 23.964407
66.990 24.163717
66.995 23.974831
67.000 24.018814
67.005 24.305391
67.010 24.052094
67.015 24.221149
67.020 24.453402
67.025 24.082064
67.030 23.687986
67.035 23.761658
67.040 23.896193
67.045 23.694374
67.050 23.555878
67.055 23.302032
67.060 23.222853
67.065 23.555223
67.070 23.037525
67.075 23.206093
67.080 23.30278
67.085 22.837093
67.090 22.72822
67.095 22.787516
67.100 22.396164
67.105 22.723148
67.110 22.834339
67.115 23.119957
67.120 23.796516
67.125 24.186451
67.130 24.475754
67.135 24.777681
67.140 23.910255
67.145 23.857162
67.150 23.142912
67.155 22.747316
67.160 22.663004
67.165 22.419144
67.170 22.652111
67.175 23.574753
67.180 23.330984
67.185 23.979807
67.190 23.537338
67.195 23.410311
67.200 23.486515
67.205 23.026739
67.210 22.727383
67.215 22.666925
67.220 22.728428
67.225 22.623446
67.230 22.91651
67.235 23.056595
67.240 23.166229
67.245 23.089449
67.250 23.044861
67.255 22.989573
67.260 22.955858
67.265 22.353243
67.270 22.069401
67.275 22.101416
67.280 22.366392
67.285 22.185829
67.290 21.586735
67.295 21.627726
67.300 22.186127
67.305 22.20973
67.310 22.041086
67.315 21.832355
67.320 21.707993
67.325 21.641279
67.330 21.504745
67.335 21.902443
67.340 21.995937
67.345 21.688562
67.350 21.885155
67.355 22.249895
67.360 22.857679
67.365 23.074543
67.370 22.953405
67.375 22.658892
67.380 22.24761
67.385 21.413044
67.390 20.852283
67.395 20.948929
67.400 21.445648
67.405 21.298864
67.410 21.902592
67.415 22.919193
67.420 24.113205
67.425 24.370174
67.430 24.005909
67.435 23.311272
67.440 23.036011
67.445 23.031059
67.450 22.329947
67.455 22.026651
67.460 21.54903
67.465 21.362391
67.470 21.410089
67.475 21.027943
67.480 20.773844
67.485 21.263615
67.490 21.522573
67.495 21.966686
67.500 21.718788
67.505 21.668249
67.510 22.167608
67.515 22.237249
67.520 21.668507
67.525 21.710526
67.530 21.467005
67.535 21.850098
67.540 21.401197
67.545 20.779142
67.550 20.478718
67.555 20.175386
67.560 20.274643
67.565 20.916698
67.570 20.976835
67.575 21.252096
67.580 21.777952
67.585 22.275221
67.590 22.612732
67.595 22.380173
67.600 21.610815
67.605 21.375338
67.610 21.483669
67.615 21.696781
67.620 22.015354
67.625 22.636803
67.630 22.512802
67.635 22.912809
67.640 23.388222
67.645 23.188713
67.650 22.858521
67.655 22.222424
67.660 21.760439
67.665 21.943449
67.670 21.766068
67.675 21.221321
67.680 21.534204
67.685 21.489672
67.690 21.528463
67.695 21.529398
67.700 21.705263
67.705 22.260101
67.710 22.479074
67.715 21.944689
67.720 21.389082
67.725 21.396387
67.730 21.001686
67.735 20.599173
67.740 20.449421
67.745 20.702471
67.750 21.518293
67.755 22.121389
67.760 22.45178
67.765 22.227987
67.770 22.127903
67.775 21.990324
67.780 22.134459
67.785 22.09111
67.790 22.132105
67.795 22.166574
67.800 22.264244
67.805 22.129765
67.810 21.814291
67.815 21.65748
67.820 21.441668
67.825 21.175022
67.830 20.878416
67.835 20.793623
67.840 20.686634
67.845 20.392391
67.850 20.266039
67.855 20.462826
67.860 20.593102
67.865 21.34763
67.870 21.797382
67.875 21.813648
67.880 21.976749
67.885 21.215204
67.890 20.475155
67.895 20.690037
67.900 20.732731
67.905 21.03141
67.910 21.549231
67.915 21.370377
67.920 21.618902
67.925 21.728186
67.930 21.5285
67.935 21.210604
67.940 20.942495
67.945 20.645229
67.950 21.010401
67.955 21.519146
67.960 21.762901
67.965 21.825953
67.970 21.845043
67.975 22.633764
67.980 22.994198
67.985 22.872597
67.990 22.702738
67.995 21.961962
68.000 21.656391
68.005 21.924393
68.010 21.466644
68.015 21.635262
68.020 21.985626
68.025 21.807003
68.030 22.336454
68.035 22.300594
68.040 22.017273
68.045 22.131451
68.050 21.880039
68.055 21.996023
68.060 22.334873
68.065 22.050501
68.070 21.771667
68.075 22.246931
68.080 21.233835
68.085 20.74251
68.090 20.75861
68.095 20.555189
68.100 20.623859
68.105 20.726397
68.110 20.318954
68.115 20.820292
68.120 20.679874
68.125 20.562517
68.130 21.268093
68.135 21.57633
68.140 21.426973
68.145 21.721966
68.150 21.838039
68.155 22.106026
68.160 21.901728
68.165 21.425493
68.170 21.521055
68.175 21.531496
68.180 21.135792
68.185 21.443115
68.190 21.65674
68.195 21.639477
68.200 21.211157
68.205 21.392229
68.210 21.188164
68.215 21.014585
68.220 20.91884
68.225 20.312761
68.230 20.563404
68.235 20.986973
68.240 20.872787
68.245 21.618515
68.250 21.526131
68.255 21.440037
68.260 22.12672
68.265 22.395807
68.270 22.859346
68.275 23.39485
68.280 22.787405
68.285 22.936983
68.290 23.177896
68.295 22.389185
68.300 22.106728
68.305 22.029726
68.310 21.348541
68.315 20.984364
68.320 20.877262
68.325 20.628637
68.330 21.082468
68.335 20.859137
68.340 20.218859
68.345 20.579395
68.350 21.005169
68.355 21.209274
68.360 21.374077
68.365 21.37067
68.370 21.811094
68.375 21.95389
68.380 21.493629
68.385 21.619419
68.390 21.530846
68.395 21.726538
68.400 20.88534
68.405 20.508924
68.410 20.569006
68.415 20.655903
68.420 20.649776
68.425 21.002342
68.430 20.810461
68.435 20.934074
68.440 21.092119
68.445 20.701231
68.450 20.91781
68.455 20.768141
68.460 20.40921
68.465 20.974546
68.470 21.49144
68.475 21.786053
68.480 22.104029
68.485 22.355644
68.490 22.453892
68.495 22.338112
68.500 21.223997
68.505 20.802927
68.510 19.94145
68.515 19.386726
68.520 19.580067
68.525 19.836126
68.530 19.913778
68.535 21.159781
68.540 21.760273
68.545 22.220043
68.550 22.587704
68.555 21.975119
68.560 22.012688
68.565 21.828976
68.570 21.072577
68.575 20.664835
68.580 20.508389
68.585 20.872799
68.590 20.93244
68.595 20.579927
68.600 20.780739
68.605 21.000214
68.610 21.358074
68.615 21.423185
68.620 21.059418
68.625 21.085007
68.630 21.567165
68.635 21.650341
68.640 21.524876
68.645 21.604074
68.650 21.6343
68.655 21.719374
68.660 22.339413
68.665 22.678545
68.670 22.995953
68.675 22.920456
68.680 22.781178
68.685 23.053043
68.690 23.317968
68.695 22.513309
68.700 21.655874
68.705 21.268137
68.710 21.655247
68.715 22.054779
68.720 22.145145
68.725 22.572889
68.730 22.791683
68.735 23.162367
68.740 23.601631
68.745 22.841621
68.750 22.31295
68.755 22.079576
68.760 21.990892
68.765 21.925774
68.770 22.305935
68.775 22.354723
68.780 22.971224
68.785 22.983595
68.790 22.955986
68.795 22.592976
68.800 22.374308
68.805 21.931089
68.810 21.928593
68.815 21.919476
68.820 22.076674
68.825 22.243647
68.830 22.74682
68.835 23.067093
68.840 23.102913
68.845 22.968287
68.850 23.028641
68.855 23.086706
68.860 22.714098
68.865 22.266413
68.870 22.077629
68.875 21.892698
68.880 22.369938
68.885 22.238508
68.890 22.426544
68.895 22.878727
68.900 23.485069
68.905 23.738712
68.910 24.052174
68.915 23.665499
68.920 24.286085
68.925 24.696609
68.930 24.35066
68.935 24.04829
68.940 24.169481
68.945 24.270451
68.950 24.389986
68.955 23.698215
68.960 23.936905
68.965 24.097607
68.970 24.549805
68.975 24.593525
68.980 24.594473
68.985 24.932379
68.990 25.514061
68.995 24.850164
69.000 25.035061
69.005 25.389065
69.010 25.642406
69.015 25.562162
69.020 25.24387
69.025 25.088911
69.030 25.260546
69.035 25.317835
69.040 25.068388
69.045 25.575949
69.050 26.593185
69.055 27.115587
69.060 27.091486
69.065 27.362436
69.070 26.710125
69.075 26.34411
69.080 25.414024
69.085 24.636309
69.090 24.635782
69.095 24.89649
69.100 24.77091
69.105 24.91864
69.110 25.372097
69.115 25.814634
69.120 25.570442
69.125 25.200113
69.130 25.735086
69.135 26.018993
69.140 25.701128
69.145 25.88525
69.150 25.761267
69.155 26.10795
69.160 26.091684
69.165 25.942142
69.170 26.195644
69.175 26.840895
69.180 26.534529
69.185 27.06362
69.190 27.29044
69.195 27.362778
69.200 26.936167
69.205 26.90074
69.210 26.908123
69.215 26.741442
69.220 26.80205
69.225 26.823509
69.230 26.953447
69.235 26.7248
69.240 27.20122
69.245 27.150463
69.250 27.268297
69.255 26.781229
69.260 26.474579
69.265 26.278248
69.270 27.275536
69.275 27.26622
69.280 27.94146
69.285 28.418478
69.290 28.797237
69.295 29.1595
69.300 29.38446
69.305 29.12711
69.310 30.099726
69.315 30.136332
69.320 30.26409
69.325 29.891329
69.330 29.889099
69.335 29.631754
69.340 29.708967
69.345 28.76701
69.350 28.903618
69.355 29.027143
69.360 29.672813
69.365 29.726295
69.370 29.99054
69.375 30.508028
69.380 30.61969
69.385 30.346376
69.390 30.67482
69.395 30.59082
69.400 30.444294
69.405 30.580013
69.410 30.004761
69.415 30.248453
69.420 29.765984
69.425 28.943661
69.430 29.632845
69.435 30.498302
69.440 30.126001
69.445 30.72296
69.450 31.193712
69.455 31.874819
69.460 32.142754
69.465 31.51836
69.470 31.176517
69.475 31.249712
69.480 31.098993
69.485 30.604345
69.490 30.245043
69.495 30.14592
69.500 29.282139
69.505 29.406895
69.510 29.798616
69.515 29.775246
69.520 28.955536
69.525 28.517691
69.530 28.954708
69.535 29.904533
69.540 29.672699
69.545 28.846472
69.550 29.352152
69.555 30.205521
69.560 30.276239
69.565 30.90292
69.570 31.387758
69.575 31.622702
69.580 31.536629
69.585 31.641882
69.590 32.490414
69.595 32.333092
69.600 31.322321
69.605 31.072578
69.610 31.400452
69.615 31.620897
69.620 31.36117
69.625 30.280586
69.630 30.015345
69.635 30.201481
69.640 29.606964
69.645 29.445618
69.650 29.560621
69.655 29.214657
69.660 29.58655
69.665 29.393806
69.670 29.401224
69.675 29.782322
69.680 29.735683
69.685 29.542551
69.690 29.784334
69.695 29.995295
69.700 30.321854
69.705 29.962786
69.710 29.622816
69.715 29.389532
69.720 29.326065
69.725 29.446999
69.730 28.920803
69.735 28.959709
69.740 29.089132
69.745 29.252853
69.750 28.982834
69.755 27.932909
69.760 27.107216
69.765 27.604727
69.770 27.574541
69.775 27.268543
69.780 27.971613
69.785 28.611492
69.790 29.408623
69.795 29.652775
69.800 29.453489
69.805 29.213554
69.810 29.086477
69.815 28.058685
69.820 27.502752
69.825 26.958708
69.830 27.034334
69.835 26.884159
69.840 26.491867
69.845 25.851025
69.850 25.773613
69.855 26.038647
69.860 25.976917
69.865 25.885843
69.870 25.886469
69.875 26.503956
69.880 26.396479
69.885 25.95208
69.890 25.759361
69.895 25.50181
69.900 25.502962
69.905 25.094591
69.910 24.050991
69.915 24.423723
69.920 24.758833
69.925 24.219076
69.930 24.210892
69.935 23.565592
69.940 23.03924
69.945 23.367453
69.950 22.893675
69.955 22.666935
69.960 22.554417
69.965 22.104099
69.970 22.149431
69.975 22.578377
69.980 22.580927
69.985 22.828861
69.990 23.048075
69.995 23.829645
70.000 23.939816
70.005 23.398794
70.010 22.964748
70.015 22.66313
70.020 22.522903
70.025 22.220697
70.030 21.846775
70.035 22.168539
70.040 22.265268
70.045 22.325451
70.050 22.349491
70.055 22.240294
70.060 22.321297
70.065 21.781168
70.070 21.2321
70.075 21.489317
70.080 21.431171
70.085 21.411297
70.090 21.710928
70.095 21.610165
70.100 21.869135
70.105 22.167782
70.110 22.112581
70.115 22.000916
70.120 21.347553
70.125 21.360432
70.130 21.494957
70.135 21.616512
70.140 21.501448
70.145 21.786287
70.150 22.764259
70.155 23.134706
70.160 22.768932
70.165 22.350071
70.170 22.304604
70.175 22.198784
70.180 21.845211
70.185 21.327047
70.190 21.13706
70.195 21.38063
70.200 21.947443
70.205 22.376322
70.210 22.506033
70.215 22.324926
70.220 21.674398
70.225 21.386251
70.230 20.952763
70.235 20.578403
70.240 20.299475
70.245 19.955444
70.250 20.300398
70.255 20.761784
70.260 20.898357
70.265 20.974974
70.270 21.183064
70.275 21.034328
70.280 20.884478
70.285 20.641529
70.290 20.8533
70.295 20.808674
70.300 20.696062
70.305 20.84276
70.310 20.955751
70.315 21.559658
70.320 21.342455
70.325 21.283516
70.330 21.487629
70.335 21.295666
70.340 20.534594
70.345 20.292189
70.350 19.950487
70.355 20.226942
70.360 19.765635
70.365 19.676249
70.370 19.567385
70.375 19.784298
70.380 19.855825
70.385 19.614418
70.390 19.26753
70.395 19.611055
70.400 19.821903
70.405 19.635649
70.410 18.991665
70.415 18.912132
70.420 18.97953
70.425 18.863855
70.430 19.375584
70.435 19.297712
70.440 19.76849
70.445 20.25391
70.450 20.03857
70.455 20.209759
70.460 20.58333
70.465 20.668282
70.470 21.062176
70.475 21.626574
70.480 21.645432
70.485 21.605875
70.490 21.429251
70.495 21.271503
70.500 21.048189
70.505 20.566189
70.510 19.921951
70.515 19.951468
70.520 20.280748
70.525 19.755999
70.530 19.123188
70.535 18.836876
70.540 19.179493
70.545 19.928532
70.550 20.208614
70.555 20.579205
70.560 20.852333
70.565 21.322313
70.570 21.207863
70.575 20.859821
70.580 20.379551
70.585 19.611078
70.590 19.426184
70.595 19.073021
70.600 18.790352
70.605 19.036713
70.610 19.597912
70.615 20.160538
70.620 20.043999
70.625 20.787577
70.630 21.538576
70.635 21.481153
70.640 21.152266
70.645 20.634283
70.650 20.840576
70.655 21.543169
70.660 20.466675
70.665 19.638271
70.670 19.859318
70.675 20.319881
70.680 20.047855
70.685 18.958624
70.690 18.835192
70.695 18.911043
70.700 19.144722
70.705 18.42281
70.710 17.64925
70.715 17.785395
70.720 17.6175
70.725 17.046999
70.730 17.659178
70.735 18.022694
70.740 18.591722
70.745 18.672674
70.750 19.220467
70.755 19.745621
70.760 20.202112
70.765 20.333273
70.770 20.302179
70.775 20.27178
70.780 20.068172
70.785 19.908842
70.790 20.21059
70.795 19.619505
70.800 19.565525
70.805 19.318619
70.810 19.476135
70.815 19.658993
70.820 19.624739
70.825 19.853928
70.830 19.965412
70.835 19.629784
70.840 19.891794
70.845 19.392672
70.850 19.405584
70.855 19.156319
70.860 18.675171
70.865 18.779961
70.870 18.562212
70.875 19.121395
70.880 19.731075
70.885 20.179728
70.890 19.911953
70.895 20.377462
70.900 20.737734
70.905 20.583359
70.910 20.426458
70.915 19.692974
70.920 19.293871
70.925 19.483395
70.930 18.881495
70.935 18.725798
70.940 18.689823
70.945 18.555334
70.950 18.54604
70.955 18.588232
70.960 18.517559
70.965 19.393291
70.970 19.835846
70.975 20.170361
70.980 19.960079
70.985 20.108097
70.990 19.936485
70.995 19.675472
71.000 19.482471
71.005 18.793299
71.010 18.556162
71.015 18.791399
71.020 18.974228
71.025 18.902802
71.030 18.345243
71.035 18.146486
71.040 17.880409
71.045 17.854635
71.050 18.047068
71.055 18.220573
71.060 18.616543
71.065 19.339106
71.070 19.422899
71.075 19.670982
71.080 19.501705
71.085 19.426073
71.090 19.301489
71.095 19.117273
71.100 18.936207
71.105 19.18849
71.110 18.58003
71.115 18.071503
71.120 17.899105
71.125 17.585747
71.130 17.595165
71.135 17.12672
71.140 16.840734
71.145 17.147429
71.150 17.28179
71.155 16.931612
71.160 16.771751
71.165 17.055611
71.170 17.500393
71.175 17.476118
71.180 17.714415
71.185 17.740946
71.190 18.115198
71.195 18.340357
71.200 18.333462
71.205 18.152666
71.210 18.412788
71.215 18.670135
71.220 18.740303
71.225 18.671875
71.230 18.812798
71.235 18.840536
71.240 18.802353
71.245 18.469379
71.250 18.58292
71.255 18.555061
71.260 18.741943
71.265 19.337648
71.270 19.128534
71.275 19.055309
71.280 18.714108
71.285 18.668707
71.290 18.93449
71.295 18.049633
71.300 17.267885
71.305 17.429935
71.310 18.49452
71.315 18.880785
71.320 18.679287
71.325 18.540962
71.330 18.646305
71.335 18.760954
71.340 18.862192
71.345 18.757183
71.350 18.474459
71.355 18.488062
71.360 19.287621
71.365 20.093042
71.370 19.425762
71.375 19.110899
71.380 19.559584
71.385 20.109562
71.390 19.637445
71.395 19.116838
71.400 19.152832
71.405 20.118206
71.410 20.237776
71.415 19.788294
71.420 19.479147
71.425 19.709084
71.430 19.393505
71.435 19.074163
71.440 18.646372
71.445 18.268604
71.450 18.39579
71.455 18.58354
71.460 19.019762
71.465 19.536213
71.470 20.44544
71.475 21.517506
71.480 22.357559
71.485 22.797358
71.490 22.674463
71.495 22.365877
71.500 22.049618
71.505 20.943913
71.510 20.129265
71.515 19.094549
71.520 18.324461
71.525 18.448471
71.530 18.247723
71.535 19.07765
71.540 19.355791
71.545 19.437418
71.550 19.694616
71.555 19.884583
71.560 20.075556
71.565 20.15773
71.570 19.081053
71.575 18.726824
71.580 18.545137
71.585 18.614971
71.590 18.543013
71.595 18.393896
71.600 18.598171
71.605 18.801563
71.610 18.392315
71.615 18.213737
71.620 18.448595
71.625 18.482937
71.630 18.420122
71.635 17.941864
71.640 17.963787
71.645 18.65765
71.650 18.858145
71.655 18.668491
71.660 18.660496
71.665 19.309156
71.670 19.667841
71.675 20.311852
71.680 20.361931
71.685 20.152157
71.690 19.651783
71.695 19.669319
71.700 19.447474
71.705 18.81041
71.710 18.486092
71.715 18.668278
71.720 19.069437
71.725 19.344519
71.730 19.078751
71.735 18.973629
71.740 19.296362
71.745 18.970188
71.750 19.131472
71.755 19.870733
71.760 19.633131
71.765 20.057266
71.770 20.222919
71.775 20.584126
71.780 20.864649
71.785 20.40863
71.790 19.690912
71.795 19.386995
71.800 18.999817
71.805 18.295309
71.810 18.196413
71.815 18.37368
71.820 18.037022
71.825 17.869143
71.830 17.792082
71.835 18.082748
71.840 17.963312
71.845 17.331059
71.850 17.229883
71.855 17.400036
71.860 17.534565
71.865 17.387981
71.870 17.500544
71.875 18.301481
71.880 18.427435
71.885 18.251547
71.890 18.029835
71.895 18.643557
71.900 19.363974
71.905 19.281075
71.910 19.866196
71.915 20.506311
71.920 20.854471
71.925 21.198009
71.930 20.899416
71.935 20.963947
71.940 20.714836
71.945 20.303688
71.950 19.874893
71.955 20.039352
71.960 20.067572
71.965 19.910669
71.970 19.839655
71.975 19.548115
71.980 18.883032
71.985 18.720829
71.990 18.875069
71.995 19.214525
72.000 19.031473
72.005 18.827213
72.010 18.735626
72.015 18.809553
72.020 19.036701
72.025 18.491735
72.030 18.356728
72.035 18.235247
72.040 17.838884
72.045 17.758863
72.050 17.793547
72.055 17.5035
72.060 17.631935
72.065 18.141319
72.070 18.664625
72.075 19.03756
72.080 19.117435
72.085 19.577967
72.090 19.321791
72.095 18.654274
72.100 18.408554
72.105 18.552504
72.110 18.694284
72.115 18.979177
72.120 18.766209
72.125 19.673239
72.130 19.78812
72.135 19.456482
72.140 19.488926
72.145 19.922588
72.150 19.884716
72.155 19.460798
72.160 18.768475
72.165 19.039801
72.170 19.413097
72.175 19.322504
72.180 19.102556
72.185 19.859364
72.190 20.258612
72.195 20.303028
72.200 20.041567
72.205 19.594952
72.210 19.293633
72.215 18.464642
72.220 17.634394
72.225 17.606604
72.230 17.673859
72.235 18.047478
72.240 18.105787
72.245 18.40019
72.250 18.809362
72.255 18.929195
72.260 18.933119
72.265 18.868284
72.270 18.668585
72.275 18.115419
72.280 18.29178
72.285 18.819305
72.290 18.993893
72.295 19.16267
72.300 19.282547
72.305 19.845835
72.310 20.259512
72.315 19.626749
72.320 19.713894
72.325 19.98983
72.330 19.606871
72.335 19.310326
72.340 19.215395
72.345 19.581892
72.350 20.175407
72.355 19.825542
72.360 20.16011
72.365 20.586521
72.370 20.566486
72.375 20.225426
72.380 19.966942
72.385 19.061899
72.390 18.465586
72.395 17.397875
72.400 17.272722
72.405 17.514805
72.410 17.487625
72.415 17.609795
72.420 18.448645
72.425 18.314436
72.430 18.258244
72.435 18.113085
72.440 18.147673
72.445 18.716702
72.450 18.709192
72.455 18.627872
72.460 19.020266
72.465 19.67276
72.470 19.916117
72.475 19.82408
72.480 19.42367
72.485 18.683222
72.490 18.678202
72.495 18.407734
72.500 18.113846
72.505 17.356785
72.510 17.198431
72.515 17.259016
72.520 17.383354
72.525 17.564396
72.530 17.550087
72.535 17.676926
72.540 18.174837
72.545 18.267044
72.550 18.516428
72.555 18.536617
72.560 18.538101
72.565 18.226683
72.570 18.309677
72.575 19.042549
72.580 18.865702
72.585 19.389479
72.590 19.359053
72.595 19.208126
72.600 19.567999
72.605 19.612663
72.610 19.369596
72.615 18.99501
72.620 18.942581
72.625 19.440567
72.630 19.673824
72.635 19.324911
72.640 18.660912
72.645 18.803972
72.650 18.972712
72.655 18.957642
72.660 18.605244
72.665 18.289804
72.670 18.41156
72.675 18.6052
72.680 17.91659
72.685 17.064436
72.690 16.743692
72.695 17.030779
72.700 17.644054
72.705 17.724257
72.710 17.514784
72.715 17.825733
72.720 18.030216
72.725 17.802595
72.730 17.693029
72.735 17.529303
72.740 17.752337
72.745 18.036783
72.750 18.213701
72.755 18.234409
72.760 18.158434
72.765 18.359722
72.770 18.396029
72.775 18.450909
72.780 18.48958
72.785 18.153372
72.790 17.788982
72.795 17.611265
72.800 17.059114
72.805 16.536566
72.810 16.104588
72.815 16.20051
72.820 16.767597
72.825 17.557673
72.830 16.933582
72.835 16.737267
72.840 16.916576
72.845 17.060686
72.850 17.092367
72.855 17.374195
72.860 17.141689
72.865 17.409542
72.870 17.771931
72.875 17.761827
72.880 17.50802
72.885 17.301554
72.890 17.572067
72.895 18.097744
72.900 18.038597
72.905 17.981979
72.910 17.877804
72.915 18.037354
72.920 18.175285
72.925 17.875679
72.930 17.787914
72.935 17.962826
72.940 17.989288
72.945 18.476765
72.950 17.994884
72.955 17.33069
72.960 16.440128
72.965 16.006279
72.970 15.85795
72.975 15.585576
72.980 15.560561
72.985 15.727809
72.990 16.14554
72.995 16.318657
73.000 16.663431
