!@!!GADDS PLOTSO FILE: Chi integration type
!@!!Title/SampleName: map-17f
!@!!Comment: ?
!@!!User: Bruker Instrument Administrator
!@!!Site: University of Illinois Chicago
!@!!Frame: map-17f_01_000.gfrm
!@!!Wavelengths    1.54184   1.54056   1.54439
!@!!Frame angles: 2Theta: 63.000 Omega: 50.000 Phi: 0.000 Chi: 90.000
!@!!Integration range: 2Theta: 53.000 to 73.000  Gamma: -105.000 to -75.000
!@!!Integration method: bin normalized
!@!N
!@!SS
!@!M
!@!L 0.0 0.0 0.0 0.0
!@!XDegrees
!@!YCounts
53.000 8.078298
53.005 8.08913
53.010 7.897201
53.015 7.892683
53.020 8.361232
53.025 8.204498
53.030 8.169464
53.035 7.842714
53.040 7.542587
53.045 7.20433
53.050 7.000576
53.055 7.24617
53.060 7.215371
53.065 7.387775
53.070 7.961946
53.075 8.285527
53.080 8.16181
53.085 7.735112
53.090 7.628164
53.095 7.599098
53.100 7.199525
53.105 7.073615
53.110 7.410935
53.115 7.84705
53.120 8.211248
53.125 8.12332
53.130 8.418545
53.135 8.10873
53.140 7.965485
53.145 8.158385
53.150 8.344628
53.155 8.227088
53.160 8.461577
53.165 8.605371
53.170 8.78366
53.175 8.601674
53.180 8.108103
53.185 7.586434
53.190 7.71645
53.195 7.565655
53.200 7.677963
53.205 8.078797
53.210 8.904555
53.215 9.330329
53.220 9.506972
53.225 9.590446
53.230 9.255216
53.235 9.231932
53.240 8.168062
53.245 7.315379
53.250 7.122336
53.255 7.172009
53.260 7.24534
53.265 7.156585
53.270 6.932139
53.275 7.525931
53.280 7.96925
53.285 8.113847
53.290 8.20487
53.295 8.344426
53.300 8.638268
53.305 8.614941
53.310 8.333983
53.315 8.368937
53.320 8.634283
53.325 8.774409
53.330 8.148218
53.335 7.950446
53.340 7.986914
53.345 8.128812
53.350 8.273476
53.355 8.165221
53.360 8.105603
53.365 8.589221
53.370 9.112638
53.375 9.377988
53.380 9.586787
53.385 8.949665
53.390 8.709324
53.395 8.59616
53.400 8.316415
53.405 8.120095
53.410 7.863586
53.415 7.613568
53.420 7.904334
53.425 7.994197
53.430 8.354656
53.435 8.252169
53.440 8.638927
53.445 8.96169
53.450 9.012827
53.455 9.327101
53.460 9.349424
53.465 9.171974
53.470 9.210365
53.475 8.971041
53.480 8.644106
53.485 8.547999
53.490 8.259586
53.495 8.42253
53.500 8.393206
53.505 8.130465
53.510 8.132807
53.515 8.569986
53.520 8.760186
53.525 8.562623
53.530 8.60636
53.535 8.895386
53.540 8.960209
53.545 8.561923
53.550 8.356723
53.555 8.49467
53.560 8.631199
53.565 8.31237
53.570 8.252684
53.575 8.299521
53.580 8.58814
53.585 8.562205
53.590 8.600364
53.595 8.865975
53.600 8.979738
53.605 9.361898
53.610 9.652508
53.615 9.584405
53.620 9.720503
53.625 9.401068
53.630 9.354291
53.635 9.723327
53.640 9.352904
53.645 9.050714
53.650 8.871207
53.655 8.801903
53.660 8.902153
53.665 8.9288
53.670 8.442021
53.675 8.437739
53.680 8.597483
53.685 8.647027
53.690 8.299896
53.695 7.88598
53.700 8.146358
53.705 8.486604
53.710 8.348235
53.715 8.337435
53.720 8.541993
53.725 9.125126
53.730 9.664224
53.735 9.141563
53.740 9.20688
53.745 9.662062
53.750 9.768202
53.755 9.590625
53.760 9.47544
53.765 9.702237
53.770 9.944095
53.775 10.134644
53.780 10.225224
53.785 10.110397
53.790 10.209796
53.795 10.505867
53.800 10.180533
53.805 9.999925
53.810 9.540981
53.815 9.554558
53.820 9.625896
53.825 9.348623
53.830 8.992852
53.835 8.834086
53.840 8.794175
53.845 8.842735
53.850 8.496059
53.855 8.946605
53.860 8.752995
53.865 8.860862
53.870 9.005794
53.875 8.946486
53.880 8.774087
53.885 8.685272
53.890 8.44908
53.895 8.480727
53.900 8.542542
53.905 8.577231
53.910 8.729077
53.915 8.863826
53.920 8.900656
53.925 8.793432
53.930 8.605043
53.935 8.538069
53.940 8.486045
53.945 8.223001
53.950 8.212987
53.955 8.536814
53.960 8.525376
53.965 8.974222
53.970 9.156437
53.975 9.42614
53.980 9.676706
53.985 9.596285
53.990 9.599099
53.995 9.486507
54.000 8.951137
54.005 8.733089
54.010 8.450516
54.015 8.796347
54.020 8.76544
54.025 8.240829
54.030 8.880958
54.035 9.198752
54.040 9.130933
54.045 9.104363
54.050 9.284061
54.055 9.658009
54.060 10.170205
54.065 10.275068
54.070 10.005712
54.075 10.300004
54.080 10.026008
54.085 9.783814
54.090 9.352152
54.095 9.30505
54.100 9.284017
54.105 9.344899
54.110 8.908761
54.115 8.789319
54.120 8.663155
54.125 8.987069
54.130 8.308931
54.135 8.211723
54.140 8.326505
54.145 8.383348
54.150 8.388002
54.155 8.486927
54.160 8.602905
54.165 8.404193
54.170 8.368595
54.175 8.335752
54.180 8.540138
54.185 8.24701
54.190 7.830634
54.195 7.699233
54.200 7.9259
54.205 8.206338
54.210 8.741709
54.215 8.760848
54.220 8.998911
54.225 9.246819
54.230 8.902539
54.235 8.813645
54.240 8.884848
54.245 8.91947
54.250 9.36609
54.255 9.539984
54.260 9.745082
54.265 10.186287
54.270 10.472724
54.275 10.257793
54.280 9.99069
54.285 9.843554
54.290 10.119363
54.295 10.100232
54.300 9.788594
54.305 9.60244
54.310 9.625828
54.315 9.830947
54.320 9.761539
54.325 9.458563
54.330 9.4101
54.335 10.057184
54.340 10.264756
54.345 10.094421
54.350 10.017109
54.355 9.881392
54.360 9.559697
54.365 9.449774
54.370 9.20395
54.375 9.2114
54.380 9.288965
54.385 9.025105
54.390 9.024117
54.395 9.123256
54.400 8.948715
54.405 8.788668
54.410 8.821434
54.415 8.67594
54.420 8.831616
54.425 9.46537
54.430 10.043168
54.435 10.271484
54.440 9.968927
54.445 9.894801
54.450 9.673263
54.455 9.489476
54.460 9.173748
54.465 8.571731
54.470 8.154532
54.475 8.104968
54.480 8.095804
54.485 8.433614
54.490 8.353747
54.495 8.25151
54.500 8.559093
54.505 9.052801
54.510 9.257431
54.515 9.113057
54.520 9.073621
54.525 8.984298
54.530 9.278734
54.535 9.223644
54.540 8.945263
54.545 8.693382
54.550 8.865929
54.555 9.061708
54.560 8.839351
54.565 8.423391
54.570 8.185692
54.575 8.132655
54.580 8.386716
54.585 8.302951
54.590 8.466887
54.595 8.975214
54.600 9.191603
54.605 9.444674
54.610 9.631023
54.615 9.759607
54.620 9.44573
54.625 9.375749
54.630 9.251362
54.635 9.332114
54.640 9.231936
54.645 9.091705
54.650 9.233666
54.655 9.743531
54.660 9.577046
54.665 9.506485
54.670 9.675895
54.675 9.670249
54.680 9.219647
54.685 8.861107
54.690 8.933736
54.695 9.005799
54.700 8.489987
54.705 7.753835
54.710 7.624324
54.715 8.074458
54.720 8.43016
54.725 7.925662
54.730 7.754962
54.735 8.123138
54.740 8.271707
54.745 7.918437
54.750 8.046249
54.755 8.021612
54.760 8.265281
54.765 8.936692
54.770 9.331672
54.775 9.550764
54.780 9.711795
54.785 9.421448
54.790 8.885205
54.795 8.858838
54.800 8.388391
54.805 8.499948
54.810 8.912983
54.815 9.061391
54.820 9.224408
54.825 9.769435
54.830 9.757138
54.835 10.062947
54.840 9.889556
54.845 9.958135
54.850 9.994658
54.855 9.924511
54.860 9.648337
54.865 9.810579
54.870 9.675575
54.875 9.579237
54.880 9.480254
54.885 9.7915
54.890 9.972164
54.895 10.043281
54.900 9.871346
54.905 9.663105
54.910 9.743903
54.915 9.577125
54.920 9.090353
54.925 9.071299
54.930 9.158723
54.935 9.092005
54.940 9.134624
54.945 9.458205
54.950 9.97412
54.955 10.332101
54.960 10.174492
54.965 10.034672
54.970 9.92779
54.975 9.859585
54.980 9.102942
54.985 8.921583
54.990 8.680264
54.995 8.767114
55.000 9.208038
55.005 9.038263
55.010 9.241449
55.015 9.343485
55.020 9.144422
55.025 9.035023
55.030 8.894978
55.035 8.44873
55.040 8.773527
55.045 8.865937
55.050 9.300136
55.055 9.411877
55.060 9.638371
55.065 9.612255
55.070 9.822787
55.075 9.750671
55.080 9.778783
55.085 9.564737
55.090 10.106422
55.095 9.99555
55.100 10.240346
55.105 10.049911
55.110 10.091593
55.115 10.197039
55.120 9.895947
55.125 9.087976
55.130 8.905869
55.135 9.251765
55.140 9.680202
55.145 9.598209
55.150 9.395905
55.155 9.277986
55.160 9.445797
55.165 9.105096
55.170 8.597898
55.175 8.478104
55.180 8.439675
55.185 8.820045
55.190 9.033926
55.195 9.435526
55.200 9.851833
55.205 9.682404
55.210 9.588484
55.215 9.377916
55.220 9.686642
55.225 10.063019
55.230 9.948508
55.235 10.200775
55.240 10.385756
55.245 10.344646
55.250 10.176116
55.255 9.400131
55.260 9.110676
55.265 8.849449
55.270 8.506289
55.275 8.303081
55.280 8.555246
55.285 8.505366
55.290 8.820587
55.295 8.618146
55.300 8.901875
55.305 9.316126
55.310 9.316203
55.315 9.157073
55.320 9.058751
55.325 8.752543
55.330 9.076621
55.335 9.085073
55.340 9.273275
55.345 9.571679
55.350 9.756206
55.355 9.86886
55.360 9.816014
55.365 9.652344
55.370 9.249387
55.375 9.506027
55.380 9.473764
55.385 9.4556
55.390 9.956817
55.395 10.193842
55.400 10.256661
55.405 10.784574
55.410 10.72422
55.415 10.600541
55.420 10.670553
55.425 10.509793
55.430 10.243591
55.435 10.182837
55.440 9.473453
55.445 9.257509
55.450 9.183996
55.455 8.906188
55.460 9.167562
55.465 9.24258
55.470 9.389226
55.475 9.812068
55.480 9.837389
55.485 10.34703
55.490 10.604538
55.495 10.467566
55.500 10.653599
55.505 10.381598
55.510 10.046128
55.515 9.671357
55.520 9.743885
55.525 9.43545
55.530 9.262975
55.535 9.647287
55.540 9.389628
55.545 9.400114
55.550 9.558558
55.555 9.398555
55.560 9.432718
55.565 9.546098
55.570 9.197081
55.575 9.409237
55.580 9.586151
55.585 9.262241
55.590 9.454716
55.595 9.81159
55.600 10.144277
55.605 10.408942
55.610 10.102868
55.615 10.091455
55.620 10.632108
55.625 10.51814
55.630 10.084361
55.635 9.769547
55.640 9.846423
55.645 9.888497
55.650 9.563441
55.655 8.956204
55.660 8.520432
55.665 7.996889
55.670 7.382102
55.675 6.876038
55.680 6.951147
55.685 7.471733
55.690 7.639776
55.695 7.935141
55.700 8.27934
55.705 8.83992
55.710 9.30681
55.715 9.412358
55.720 9.112885
55.725 9.816199
55.730 10.00141
55.735 10.276458
55.740 10.489926
55.745 10.394467
55.750 10.770909
55.755 10.80369
55.760 10.343767
55.765 10.054383
55.770 9.914025
55.775 10.215109
55.780 10.199696
55.785 9.680367
55.790 9.197857
55.795 9.465386
55.800 9.702961
55.805 9.200453
55.810 9.068455
55.815 9.30775
55.820 9.390112
55.825 9.881474
55.830 9.784149
55.835 10.513592
55.840 10.780567
55.845 10.488281
55.850 10.542323
55.855 10.575801
55.860 10.424334
55.865 10.000931
55.870 9.377558
55.875 9.442021
55.880 9.893281
55.885 9.808768
55.890 9.430093
55.895 9.392489
55.900 9.231546
55.905 9.23713
55.910 9.688398
55.915 9.462619
55.920 10.148072
55.925 11.110159
55.930 11.055018
55.935 11.421303
55.940 11.200501
55.945 10.839206
55.950 10.532735
55.955 10.059374
55.960 9.653036
55.965 9.883401
55.970 9.6289
55.975 9.434657
55.980 9.084006
55.985 8.901839
55.990 8.426437
55.995 7.883909
56.000 7.76354
56.005 7.960925
56.010 8.226107
56.015 8.475507
56.020 8.437089
56.025 8.869521
56.030 9.141847
56.035 9.500719
56.040 9.559472
56.045 9.582724
56.050 9.721156
56.055 9.800484
56.060 9.274488
56.065 9.364616
56.070 9.240422
56.075 9.377895
56.080 9.17114
56.085 9.043468
56.090 9.026384
56.095 9.874243
56.100 9.815052
56.105 9.384239
56.110 8.726138
56.115 8.469419
56.120 8.220937
56.125 7.82997
56.130 7.402701
56.135 7.640118
56.140 8.18695
56.145 8.677881
56.150 8.704856
56.155 9.196351
56.160 9.426617
56.165 9.545871
56.170 9.350142
56.175 9.599374
56.180 9.703938
56.185 9.717344
56.190 9.45776
56.195 10.099451
56.200 10.060672
56.205 10.053189
56.210 9.770298
56.215 9.689255
56.220 9.836535
56.225 10.081369
56.230 9.83453
56.235 10.084265
56.240 10.768243
56.245 11.274999
56.250 11.711742
56.255 11.924316
56.260 11.715747
56.265 11.396482
56.270 11.080143
56.275 10.435335
56.280 9.984233
56.285 9.615546
56.290 9.116778
56.295 9.073472
56.300 9.142788
56.305 9.35318
56.310 9.446798
56.315 9.958772
56.320 10.440532
56.325 10.832711
56.330 10.610636
56.335 10.995123
56.340 10.821618
56.345 10.667332
56.350 10.200282
56.355 10.017447
56.360 9.798682
56.365 9.915267
56.370 9.297314
56.375 9.48935
56.380 9.498071
56.385 9.506093
56.390 9.893426
56.395 10.123959
56.400 10.477133
56.405 10.909146
56.410 10.784477
56.415 10.680449
56.420 10.610253
56.425 10.536233
56.430 10.726619
56.435 10.541636
56.440 10.043822
56.445 10.265277
56.450 10.129215
56.455 10.013147
56.460 10.151132
56.465 10.114612
56.470 10.176274
56.475 10.213003
56.480 10.343787
56.485 10.754215
56.490 11.242531
56.495 11.374924
56.500 11.38583
56.505 11.755008
56.510 11.698214
56.515 11.597619
56.520 11.495117
56.525 11.462871
56.530 11.395514
56.535 11.433261
56.540 11.660314
56.545 11.801517
56.550 12.090414
56.555 11.748834
56.560 10.877601
56.565 10.435857
56.570 10.478681
56.575 10.528292
56.580 10.36434
56.585 10.28499
56.590 10.253478
56.595 10.796837
56.600 10.99594
56.605 11.157409
56.610 10.976188
56.615 10.634369
56.620 10.334168
56.625 10.742084
56.630 10.50165
56.635 10.119199
56.640 9.559769
56.645 9.519588
56.650 9.85403
56.655 9.739826
56.660 9.220399
56.665 9.04004
56.670 8.997252
56.675 9.355331
56.680 9.144369
56.685 9.067948
56.690 9.650713
56.695 10.10083
56.700 10.443319
56.705 10.782768
56.710 10.482416
56.715 10.490693
56.720 10.465108
56.725 10.357546
56.730 10.22331
56.735 10.149125
56.740 10.064636
56.745 10.350162
56.750 10.583325
56.755 10.758596
56.760 10.621652
56.765 10.454503
56.770 10.745631
56.775 10.997547
56.780 11.156187
56.785 11.012848
56.790 10.872731
56.795 11.024433
56.800 11.037425
56.805 10.873978
56.810 10.431013
56.815 9.961408
56.820 9.831397
56.825 9.943759
56.830 10.549489
56.835 10.595454
56.840 10.466234
56.845 10.560922
56.850 10.859283
56.855 11.066193
56.860 10.508348
56.865 9.990249
56.870 10.145319
56.875 10.471145
56.880 10.488314
56.885 10.429682
56.890 10.38665
56.895 10.645903
56.900 10.373932
56.905 9.813862
56.910 9.22989
56.915 9.342176
56.920 9.090306
56.925 9.011849
56.930 8.68021
56.935 9.106281
56.940 9.574862
56.945 10.086692
56.950 10.095323
56.955 10.374346
56.960 10.431418
56.965 10.675047
56.970 10.487
56.975 10.397944
56.980 10.224251
56.985 10.071667
56.990 9.799686
56.995 9.690741
57.000 9.495311
57.005 9.561184
57.010 9.169517
57.015 9.213258
57.020 9.557224
57.025 9.574667
57.030 9.826217
57.035 9.904895
57.040 9.985495
57.045 9.96232
57.050 9.540133
57.055 9.219014
57.060 9.031309
57.065 8.633192
57.070 8.440177
57.075 8.326491
57.080 8.486175
57.085 8.742111
57.090 8.718868
57.095 9.131593
57.100 9.35644
57.105 9.389216
57.110 9.211875
57.115 9.081928
57.120 9.164768
57.125 9.463804
57.130 9.039287
57.135 8.942978
57.140 9.023776
57.145 9.341593
57.150 9.632688
57.155 9.43653
57.160 9.318156
57.165 9.472115
57.170 9.52493
57.175 9.628097
57.180 9.60324
57.185 9.084066
57.190 9.316126
57.195 9.060404
57.200 9.140907
57.205 8.702786
57.210 8.561893
57.215 8.819953
57.220 9.060632
57.225 9.575084
57.230 9.613731
57.235 9.847674
57.240 10.745463
57.245 11.073823
57.250 10.584761
57.255 9.903189
57.260 9.289053
57.265 9.359685
57.270 9.167628
57.275 8.739151
57.280 8.799661
57.285 9.469458
57.290 9.828329
57.295 10.007737
57.300 9.91501
57.305 9.607705
57.310 9.431201
57.315 8.842474
57.320 8.696435
57.325 8.788424
57.330 8.803076
57.335 9.209472
57.340 9.26202
57.345 9.285716
57.350 9.696277
57.355 9.459089
57.360 9.518257
57.365 9.925989
57.370 10.382198
57.375 10.90675
57.380 11.332705
57.385 11.540908
57.390 11.486853
57.395 11.513029
57.400 10.840611
57.405 10.299507
57.410 9.744776
57.415 9.637232
57.420 9.313397
57.425 9.460953
57.430 9.397343
57.435 9.721464
57.440 9.571733
57.445 9.768337
57.450 9.929062
57.455 10.430654
57.460 10.820961
57.465 10.619702
57.470 10.486287
57.475 10.296494
57.480 10.174341
57.485 9.856386
57.490 9.411498
57.495 9.271282
57.500 9.686283
57.505 9.765274
57.510 9.921169
57.515 9.819078
57.520 9.761868
57.525 9.752039
57.530 9.607313
57.535 9.464725
57.540 9.399157
57.545 9.689734
57.550 9.447899
57.555 9.510169
57.560 9.758654
57.565 9.839547
57.570 10.154589
57.575 10.520167
57.580 10.709957
57.585 10.797908
57.590 10.777866
57.595 10.718184
57.600 10.471643
57.605 10.20239
57.610 9.85807
57.615 9.961023
57.620 9.8975
57.625 9.960323
57.630 10.09084
57.635 9.97029
57.640 9.925459
57.645 10.249036
57.650 10.086714
57.655 10.205705
57.660 9.821161
57.665 9.513044
57.670 9.642901
57.675 9.49489
57.680 9.425418
57.685 9.906879
57.690 9.890606
57.695 10.154876
57.700 10.146214
57.705 10.400091
57.710 10.641835
57.715 10.521046
57.720 10.153337
57.725 10.430404
57.730 10.651707
57.735 10.784469
57.740 11.00978
57.745 10.89107
57.750 10.980456
57.755 10.698789
57.760 10.487865
57.765 10.648028
57.770 10.74152
57.775 10.502111
57.780 10.439863
57.785 10.3782
57.790 10.346317
57.795 10.388691
57.800 10.347547
57.805 10.46936
57.810 10.219853
57.815 10.55488
57.820 10.661906
57.825 10.915148
57.830 11.127995
57.835 11.028498
57.840 10.609435
57.845 10.678225
57.850 10.471473
57.855 10.363448
57.860 10.657001
57.865 10.565338
57.870 10.468425
57.875 10.234499
57.880 9.880247
57.885 9.589303
57.890 9.872489
57.895 9.880219
57.900 9.437153
57.905 9.244917
57.910 9.65656
57.915 10.032813
57.920 9.825618
57.925 9.411807
57.930 9.196133
57.935 9.546805
57.940 9.764644
57.945 9.716509
57.950 9.696501
57.955 10.258209
57.960 10.804618
57.965 11.313515
57.970 11.483434
57.975 11.430732
57.980 11.787915
57.985 11.737101
57.990 11.280712
57.995 10.673915
58.000 10.078912
58.005 9.992991
58.010 9.920777
58.015 9.696172
58.020 9.813643
58.025 9.723385
58.030 10.153342
58.035 10.587035
58.040 10.641771
58.045 10.926974
58.050 11.226066
58.055 11.125698
58.060 11.219702
58.065 11.056347
58.070 10.907275
58.075 11.027065
58.080 10.569589
58.085 10.334153
58.090 10.654055
58.095 10.765677
58.100 10.261801
58.105 9.956143
58.110 9.948944
58.115 10.076405
58.120 9.861109
58.125 9.453895
58.130 9.416722
58.135 9.657953
58.140 9.665706
58.145 9.902641
58.150 9.86849
58.155 9.827533
58.160 10.050137
58.165 9.962626
58.170 10.278396
58.175 10.269053
58.180 10.131078
58.185 10.631292
58.190 11.046175
58.195 11.435931
58.200 11.185652
58.205 10.631123
58.210 10.456516
58.215 10.36714
58.220 10.08343
58.225 9.459285
58.230 9.056765
58.235 9.585593
58.240 9.84086
58.245 9.774737
58.250 9.80801
58.255 10.2876
58.260 10.255709
58.265 10.075078
58.270 9.846314
58.275 9.994563
58.280 10.091361
58.285 9.595097
58.290 9.343451
58.295 9.248724
58.300 9.390999
58.305 9.356389
58.310 9.202445
58.315 9.278089
58.320 9.724927
58.325 9.844047
58.330 10.252619
58.335 10.450298
58.340 10.481729
58.345 10.630534
58.350 10.900715
58.355 10.861525
58.360 10.921952
58.365 10.727726
58.370 10.904634
58.375 11.303619
58.380 11.492617
58.385 11.348396
58.390 10.998886
58.395 11.243184
58.400 11.423289
58.405 11.458928
58.410 11.166651
58.415 11.009377
58.420 10.988698
58.425 11.43006
58.430 11.498035
58.435 11.484128
58.440 11.262844
58.445 11.370788
58.450 11.912792
58.455 12.230203
58.460 11.965011
58.465 11.617433
58.470 11.363962
58.475 10.995739
58.480 10.512866
58.485 9.967172
58.490 9.75808
58.495 10.16407
58.500 10.681267
58.505 10.98021
58.510 11.211004
58.515 11.294282
58.520 11.34481
58.525 11.339195
58.530 11.041428
58.535 11.052973
58.540 11.008221
58.545 11.251843
58.550 11.439669
58.555 11.470038
58.560 11.530591
58.565 11.495276
58.570 11.222214
58.575 11.260352
58.580 11.210867
58.585 11.399498
58.590 11.258747
58.595 11.277103
58.600 10.949152
58.605 10.882534
58.610 11.295565
58.615 11.342645
58.620 11.42406
58.625 11.58589
58.630 11.893935
58.635 12.239175
58.640 12.211461
58.645 12.023499
58.650 11.605083
58.655 11.482306
58.660 11.703985
58.665 11.583621
58.670 11.901795
58.675 12.23256
58.680 12.319477
58.685 12.486117
58.690 12.050026
58.695 11.864589
58.700 11.743141
58.705 11.770268
58.710 11.467632
58.715 10.98974
58.720 10.775814
58.725 10.603178
58.730 10.126428
58.735 9.77461
58.740 9.773668
58.745 10.143822
58.750 10.998768
58.755 11.003652
58.760 11.372252
58.765 11.948551
58.770 12.382883
58.775 12.587671
58.780 12.182594
58.785 12.056466
58.790 12.52851
58.795 12.648027
58.800 12.40341
58.805 11.947767
58.810 11.405976
58.815 11.181172
58.820 11.134069
58.825 10.854259
58.830 10.700203
58.835 10.543185
58.840 10.271422
58.845 10.749238
58.850 10.781914
58.855 10.340734
58.860 10.585251
58.865 10.90268
58.870 11.447278
58.875 11.837671
58.880 11.626761
58.885 11.602565
58.890 11.617937
58.895 11.402636
58.900 10.722411
58.905 9.88593
58.910 9.089166
58.915 8.937255
58.920 9.253796
58.925 9.540936
58.930 9.772133
58.935 10.49701
58.940 10.842086
58.945 11.389649
58.950 11.458023
58.955 11.049877
58.960 10.808561
58.965 10.74689
58.970 10.248053
58.975 10.609061
58.980 10.684882
58.985 10.900145
58.990 11.371192
58.995 11.210932
59.000 11.017625
59.005 10.771132
59.010 10.43329
59.015 10.326982
59.020 10.16961
59.025 9.626838
59.030 9.994083
59.035 10.619595
59.040 11.255886
59.045 11.271812
59.050 10.796988
59.055 10.144755
59.060 10.498484
59.065 10.189252
59.070 9.762504
59.075 9.78686
59.080 10.374077
59.085 10.94376
59.090 11.120269
59.095 10.824943
59.100 10.896643
59.105 10.764988
59.110 10.418678
59.115 10.10993
59.120 9.929122
59.125 9.774585
59.130 9.972931
59.135 10.435471
59.140 10.638404
59.145 10.476139
59.150 10.572093
59.155 10.931253
59.160 11.474494
59.165 11.539399
59.170 11.301821
59.175 11.391605
59.180 11.291354
59.185 11.428768
59.190 11.502547
59.195 11.594483
59.200 11.571994
59.205 11.617845
59.210 11.494899
59.215 11.434962
59.220 10.995875
59.225 11.068733
59.230 10.920011
59.235 10.715024
59.240 10.421652
59.245 10.638593
59.250 10.949859
59.255 11.116553
59.260 11.060815
59.265 10.880363
59.270 10.726519
59.275 11.173122
59.280 11.094467
59.285 11.081444
59.290 10.479548
59.295 10.303948
59.300 10.502234
59.305 11.182061
59.310 10.894174
59.315 10.677885
59.320 10.50347
59.325 10.974725
59.330 11.165517
59.335 11.158364
59.340 10.547095
59.345 10.735525
59.350 10.746999
59.355 10.770452
59.360 10.609954
59.365 10.467741
59.370 10.194502
59.375 9.741687
59.380 9.340731
59.385 9.72761
59.390 10.295309
59.395 10.72526
59.400 11.038684
59.405 11.123145
59.410 11.48745
59.415 11.708384
59.420 11.460156
59.425 11.391101
59.430 11.441287
59.435 11.50211
59.440 11.910237
59.445 12.078012
59.450 11.921254
59.455 12.046851
59.460 12.06866
59.465 12.176373
59.470 12.163823
59.475 12.273931
59.480 12.408127
59.485 12.584192
59.490 12.450648
59.495 11.996297
59.500 11.525043
59.505 11.251913
59.510 10.897101
59.515 10.512625
59.520 10.442241
59.525 10.359407
59.530 10.487387
59.535 10.610892
59.540 10.717952
59.545 10.719196
59.550 10.738659
59.555 10.643802
59.560 10.753093
59.565 10.910851
59.570 11.249072
59.575 11.637828
59.580 11.59528
59.585 11.688658
59.590 11.948939
59.595 12.214944
59.600 11.87121
59.605 11.345278
59.610 11.14992
59.615 10.960455
59.620 11.010518
59.625 10.563291
59.630 10.209203
59.635 10.244262
59.640 10.221659
59.645 10.105727
59.650 10.351227
59.655 10.30393
59.660 10.790998
59.665 10.891757
59.670 11.002108
59.675 11.015986
59.680 10.950181
59.685 11.020485
59.690 11.349595
59.695 11.431566
59.700 12.054722
59.705 11.953363
59.710 12.108173
59.715 12.342268
59.720 12.643871
59.725 12.702949
59.730 12.410873
59.735 12.403928
59.740 12.846183
59.745 13.075916
59.750 13.064706
59.755 12.959855
59.760 12.444135
59.765 12.589221
59.770 12.124992
59.775 11.852995
59.780 11.509242
59.785 11.606496
59.790 11.567194
59.795 11.836756
59.800 11.662103
59.805 11.713439
59.810 11.623867
59.815 12.038487
59.820 12.285134
59.825 11.964152
59.830 11.725786
59.835 11.812893
59.840 12.020052
59.845 11.79972
59.850 11.486288
59.855 11.02799
59.860 11.16589
59.865 10.907688
59.870 10.557974
59.875 10.106215
59.880 10.083533
59.885 10.309699
59.890 10.871494
59.895 10.96505
59.900 11.492802
59.905 11.416702
59.910 11.270901
59.915 11.002003
59.920 10.466527
59.925 9.837862
59.930 9.575916
59.935 9.664988
59.940 9.952549
59.945 10.084805
59.950 10.282193
59.955 10.269481
59.960 10.826514
59.965 11.30455
59.970 11.271555
59.975 11.601727
59.980 11.464378
59.985 11.987617
59.990 12.710105
59.995 12.442122
60.000 12.473033
60.005 12.283503
60.010 11.812811
60.015 12.271495
60.020 12.050398
60.025 11.644512
60.030 11.905655
60.035 11.893693
60.040 11.800398
60.045 11.861886
60.050 11.546194
60.055 11.514677
60.060 11.226735
60.065 10.83581
60.070 10.470272
60.075 10.592181
60.080 10.469164
60.085 10.246966
60.090 10.403773
60.095 10.667951
60.100 10.465462
60.105 10.51118
60.110 10.291992
60.115 10.451139
60.120 10.96172
60.125 10.645502
60.130 10.402623
60.135 10.657678
60.140 10.959703
60.145 11.404565
60.150 11.248014
60.155 10.588554
60.160 10.763551
60.165 10.908261
60.170 10.576011
60.175 10.435702
60.180 10.235203
60.185 10.75167
60.190 10.890521
60.195 10.58472
60.200 10.736408
60.205 10.93038
60.210 10.999785
60.215 10.883438
60.220 10.074905
60.225 10.140956
60.230 9.86335
60.235 9.634995
60.240 9.71794
60.245 9.37622
60.250 9.562888
60.255 9.72144
60.260 9.585434
60.265 9.729053
60.270 9.861621
60.275 9.945189
60.280 9.982263
60.285 9.994348
60.290 10.204432
60.295 10.15763
60.300 9.990417
60.305 9.824193
60.310 9.232529
60.315 9.110952
60.320 8.920191
60.325 8.671773
60.330 9.316669
60.335 9.849646
60.340 9.875749
60.345 10.382715
60.350 10.382396
60.355 10.501637
60.360 11.003696
60.365 10.576163
60.370 10.440696
60.375 10.161572
60.380 9.962209
60.385 9.669762
60.390 9.360232
60.395 8.998579
60.400 8.843049
60.405 8.469561
60.410 8.36357
60.415 8.394197
60.420 8.745461
60.425 8.955712
60.430 8.805496
60.435 8.857448
60.440 9.450989
60.445 10.04084
60.450 10.401628
60.455 10.631837
60.460 10.771367
60.465 10.975818
60.470 11.284155
60.475 11.241911
60.480 11.1703
60.485 10.982809
60.490 10.535081
60.495 10.601153
60.500 10.20166
60.505 9.950687
60.510 9.631521
60.515 9.309935
60.520 9.659501
60.525 9.967474
60.530 9.907413
60.535 10.162965
60.540 10.12217
60.545 10.032516
60.550 10.150466
60.555 9.906013
60.560 10.038091
60.565 9.935527
60.570 9.376195
60.575 9.499775
60.580 9.574039
60.585 9.465686
60.590 9.192894
60.595 9.48212
60.600 9.909081
60.605 10.607178
60.610 10.628577
60.615 10.617596
60.620 10.936633
60.625 11.013218
60.630 10.500666
60.635 10.225931
60.640 9.83588
60.645 9.96584
60.650 10.077115
60.655 9.679952
60.660 9.710763
60.665 9.597916
60.670 9.767467
60.675 10.210543
60.680 9.725226
60.685 9.406268
60.690 9.534454
60.695 9.984776
60.700 10.179886
60.705 10.269061
60.710 10.609649
60.715 10.728195
60.720 10.340491
60.725 10.11572
60.730 9.774871
60.735 9.670058
60.740 9.375067
60.745 9.005922
60.750 9.102962
60.755 10.375063
60.760 11.10745
60.765 11.582519
60.770 11.502484
60.775 11.145123
60.780 11.326263
60.785 11.850108
60.790 11.136927
60.795 10.669035
60.800 10.770212
60.805 11.664331
60.810 12.037312
60.815 11.571059
60.820 11.264921
60.825 11.615353
60.830 11.073204
60.835 10.852464
60.840 10.429678
60.845 10.231884
60.850 10.643956
60.855 10.552488
60.860 10.500878
60.865 10.766697
60.870 10.735504
60.875 10.600711
60.880 10.81183
60.885 10.519586
60.890 10.488247
60.895 10.377732
60.900 10.156598
60.905 9.931751
60.910 10.135979
60.915 10.165656
60.920 10.478072
60.925 10.407021
60.930 10.230215
60.935 10.203918
60.940 9.904257
60.945 9.846602
60.950 9.825862
60.955 9.231378
60.960 8.886018
60.965 9.02579
60.970 8.937794
60.975 8.979618
60.980 8.648518
60.985 8.779683
60.990 9.104176
60.995 9.027127
61.000 9.093233
61.005 9.454463
61.010 9.986811
61.015 10.108232
61.020 10.022195
61.025 10.278261
61.030 10.52541
61.035 10.560059
61.040 10.639991
61.045 10.20843
61.050 10.320025
61.055 9.833742
61.060 9.029986
61.065 8.871465
61.070 8.729047
61.075 8.886754
61.080 9.222791
61.085 9.528604
61.090 9.989134
61.095 10.659125
61.100 10.836389
61.105 10.927779
61.110 10.778621
61.115 10.933941
61.120 10.91554
61.125 10.824967
61.130 10.598738
61.135 10.550159
61.140 10.383959
61.145 10.449925
61.150 9.840374
61.155 9.339312
61.160 9.501616
61.165 9.762924
61.170 9.917945
61.175 9.803917
61.180 10.076599
61.185 10.29742
61.190 10.621617
61.195 10.624636
61.200 10.842189
61.205 11.188013
61.210 11.280695
61.215 10.91713
61.220 11.317183
61.225 11.413014
61.230 11.213284
61.235 10.915148
61.240 10.544612
61.245 10.616965
61.250 10.539639
61.255 9.870342
61.260 10.318536
61.265 10.385726
61.270 10.316487
61.275 10.294107
61.280 10.215522
61.285 10.199809
61.290 10.611811
61.295 10.344993
61.300 10.461957
61.305 10.79901
61.310 10.928529
61.315 10.654689
61.320 10.422576
61.325 10.004064
61.330 10.068827
61.335 10.155527
61.340 10.03598
61.345 9.791222
61.350 10.0104
61.355 10.513939
61.360 10.568511
61.365 10.59815
61.370 10.458299
61.375 10.715054
61.380 10.845574
61.385 10.727269
61.390 10.538928
61.395 10.440061
61.400 10.100635
61.405 9.852659
61.410 9.787681
61.415 9.993033
61.420 9.993324
61.425 9.867887
61.430 9.944941
61.435 9.764974
61.440 9.914914
61.445 9.476528
61.450 9.550739
61.455 10.029058
61.460 10.234092
61.465 10.462196
61.470 10.782124
61.475 10.536335
61.480 10.705867
61.485 10.905807
61.490 10.660949
61.495 10.66197
61.500 10.611459
61.505 10.582235
61.510 11.135784
61.515 11.396943
61.520 10.977711
61.525 10.958922
61.530 10.86116
61.535 10.707562
61.540 10.790475
61.545 10.709163
61.550 10.720647
61.555 10.650705
61.560 10.621703
61.565 10.577127
61.570 10.900457
61.575 10.925745
61.580 11.047375
61.585 10.714767
61.590 10.601016
61.595 10.172378
61.600 10.203881
61.605 9.899066
61.610 10.251508
61.615 9.822646
61.620 10.004803
61.625 9.982815
61.630 10.038886
61.635 9.975065
61.640 9.983548
61.645 9.325713
61.650 9.068415
61.655 8.957438
61.660 9.276532
61.665 9.296122
61.670 9.429203
61.675 9.463843
61.680 9.456223
61.685 9.808909
61.690 10.007808
61.695 10.265782
61.700 10.546288
61.705 10.746984
61.710 11.221578
61.715 11.718324
61.720 11.639071
61.725 11.617339
61.730 11.644603
61.735 11.151299
61.740 10.430019
61.745 10.124905
61.750 9.526603
61.755 9.589463
61.760 9.543765
61.765 9.4027
61.770 10.000671
61.775 10.656277
61.780 10.647698
61.785 10.888433
61.790 11.176205
61.795 10.852626
61.800 10.598115
61.805 10.158668
61.810 10.213691
61.815 10.347673
61.820 10.731722
61.825 10.385756
61.830 10.90535
61.835 11.206358
61.840 11.407818
61.845 11.257558
61.850 11.260285
61.855 11.423646
61.860 11.94573
61.865 11.789831
61.870 11.84276
61.875 11.997185
61.880 11.867358
61.885 11.990547
61.890 11.647003
61.895 11.400618
61.900 11.587885
61.905 11.377852
61.910 11.283454
61.915 11.435867
61.920 11.108528
61.925 11.19556
61.930 11.343233
61.935 11.679688
61.940 11.825929
61.945 11.700235
61.950 11.731489
61.955 12.163308
61.960 11.974253
61.965 11.194783
61.970 10.881554
61.975 10.918104
61.980 11.175684
61.985 10.88407
61.990 10.494777
61.995 10.926969
62.000 11.348809
62.005 11.49597
62.010 11.499774
62.015 11.264588
62.020 11.182621
62.025 11.259197
62.030 10.731808
62.035 10.853843
62.040 11.183575
62.045 11.503052
62.050 12.070894
62.055 12.67443
62.060 12.722784
62.065 12.652707
62.070 12.497665
62.075 12.062438
62.080 11.16424
62.085 10.405683
62.090 9.701844
62.095 9.53935
62.100 9.161853
62.105 9.144861
62.110 8.712085
62.115 9.004821
62.120 9.294685
62.125 9.341499
62.130 9.549638
62.135 9.964746
62.140 10.2084
62.145 10.744828
62.150 10.980659
62.155 10.985289
62.160 11.453045
62.165 11.787114
62.170 12.153093
62.175 12.051145
62.180 11.747527
62.185 11.862372
62.190 12.250232
62.195 12.262513
62.200 11.873038
62.205 11.807387
62.210 11.914167
62.215 12.182764
62.220 11.961746
62.225 11.759185
62.230 11.343921
62.235 11.313696
62.240 10.780856
62.245 10.480815
62.250 10.267895
62.255 10.215943
62.260 9.940824
62.265 9.788515
62.270 9.868571
62.275 10.071748
62.280 9.987852
62.285 10.229393
62.290 10.29639
62.295 10.317579
62.300 10.359148
62.305 10.12538
62.310 10.091533
62.315 10.107837
62.320 9.970767
62.325 9.660755
62.330 9.575798
62.335 9.530798
62.340 9.545574
62.345 9.888309
62.350 10.185408
62.355 10.410434
62.360 10.9372
62.365 11.304816
62.370 11.59866
62.375 11.49424
62.380 10.856374
62.385 10.360942
62.390 10.170798
62.395 10.322641
62.400 10.189611
62.405 9.952289
62.410 10.768165
62.415 11.377978
62.420 11.795135
62.425 11.630535
62.430 11.414022
62.435 11.266212
62.440 11.569449
62.445 11.597342
62.450 11.548796
62.455 11.419712
62.460 11.452066
62.465 11.842089
62.470 12.209462
62.475 12.191301
62.480 12.331372
62.485 12.270815
62.490 12.11596
62.495 12.175285
62.500 11.766868
62.505 11.467199
62.510 11.406671
62.515 10.949399
62.520 10.954875
62.525 11.431739
62.530 10.977679
62.535 10.910676
62.540 11.305764
62.545 11.125266
62.550 10.77167
62.555 10.59038
62.560 10.594534
62.565 11.189583
62.570 11.296574
62.575 10.638636
62.580 10.612613
62.585 10.811021
62.590 10.83054
62.595 10.897768
62.600 10.587711
62.605 10.90988
62.610 11.273565
62.615 11.263893
62.620 11.284788
62.625 11.630223
62.630 11.609399
62.635 11.654053
62.640 11.303243
62.645 11.318093
62.650 11.779341
62.655 11.529064
62.660 11.16031
62.665 11.08688
62.670 11.00639
62.675 10.785851
62.680 10.589209
62.685 10.539152
62.690 11.036004
62.695 11.266758
62.700 10.943771
62.705 10.598905
62.710 11.01862
62.715 11.173489
62.720 11.170697
62.725 10.940959
62.730 10.998643
62.735 11.330583
62.740 11.872979
62.745 11.859126
62.750 12.232288
62.755 12.352735
62.760 12.20661
62.765 12.05555
62.770 12.433617
62.775 12.526017
62.780 12.546442
62.785 12.230622
62.790 12.027793
62.795 12.352502
62.800 12.476954
62.805 12.451605
62.810 12.144258
62.815 11.780339
62.820 11.579896
62.825 11.335397
62.830 11.018475
62.835 10.716376
62.840 10.506342
62.845 10.426771
62.850 10.659211
62.855 10.880523
62.860 10.916209
62.865 11.170824
62.870 11.52583
62.875 11.513899
62.880 11.818975
62.885 11.560937
62.890 11.183881
62.895 11.160302
62.900 11.296336
62.905 10.79273
62.910 10.441257
62.915 10.686851
62.920 11.596478
62.925 11.682194
62.930 11.490551
62.935 10.977195
62.940 10.946216
62.945 11.149062
62.950 10.648325
62.955 10.027476
62.960 9.816522
62.965 10.003463
62.970 10.649419
62.975 10.878235
62.980 10.574774
62.985 10.441672
62.990 10.514071
62.995 10.685431
63.000 10.964444
63.005 10.827497
63.010 10.680579
63.015 10.93495
63.020 10.932396
63.025 10.700542
63.030 10.571646
63.035 10.35888
63.040 10.161171
63.045 10.710207
63.050 10.315791
63.055 10.280863
63.060 10.809362
63.065 11.388302
63.070 11.578105
63.075 11.813432
63.080 11.306128
63.085 11.504528
63.090 11.993511
63.095 12.147413
63.100 11.827204
63.105 11.683657
63.110 11.801193
63.115 12.413397
63.120 12.734181
63.125 12.370253
63.130 11.738793
63.135 11.726949
63.140 11.749721
63.145 11.759774
63.150 11.955441
63.155 11.464965
63.160 11.556146
63.165 11.658749
63.170 11.269884
63.175 11.316375
63.180 11.124014
63.185 10.416658
63.190 11.012039
63.195 10.627811
63.200 10.418775
63.205 10.601128
63.210 10.604543
63.215 10.330439
63.220 10.366217
63.225 10.283844
63.230 10.473837
63.235 10.789362
63.240 10.917921
63.245 10.719363
63.250 10.919793
63.255 10.853349
63.260 10.886246
63.265 11.370671
63.270 11.583158
63.275 11.676369
63.280 11.235458
63.285 11.335475
63.290 11.270061
63.295 10.659533
63.300 10.296509
63.305 10.291391
63.310 10.598718
63.315 10.780142
63.320 10.502607
63.325 10.802348
63.330 11.2601
63.335 11.485799
63.340 11.380442
63.345 11.560347
63.350 12.018837
63.355 12.341165
63.360 12.107335
63.365 11.946877
63.370 11.795993
63.375 11.701609
63.380 11.226602
63.385 11.605664
63.390 12.433591
63.395 12.61426
63.400 12.759084
63.405 12.558584
63.410 12.32053
63.415 12.478251
63.420 11.81813
63.425 11.058811
63.430 11.321285
63.435 11.307335
63.440 11.272803
63.445 11.296367
63.450 10.974784
63.455 11.012519
63.460 10.995688
63.465 10.691546
63.470 10.905542
63.475 10.711671
63.480 10.542745
63.485 11.015803
63.490 11.341598
63.495 11.962958
63.500 11.817222
63.505 11.611635
63.510 11.898015
63.515 12.001785
63.520 11.628386
63.525 11.287049
63.530 10.622341
63.535 11.257829
63.540 11.488293
63.545 11.763528
63.550 12.001477
63.555 11.805657
63.560 11.90268
63.565 12.321112
63.570 11.796335
63.575 11.771302
63.580 11.20379
63.585 11.056071
63.590 11.369183
63.595 11.43517
63.600 11.25223
63.605 10.789773
63.610 10.153337
63.615 10.54596
63.620 10.483006
63.625 10.212331
63.630 9.981135
63.635 10.118988
63.640 11.173845
63.645 11.886671
63.650 11.796808
63.655 11.839257
63.660 12.317406
63.665 12.561556
63.670 11.91952
63.675 10.912807
63.680 10.765935
63.685 10.911113
63.690 10.674145
63.695 10.238255
63.700 10.295397
63.705 10.613256
63.710 10.732115
63.715 10.589465
63.720 10.720564
63.725 10.840634
63.730 10.747008
63.735 10.665654
63.740 11.009848
63.745 11.482286
63.750 11.348355
63.755 10.939911
63.760 10.965396
63.765 11.275999
63.770 11.383173
63.775 11.296115
63.780 11.23039
63.785 11.366938
63.790 11.471654
63.795 11.020019
63.800 10.665534
63.805 10.594353
63.810 10.588762
63.815 10.522774
63.820 10.658306
63.825 11.01218
63.830 11.829208
63.835 11.784819
63.840 11.658784
63.845 11.582507
63.850 11.21252
63.855 10.646353
63.860 9.964567
63.865 9.224011
63.870 9.558846
63.875 9.594362
63.880 9.684679
63.885 10.130324
63.890 10.700061
63.895 11.00111
63.900 11.494761
63.905 11.344968
63.910 11.2651
63.915 11.094505
63.920 10.723795
63.925 10.555724
63.930 10.184818
63.935 9.988103
63.940 10.186804
63.945 10.363022
63.950 10.512607
63.955 10.906142
63.960 10.951005
63.965 11.302276
63.970 11.22916
63.975 11.12696
63.980 11.479842
63.985 11.775502
63.990 11.686429
63.995 12.168183
64.000 12.445882
64.005 13.101616
64.010 13.396853
64.015 13.515018
64.020 13.877053
64.025 14.19945
64.030 13.997842
64.035 13.838991
64.040 13.153788
64.045 12.702925
64.050 12.346457
64.055 11.407799
64.060 10.714762
64.065 10.894529
64.070 11.191912
64.075 11.335962
64.080 11.482551
64.085 11.345947
64.090 11.69474
64.095 11.6529
64.100 11.320626
64.105 11.064822
64.110 11.166036
64.115 11.521314
64.120 11.648008
64.125 11.697532
64.130 12.144549
64.135 12.666231
64.140 12.433055
64.145 12.496717
64.150 12.236822
64.155 12.41968
64.160 12.95934
64.165 12.521844
64.170 12.785672
64.175 13.027523
64.180 12.968134
64.185 12.938184
64.190 12.757509
64.195 12.378241
64.200 12.264503
64.205 11.524261
64.210 11.977715
64.215 12.358651
64.220 12.245062
64.225 12.078671
64.230 12.218897
64.235 12.254242
64.240 12.055995
64.245 11.706471
64.250 11.353063
64.255 11.584941
64.260 11.649636
64.265 11.59319
64.270 11.975832
64.275 11.907917
64.280 11.676546
64.285 11.918457
64.290 11.794966
64.295 11.710727
64.300 11.723714
64.305 11.544208
64.310 11.831326
64.315 11.848207
64.320 11.808437
64.325 11.524439
64.330 11.537704
64.335 11.770995
64.340 11.633308
64.345 11.544683
64.350 11.851744
64.355 11.810546
64.360 12.070112
64.365 11.711411
64.370 11.335543
64.375 11.669838
64.380 11.567751
64.385 11.240402
64.390 10.920844
64.395 11.565482
64.400 12.061923
64.405 12.329124
64.410 12.80976
64.415 12.689652
64.420 13.131271
64.425 13.331009
64.430 12.926498
64.435 13.002284
64.440 12.850278
64.445 12.807631
64.450 13.180508
64.455 12.92333
64.460 13.159468
64.465 13.06583
64.470 12.980009
64.475 12.787871
64.480 12.504756
64.485 12.669208
64.490 12.629494
64.495 12.624886
64.500 12.66784
64.505 12.986004
64.510 13.105601
64.515 13.159986
64.520 13.011533
64.525 12.983871
64.530 12.715812
64.535 12.434246
64.540 12.308887
64.545 12.605206
64.550 12.659076
64.555 12.834916
64.560 13.158887
64.565 13.645272
64.570 13.541102
64.575 13.724724
64.580 13.364507
64.585 13.373774
64.590 13.064045
64.595 12.496022
64.600 11.93303
64.605 11.917289
64.610 11.508476
64.615 11.93556
64.620 12.154567
64.625 12.213387
64.630 12.484428
64.635 12.917511
64.640 13.684155
64.645 14.175562
64.650 14.532772
64.655 14.093841
64.660 14.392212
64.665 14.713041
64.670 14.731226
64.675 14.374352
64.680 14.254463
64.685 13.768846
64.690 13.550143
64.695 13.276266
64.700 13.471294
64.705 13.599794
64.710 13.645197
64.715 13.316126
64.720 13.419307
64.725 14.121696
64.730 14.183243
64.735 14.087119
64.740 14.67942
64.745 14.754811
64.750 14.779675
64.755 14.730928
64.760 14.622527
64.765 14.863855
64.770 15.007046
64.775 14.898522
64.780 15.004638
64.785 15.686484
64.790 16.172333
64.795 16.321665
64.800 16.283514
64.805 16.258085
64.810 16.767479
64.815 17.288858
64.820 17.331291
64.825 17.235783
64.830 17.152273
64.835 17.286821
64.840 17.309511
64.845 16.65694
64.850 16.400938
64.855 16.379709
64.860 16.602905
64.865 16.696722
64.870 16.840073
64.875 16.788401
64.880 17.188234
64.885 17.486748
64.890 17.785248
64.895 17.731512
64.900 17.53727
64.905 17.638716
64.910 18.032055
64.915 18.32666
64.920 18.786612
64.925 18.761297
64.930 19.371666
64.935 20.327486
64.940 20.41507
64.945 20.640232
64.950 20.61746
64.955 20.84248
64.960 21.379753
64.965 21.561937
64.970 21.189835
64.975 21.506874
64.980 21.431307
64.985 21.719677
64.990 22.070124
64.995 21.727564
65.000 21.650112
65.005 21.922136
65.010 22.289904
65.015 22.537594
65.020 23.037657
65.025 22.780357
65.030 23.153933
65.035 23.619371
65.040 23.440599
65.045 23.295246
65.050 23.837782
65.055 23.283867
65.060 23.132801
65.065 22.661032
65.070 22.302946
65.075 22.099684
65.080 21.840036
65.085 20.806801
65.090 20.710947
65.095 20.320631
65.100 20.410971
65.105 19.913887
65.110 19.652796
65.115 19.454994
65.120 20.031338
65.125 20.039762
65.130 20.578072
65.135 21.344053
65.140 21.749046
65.145 21.388557
65.150 21.083738
65.155 20.614178
65.160 20.669861
65.165 20.278612
65.170 19.509672
65.175 19.141026
65.180 19.468712
65.185 19.693909
65.190 19.350462
65.195 18.604021
65.200 18.375448
65.205 18.436844
65.210 19.39255
65.215 19.132063
65.220 19.104103
65.225 18.968323
65.230 19.256357
65.235 18.961784
65.240 18.754595
65.245 18.573
65.250 18.657122
65.255 17.856716
65.260 17.850582
65.265 17.919924
65.270 18.001446
65.275 17.457306
65.280 16.737585
65.285 16.523317
65.290 16.584949
65.295 15.883275
65.300 14.94023
65.305 14.513597
65.310 14.543737
65.315 14.804443
65.320 14.653782
65.325 14.85249
65.330 15.218594
65.335 16.004473
65.340 16.405397
65.345 16.172052
65.350 16.30966
65.355 16.471579
65.360 15.900798
65.365 15.609111
65.370 14.816722
65.375 14.238164
65.380 13.943951
65.385 13.828512
65.390 13.834723
65.395 13.791405
65.400 14.059807
65.405 14.703687
65.410 14.885309
65.415 14.740156
65.420 14.563415
65.425 14.479637
65.430 14.304263
65.435 14.075856
65.440 13.684997
65.445 13.929496
65.450 13.799138
65.455 14.018231
65.460 14.208138
65.465 14.552011
65.470 14.438754
65.475 13.813354
65.480 13.376788
65.485 13.693757
65.490 13.041483
65.495 12.831514
65.500 12.461242
65.505 12.4117
65.510 13.189456
65.515 13.54304
65.520 13.333982
65.525 13.22563
65.530 13.149893
65.535 12.962811
65.540 13.09417
65.545 12.695669
65.550 12.169051
65.555 12.281064
65.560 12.556808
65.565 12.595875
65.570 12.978685
65.575 12.315854
65.580 12.302283
65.585 12.28483
65.590 12.276737
65.595 12.499898
65.600 12.706446
65.605 13.278724
65.610 13.878659
65.615 13.898946
65.620 13.743198
65.625 13.463148
65.630 13.327575
65.635 13.157855
65.640 13.161583
65.645 13.462501
65.650 13.283711
65.655 13.543334
65.660 13.879203
65.665 14.11372
65.670 13.912898
65.675 13.405046
65.680 13.55889
65.685 14.086077
65.690 14.06704
65.695 13.484523
65.700 13.372556
65.705 13.303599
65.710 13.456918
65.715 13.117363
65.720 13.376417
65.725 14.175332
65.730 14.122842
65.735 13.951831
65.740 14.622556
65.745 15.070789
65.750 14.456995
65.755 13.527334
65.760 13.175138
65.765 13.520534
65.770 13.380584
65.775 12.95728
65.780 12.112033
65.785 12.425091
65.790 12.440004
65.795 12.281448
65.800 12.702499
65.805 13.219625
65.810 13.442617
65.815 13.747616
65.820 13.800673
65.825 14.161905
65.830 14.101446
65.835 13.699947
65.840 13.434112
65.845 13.232224
65.850 13.459305
65.855 13.795988
65.860 13.799276
65.865 13.815442
65.870 13.776309
65.875 13.430593
65.880 13.309698
65.885 13.465142
65.890 13.251649
65.895 13.276234
65.900 13.556032
65.905 13.532888
65.910 13.943465
65.915 14.108666
65.920 13.956395
65.925 14.369762
65.930 14.863978
65.935 14.583513
65.940 14.498811
65.945 14.804029
65.950 14.575991
65.955 14.363953
65.960 14.248429
65.965 13.986683
65.970 14.372684
65.975 14.59962
65.980 14.397925
65.985 14.950807
65.990 14.859653
65.995 14.655639
66.000 14.5433
66.005 14.320353
66.010 14.373337
66.015 13.99236
66.020 14.06412
66.025 13.703283
66.030 13.24109
66.035 13.339288
66.040 13.61681
66.045 13.503637
66.050 13.747972
66.055 13.491689
66.060 13.922892
66.065 14.504241
66.070 13.875988
66.075 13.357846
66.080 13.796471
66.085 14.269547
66.090 14.496925
66.095 14.556831
66.100 15.00216
66.105 15.638049
66.110 15.883153
66.115 15.560612
66.120 14.933175
66.125 14.723177
66.130 14.837503
66.135 14.506141
66.140 14.954482
66.145 15.550623
66.150 15.259339
66.155 15.251799
66.160 15.53776
66.165 15.688142
66.170 15.779228
66.175 15.862613
66.180 16.292751
66.185 16.7446
66.190 16.968412
66.195 17.04022
66.200 16.78339
66.205 16.842796
66.210 16.306246
66.215 15.851298
66.220 16.471952
66.225 16.521616
66.230 16.700001
66.235 16.978306
66.240 16.948832
66.245 16.887199
66.250 16.63942
66.255 16.234524
66.260 16.092264
66.265 15.686799
66.270 15.371118
66.275 15.133121
66.280 14.956285
66.285 15.060768
66.290 15.046792
66.295 14.90836
66.300 15.192037
66.305 14.549449
66.310 14.233531
66.315 14.664194
66.320 14.728332
66.325 14.853482
66.330 14.788777
66.335 14.47132
66.340 15.270819
66.345 15.501738
66.350 15.131208
66.355 14.694173
66.360 14.454733
66.365 14.635587
66.370 14.560927
66.375 14.28281
66.380 14.358908
66.385 14.173964
66.390 13.831726
66.395 13.746824
66.400 13.734067
66.405 13.895402
66.410 13.500944
66.415 13.434235
66.420 13.384957
66.425 13.442148
66.430 13.362481
66.435 13.050363
66.440 13.045194
66.445 13.332673
66.450 13.173177
66.455 13.623096
66.460 13.314084
66.465 12.887655
66.470 12.661205
66.475 12.312518
66.480 12.176722
66.485 12.133343
66.490 11.957629
66.495 12.186625
66.500 12.544018
66.505 13.330608
66.510 14.003031
66.515 13.90898
66.520 13.920877
66.525 13.65671
66.530 13.73177
66.535 13.840407
66.540 13.684773
66.545 13.283454
66.550 13.468682
66.555 13.614189
66.560 13.827477
66.565 14.15229
66.570 14.032044
66.575 13.657386
66.580 13.323767
66.585 13.11646
66.590 12.788247
66.595 12.517648
66.600 12.295404
66.605 12.135348
66.610 12.203425
66.615 12.285793
66.620 12.10121
66.625 12.768837
66.630 12.486473
66.635 12.300534
66.640 12.144137
66.645 11.732155
66.650 11.511028
66.655 11.391944
66.660 10.793699
66.665 11.1165
66.670 10.981384
66.675 10.627527
66.680 10.839052
66.685 11.196664
66.690 10.899539
66.695 11.205324
66.700 11.103895
66.705 11.228764
66.710 11.38891
66.715 11.662617
66.720 11.878185
66.725 12.060266
66.730 11.961765
66.735 11.66111
66.740 11.569176
66.745 11.34639
66.750 10.972582
66.755 10.749448
66.760 10.759815
66.765 10.666957
66.770 11.239154
66.775 11.507772
66.780 11.783136
66.785 11.6192
66.790 11.536717
66.795 11.441795
66.800 11.418967
66.805 11.383018
66.810 11.225079
66.815 11.132352
66.820 11.193706
66.825 10.932513
66.830 10.879489
66.835 11.190202
66.840 11.15568
66.845 11.199693
66.850 11.40454
66.855 11.445668
66.860 11.791427
66.865 11.649215
66.870 11.236841
66.875 11.160963
66.880 11.153369
66.885 10.933144
66.890 10.621368
66.895 10.944351
66.900 11.226875
66.905 11.027081
66.910 10.725615
66.915 10.652499
66.920 10.435537
66.925 10.168031
66.930 9.099257
66.935 8.783554
66.940 8.727643
66.945 8.663095
66.950 8.776242
66.955 9.125447
66.960 9.630234
66.965 10.262831
66.970 10.052108
66.975 10.042937
66.980 10.028205
66.985 9.59889
66.990 9.513946
66.995 9.405951
67.000 9.853453
67.005 10.913599
67.010 11.379968
67.015 11.1557
67.020 11.486609
67.025 11.483246
67.030 11.451732
67.035 11.165987
67.040 10.660914
67.045 10.353401
67.050 10.549196
67.055 10.623774
67.060 10.800745
67.065 10.943324
67.070 10.995425
67.075 11.433527
67.080 11.823164
67.085 11.670136
67.090 11.535937
67.095 11.508648
67.100 11.414433
67.105 10.907669
67.110 10.619018
67.115 10.791935
67.120 11.217676
67.125 11.264185
67.130 11.079286
67.135 11.274799
67.140 11.392783
67.145 11.266014
67.150 10.944848
67.155 10.88196
67.160 10.884146
67.165 10.596766
67.170 10.76302
67.175 10.819624
67.180 10.565216
67.185 11.010013
67.190 11.127049
67.195 11.345703
67.200 11.499278
67.205 11.597321
67.210 11.584034
67.215 11.847623
67.220 11.494028
67.225 11.204853
67.230 11.406963
67.235 11.599663
67.240 11.364779
67.245 11.777143
67.250 11.728053
67.255 11.908406
67.260 11.664389
67.265 11.326686
67.270 11.22493
67.275 11.382918
67.280 11.302005
67.285 11.600338
67.290 11.636209
67.295 12.030184
67.300 11.87001
67.305 11.836223
67.310 11.340321
67.315 11.443724
67.320 11.057654
67.325 11.105336
67.330 11.14354
67.335 11.242167
67.340 11.007045
67.345 11.491011
67.350 11.068686
67.355 11.127475
67.360 10.617379
67.365 10.346455
67.370 10.513666
67.375 10.820134
67.380 10.841416
67.385 10.643731
67.390 10.930344
67.395 11.322977
67.400 11.425365
67.405 11.22156
67.410 10.861803
67.415 11.047645
67.420 11.223211
67.425 10.862561
67.430 10.677705
67.435 10.856092
67.440 11.053644
67.445 10.926086
67.450 10.570076
67.455 10.749903
67.460 10.684007
67.465 10.529718
67.470 10.505738
67.475 10.276138
67.480 10.560125
67.485 10.750487
67.490 10.583243
67.495 10.799384
67.500 11.339306
67.505 11.180207
67.510 11.389467
67.515 11.295742
67.520 11.221862
67.525 11.543401
67.530 11.849443
67.535 11.645329
67.540 11.969859
67.545 12.049562
67.550 11.625053
67.555 11.287838
67.560 11.208714
67.565 10.729459
67.570 10.862854
67.575 10.633636
67.580 10.673439
67.585 11.007266
67.590 11.159763
67.595 11.038403
67.600 10.968864
67.605 10.798299
67.610 10.768729
67.615 10.757944
67.620 10.948866
67.625 11.211256
67.630 11.250142
67.635 11.41106
67.640 11.518988
67.645 11.49817
67.650 11.350189
67.655 11.452531
67.660 11.015416
67.665 11.266663
67.670 11.323735
67.675 11.243877
67.680 11.470879
67.685 11.604299
67.690 11.360419
67.695 11.810066
67.700 11.898265
67.705 12.276985
67.710 12.446856
67.715 12.349372
67.720 12.387298
67.725 12.26645
67.730 11.76608
67.735 11.510881
67.740 11.06238
67.745 10.512977
67.750 10.194938
67.755 10.01574
67.760 10.23284
67.765 10.534073
67.770 10.273806
67.775 10.646511
67.780 11.118
67.785 11.288318
67.790 11.612341
67.795 11.878704
67.800 11.963954
67.805 12.146959
67.810 11.865227
67.815 11.484828
67.820 11.53669
67.825 11.218691
67.830 10.858394
67.835 10.420713
67.840 10.031772
67.845 10.135353
67.850 9.858672
67.855 9.333343
67.860 9.346688
67.865 9.447808
67.870 9.647713
67.875 10.09374
67.880 10.549206
67.885 11.133186
67.890 11.763522
67.895 11.781045
67.900 11.473864
67.905 11.550252
67.910 11.275547
67.915 10.750163
67.920 10.485908
67.925 10.355023
67.930 10.249072
67.935 10.0729
67.940 10.164254
67.945 10.397275
67.950 11.172807
67.955 11.469378
67.960 11.596132
67.965 11.770333
67.970 11.811072
67.975 11.618811
67.980 11.208558
67.985 11.038289
67.990 10.954212
67.995 10.811971
68.000 10.417588
68.005 10.577836
68.010 10.934289
68.015 11.190968
68.020 11.121952
68.025 11.194424
68.030 11.636151
68.035 12.533732
68.040 12.365694
68.045 12.443168
68.050 12.229597
68.055 11.898389
68.060 11.383615
68.065 10.778283
68.070 10.332194
68.075 10.208908
68.080 10.393422
68.085 10.733181
68.090 10.860181
68.095 11.109321
68.100 11.541731
68.105 11.557181
68.110 11.246889
68.115 10.586221
68.120 10.262662
68.125 10.436314
68.130 10.776167
68.135 10.832153
68.140 10.646252
68.145 10.660042
68.150 10.954021
68.155 10.877224
68.160 10.733185
68.165 10.396564
68.170 10.211076
68.175 10.992876
68.180 11.842822
68.185 12.035522
68.190 11.931077
68.195 11.800403
68.200 11.854748
68.205 12.241176
68.210 11.826651
68.215 11.381133
68.220 11.080518
68.225 11.404442
68.230 11.46056
68.235 11.218757
68.240 11.08309
68.245 11.623795
68.250 11.925302
68.255 12.021599
68.260 11.965385
68.265 11.896966
68.270 11.988633
68.275 11.836166
68.280 11.145743
68.285 10.598475
68.290 10.252422
68.295 10.27249
68.300 10.016211
68.305 10.09479
68.310 10.084478
68.315 10.151282
68.320 10.054921
68.325 10.305744
68.330 10.109246
68.335 10.444544
68.340 10.168238
68.345 10.207409
68.350 10.404684
68.355 10.917006
68.360 11.250484
68.365 11.169852
68.370 11.143999
68.375 11.508966
68.380 11.332694
68.385 11.284611
68.390 10.822625
68.395 10.956672
68.400 11.244842
68.405 11.197704
68.410 11.26891
68.415 11.512691
68.420 11.593629
68.425 11.239
68.430 11.131562
68.435 11.58563
68.440 11.95385
68.445 11.769855
68.450 11.857114
68.455 11.820327
68.460 12.131104
68.465 11.908072
68.470 11.2303
68.475 10.962834
68.480 11.359474
68.485 11.521776
68.490 11.992585
68.495 12.480398
68.500 12.711658
68.505 13.196712
68.510 13.132773
68.515 12.554135
68.520 12.719269
68.525 12.425123
68.530 12.77094
68.535 12.573039
68.540 12.35112
68.545 12.622016
68.550 12.576465
68.555 12.4916
68.560 12.241062
68.565 11.910508
68.570 12.013085
68.575 12.06151
68.580 11.432196
68.585 10.906313
68.590 10.658603
68.595 10.967339
68.600 10.798323
68.605 10.990042
68.610 10.844569
68.615 11.196751
68.620 11.537993
68.625 10.88159
68.630 10.740116
68.635 10.801555
68.640 10.560246
68.645 10.379814
68.650 10.512163
68.655 10.660431
68.660 11.239433
68.665 10.985046
68.670 11.096186
68.675 11.55927
68.680 11.799538
68.685 11.733955
68.690 11.508722
68.695 11.319155
68.700 11.045542
68.705 10.311843
68.710 9.787466
68.715 9.939678
68.720 9.521393
68.725 9.439761
68.730 9.499159
68.735 9.977302
68.740 10.307673
68.745 10.559071
68.750 11.043836
68.755 11.518607
68.760 11.571916
68.765 11.749024
68.770 12.307813
68.775 12.223886
68.780 11.730301
68.785 11.308564
68.790 11.737159
68.795 11.790186
68.800 11.697712
68.805 11.664449
68.810 11.955235
68.815 12.377714
68.820 12.52179
68.825 12.512218
68.830 12.427006
68.835 12.301542
68.840 11.98443
68.845 11.692685
68.850 11.878563
68.855 11.711185
68.860 11.936206
68.865 12.665709
68.870 12.242318
68.875 12.234685
68.880 12.284595
68.885 12.231331
68.890 12.137432
68.895 11.714468
68.900 11.021828
68.905 10.707002
68.910 10.9647
68.915 10.721479
68.920 10.45857
68.925 10.506438
68.930 10.322531
68.935 10.616997
68.940 10.939066
68.945 11.254277
68.950 11.398458
68.955 11.764406
68.960 11.849358
68.965 12.435307
68.970 12.858633
68.975 13.090815
68.980 12.914736
68.985 13.099926
68.990 13.388773
68.995 13.501985
69.000 13.359888
69.005 13.129732
69.010 12.930614
69.015 12.807621
69.020 12.578808
69.025 11.719584
69.030 11.414486
69.035 11.264424
69.040 10.916195
69.045 10.749011
69.050 10.644468
69.055 10.92445
69.060 11.441949
69.065 11.719944
69.070 12.629907
69.075 13.505091
69.080 13.486878
69.085 13.473363
69.090 13.408441
69.095 12.885945
69.100 13.039648
69.105 12.437908
69.110 12.215742
69.115 12.161927
69.120 12.164983
69.125 12.452461
69.130 12.959379
69.135 12.448028
69.140 12.241529
69.145 12.450033
69.150 12.989245
69.155 12.969923
69.160 12.567781
69.165 12.673284
69.170 12.916265
69.175 13.065549
69.180 13.209857
69.185 13.070011
69.190 13.196837
69.195 13.270593
69.200 12.713261
69.205 12.678223
69.210 12.6668
69.215 12.638921
69.220 12.471899
69.225 12.702585
69.230 12.817596
69.235 13.174115
69.240 13.349371
69.245 12.866143
69.250 12.686754
69.255 12.476248
69.260 12.186545
69.265 12.399823
69.270 12.533864
69.275 12.434679
69.280 12.741339
69.285 12.535669
69.290 12.621471
69.295 12.84999
69.300 12.768962
69.305 12.777611
69.310 13.145459
69.315 13.26646
69.320 13.428648
69.325 13.490539
69.330 13.532795
69.335 13.688704
69.340 13.701833
69.345 13.553566
69.350 13.599652
69.355 13.792894
69.360 13.864928
69.365 13.941117
69.370 13.95051
69.375 13.664116
69.380 13.336308
69.385 13.379705
69.390 13.490476
69.395 13.499218
69.400 13.296386
69.405 13.31374
69.410 14.210792
69.415 14.196025
69.420 14.273135
69.425 14.498949
69.430 14.477459
69.435 14.840384
69.440 14.703381
69.445 14.452537
69.450 15.058182
69.455 15.189473
69.460 15.024622
69.465 15.073322
69.470 14.985429
69.475 14.823777
69.480 14.719942
69.485 14.496279
69.490 14.856526
69.495 14.457012
69.500 14.090139
69.505 13.796319
69.510 13.64292
69.515 13.526864
69.520 13.061196
69.525 12.645511
69.530 13.206811
69.535 13.903954
69.540 14.075358
69.545 14.675163
69.550 14.971563
69.555 15.007477
69.560 15.227157
69.565 14.830489
69.570 14.808212
69.575 15.22541
69.580 15.008318
69.585 14.757275
69.590 14.783115
69.595 14.64343
69.600 15.258615
69.605 15.122651
69.610 14.68954
69.615 14.374892
69.620 14.325336
69.625 14.086016
69.630 13.690683
69.635 12.827239
69.640 12.63831
69.645 12.447713
69.650 12.127312
69.655 12.464648
69.660 13.01493
69.665 13.2085
69.670 13.470916
69.675 13.580416
69.680 13.863977
69.685 14.001688
69.690 13.29206
69.695 12.950735
69.700 13.204211
69.705 13.123151
69.710 12.950262
69.715 12.668861
69.720 12.7771
69.725 12.769741
69.730 12.547266
69.735 12.018461
69.740 11.962932
69.745 12.07797
69.750 12.515816
69.755 12.251138
69.760 12.47922
69.765 12.181612
69.770 12.035798
69.775 11.796795
69.780 11.592917
69.785 11.444877
69.790 12.006925
69.795 12.342696
69.800 12.729703
69.805 12.735686
69.810 12.367223
69.815 12.222666
69.820 11.921976
69.825 11.519102
69.830 11.346812
69.835 11.445146
69.840 11.459513
69.845 12.346522
69.850 12.754326
69.855 13.1284
69.860 13.041299
69.865 13.323858
69.870 13.193498
69.875 12.950375
69.880 12.065607
69.885 11.630547
69.890 11.603845
69.895 11.658578
69.900 11.437003
69.905 11.631259
69.910 11.827303
69.915 12.243408
69.920 12.878619
69.925 12.178185
69.930 11.500764
69.935 11.407606
69.940 11.209957
69.945 11.2765
69.950 11.246483
69.955 11.106632
69.960 11.458615
69.965 11.92773
69.970 12.045913
69.975 11.97641
69.980 11.984526
69.985 11.286854
69.990 11.163025
69.995 11.302368
70.000 11.106567
70.005 11.042248
70.010 10.981026
70.015 11.115091
70.020 11.353425
70.025 11.786554
70.030 12.053926
70.035 11.899567
70.040 11.733994
70.045 11.569574
70.050 11.73597
70.055 11.767415
70.060 11.176497
70.065 11.223054
70.070 11.10388
70.075 11.192403
70.080 11.356987
70.085 11.196908
70.090 10.785341
70.095 10.632165
70.100 10.397786
70.105 10.520867
70.110 10.707157
70.115 10.399229
70.120 10.798209
70.125 11.076691
70.130 10.839613
70.135 10.726878
70.140 10.816542
70.145 10.836761
70.150 10.808319
70.155 10.74463
70.160 11.046799
70.165 11.527472
70.170 11.770635
70.175 11.806853
70.180 11.863855
70.185 11.970787
70.190 11.831945
70.195 11.810499
70.200 11.571304
70.205 11.971196
70.210 11.6103
70.215 11.767136
70.220 11.80018
70.225 11.433579
70.230 11.034219
70.235 10.866814
70.240 10.70833
70.245 10.653852
70.250 10.30093
70.255 10.848196
70.260 11.228394
70.265 11.673168
70.270 11.727884
70.275 12.028131
70.280 12.375342
70.285 12.145618
70.290 11.518654
70.295 11.559035
70.300 11.758148
70.305 11.778854
70.310 11.472721
70.315 11.54705
70.320 12.058716
70.325 12.681392
70.330 12.602022
70.335 12.165854
70.340 11.928317
70.345 12.162033
70.350 11.960147
70.355 11.57426
70.360 11.166759
70.365 11.241206
70.370 11.411118
70.375 11.426553
70.380 11.378992
70.385 11.684156
70.390 12.224456
70.395 11.999431
70.400 12.042564
70.405 11.963185
70.410 11.585282
70.415 11.65323
70.420 11.395877
70.425 11.221204
70.430 11.468724
70.435 11.123132
70.440 11.015765
70.445 11.111805
70.450 10.863032
70.455 10.771288
70.460 10.54347
70.465 11.019695
70.470 11.512228
70.475 11.87939
70.480 12.130888
70.485 12.133378
70.490 12.17624
70.495 11.654981
70.500 11.366849
70.505 11.851262
70.510 11.916849
70.515 11.825565
70.520 11.329375
70.525 11.864469
70.530 12.347296
70.535 12.087786
70.540 11.504207
70.545 11.047956
70.550 11.006816
70.555 10.92716
70.560 10.409227
70.565 10.382599
70.570 10.6377
70.575 11.171566
70.580 11.970703
70.585 12.418184
70.590 13.301325
70.595 13.687328
70.600 13.934038
70.605 14.10591
70.610 13.665742
70.615 13.368957
70.620 13.171507
70.625 13.04076
70.630 12.939192
70.635 12.582322
70.640 12.265833
70.645 12.188971
70.650 12.17898
70.655 11.828733
70.660 11.351805
70.665 11.072205
70.670 11.114656
70.675 11.008552
70.680 10.919755
70.685 10.779367
70.690 10.736611
70.695 10.571644
70.700 10.882249
70.705 11.065348
70.710 11.247181
70.715 11.20926
70.720 11.359233
70.725 11.009971
70.730 11.117085
70.735 10.421332
70.740 10.097749
70.745 9.97571
70.750 9.813657
70.755 9.520728
70.760 9.845138
70.765 10.019175
70.770 10.509461
70.775 10.642197
70.780 10.584657
70.785 10.337972
70.790 10.467337
70.795 10.364272
70.800 10.308928
70.805 10.205127
70.810 10.377151
70.815 10.281002
70.820 10.947813
70.825 11.451872
70.830 11.512568
70.835 11.396501
70.840 10.954307
70.845 10.8185
70.850 10.824478
70.855 10.390832
70.860 10.065606
70.865 10.395355
70.870 10.451662
70.875 10.838798
70.880 11.154122
70.885 11.325641
70.890 11.572979
70.895 11.255865
70.900 10.670251
70.905 10.535579
70.910 10.147532
70.915 10.026916
70.920 9.394619
70.925 9.074256
70.930 9.321444
70.935 9.545985
70.940 9.356746
70.945 9.341647
70.950 9.551854
70.955 9.906308
70.960 9.854296
70.965 9.654549
70.970 9.842511
70.975 10.21839
70.980 10.445586
70.985 10.463751
70.990 10.587247
70.995 10.919982
71.000 10.633562
71.005 10.427434
71.010 10.000663
71.015 9.936256
71.020 9.618086
71.025 9.742314
71.030 9.735541
71.035 10.511132
71.040 10.657901
71.045 10.423095
71.050 10.32673
71.055 9.887121
71.060 9.96769
71.065 9.979639
71.070 9.878506
71.075 10.097672
71.080 10.360012
71.085 10.808408
71.090 10.75345
71.095 10.448965
71.100 10.252763
71.105 9.880114
71.110 9.630159
71.115 9.48692
71.120 9.582334
71.125 9.816717
71.130 9.92381
71.135 9.97916
71.140 10.000241
71.145 10.365175
71.150 10.946926
71.155 10.915232
71.160 11.13904
71.165 11.031569
71.170 11.387121
71.175 11.498142
71.180 11.06133
71.185 10.777734
71.190 10.696775
71.195 10.364697
71.200 10.093987
71.205 9.936422
71.210 10.246517
71.215 10.124588
71.220 9.812138
71.225 9.80366
71.230 10.05209
71.235 10.209071
71.240 9.957022
71.245 9.689137
71.250 9.862693
71.255 10.285886
71.260 10.227143
71.265 10.208587
71.270 9.831521
71.275 10.403539
71.280 10.245964
71.285 10.709416
71.290 10.803793
71.295 10.888714
71.300 10.614916
71.305 10.51897
71.310 10.428196
71.315 10.377969
71.320 9.991153
71.325 9.869854
71.330 10.002194
71.335 10.199724
71.340 10.222125
71.345 10.215487
71.350 10.182269
71.355 10.081465
71.360 10.247029
71.365 10.300391
71.370 10.674714
71.375 10.992107
71.380 10.847011
71.385 10.879444
71.390 10.755581
71.395 10.594382
71.400 10.665496
71.405 10.255548
71.410 10.589312
71.415 11.3613
71.420 11.436868
71.425 11.353759
71.430 11.178947
71.435 10.95458
71.440 10.941178
71.445 10.194726
71.450 10.156001
71.455 10.179906
71.460 10.510364
71.465 10.946598
71.470 11.234145
71.475 11.084805
71.480 11.386391
71.485 11.459622
71.490 11.612518
71.495 12.027483
71.500 12.028127
71.505 11.666005
71.510 11.664034
71.515 11.231544
71.520 11.25883
71.525 10.75069
71.530 10.064209
71.535 10.050824
71.540 10.328105
71.545 10.501799
71.550 10.532985
71.555 10.497194
71.560 10.614517
71.565 10.19166
71.570 9.961725
71.575 9.932323
71.580 9.915071
71.585 10.088373
71.590 9.925231
71.595 9.802131
71.600 10.28179
71.605 10.263012
71.610 10.453919
71.615 10.167634
71.620 9.451144
71.625 9.716662
71.630 9.661532
71.635 9.514344
71.640 9.511322
71.645 8.969242
71.650 9.347929
71.655 9.779323
71.660 9.626314
71.665 9.837589
71.670 10.049764
71.675 10.137716
71.680 10.572193
71.685 10.619765
71.690 10.56401
71.695 10.607632
71.700 10.643637
71.705 10.482556
71.710 10.619357
71.715 10.425381
71.720 10.641985
71.725 11.127216
71.730 11.198697
71.735 10.827296
71.740 10.986721
71.745 10.795802
71.750 10.209349
71.755 9.884774
71.760 9.529447
71.765 9.535005
71.770 9.906647
71.775 9.961946
71.780 10.293699
71.785 11.037256
71.790 11.289774
71.795 11.070317
71.800 11.437702
71.805 11.442944
71.810 11.59789
71.815 11.864923
71.820 11.42904
71.825 11.448977
71.830 11.852517
71.835 11.520553
71.840 11.405053
71.845 10.769674
71.850 10.226405
71.855 9.862916
71.860 9.446626
71.865 8.94511
71.870 9.026059
71.875 9.103167
71.880 10.097334
71.885 10.565164
71.890 10.843463
71.895 11.021146
71.900 11.420298
71.905 11.872289
71.910 11.631718
71.915 11.443212
71.920 11.328511
71.925 10.982389
71.930 10.837906
71.935 10.557389
71.940 9.891232
71.945 9.547351
71.950 9.074034
71.955 8.964728
71.960 9.426427
71.965 9.826365
71.970 10.125112
71.975 10.414431
71.980 10.348132
71.985 10.677231
71.990 10.811657
71.995 10.743599
72.000 10.669201
72.005 10.621591
72.010 10.35076
72.015 10.515976
72.020 10.557574
72.025 10.712833
72.030 10.794726
72.035 10.731215
72.040 10.779312
72.045 10.507589
72.050 10.349868
72.055 10.100519
72.060 10.167038
72.065 9.751976
72.070 10.016513
72.075 10.223425
72.080 10.571384
72.085 10.671077
72.090 10.432424
72.095 10.152471
72.100 10.003573
72.105 9.611817
72.110 9.378876
72.115 9.028536
72.120 9.325521
72.125 9.472226
72.130 9.792716
72.135 10.289421
72.140 10.67913
72.145 10.726836
72.150 10.73727
72.155 10.859468
72.160 10.727294
72.165 10.149644
72.170 9.902972
72.175 9.700544
72.180 10.189701
72.185 10.332434
72.190 10.292408
72.195 10.943727
72.200 11.401995
72.205 10.999158
72.210 11.090897
72.215 11.133602
72.220 11.235294
72.225 11.225834
72.230 10.939034
72.235 10.913524
72.240 11.403294
72.245 11.413536
72.250 11.269865
72.255 11.134431
72.260 10.951359
72.265 11.117405
72.270 10.839366
72.275 10.643559
72.280 10.850936
72.285 10.35327
72.290 9.819171
72.295 9.743148
72.300 9.650498
72.305 9.527251
72.310 9.51379
72.315 9.598231
72.320 9.872905
72.325 10.049611
72.330 9.99954
72.335 9.901583
72.340 9.90941
72.345 9.449962
72.350 9.493398
72.355 9.589025
72.360 9.087433
72.365 9.398714
72.370 9.474357
72.375 9.568354
72.380 9.208595
72.385 9.335151
72.390 9.812103
72.395 10.213599
72.400 9.954561
72.405 9.650893
72.410 9.786921
72.415 10.07942
72.420 9.607944
72.425 9.144874
72.430 9.229348
72.435 9.495457
72.440 9.640792
72.445 9.409402
72.450 9.276046
72.455 9.132915
72.460 8.876369
72.465 8.723948
72.470 8.835275
72.475 9.081576
72.480 9.505467
72.485 9.820808
72.490 10.207584
72.495 10.420841
72.500 10.366979
72.505 10.685291
72.510 10.478365
72.515 10.465742
72.520 10.661139
72.525 10.939595
72.530 10.835666
72.535 10.811157
72.540 10.747866
72.545 10.545204
72.550 10.021344
72.555 9.566763
72.560 9.764132
72.565 9.900939
72.570 9.846113
72.575 9.820862
72.580 10.276036
72.585 10.82124
72.590 11.019837
72.595 10.897644
72.600 11.337941
72.605 11.215019
72.610 11.370667
72.615 11.242126
72.620 11.338513
72.625 11.061335
72.630 10.699143
72.635 10.639342
72.640 10.125002
72.645 10.153112
72.650 10.064301
72.655 9.844561
72.660 10.358562
72.665 10.277958
72.670 10.180325
72.675 10.635019
72.680 10.463147
72.685 10.547719
72.690 10.567466
72.695 10.690448
72.700 10.920543
72.705 10.91571
72.710 11.289135
72.715 11.056605
72.720 10.890473
72.725 11.246696
72.730 11.183671
72.735 11.30373
72.740 11.149575
72.745 10.656655
72.750 11.17738
72.755 11.046277
72.760 10.94003
72.765 10.614519
72.770 10.241649
72.775 10.169412
72.780 10.336798
72.785 10.309326
72.790 10.135821
72.795 9.805188
72.800 9.723251
72.805 9.633708
72.810 9.122105
72.815 9.05162
72.820 8.978305
72.825 8.959264
72.830 8.663578
72.835 8.940884
72.840 9.265424
72.845 9.624515
72.850 9.700614
72.855 9.221852
72.860 9.075822
72.865 9.116807
72.870 9.340258
72.875 9.673145
72.880 9.42011
72.885 9.759448
72.890 10.497344
72.895 11.450012
72.900 11.964395
72.905 11.970672
72.910 11.723649
72.915 11.588633
72.920 11.351306
72.925 11.286876
72.930 10.434718
72.935 10.028829
72.940 9.946298
72.945 10.359117
72.950 10.563383
72.955 10.569827
72.960 10.723997
72.965 10.645994
72.970 10.294145
72.975 10.085644
72.980 9.78365
72.985 9.549644
72.990 9.56632
72.995 9.830456
73.000 10.051771
