!@!!GADDS PLOTSO FILE: Chi integration type
!@!!Title/SampleName: map-f7
!@!!Comment: ?
!@!!User: Bruker Instrument Administrator
!@!!Site: University of Illinois Chicago
!@!!Frame: map-f7_01_000.gfrm
!@!!Wavelengths    1.54184   1.54056   1.54439
!@!!Frame angles: 2Theta: 63.000 Omega: 50.000 Phi: 0.000 Chi: 90.000
!@!!Integration range: 2Theta: 53.000 to 73.000  Gamma: -105.000 to -75.000
!@!!Integration method: bin normalized
!@!N
!@!SS
!@!M
!@!L 0.0 0.0 0.0 0.0
!@!XDegrees
!@!YCounts
53.000 5.074976
53.005 5.318785
53.010 5.417237
53.015 5.453472
53.020 5.629808
53.025 5.37988
53.030 5.389709
53.035 5.376519
53.040 5.353051
53.045 5.58044
53.050 5.963827
53.055 5.867073
53.060 5.987941
53.065 5.716562
53.070 5.41887
53.075 5.354009
53.080 5.230324
53.085 4.878989
53.090 5.243494
53.095 5.50852
53.100 5.862913
53.105 6.304897
53.110 6.51348
53.115 6.485532
53.120 6.355377
53.125 5.955276
53.130 5.58718
53.135 5.715958
53.140 5.576034
53.145 5.137643
53.150 4.665638
53.155 4.971648
53.160 5.049483
53.165 5.071067
53.170 4.931684
53.175 4.858076
53.180 5.400314
53.185 5.336145
53.190 5.26511
53.195 5.4012
53.200 5.484604
53.205 5.585545
53.210 5.902447
53.215 5.922588
53.220 6.077396
53.225 6.1187
53.230 5.967396
53.235 5.786438
53.240 5.248009
53.245 4.962669
53.250 4.943699
53.255 5.19768
53.260 4.958759
53.265 5.323188
53.270 5.555998
53.275 5.744078
53.280 5.760825
53.285 6.247562
53.290 6.059372
53.295 6.1689
53.300 5.868473
53.305 6.021515
53.310 6.203985
53.315 5.983213
53.320 5.473168
53.325 5.721203
53.330 5.568224
53.335 5.356822
53.340 5.354967
53.345 5.056425
53.350 5.159047
53.355 5.123896
53.360 5.001612
53.365 5.169566
53.370 5.355031
53.375 5.699105
53.380 5.8103
53.385 5.686675
53.390 5.76532
53.395 5.928342
53.400 6.011652
53.405 5.520074
53.410 5.38528
53.415 5.776385
53.420 6.246955
53.425 6.043975
53.430 5.784604
53.435 5.607333
53.440 5.827813
53.445 5.68097
53.450 5.474343
53.455 5.206161
53.460 5.397932
53.465 5.365421
53.470 5.522697
53.475 5.553969
53.480 5.520908
53.485 5.489875
53.490 5.485742
53.495 5.553113
53.500 5.57996
53.505 5.623969
53.510 5.635949
53.515 5.516735
53.520 5.641578
53.525 5.766548
53.530 5.95473
53.535 6.307212
53.540 6.217413
53.545 6.27594
53.550 6.806853
53.555 6.938957
53.560 6.716379
53.565 6.556566
53.570 6.616134
53.575 6.736556
53.580 6.720657
53.585 6.198627
53.590 6.073873
53.595 6.326044
53.600 6.335053
53.605 6.242128
53.610 6.347819
53.615 6.202349
53.620 6.183185
53.625 6.553034
53.630 6.769893
53.635 6.74626
53.640 6.807893
53.645 6.538846
53.650 6.627931
53.655 6.677499
53.660 6.356266
53.665 6.027401
53.670 5.764679
53.675 5.48521
53.680 5.536696
53.685 5.434566
53.690 5.090695
53.695 4.914987
53.700 5.27769
53.705 5.638778
53.710 5.696968
53.715 5.885754
53.720 5.933497
53.725 6.312142
53.730 6.266943
53.735 6.32277
53.740 6.45025
53.745 6.336137
53.750 6.158438
53.755 6.080651
53.760 5.811127
53.765 6.078162
53.770 6.139986
53.775 6.029806
53.780 6.230719
53.785 6.268989
53.790 6.578564
53.795 7.048673
53.800 6.586689
53.805 6.183221
53.810 5.894228
53.815 5.857569
53.820 6.28642
53.825 6.181159
53.830 5.882682
53.835 6.17509
53.840 6.34898
53.845 7.018098
53.850 6.927543
53.855 6.780087
53.860 6.784366
53.865 6.595777
53.870 6.62239
53.875 6.882664
53.880 6.737355
53.885 6.54722
53.890 6.291452
53.895 6.429605
53.900 6.676932
53.905 6.672792
53.910 6.300457
53.915 6.079694
53.920 6.43224
53.925 6.620296
53.930 6.446132
53.935 6.02334
53.940 5.922526
53.945 6.151361
53.950 6.176425
53.955 6.276514
53.960 6.601858
53.965 6.973008
53.970 6.810417
53.975 7.175115
53.980 7.751348
53.985 8.054949
53.990 7.721484
53.995 7.61757
54.000 7.654575
54.005 7.663738
54.010 7.054891
54.015 6.579444
54.020 6.514914
54.025 6.559627
54.030 6.620018
54.035 6.721813
54.040 7.017009
54.045 6.850379
54.050 6.903893
54.055 6.909372
54.060 6.709602
54.065 6.75666
54.070 6.49511
54.075 6.638542
54.080 7.238139
54.085 7.247738
54.090 7.612304
54.095 7.725726
54.100 7.486635
54.105 7.755936
54.110 7.749892
54.115 7.422221
54.120 7.341887
54.125 7.080034
54.130 7.016746
54.135 6.888833
54.140 6.797367
54.145 6.855018
54.150 6.554792
54.155 6.452661
54.160 6.419918
54.165 6.68937
54.170 7.008101
54.175 7.218813
54.180 7.247489
54.185 7.378177
54.190 7.296212
54.195 7.374202
54.200 7.406355
54.205 7.4132
54.210 6.801521
54.215 6.6737
54.220 6.776551
54.225 6.593801
54.230 6.618522
54.235 6.89338
54.240 7.125879
54.245 7.312992
54.250 7.0271
54.255 7.071211
54.260 7.473659
54.265 7.400825
54.270 7.177731
54.275 6.731008
54.280 6.800407
54.285 7.282722
54.290 7.486441
54.295 7.612607
54.300 7.307048
54.305 7.374952
54.310 7.712426
54.315 7.682481
54.320 7.492819
54.325 7.094568
54.330 7.045337
54.335 7.323447
54.340 6.85344
54.345 7.047793
54.350 7.058259
54.355 7.047341
54.360 7.34643
54.365 7.324873
54.370 7.217595
54.375 7.640838
54.380 7.494238
54.385 7.500101
54.390 7.203864
54.395 6.639918
54.400 6.505205
54.405 6.762107
54.410 6.934561
54.415 7.001398
54.420 7.062885
54.425 7.114821
54.430 7.41526
54.435 7.403603
54.440 7.268696
54.445 7.269915
54.450 7.199986
54.455 7.469967
54.460 7.78998
54.465 7.987023
54.470 8.003894
54.475 7.915402
54.480 8.148268
54.485 8.252098
54.490 8.258245
54.495 7.884792
54.500 7.405032
54.505 7.518149
54.510 7.530356
54.515 7.102795
54.520 6.814361
54.525 6.643091
54.530 6.990339
54.535 7.110091
54.540 7.157252
54.545 7.433651
54.550 7.550812
54.555 7.94484
54.560 8.225959
54.565 8.257915
54.570 8.418803
54.575 8.231609
54.580 8.283123
54.585 8.235351
54.590 8.001708
54.595 8.190187
54.600 8.333758
54.605 8.484756
54.610 8.327369
54.615 8.168591
54.620 8.839161
54.625 9.003841
54.630 8.692576
54.635 8.332947
54.640 8.114619
54.645 7.726147
54.650 7.191366
54.655 6.831959
54.660 6.881734
54.665 6.724459
54.670 6.479681
54.675 6.961236
54.680 7.346545
54.685 7.42233
54.690 7.482524
54.695 7.355772
54.700 7.630591
54.705 7.723374
54.710 7.41792
54.715 7.795341
54.720 7.976
54.725 7.594652
54.730 7.909133
54.735 7.864177
54.740 7.832433
54.745 7.795798
54.750 7.231093
54.755 7.329851
54.760 7.481496
54.765 7.395791
54.770 7.540573
54.775 7.838763
54.780 8.0925
54.785 8.086713
54.790 7.689798
54.795 7.618253
54.800 7.635404
54.805 7.468633
54.810 7.101835
54.815 7.242881
54.820 7.35058
54.825 7.470432
54.830 7.241852
54.835 7.248518
54.840 7.267794
54.845 7.414916
54.850 7.515472
54.855 7.538403
54.860 7.743469
54.865 7.690322
54.870 7.865138
54.875 8.006703
54.880 7.449982
54.885 7.253047
54.890 7.244514
54.895 7.308944
54.900 7.404253
54.905 6.920072
54.910 6.948846
54.915 7.205047
54.920 7.214007
54.925 7.376951
54.930 7.414351
54.935 7.878613
54.940 7.6348
54.945 7.450132
54.950 7.599476
54.955 7.980326
54.960 7.664576
54.965 7.426248
54.970 7.322498
54.975 7.805857
54.980 8.062781
54.985 7.735865
54.990 7.247301
54.995 7.25094
55.000 7.07825
55.005 7.096172
55.010 7.312362
55.015 7.665597
55.020 8.063774
55.025 8.407856
55.030 8.390895
55.035 8.487627
55.040 8.303378
55.045 8.115546
55.050 7.867658
55.055 7.665818
55.060 7.382449
55.065 7.263834
55.070 7.202873
55.075 7.123355
55.080 6.711298
55.085 6.415571
55.090 6.686158
55.095 7.120193
55.100 7.628961
55.105 7.836333
55.110 7.996835
55.115 8.632988
55.120 9.002682
55.125 9.276156
55.130 9.154576
55.135 9.035365
55.140 9.241005
55.145 9.034141
55.150 9.137815
55.155 8.872643
55.160 8.525664
55.165 8.377588
55.170 8.071399
55.175 7.791924
55.180 7.934028
55.185 7.350436
55.190 6.680323
55.195 6.706402
55.200 6.661775
55.205 6.537193
55.210 6.454762
55.215 6.56344
55.220 6.976417
55.225 7.67808
55.230 7.82048
55.235 8.14087
55.240 8.576323
55.245 8.805582
55.250 8.421663
55.255 8.172381
55.260 8.374246
55.265 8.20266
55.270 8.205039
55.275 8.178743
55.280 8.034604
55.285 8.002058
55.290 8.073393
55.295 8.406096
55.300 8.782283
55.305 8.774406
55.310 8.781678
55.315 9.027591
55.320 9.234076
55.325 9.411785
55.330 8.964657
55.335 9.077816
55.340 9.079487
55.345 8.990583
55.350 8.914217
55.355 8.678144
55.360 8.335826
55.365 8.086527
55.370 7.971401
55.375 7.951055
55.380 7.987426
55.385 7.975288
55.390 8.261626
55.395 8.488019
55.400 8.513807
55.405 8.544699
55.410 8.221245
55.415 8.14583
55.420 8.46724
55.425 8.321835
55.430 8.113954
55.435 8.145118
55.440 8.298688
55.445 8.556462
55.450 8.701274
55.455 8.573199
55.460 8.635671
55.465 8.900583
55.470 9.028977
55.475 8.870942
55.480 8.578236
55.485 8.269065
55.490 8.483369
55.495 8.373822
55.500 8.120233
55.505 7.786696
55.510 7.795085
55.515 7.553824
55.520 7.771485
55.525 7.652762
55.530 7.441922
55.535 7.627432
55.540 7.918849
55.545 8.207376
55.550 8.698435
55.555 8.554129
55.560 8.301793
55.565 8.478499
55.570 8.296809
55.575 8.470975
55.580 8.437548
55.585 8.293478
55.590 8.269488
55.595 8.420157
55.600 8.834442
55.605 8.840378
55.610 8.395278
55.615 8.475146
55.620 8.699947
55.625 8.97242
55.630 8.964581
55.635 8.603725
55.640 8.261629
55.645 8.057323
55.650 7.922198
55.655 7.775048
55.660 7.652367
55.665 7.864318
55.670 8.024601
55.675 8.702056
55.680 9.409472
55.685 9.520672
55.690 9.426966
55.695 9.442858
55.700 9.763607
55.705 9.804586
55.710 9.710958
55.715 9.022376
55.720 9.19742
55.725 9.577469
55.730 9.249822
55.735 9.059133
55.740 8.931394
55.745 8.720203
55.750 8.753222
55.755 8.796347
55.760 8.62095
55.765 8.899147
55.770 8.903579
55.775 8.928579
55.780 9.076453
55.785 9.068647
55.790 9.121533
55.795 9.341685
55.800 8.987849
55.805 9.024542
55.810 9.072324
55.815 9.507909
55.820 9.551088
55.825 9.185281
55.830 9.212094
55.835 9.881116
55.840 10.275424
55.845 9.848442
55.850 9.418576
55.855 9.407696
55.860 9.384295
55.865 9.349168
55.870 9.245112
55.875 8.980484
55.880 9.715953
55.885 9.772585
55.890 9.800936
55.895 10.011526
55.900 9.861127
55.905 9.172034
55.910 9.021693
55.915 8.438937
55.920 8.094254
55.925 8.031079
55.930 8.189634
55.935 8.664495
55.940 9.185965
55.945 9.779813
55.950 10.13868
55.955 10.711474
55.960 10.382586
55.965 9.958435
55.970 9.777317
55.975 9.655329
55.980 9.602349
55.985 9.550881
55.990 9.051091
55.995 8.911896
56.000 8.809552
56.005 8.62598
56.010 8.200111
56.015 7.717533
56.020 7.958895
56.025 8.076954
56.030 8.527908
56.035 9.10582
56.040 9.079512
56.045 9.391825
56.050 9.563662
56.055 9.375131
56.060 9.578298
56.065 9.30156
56.070 8.824275
56.075 8.854493
56.080 8.419105
56.085 8.165294
56.090 8.359985
56.095 8.59473
56.100 8.624992
56.105 8.511372
56.110 8.809647
56.115 9.163988
56.120 9.237888
56.125 9.212489
56.130 9.116638
56.135 9.398368
56.140 9.959046
56.145 9.648761
56.150 9.792071
56.155 9.971449
56.160 9.907059
56.165 9.928583
56.170 9.717341
56.175 9.161064
56.180 9.676373
56.185 9.441296
56.190 9.323782
56.195 9.455704
56.200 9.567587
56.205 9.438574
56.210 9.397519
56.215 9.424168
56.220 9.192676
56.225 8.982615
56.230 9.001911
56.235 8.847336
56.240 9.225352
56.245 9.211983
56.250 8.789767
56.255 9.530575
56.260 9.976153
56.265 10.29632
56.270 10.267995
56.275 10.358944
56.280 10.595352
56.285 10.9552
56.290 10.365649
56.295 9.904637
56.300 9.582528
56.305 9.56279
56.310 9.656324
56.315 9.610602
56.320 9.824306
56.325 10.354333
56.330 10.637455
56.335 10.614017
56.340 10.719838
56.345 10.366436
56.350 10.228098
56.355 10.110927
56.360 9.548102
56.365 9.634967
56.370 9.552547
56.375 9.30127
56.380 9.209651
56.385 9.224496
56.390 9.347563
56.395 10.111897
56.400 10.031233
56.405 10.047315
56.410 10.099907
56.415 10.159486
56.420 10.155036
56.425 9.750158
56.430 9.443602
56.435 9.920987
56.440 9.97786
56.445 10.033204
56.450 10.369297
56.455 10.578559
56.460 10.658657
56.465 10.208071
56.470 10.120769
56.475 10.112732
56.480 10.112003
56.485 9.775105
56.490 10.14954
56.495 10.759383
56.500 10.662992
56.505 10.560891
56.510 10.734051
56.515 10.613578
56.520 10.730144
56.525 10.052343
56.530 9.485779
56.535 9.39944
56.540 9.052984
56.545 8.750076
56.550 8.973982
56.555 9.035535
56.560 8.712656
56.565 8.477948
56.570 8.945889
56.575 9.352447
56.580 9.435493
56.585 9.290676
56.590 9.090278
56.595 9.941032
56.600 10.145452
56.605 9.877215
56.610 9.967433
56.615 10.298226
56.620 10.1873
56.625 9.839122
56.630 9.493277
56.635 9.78081
56.640 9.780201
56.645 9.679492
56.650 9.589159
56.655 10.103173
56.660 10.271815
56.665 9.963455
56.670 9.149453
56.675 8.78703
56.680 8.830157
56.685 8.675248
56.690 8.267417
56.695 7.897954
56.700 7.624753
56.705 8.201895
56.710 8.261485
56.715 8.123322
56.720 8.369315
56.725 8.614185
56.730 9.214807
56.735 9.914383
56.740 10.149028
56.745 10.137302
56.750 10.005202
56.755 9.85354
56.760 9.971642
56.765 9.759634
56.770 9.610059
56.775 9.525408
56.780 9.735607
56.785 10.141622
56.790 10.346397
56.795 10.404914
56.800 10.214496
56.805 10.283875
56.810 10.528945
56.815 10.678753
56.820 10.235229
56.825 9.909135
56.830 9.970277
56.835 10.166399
56.840 10.18119
56.845 9.846606
56.850 9.634324
56.855 9.639979
56.860 10.197494
56.865 10.167427
56.870 10.29865
56.875 10.270948
56.880 10.133178
56.885 10.584355
56.890 11.099323
56.895 11.142162
56.900 11.359828
56.905 11.267586
56.910 11.274429
56.915 11.23725
56.920 10.732169
56.925 9.932073
56.930 9.572099
56.935 9.196024
56.940 9.039536
56.945 9.110104
56.950 9.315084
56.955 9.41809
56.960 9.539573
56.965 9.48667
56.970 9.849007
56.975 10.177823
56.980 10.080928
56.985 10.031794
56.990 10.107002
56.995 10.106492
57.000 10.332397
57.005 10.340419
57.010 10.464885
57.015 10.721904
57.020 11.086075
57.025 11.095768
57.030 11.218077
57.035 10.998712
57.040 10.565965
57.045 10.35079
57.050 10.379598
57.055 10.07304
57.060 10.166427
57.065 9.748786
57.070 9.418183
57.075 9.374015
57.080 9.349514
57.085 8.953711
57.090 8.678088
57.095 8.90167
57.100 9.262999
57.105 9.788881
57.110 10.293845
57.115 9.845674
57.120 9.987267
57.125 10.327806
57.130 10.933185
57.135 11.102907
57.140 10.717807
57.145 10.32328
57.150 10.581267
57.155 10.524014
57.160 10.437312
57.165 10.203027
57.170 10.245511
57.175 10.502294
57.180 10.933475
57.185 11.267547
57.190 11.555954
57.195 11.35284
57.200 10.55121
57.205 10.919685
57.210 11.394167
57.215 11.159147
57.220 10.665064
57.225 10.326336
57.230 10.288685
57.235 10.497945
57.240 10.014677
57.245 10.084712
57.250 10.265386
57.255 10.3945
57.260 10.588811
57.265 10.887033
57.270 11.17607
57.275 11.349717
57.280 11.389243
57.285 11.585188
57.290 11.936031
57.295 11.828389
57.300 11.31178
57.305 11.110226
57.310 10.958307
57.315 10.230299
57.320 9.878461
57.325 9.593398
57.330 9.426823
57.335 10.028616
57.340 10.175741
57.345 10.341278
57.350 10.793194
57.355 11.022292
57.360 10.956005
57.365 11.085899
57.370 10.850955
57.375 10.932711
57.380 10.72604
57.385 10.146502
57.390 10.238958
57.395 10.649932
57.400 10.312422
57.405 10.067029
57.410 9.437398
57.415 9.463947
57.420 9.612566
57.425 9.103458
57.430 8.795458
57.435 9.098123
57.440 9.329585
57.445 9.505693
57.450 9.757615
57.455 10.108812
57.460 10.548669
57.465 10.668965
57.470 10.74947
57.475 10.512338
57.480 10.733528
57.485 10.523428
57.490 10.53759
57.495 10.631542
57.500 10.538801
57.505 9.855317
57.510 10.069219
57.515 10.610931
57.520 10.769925
57.525 10.405071
57.530 10.557468
57.535 11.246293
57.540 12.297329
57.545 12.384348
57.550 11.847699
57.555 12.07935
57.560 12.525352
57.565 12.656719
57.570 12.508066
57.575 12.434808
57.580 12.326833
57.585 12.519794
57.590 12.755303
57.595 12.518806
57.600 12.506731
57.605 12.147386
57.610 12.212523
57.615 12.127125
57.620 11.914827
57.625 11.691703
57.630 11.879362
57.635 11.6359
57.640 11.134373
57.645 10.847908
57.650 11.658096
57.655 12.030396
57.660 12.254259
57.665 12.197267
57.670 12.620113
57.675 13.028955
57.680 12.458434
57.685 11.730143
57.690 11.702009
57.695 11.742141
57.700 11.524456
57.705 11.326945
57.710 11.54481
57.715 12.343132
57.720 12.173442
57.725 12.200267
57.730 11.776372
57.735 11.828223
57.740 11.834531
57.745 11.843064
57.750 11.735448
57.755 11.404904
57.760 11.18353
57.765 11.657777
57.770 11.549674
57.775 11.454846
57.780 11.382545
57.785 11.468547
57.790 11.615685
57.795 11.705167
57.800 11.355095
57.805 11.590022
57.810 11.539355
57.815 11.385708
57.820 11.523555
57.825 11.516171
57.830 11.232765
57.835 11.789525
57.840 12.069716
57.845 12.831717
57.850 12.51564
57.855 12.444472
57.860 12.56963
57.865 12.849447
57.870 12.374133
57.875 12.001961
57.880 11.658898
57.885 12.221295
57.890 12.312779
57.895 12.68395
57.900 12.932074
57.905 12.995076
57.910 13.271357
57.915 13.263983
57.920 13.092859
57.925 13.181257
57.930 13.233552
57.935 12.948932
57.940 13.34792
57.945 13.225171
57.950 13.158577
57.955 13.354174
57.960 13.194461
57.965 13.132271
57.970 13.415034
57.975 13.098064
57.980 13.048741
57.985 12.936298
57.990 12.090894
57.995 11.686131
58.000 11.812961
58.005 11.773397
58.010 11.399652
58.015 11.278479
58.020 11.786551
58.025 12.43773
58.030 12.858709
58.035 12.46967
58.040 12.403286
58.045 12.738358
58.050 12.795852
58.055 12.786499
58.060 13.108843
58.065 12.765267
58.070 12.790879
58.075 12.659678
58.080 12.640432
58.085 12.501818
58.090 12.431872
58.095 12.06995
58.100 12.051013
58.105 12.464793
58.110 12.668338
58.115 12.686228
58.120 12.449328
58.125 12.036079
58.130 12.425954
58.135 12.678596
58.140 12.540091
58.145 12.922192
58.150 13.539782
58.155 14.097792
58.160 14.228621
58.165 13.731356
58.170 14.049858
58.175 14.264452
58.180 13.401649
58.185 12.849917
58.190 13.182408
58.195 13.127267
58.200 13.032463
58.205 12.980364
58.210 12.908116
58.215 12.894531
58.220 13.279866
58.225 13.336527
58.230 13.293569
58.235 13.41913
58.240 13.260359
58.245 13.474628
58.250 14.742563
58.255 14.157016
58.260 13.596453
58.265 13.966716
58.270 13.980771
58.275 14.075679
58.280 13.875252
58.285 13.490159
58.290 13.556764
58.295 13.918077
58.300 14.093371
58.305 14.453629
58.310 14.48883
58.315 14.569955
58.320 14.900233
58.325 15.034715
58.330 14.784468
58.335 14.97879
58.340 14.60983
58.345 14.788688
58.350 15.088868
58.355 15.076272
58.360 15.138157
58.365 15.607062
58.370 15.341808
58.375 15.285831
58.380 15.002554
58.385 14.791647
58.390 14.793769
58.395 15.135446
58.400 15.359171
58.405 15.447228
58.410 15.753303
58.415 15.991359
58.420 15.963732
58.425 16.297535
58.430 16.436766
58.435 16.756287
58.440 17.644211
58.445 17.921238
58.450 18.417746
58.455 18.441971
58.460 18.381855
58.465 18.449997
58.470 18.286032
58.475 17.775036
58.480 18.105639
58.485 18.403433
58.490 19.382362
58.495 20.079639
58.500 20.446339
58.505 21.30258
58.510 22.005672
58.515 22.039309
58.520 21.841791
58.525 21.920679
58.530 21.882858
58.535 22.006847
58.540 21.972267
58.545 22.136881
58.550 21.939631
58.555 22.122702
58.560 23.135946
58.565 23.464741
58.570 23.122482
58.575 23.398499
58.580 23.315607
58.585 23.504337
58.590 23.706518
58.595 23.426188
58.600 24.069357
58.605 25.401058
58.610 25.517403
58.615 25.903383
58.620 26.68502
58.625 27.157471
58.630 27.367292
58.635 26.943855
58.640 26.370962
58.645 26.672523
58.650 26.724411
58.655 26.825315
58.660 27.962433
58.665 28.458315
58.670 28.542952
58.675 28.461555
58.680 28.123491
58.685 28.950315
58.690 29.298243
58.695 29.210943
58.700 29.527851
58.705 29.509369
58.710 29.39065
58.715 29.380922
58.720 28.842648
58.725 28.579603
58.730 27.089041
58.735 27.241632
58.740 27.647556
58.745 27.66164
58.750 27.508196
58.755 27.303354
58.760 27.080519
58.765 27.202211
58.770 26.517002
58.775 26.485777
58.780 26.949831
58.785 26.834785
58.790 26.271671
58.795 26.123606
58.800 26.125612
58.805 26.042473
58.810 25.368143
58.815 24.455011
58.820 24.316444
58.825 25.055004
58.830 24.939171
58.835 23.792
58.840 23.182888
58.845 22.630222
58.850 22.210052
58.855 21.780987
58.860 21.030773
58.865 20.60512
58.870 20.145582
58.875 20.102791
58.880 20.00279
58.885 19.701038
58.890 19.012812
58.895 18.108843
58.900 17.855627
58.905 18.167774
58.910 18.015032
58.915 17.983122
58.920 18.443228
58.925 18.931927
58.930 19.423393
58.935 19.659391
58.940 19.439743
58.945 18.951847
58.950 18.846638
58.955 17.78945
58.960 17.524229
58.965 17.010748
58.970 16.20961
58.975 15.552966
58.980 15.235125
58.985 14.605644
58.990 14.277154
58.995 13.751028
59.000 13.31752
59.005 13.722755
59.010 13.455604
59.015 13.425761
59.020 13.843028
59.025 14.079921
59.030 14.485476
59.035 14.941401
59.040 15.032276
59.045 15.388972
59.050 15.666968
59.055 15.79319
59.060 15.856256
59.065 15.954122
59.070 15.784962
59.075 14.905103
59.080 14.9583
59.085 14.303377
59.090 13.859381
59.095 13.654917
59.100 13.588513
59.105 13.96981
59.110 14.02096
59.115 14.004825
59.120 13.88922
59.125 13.992558
59.130 13.816324
59.135 13.494237
59.140 12.922045
59.145 12.752237
59.150 12.822931
59.155 13.47573
59.160 13.626874
59.165 13.5014
59.170 13.50034
59.175 13.667316
59.180 13.756338
59.185 13.261134
59.190 13.015763
59.195 12.822351
59.200 13.032347
59.205 12.685186
59.210 12.867912
59.215 13.000502
59.220 13.520619
59.225 13.841857
59.230 13.711228
59.235 13.727872
59.240 14.046657
59.245 13.677674
59.250 13.366797
59.255 13.16979
59.260 12.575098
59.265 12.749442
59.270 12.635415
59.275 12.143564
59.280 11.879035
59.285 11.871781
59.290 12.153609
59.295 12.569521
59.300 12.586306
59.305 12.397981
59.310 12.774478
59.315 13.17818
59.320 13.163342
59.325 12.744591
59.330 12.637194
59.335 12.767641
59.340 13.049873
59.345 12.946619
59.350 13.097859
59.355 12.921971
59.360 13.061147
59.365 12.719256
59.370 12.188786
59.375 11.983371
59.380 11.794139
59.385 11.725046
59.390 11.382275
59.395 10.899572
59.400 10.969951
59.405 11.332911
59.410 11.188725
59.415 10.820309
59.420 10.573534
59.425 10.764359
59.430 10.949116
59.435 11.176733
59.440 11.208918
59.445 11.665022
59.450 12.26646
59.455 12.780213
59.460 12.912577
59.465 13.492237
59.470 13.85618
59.475 13.66521
59.480 13.559793
59.485 13.311742
59.490 13.094265
59.495 12.689313
59.500 12.042251
59.505 11.756941
59.510 11.892929
59.515 11.771325
59.520 11.752948
59.525 11.845959
59.530 11.943775
59.535 11.880374
59.540 11.907104
59.545 12.225308
59.550 12.446912
59.555 12.774784
59.560 12.778978
59.565 12.824798
59.570 12.842966
59.575 12.827326
59.580 13.091518
59.585 12.920753
59.590 12.4009
59.595 12.432426
59.600 12.567006
59.605 12.890368
59.610 12.668157
59.615 12.140475
59.620 12.382663
59.625 13.159092
59.630 13.499467
59.635 14.007439
59.640 14.341391
59.645 14.213202
59.650 14.322983
59.655 14.379154
59.660 13.912027
59.665 13.64095
59.670 12.974828
59.675 12.317467
59.680 12.885703
59.685 12.440352
59.690 11.821506
59.695 12.113418
59.700 12.558418
59.705 12.649681
59.710 12.126922
59.715 11.376966
59.720 11.818923
59.725 11.943439
59.730 11.238797
59.735 10.995521
59.740 11.199469
59.745 11.744346
59.750 12.581775
59.755 12.864612
59.760 13.287604
59.765 13.507607
59.770 13.676692
59.775 13.686261
59.780 13.797441
59.785 13.510369
59.790 13.23523
59.795 12.466457
59.800 12.317688
59.805 12.039235
59.810 12.434308
59.815 12.432846
59.820 12.432738
59.825 12.467455
59.830 12.834197
59.835 12.707457
59.840 12.612876
59.845 11.94912
59.850 11.999516
59.855 11.626566
59.860 11.860092
59.865 12.315032
59.870 12.928399
59.875 12.869963
59.880 12.796021
59.885 12.598068
59.890 12.742045
59.895 12.665163
59.900 12.650439
59.905 12.459648
59.910 12.545409
59.915 12.769519
59.920 12.699333
59.925 12.188498
59.930 11.989233
59.935 11.596582
59.940 11.433261
59.945 11.645332
59.950 12.069939
59.955 12.640428
59.960 13.071589
59.965 13.133422
59.970 13.422053
59.975 13.429787
59.980 12.779957
59.985 11.880865
59.990 12.215348
59.995 12.51585
60.000 12.417943
60.005 12.393033
60.010 12.452563
60.015 13.020975
60.020 13.467879
60.025 12.806054
60.030 13.083252
60.035 12.799205
60.040 12.974589
60.045 13.330879
60.050 13.413348
60.055 13.26627
60.060 13.210705
60.065 12.782724
60.070 13.091219
60.075 13.234967
60.080 12.953671
60.085 12.8447
60.090 13.103546
60.095 12.725125
60.100 12.841657
60.105 13.11815
60.110 12.505966
60.115 12.602475
60.120 12.531982
60.125 12.523567
60.130 13.120471
60.135 13.283563
60.140 13.352871
60.145 13.50071
60.150 13.172196
60.155 13.487035
60.160 13.454086
60.165 13.317039
60.170 13.096412
60.175 13.075564
60.180 13.11162
60.185 13.38676
60.190 13.36031
60.195 13.24577
60.200 13.320317
60.205 13.38331
60.210 13.840579
60.215 13.629115
60.220 13.222731
60.225 13.000951
60.230 13.009097
60.235 13.017489
60.240 12.657397
60.245 11.816276
60.250 12.134645
60.255 12.747275
60.260 12.266359
60.265 12.034728
60.270 11.983037
60.275 12.064022
60.280 12.535362
60.285 12.366982
60.290 11.822901
60.295 12.070045
60.300 12.485031
60.305 12.682584
60.310 12.891078
60.315 12.608561
60.320 12.814305
60.325 12.66426
60.330 12.694173
60.335 12.443638
60.340 12.006517
60.345 11.767371
60.350 12.027645
60.355 11.907081
60.360 12.015882
60.365 11.826966
60.370 11.645206
60.375 12.124509
60.380 12.289362
60.385 12.274108
60.390 12.313517
60.395 12.715135
60.400 12.959297
60.405 13.252881
60.410 13.1136
60.415 13.2258
60.420 13.315474
60.425 13.372931
60.430 13.296676
60.435 13.233984
60.440 13.664051
60.445 13.709897
60.450 13.446667
60.455 13.486541
60.460 13.961893
60.465 14.279405
60.470 14.359873
60.475 13.972736
60.480 13.754756
60.485 13.677412
60.490 13.135802
60.495 12.78201
60.500 12.67326
60.505 12.370145
60.510 11.872682
60.515 11.82346
60.520 11.637922
60.525 11.479602
60.530 10.81188
60.535 10.534327
60.540 10.927214
60.545 11.288265
60.550 11.486561
60.555 12.082572
60.560 12.661104
60.565 13.222591
60.570 13.726295
60.575 14.026103
60.580 13.969216
60.585 13.914314
60.590 13.676662
60.595 13.734802
60.600 13.961509
60.605 14.091162
60.610 13.716178
60.615 13.594098
60.620 13.76571
60.625 13.733635
60.630 13.353003
60.635 13.050923
60.640 12.32837
60.645 12.34696
60.650 12.507232
60.655 12.503901
60.660 12.842993
60.665 13.129874
60.670 13.312809
60.675 13.868249
60.680 13.841009
60.685 13.8739
60.690 13.951535
60.695 13.555926
60.700 13.557995
60.705 13.272727
60.710 12.947239
60.715 12.814049
60.720 12.830827
60.725 12.891347
60.730 13.16545
60.735 13.172593
60.740 13.267387
60.745 13.79632
60.750 13.708896
60.755 13.375893
60.760 13.828321
60.765 14.05574
60.770 13.825726
60.775 13.473535
60.780 13.397213
60.785 13.574041
60.790 13.535695
60.795 12.875676
60.800 12.749619
60.805 13.202207
60.810 13.433576
60.815 13.311159
60.820 13.515218
60.825 13.53239
60.830 13.654076
60.835 13.568445
60.840 13.714118
60.845 13.445291
60.850 12.836924
60.855 12.45688
60.860 12.517552
60.865 12.781252
60.870 12.5446
60.875 12.270825
60.880 12.774097
60.885 12.919783
60.890 13.302797
60.895 13.228749
60.900 13.28537
60.905 13.541131
60.910 13.350403
60.915 13.732383
60.920 13.968591
60.925 13.656415
60.930 13.469604
60.935 13.020163
60.940 12.602508
60.945 12.331794
60.950 11.954492
60.955 12.50036
60.960 12.815537
60.965 13.049315
60.970 13.092368
60.975 13.523417
60.980 13.680261
60.985 13.032061
60.990 12.576338
60.995 12.487138
61.000 12.464017
61.005 12.794157
61.010 12.903662
61.015 13.065028
61.020 13.396482
61.025 13.129435
61.030 12.94664
61.035 13.347155
61.040 13.105558
61.045 12.664174
61.050 12.588936
61.055 12.16531
61.060 12.338752
61.065 12.39537
61.070 12.072931
61.075 12.046336
61.080 12.089452
61.085 12.25401
61.090 12.999618
61.095 13.276258
61.100 13.380671
61.105 13.396453
61.110 13.588245
61.115 13.871812
61.120 13.557831
61.125 13.311166
61.130 13.125182
61.135 12.725142
61.140 12.612024
61.145 12.837116
61.150 12.564157
61.155 12.963613
61.160 12.814971
61.165 12.686109
61.170 12.800346
61.175 12.799064
61.180 13.371981
61.185 13.675849
61.190 13.519207
61.195 13.820314
61.200 13.908957
61.205 14.414509
61.210 14.793885
61.215 14.040005
61.220 13.615473
61.225 13.927867
61.230 13.832232
61.235 14.107226
61.240 13.625024
61.245 13.425537
61.250 13.407367
61.255 13.984326
61.260 14.54917
61.265 15.664086
61.270 16.230125
61.275 16.518248
61.280 16.351656
61.285 16.481655
61.290 16.305353
61.295 15.835132
61.300 14.931479
61.305 14.319725
61.310 14.342747
61.315 15.04345
61.320 15.475682
61.325 15.229571
61.330 14.939885
61.335 14.893289
61.340 15.199635
61.345 15.212279
61.350 14.550604
61.355 14.335488
61.360 14.860981
61.365 14.562139
61.370 14.08516
61.375 13.804226
61.380 13.197648
61.385 13.239686
61.390 13.028242
61.395 12.720857
61.400 13.035827
61.405 13.409195
61.410 13.836575
61.415 14.15646
61.420 13.8597
61.425 14.074132
61.430 14.257163
61.435 14.124114
61.440 14.386727
61.445 14.247157
61.450 14.445824
61.455 14.524882
61.460 14.005737
61.465 13.941741
61.470 14.095709
61.475 13.981586
61.480 13.762266
61.485 13.646551
61.490 13.801908
61.495 14.086003
61.500 14.015296
61.505 13.732608
61.510 13.657434
61.515 13.827446
61.520 13.639507
61.525 13.623425
61.530 14.120597
61.535 14.349503
61.540 14.585836
61.545 14.701856
61.550 14.77257
61.555 15.337431
61.560 15.146677
61.565 14.413105
61.570 14.288006
61.575 13.832185
61.580 13.554797
61.585 13.231552
61.590 12.888195
61.595 12.904253
61.600 13.328008
61.605 13.254568
61.610 13.704622
61.615 13.547401
61.620 13.260007
61.625 13.482426
61.630 13.503663
61.635 12.802998
61.640 12.7688
61.645 12.904186
61.650 12.990319
61.655 13.139296
61.660 12.773449
61.665 12.726015
61.670 13.436249
61.675 13.285952
61.680 12.903966
61.685 13.220609
61.690 13.588648
61.695 13.5043
61.700 13.35162
61.705 12.865833
61.710 13.108295
61.715 13.120469
61.720 12.862429
61.725 12.760486
61.730 13.057053
61.735 13.533855
61.740 13.62473
61.745 13.498783
61.750 13.495028
61.755 13.662786
61.760 13.619342
61.765 13.332705
61.770 12.999373
61.775 13.414879
61.780 13.346396
61.785 13.281689
61.790 13.278508
61.795 13.456521
61.800 13.579067
61.805 14.135555
61.810 14.34053
61.815 14.834433
61.820 15.19872
61.825 14.868485
61.830 14.749998
61.835 14.621406
61.840 13.640317
61.845 13.069464
61.850 12.653054
61.855 12.778779
61.860 13.240685
61.865 13.726292
61.870 13.993814
61.875 14.39838
61.880 14.78409
61.885 15.345782
61.890 15.097247
61.895 14.880111
61.900 14.611631
61.905 14.482841
61.910 14.667741
61.915 14.433309
61.920 13.986876
61.925 13.968808
61.930 13.874084
61.935 13.666175
61.940 14.152413
61.945 14.394884
61.950 14.830554
61.955 14.787042
61.960 15.075666
61.965 15.198919
61.970 15.259917
61.975 15.186774
61.980 14.847548
61.985 14.331822
61.990 14.080133
61.995 13.508293
62.000 12.872792
62.005 12.771064
62.010 12.565582
62.015 12.336555
62.020 12.505574
62.025 13.217271
62.030 13.959832
62.035 14.879449
62.040 14.82747
62.045 15.014024
62.050 15.080348
62.055 15.294399
62.060 14.710167
62.065 13.772272
62.070 13.711658
62.075 14.04884
62.080 14.284976
62.085 14.254886
62.090 13.953308
62.095 13.853959
62.100 14.153214
62.105 13.963927
62.110 13.821416
62.115 13.59181
62.120 14.133947
62.125 14.364202
62.130 14.454288
62.135 14.484524
62.140 14.537551
62.145 14.738751
62.150 14.848416
62.155 14.760925
62.160 14.928342
62.165 15.458328
62.170 15.833793
62.175 16.004959
62.180 15.591455
62.185 15.793031
62.190 15.267628
62.195 14.894223
62.200 14.511226
62.205 14.004925
62.210 14.012829
62.215 14.153798
62.220 13.847586
62.225 13.949248
62.230 13.67138
62.235 13.558044
62.240 13.552644
62.245 13.313218
62.250 13.05338
62.255 13.215085
62.260 12.918869
62.265 13.57475
62.270 14.305332
62.275 14.67083
62.280 14.435167
62.285 14.228023
62.290 13.85214
62.295 14.36707
62.300 14.127117
62.305 13.588952
62.310 13.316593
62.315 13.569996
62.320 14.234095
62.325 14.753386
62.330 14.641428
62.335 14.845621
62.340 14.66211
62.345 14.972701
62.350 15.456408
62.355 15.345109
62.360 15.432056
62.365 15.46661
62.370 15.341811
62.375 15.795605
62.380 15.546221
62.385 14.77149
62.390 14.377352
62.395 14.3989
62.400 14.477914
62.405 14.485893
62.410 14.901281
62.415 15.085965
62.420 15.163054
62.425 15.461347
62.430 15.355537
62.435 15.486932
62.440 15.527091
62.445 15.204054
62.450 16.216761
62.455 16.52528
62.460 16.524694
62.465 16.875031
62.470 16.807446
62.475 16.970509
62.480 16.691025
62.485 15.92938
62.490 15.544205
62.495 15.11124
62.500 14.717505
62.505 14.196964
62.510 13.890356
62.515 13.488635
62.520 13.186694
62.525 13.748707
62.530 13.959778
62.535 14.133292
62.540 14.779487
62.545 14.35008
62.550 14.841593
62.555 15.057323
62.560 14.655285
62.565 14.606362
62.570 13.900615
62.575 13.512837
62.580 13.528846
62.585 13.12016
62.590 12.245152
62.595 12.041599
62.600 12.212924
62.605 12.571999
62.610 12.891064
62.615 13.397527
62.620 13.146757
62.625 14.035367
62.630 14.186105
62.635 13.853672
62.640 14.153668
62.645 14.032294
62.650 13.948671
62.655 14.306832
62.660 14.210004
62.665 14.293285
62.670 14.727725
62.675 14.63869
62.680 14.575589
62.685 14.860126
62.690 15.669607
62.695 16.284582
62.700 16.586489
62.705 16.542732
62.710 16.632786
62.715 16.504986
62.720 16.12603
62.725 15.79878
62.730 15.39525
62.735 15.438622
62.740 15.739102
62.745 15.790251
62.750 16.487274
62.755 16.761129
62.760 16.917616
62.765 16.52787
62.770 16.248165
62.775 15.682012
62.780 15.404167
62.785 14.959188
62.790 15.073644
62.795 15.077246
62.800 15.171897
62.805 15.012712
62.810 14.990726
62.815 15.72402
62.820 15.858922
62.825 15.431599
62.830 15.114126
62.835 15.256973
62.840 15.678164
62.845 15.721482
62.850 15.014096
62.855 14.819073
62.860 15.233891
62.865 15.371359
62.870 15.896933
62.875 15.929176
62.880 16.268072
62.885 16.213785
62.890 15.628018
62.895 15.281508
62.900 14.852809
62.905 14.161654
62.910 13.966761
62.915 13.991931
62.920 13.898332
62.925 14.626707
62.930 14.670242
62.935 15.453026
62.940 15.854215
62.945 15.48345
62.950 15.406552
62.955 15.775358
62.960 15.189417
62.965 14.962101
62.970 14.602662
62.975 14.433174
62.980 14.512749
62.985 14.25653
62.990 14.317896
62.995 14.401901
63.000 15.133619
63.005 14.827795
63.010 14.968234
63.015 15.073649
63.020 14.994725
63.025 15.196101
63.030 15.431006
63.035 15.08444
63.040 15.554123
63.045 15.739832
63.050 16.140379
63.055 16.236609
63.060 16.180523
63.065 15.955553
63.070 15.948262
63.075 15.234035
63.080 14.81389
63.085 14.959148
63.090 15.382837
63.095 15.514028
63.100 15.613019
63.105 15.371069
63.110 16.136656
63.115 16.552927
63.120 16.365376
63.125 15.959263
63.130 15.962435
63.135 15.730838
63.140 15.619869
63.145 15.079489
63.150 14.656116
63.155 14.559421
63.160 14.452767
63.165 14.213888
63.170 14.483526
63.175 15.02904
63.180 15.140537
63.185 15.364159
63.190 15.39734
63.195 15.587831
63.200 15.675219
63.205 15.661677
63.210 15.467937
63.215 15.213338
63.220 14.948339
63.225 14.700815
63.230 14.775885
63.235 14.590999
63.240 14.595887
63.245 14.600759
63.250 15.047412
63.255 15.277741
63.260 15.110451
63.265 14.520256
63.270 14.613449
63.275 14.230622
63.280 13.958169
63.285 13.988134
63.290 13.879547
63.295 14.422893
63.300 14.959322
63.305 15.060919
63.310 16.249081
63.315 16.17498
63.320 15.932533
63.325 16.318121
63.330 16.448521
63.335 15.957788
63.340 15.980287
63.345 15.407841
63.350 15.76993
63.355 16.031345
63.360 15.55618
63.365 15.206676
63.370 15.474291
63.375 15.138777
63.380 15.144873
63.385 15.460531
63.390 15.24999
63.395 15.620141
63.400 15.499109
63.405 14.866808
63.410 14.514323
63.415 14.369861
63.420 13.919253
63.425 13.682771
63.430 13.146208
63.435 13.313641
63.440 14.011852
63.445 14.412843
63.450 14.234589
63.455 14.309028
63.460 14.987167
63.465 15.316874
63.470 15.56773
63.475 15.611657
63.480 15.663413
63.485 16.005148
63.490 16.024052
63.495 16.178688
63.500 16.471554
63.505 16.708075
63.510 16.841629
63.515 16.681429
63.520 16.38801
63.525 16.390232
63.530 15.889825
63.535 15.513901
63.540 14.941436
63.545 14.812032
63.550 14.865543
63.555 15.293818
63.560 15.451606
63.565 15.516676
63.570 15.471462
63.575 15.329185
63.580 15.275289
63.585 15.233849
63.590 15.037172
63.595 15.087704
63.600 15.275638
63.605 15.948333
63.610 16.314356
63.615 16.329161
63.620 16.714552
63.625 16.730982
63.630 16.399649
63.635 16.412565
63.640 16.050804
63.645 16.380693
63.650 16.500645
63.655 16.215231
63.660 16.093208
63.665 16.528727
63.670 16.877087
63.675 17.010288
63.680 16.986757
63.685 17.126385
63.690 17.091963
63.695 17.06282
63.700 16.770664
63.705 16.383881
63.710 16.006834
63.715 15.873637
63.720 15.951212
63.725 16.236938
63.730 16.251822
63.735 16.667727
63.740 16.466688
63.745 16.351147
63.750 16.319283
63.755 15.932991
63.760 15.630806
63.765 15.61727
63.770 15.297913
63.775 15.506985
63.780 15.687061
63.785 15.564998
63.790 15.746021
63.795 16.188801
63.800 16.223553
63.805 15.799582
63.810 15.980112
63.815 16.074306
63.820 15.953712
63.825 15.414662
63.830 14.781034
63.835 14.874152
63.840 15.585445
63.845 16.100735
63.850 16.178938
63.855 16.025206
63.860 16.369637
63.865 16.271261
63.870 16.021866
63.875 15.912005
63.880 15.419728
63.885 15.531403
63.890 15.948838
63.895 16.051651
63.900 16.387997
63.905 16.929077
63.910 16.545584
63.915 16.082733
63.920 16.377522
63.925 16.890985
63.930 16.934586
63.935 17.159464
63.940 17.060064
63.945 17.775961
63.950 18.561539
63.955 18.311823
63.960 18.103142
63.965 18.12224
63.970 17.806225
63.975 18.023436
63.980 18.146849
63.985 18.070303
63.990 18.675859
63.995 19.256376
64.000 19.64436
64.005 20.250059
64.010 20.022863
64.015 20.099171
64.020 19.765017
64.025 19.046545
64.030 19.122889
64.035 18.697273
64.040 18.77187
64.045 19.707672
64.050 19.759676
64.055 19.80715
64.060 19.917988
64.065 19.77281
64.070 20.329041
64.075 20.48667
64.080 19.762249
64.085 19.84297
64.090 20.166426
64.095 20.799994
64.100 21.177448
64.105 21.402096
64.110 21.516281
64.115 22.435028
64.120 23.053505
64.125 23.393881
64.130 23.476721
64.135 23.978977
64.140 24.412342
64.145 24.603451
64.150 25.135323
64.155 25.309727
64.160 25.506449
64.165 25.28562
64.170 25.081186
64.175 25.031898
64.180 25.826994
64.185 25.738655
64.190 26.452145
64.195 26.732952
64.200 26.872711
64.205 26.722757
64.210 26.408968
64.215 25.399994
64.220 24.339212
64.225 24.028635
64.230 24.20055
64.235 24.271441
64.240 25.70154
64.245 27.063473
64.250 28.245041
64.255 30.202581
64.260 30.970818
64.265 31.660198
64.270 31.872677
64.275 31.404415
64.280 30.95063
64.285 31.086899
64.290 31.324266
64.295 32.041084
64.300 32.668575
64.305 34.498943
64.310 36.145321
64.315 36.976994
64.320 37.436161
64.325 38.832855
64.330 39.992279
64.335 40.154366
64.340 39.882915
64.345 40.304268
64.350 41.04837
64.355 41.953773
64.360 42.6409
64.365 43.390114
64.370 44.831184
64.375 45.686203
64.380 45.788052
64.385 45.196896
64.390 45.44207
64.395 44.783218
64.400 44.563011
64.405 44.457901
64.410 44.569405
64.415 43.917217
64.420 44.414936
64.425 44.336266
64.430 43.89159
64.435 43.815804
64.440 44.183704
64.445 44.694969
64.450 45.34417
64.455 45.207787
64.460 45.553886
64.465 46.198193
64.470 46.717049
64.475 46.369324
64.480 45.851639
64.485 45.200371
64.490 44.688278
64.495 44.547131
64.500 45.388611
64.505 45.136948
64.510 44.541641
64.515 44.326977
64.520 44.313316
64.525 44.309395
64.530 43.766239
64.535 43.267494
64.540 42.151714
64.545 41.566589
64.550 41.223476
64.555 41.440224
64.560 40.727108
64.565 39.687973
64.570 37.740147
64.575 37.156708
64.580 36.658016
64.585 35.711094
64.590 35.134109
64.595 34.515892
64.600 35.180542
64.605 34.811504
64.610 34.952019
64.615 34.520695
64.620 33.826496
64.625 32.855389
64.630 32.446548
64.635 31.724697
64.640 31.99328
64.645 31.0515
64.650 30.351009
64.655 30.496651
64.660 30.601126
64.665 31.110071
64.670 29.929338
64.675 29.172359
64.680 30.04295
64.685 30.248278
64.690 30.092407
64.695 30.251324
64.700 30.126356
64.705 30.472904
64.710 30.298296
64.715 29.150366
64.720 28.591873
64.725 27.459589
64.730 26.137136
64.735 25.036932
64.740 24.743376
64.745 23.850023
64.750 23.509668
64.755 23.64043
64.760 23.589952
64.765 23.895586
64.770 23.613329
64.775 22.663652
64.780 21.992191
64.785 22.076111
64.790 21.867126
64.795 21.554075
64.800 21.855925
64.805 21.974735
64.810 22.255774
64.815 22.468826
64.820 22.251362
64.825 22.36026
64.830 22.928574
64.835 22.928652
64.840 22.363487
64.845 21.725142
64.850 21.586662
64.855 21.05925
64.860 20.389606
64.865 19.766018
64.870 19.371298
64.875 19.428566
64.880 19.633301
64.885 19.610718
64.890 20.157482
64.895 20.259441
64.900 20.288054
64.905 20.151829
64.910 20.515369
64.915 20.454941
64.920 20.438585
64.925 20.213476
64.930 20.461254
64.935 20.593918
64.940 20.906919
64.945 20.851639
64.950 21.139442
64.955 21.563059
64.960 22.115116
64.965 22.100285
64.970 22.114275
64.975 22.565067
64.980 23.344849
64.985 23.877224
64.990 24.538231
64.995 24.57007
65.000 24.517698
65.005 25.287621
65.010 25.568504
65.015 25.204746
65.020 25.56772
65.025 25.716908
65.030 25.531187
65.035 26.280453
65.040 26.100935
65.045 26.552076
65.050 27.128056
65.055 27.215807
65.060 27.092123
65.065 27.673084
65.070 27.626591
65.075 28.104746
65.080 28.099447
65.085 28.036764
65.090 28.23275
65.095 28.382303
65.100 29.403244
65.105 30.096264
65.110 30.516903
65.115 30.627657
65.120 30.58127
65.125 32.159245
65.130 33.247494
65.135 33.414879
65.140 33.858826
65.145 33.933388
65.150 34.547417
65.155 35.11581
65.160 34.677567
65.165 35.042221
65.170 35.170952
65.175 35.056042
65.180 35.072266
65.185 34.391815
65.190 33.803192
65.195 33.708679
65.200 33.481277
65.205 33.632126
65.210 33.34927
65.215 33.547554
65.220 34.048271
65.225 34.427876
65.230 33.932835
65.235 33.207367
65.240 33.047218
65.245 33.016754
65.250 32.704369
65.255 32.773258
65.260 32.549343
65.265 32.932549
65.270 34.003178
65.275 33.743336
65.280 33.569778
65.285 33.66946
65.290 33.377567
65.295 33.511108
65.300 33.082882
65.305 32.408104
65.310 32.709015
65.315 33.70734
65.320 35.205074
65.325 36.304958
65.330 37.004856
65.335 37.125103
65.340 37.753109
65.345 37.668667
65.350 37.121929
65.355 36.580772
65.360 36.52187
65.365 36.464031
65.370 36.642948
65.375 36.950489
65.380 37.253094
65.385 37.890717
65.390 37.937145
65.395 37.488323
65.400 37.370682
65.405 36.947224
65.410 36.734127
65.415 37.576904
65.420 36.383968
65.425 36.041599
65.430 36.187756
65.435 36.130482
65.440 36.800098
65.445 36.742695
65.450 35.889824
65.455 36.452423
65.460 36.590824
65.465 36.767204
65.470 37.168465
65.475 37.615398
65.480 37.414299
65.485 37.939648
65.490 37.482018
65.495 37.4221
65.500 36.987919
65.505 36.831154
65.510 36.042675
65.515 35.21265
65.520 34.848526
65.525 34.915874
65.530 34.45734
65.535 33.888767
65.540 33.574612
65.545 33.56551
65.550 33.976089
65.555 34.006588
65.560 34.097176
65.565 34.03307
65.570 34.517139
65.575 34.96241
65.580 35.78212
65.585 35.864933
65.590 35.03334
65.595 34.010708
65.600 34.381462
65.605 34.309063
65.610 34.08728
65.615 33.02557
65.620 32.94138
65.625 33.652958
65.630 33.948704
65.635 33.012501
65.640 33.067841
65.645 33.184017
65.650 33.065742
65.655 32.792553
65.660 33.205875
65.665 33.624626
65.670 34.054691
65.675 34.001469
65.680 33.532356
65.685 34.073452
65.690 33.655502
65.695 32.582321
65.700 32.59478
65.705 31.804792
65.710 31.542137
65.715 31.352262
65.720 31.227173
65.725 30.747629
65.730 30.864033
65.735 30.603758
65.740 30.324286
65.745 29.888561
65.750 28.613943
65.755 27.397966
65.760 27.26334
65.765 26.757139
65.770 26.034479
65.775 26.023176
65.780 25.897766
65.785 26.124802
65.790 26.280973
65.795 26.23609
65.800 26.149784
65.805 26.351229
65.810 26.346142
65.815 26.145954
65.820 26.091148
65.825 25.755024
65.830 25.1306
65.835 25.008516
65.840 25.340878
65.845 24.767094
65.850 24.487822
65.855 24.170479
65.860 24.470774
65.865 25.557137
65.870 25.115618
65.875 24.79421
65.880 24.7549
65.885 24.424463
65.890 24.013885
65.895 22.947224
65.900 21.57185
65.905 21.323454
65.910 20.478399
65.915 20.33168
65.920 20.454233
65.925 21.095627
65.930 21.775084
65.935 22.385571
65.940 22.376957
65.945 22.766537
65.950 22.93639
65.955 22.926289
65.960 21.85284
65.965 21.224995
65.970 21.563074
65.975 21.575392
65.980 21.608341
65.985 21.242085
65.990 21.185022
65.995 21.341106
66.000 21.554501
66.005 20.875429
66.010 20.704626
66.015 20.346001
66.020 20.170874
66.025 19.799482
66.030 19.531601
66.035 19.428654
66.040 18.9828
66.045 18.693497
66.050 18.756809
66.055 18.98745
66.060 18.564411
66.065 18.038221
66.070 17.938578
66.075 18.673422
66.080 18.769814
66.085 18.871273
66.090 19.137039
66.095 19.569269
66.100 19.988779
66.105 19.077765
66.110 18.878416
66.115 18.779236
66.120 18.547045
66.125 17.924643
66.130 17.381388
66.135 17.018957
66.140 17.459284
66.145 17.093737
66.150 17.176716
66.155 17.403048
66.160 17.360422
66.165 17.682178
66.170 17.902712
66.175 18.021341
66.180 18.415035
66.185 18.184877
66.190 17.98625
66.195 18.098179
66.200 17.782101
66.205 17.581795
66.210 17.141294
66.215 17.467718
66.220 17.954811
66.225 18.165834
66.230 18.100163
66.235 18.716219
66.240 18.633083
66.245 18.5889
66.250 17.662554
66.255 17.640511
66.260 17.938255
66.265 17.745632
66.270 17.056892
66.275 17.445438
66.280 17.628077
66.285 18.02458
66.290 17.566416
66.295 17.07551
66.300 17.372454
66.305 17.406536
66.310 17.502441
66.315 17.25366
66.320 17.113634
66.325 16.91383
66.330 16.548325
66.335 16.128202
66.340 15.763154
66.345 15.261198
66.350 15.335838
66.355 15.283561
66.360 15.708161
66.365 15.851422
66.370 16.592903
66.375 17.000908
66.380 17.255707
66.385 16.98197
66.390 17.357903
66.395 17.546133
66.400 17.820683
66.405 17.709387
66.410 17.787466
66.415 17.830034
66.420 17.857077
66.425 17.032402
66.430 16.296923
66.435 16.179646
66.440 16.249062
66.445 16.679417
66.450 16.448509
66.455 16.858986
66.460 18.086607
66.465 18.920084
66.470 18.714504
66.475 18.146259
66.480 17.803448
66.485 17.906506
66.490 17.587994
66.495 16.735533
66.500 16.357334
66.505 16.750751
66.510 16.598776
66.515 16.730566
66.520 17.027571
66.525 16.790876
66.530 16.785927
66.535 17.02511
66.540 16.841143
66.545 17.400562
66.550 17.130966
66.555 16.956469
66.560 17.299511
66.565 17.527212
66.570 17.317532
66.575 17.571772
66.580 17.297911
66.585 17.272064
66.590 17.303429
66.595 16.91099
66.600 16.656004
66.605 16.501123
66.610 16.028852
66.615 16.139259
66.620 16.025633
66.625 16.061451
66.630 16.159241
66.635 16.284395
66.640 16.596548
66.645 16.943485
66.650 16.535086
66.655 16.828728
66.660 16.429773
66.665 16.256445
66.670 16.481903
66.675 16.396286
66.680 16.63143
66.685 16.523754
66.690 16.372202
66.695 16.575596
66.700 16.941816
66.705 17.25672
66.710 17.075336
66.715 16.795805
66.720 16.962372
66.725 17.033245
66.730 17.069595
66.735 16.956263
66.740 16.581245
66.745 16.225658
66.750 15.963153
66.755 16.149576
66.760 16.622931
66.765 16.734413
66.770 16.853258
66.775 16.997242
66.780 17.480639
66.785 17.548449
66.790 16.828089
66.795 16.721605
66.800 16.886726
66.805 17.096724
66.810 17.394255
66.815 17.174879
66.820 17.409821
66.825 17.706778
66.830 17.351194
66.835 17.420345
66.840 17.235758
66.845 17.602047
66.850 18.058764
66.855 18.311872
66.860 18.883247
66.865 18.3818
66.870 17.699936
66.875 17.334501
66.880 17.089954
66.885 17.323414
66.890 17.537008
66.895 18.109056
66.900 18.683411
66.905 19.055809
66.910 19.033802
66.915 18.492027
66.920 17.414232
66.925 17.043119
66.930 16.187975
66.935 15.978157
66.940 15.710848
66.945 15.279106
66.950 15.082891
66.955 15.30245
66.960 15.399695
66.965 15.541147
66.970 16.052637
66.975 16.121046
66.980 16.595779
66.985 17.010351
66.990 16.898819
66.995 16.245962
67.000 15.604229
67.005 14.85543
67.010 15.091079
67.015 14.956117
67.020 15.031766
67.025 15.643925
67.030 15.988199
67.035 16.738781
67.040 17.310989
67.045 17.332075
67.050 17.300062
67.055 17.081068
67.060 16.819862
67.065 17.170965
67.070 16.652449
67.075 16.090778
67.080 16.265276
67.085 16.333113
67.090 16.893921
67.095 16.993685
67.100 16.952614
67.105 17.194448
67.110 17.441523
67.115 17.168335
67.120 16.935093
67.125 16.523607
67.130 16.821566
67.135 16.493198
67.140 16.802999
67.145 16.715418
67.150 16.969519
67.155 17.062843
67.160 16.577791
67.165 16.21545
67.170 16.634504
67.175 16.438072
67.180 16.272081
67.185 16.431408
67.190 16.460968
67.195 16.671824
67.200 16.747353
67.205 16.540329
67.210 16.849052
67.215 16.971836
67.220 16.760622
67.225 16.882025
67.230 16.715899
67.235 16.114397
67.240 15.954756
67.245 15.748428
67.250 15.082784
67.255 14.884545
67.260 15.100234
67.265 15.223497
67.270 15.363113
67.275 15.11666
67.280 15.194756
67.285 15.548487
67.290 15.462667
67.295 14.987145
67.300 15.492503
67.305 16.070005
67.310 16.523796
67.315 16.691896
67.320 17.181591
67.325 17.904228
67.330 18.109787
67.335 17.792238
67.340 18.006556
67.345 18.580835
67.350 18.642313
67.355 18.25725
67.360 17.949102
67.365 18.053198
67.370 18.085732
67.375 17.950027
67.380 17.585817
67.385 18.007858
67.390 18.301157
67.395 18.147997
67.400 18.221893
67.405 18.245985
67.410 17.780664
67.415 17.75655
67.420 17.176222
67.425 16.846684
67.430 17.171116
67.435 17.335777
67.440 17.024092
67.445 17.35029
67.450 16.979237
67.455 17.051191
67.460 17.204691
67.465 16.420595
67.470 15.946282
67.475 16.030689
67.480 16.298716
67.485 16.847822
67.490 16.71467
67.495 16.558554
67.500 16.741787
67.505 16.847578
67.510 16.726154
67.515 16.5966
67.520 16.847849
67.525 17.006943
67.530 17.148102
67.535 17.69158
67.540 17.800739
67.545 17.709381
67.550 17.25794
67.555 17.16493
67.560 17.038683
67.565 17.097973
67.570 16.528624
67.575 16.433489
67.580 16.475122
67.585 16.132174
67.590 15.774581
67.595 15.463367
67.600 15.11772
67.605 15.18367
67.610 15.24804
67.615 15.665675
67.620 16.108467
67.625 16.465019
67.630 17.073351
67.635 17.362003
67.640 17.312685
67.645 17.342213
67.650 17.197531
67.655 16.716272
67.660 16.201132
67.665 16.428633
67.670 16.273447
67.675 16.642141
67.680 16.879152
67.685 16.588823
67.690 16.816149
67.695 16.989998
67.700 16.69323
67.705 16.608685
67.710 16.367975
67.715 16.236721
67.720 16.266048
67.725 16.080923
67.730 16.503189
67.735 16.655647
67.740 17.107927
67.745 16.768118
67.750 16.398266
67.755 16.633636
67.760 17.121061
67.765 17.002541
67.770 16.436995
67.775 16.411474
67.780 16.619577
67.785 16.702288
67.790 16.458298
67.795 16.751244
67.800 17.245707
67.805 17.834909
67.810 17.633598
67.815 17.504997
67.820 17.657137
67.825 17.339033
67.830 16.607079
67.835 16.560186
67.840 16.662622
67.845 16.95401
67.850 17.345198
67.855 17.183996
67.860 17.68615
67.865 17.93259
67.870 17.040064
67.875 16.30003
67.880 16.043148
67.885 16.179766
67.890 17.059092
67.895 17.097153
67.900 17.546339
67.905 18.156542
67.910 18.753996
67.915 18.937319
67.920 18.078548
67.925 17.058575
67.930 16.80624
67.935 16.478733
67.940 16.52706
67.945 16.549179
67.950 16.104216
67.955 16.289156
67.960 16.402876
67.965 16.375002
67.970 16.525953
67.975 16.762785
67.980 16.608431
67.985 16.966307
67.990 17.469963
67.995 17.345179
68.000 17.043976
68.005 16.973454
68.010 16.686272
68.015 16.710602
68.020 17.043417
68.025 17.108265
68.030 17.665108
68.035 18.4312
68.040 18.294508
68.045 18.561419
68.050 18.664869
68.055 17.678476
68.060 17.004969
68.065 16.578035
68.070 16.373734
68.075 16.214304
68.080 16.04249
68.085 16.212992
68.090 17.108208
68.095 17.856171
68.100 18.033792
68.105 18.372068
68.110 18.860401
68.115 19.247889
68.120 19.414211
68.125 19.317564
68.130 19.249088
68.135 18.754234
68.140 18.240564
68.145 18.103722
68.150 17.468075
68.155 17.376764
68.160 17.545805
68.165 17.558498
68.170 17.831919
68.175 18.30253
68.180 17.96929
68.185 18.366934
68.190 18.816511
68.195 18.316256
68.200 18.079294
68.205 17.50626
68.210 17.23144
68.215 17.406496
68.220 17.562302
68.225 17.635313
68.230 18.035561
68.235 18.381626
68.240 18.955835
68.245 19.802963
68.250 19.752247
68.255 19.393997
68.260 19.154985
68.265 19.592659
68.270 20.051657
68.275 20.566198
68.280 20.081171
68.285 20.281303
68.290 20.820993
68.295 21.22007
68.300 21.330406
68.305 21.248888
68.310 20.871719
68.315 21.299309
68.320 21.609734
68.325 21.129622
68.330 20.802816
68.335 20.527729
68.340 20.495007
68.345 21.028408
68.350 22.001999
68.355 22.685852
68.360 23.506573
68.365 23.955902
68.370 24.154251
68.375 24.780283
68.380 25.200397
68.385 24.764694
68.390 24.523317
68.395 25.163517
68.400 25.388987
68.405 26.290485
68.410 26.719543
68.415 27.294872
68.420 28.094851
68.425 28.588108
68.430 28.384199
68.435 28.629513
68.440 28.6534
68.445 28.809523
68.450 29.472609
68.455 29.694412
68.460 29.930027
68.465 29.69364
68.470 29.755253
68.475 30.027855
68.480 30.405939
68.485 29.434137
68.490 29.961174
68.495 29.992815
68.500 30.187639
68.505 30.670103
68.510 30.045883
68.515 29.64217
68.520 30.196569
68.525 30.21162
68.530 30.252609
68.535 30.658096
68.540 31.146057
68.545 30.816971
68.550 31.359686
68.555 31.40547
68.560 31.188242
68.565 31.488508
68.570 31.509012
68.575 31.62307
68.580 32.04768
68.585 31.65444
68.590 31.158255
68.595 31.48097
68.600 32.13081
68.605 32.409252
68.610 32.979843
68.615 32.309891
68.620 31.930794
68.625 32.14867
68.630 32.706707
68.635 32.424648
68.640 32.421349
68.645 32.363522
68.650 33.03754
68.655 33.515209
68.660 33.3106
68.665 33.081844
68.670 33.153122
68.675 32.614765
68.680 32.459915
68.685 32.808704
68.690 32.721161
68.695 32.725586
68.700 32.530266
68.705 32.726662
68.710 32.718784
68.715 32.734921
68.720 32.358288
68.725 32.703648
68.730 32.407417
68.735 32.339161
68.740 32.535114
68.745 32.694195
68.750 32.982067
68.755 33.382687
68.760 33.204243
68.765 33.8885
68.770 33.835987
68.775 33.063656
68.780 33.402733
68.785 33.281353
68.790 33.320709
68.795 33.830139
68.800 33.564949
68.805 32.746265
68.810 32.624279
68.815 32.075706
68.820 31.739056
68.825 31.289305
68.830 30.607096
68.835 31.097984
68.840 31.152609
68.845 31.116955
68.850 31.405758
68.855 31.490089
68.860 31.740206
68.865 31.245232
68.870 30.914976
68.875 31.358221
68.880 31.224613
68.885 30.235796
68.890 29.302092
68.895 29.216524
68.900 29.135679
68.905 28.616028
68.910 28.8256
68.915 29.105768
68.920 30.0546
68.925 30.683613
68.930 31.018192
68.935 31.649075
68.940 31.253574
68.945 30.1569
68.950 29.550173
68.955 28.481731
68.960 28.352331
68.965 28.044878
68.970 27.992968
68.975 27.843803
68.980 27.938135
68.985 27.910786
68.990 28.559788
68.995 28.525227
69.000 27.279177
69.005 26.314999
69.010 26.25313
69.015 26.048094
69.020 25.887321
69.025 25.863926
69.030 26.185987
69.035 26.639616
69.040 26.395573
69.045 26.299992
69.050 25.81002
69.055 25.857857
69.060 25.044176
69.065 24.694473
69.070 24.015259
69.075 23.729191
69.080 24.026302
69.085 24.508783
69.090 24.438688
69.095 23.960234
69.100 24.223194
69.105 24.507236
69.110 24.028156
69.115 23.783176
69.120 23.404327
69.125 23.144258
69.130 22.916561
69.135 22.305523
69.140 22.641157
69.145 23.046642
69.150 23.162292
69.155 22.809698
69.160 22.744181
69.165 23.048256
69.170 22.885094
69.175 22.974253
69.180 22.960403
69.185 22.757656
69.190 22.930626
69.195 23.079231
69.200 22.775326
69.205 22.760258
69.210 21.579311
69.215 21.163353
69.220 20.264046
69.225 20.291374
69.230 19.919437
69.235 20.009142
69.240 19.773148
69.245 19.689051
69.250 19.400822
69.255 19.770908
69.260 19.296751
69.265 19.240246
69.270 19.357134
69.275 19.924547
69.280 19.939394
69.285 19.705675
69.290 19.593233
69.295 19.299236
69.300 19.091011
69.305 18.911474
69.310 18.634844
69.315 18.974199
69.320 19.879042
69.325 19.975462
69.330 19.627222
69.335 19.160646
69.340 18.242561
69.345 17.961372
69.350 17.963793
69.355 17.571146
69.360 18.106077
69.365 18.63751
69.370 18.887506
69.375 19.21833
69.380 19.116623
69.385 18.844107
69.390 18.278469
69.395 17.99478
69.400 17.716663
69.405 17.292429
69.410 17.290075
69.415 17.118139
69.420 16.671532
69.425 16.55076
69.430 17.187687
69.435 17.59491
69.440 18.36673
69.445 18.341616
69.450 18.442522
69.455 18.878958
69.460 18.783701
69.465 18.046143
69.470 17.964642
69.475 17.447853
69.480 17.224876
69.485 16.895041
69.490 16.848175
69.495 16.939558
69.500 17.051861
69.505 16.860125
69.510 16.98546
69.515 16.988087
69.520 17.210529
69.525 16.762091
69.530 16.799393
69.535 16.50597
69.540 16.482286
69.545 16.927708
69.550 17.587597
69.555 17.454462
69.560 17.540306
69.565 17.445038
69.570 17.584179
69.575 17.238026
69.580 16.569775
69.585 16.103811
69.590 16.418659
69.595 17.074524
69.600 16.985285
69.605 16.668987
69.610 17.070301
69.615 17.355799
69.620 17.469364
69.625 17.213064
69.630 16.601408
69.635 16.705288
69.640 17.321451
69.645 17.384895
69.650 17.442558
69.655 17.25078
69.660 17.387556
69.665 17.258686
69.670 17.210867
69.675 16.887068
69.680 16.804674
69.685 16.853392
69.690 16.521538
69.695 16.267193
69.700 17.239946
69.705 17.93121
69.710 18.060318
69.715 17.390814
69.720 17.446873
69.725 17.521479
69.730 17.845413
69.735 17.472618
69.740 16.911663
69.745 17.315054
69.750 17.939932
69.755 18.215372
69.760 18.832918
69.765 18.902145
69.770 19.115099
69.775 18.931454
69.780 18.642836
69.785 18.568214
69.790 18.946833
69.795 18.668411
69.800 18.535715
69.805 18.201513
69.810 18.552816
69.815 18.621443
69.820 18.64687
69.825 18.20294
69.830 17.711109
69.835 17.499901
69.840 17.506247
69.845 17.56654
69.850 17.355143
69.855 16.944405
69.860 17.005953
69.865 17.383291
69.870 17.729116
69.875 17.693235
69.880 17.84613
69.885 18.193411
69.890 18.217098
69.895 18.114473
69.900 18.316608
69.905 18.490791
69.910 18.205473
69.915 18.113312
69.920 17.797272
69.925 17.773909
69.930 17.411026
69.935 16.85891
69.940 16.991879
69.945 16.636822
69.950 16.87311
69.955 17.11871
69.960 17.213451
69.965 17.498531
69.970 17.23065
69.975 16.297089
69.980 16.245949
69.985 15.973892
69.990 16.275475
69.995 16.06369
70.000 15.518394
70.005 15.379239
70.010 16.112476
70.015 16.486101
70.020 16.15967
70.025 15.872506
70.030 16.440035
70.035 16.722002
70.040 16.691637
70.045 16.17528
70.050 15.714616
70.055 15.706232
70.060 15.743132
70.065 15.990581
70.070 16.428154
70.075 16.594488
70.080 17.163788
70.085 17.43598
70.090 17.258533
70.095 16.84407
70.100 16.263979
70.105 15.935887
70.110 16.181776
70.115 16.102184
70.120 16.363169
70.125 17.232458
70.130 17.751884
70.135 17.431253
70.140 17.852962
70.145 17.570402
70.150 17.886585
70.155 17.573235
70.160 17.152086
70.165 17.442934
70.170 17.452244
70.175 16.769419
70.180 16.954832
70.185 16.835226
70.190 16.823641
70.195 16.749609
70.200 16.814919
70.205 17.080427
70.210 17.008343
70.215 16.595901
70.220 16.47913
70.225 16.669298
70.230 16.254881
70.235 16.30134
70.240 17.035152
70.245 17.299095
70.250 17.348747
70.255 17.380003
70.260 17.25635
70.265 17.146751
70.270 16.379164
70.275 15.726826
70.280 15.761411
70.285 16.101097
70.290 15.958917
70.295 16.346886
70.300 16.524107
70.305 16.645941
70.310 16.948059
70.315 16.868025
70.320 16.819511
70.325 17.278288
70.330 17.195181
70.335 17.28689
70.340 17.75382
70.345 17.89739
70.350 18.002258
70.355 17.422884
70.360 17.265005
70.365 17.299652
70.370 17.354696
70.375 17.144978
70.380 17.15646
70.385 17.186853
70.390 17.034002
70.395 16.560154
70.400 16.496428
70.405 16.756536
70.410 16.213768
70.415 16.285183
70.420 16.234308
70.425 16.046577
70.430 16.040049
70.435 16.134909
70.440 15.705123
70.445 15.839073
70.450 15.482672
70.455 15.712829
70.460 15.956993
70.465 15.768065
70.470 15.791636
70.475 16.721493
70.480 16.897984
70.485 16.910601
70.490 17.061752
70.495 17.307652
70.500 17.548109
70.505 17.852396
70.510 17.656904
70.515 17.666386
70.520 17.512789
70.525 17.433193
70.530 17.338198
70.535 17.278975
70.540 17.181578
70.545 16.731443
70.550 16.757948
70.555 16.997232
70.560 16.739332
70.565 17.149807
70.570 16.872934
70.575 16.186256
70.580 16.304895
70.585 16.351553
70.590 16.20735
70.595 16.010662
70.600 15.678056
70.605 16.173195
70.610 17.117294
70.615 16.860931
70.620 16.882252
70.625 16.903601
70.630 16.724806
70.635 17.12048
70.640 16.854757
70.645 17.035255
70.650 17.458544
70.655 17.594303
70.660 18.084875
70.665 18.056299
70.670 17.369125
70.675 17.042208
70.680 16.528469
70.685 16.719698
70.690 16.766771
70.695 16.320305
70.700 16.280474
70.705 16.390514
70.710 16.30891
70.715 16.059128
70.720 15.649901
70.725 15.93574
70.730 16.491093
70.735 17.388977
70.740 17.492592
70.745 17.550999
70.750 17.749744
70.755 17.789536
70.760 17.479336
70.765 17.105093
70.770 16.472906
70.775 16.391514
70.780 16.133934
70.785 16.058996
70.790 15.813515
70.795 15.93068
70.800 16.249512
70.805 16.532242
70.810 16.877716
70.815 17.169205
70.820 17.795555
70.825 17.696932
70.830 17.436308
70.835 16.96427
70.840 17.170973
70.845 17.238214
70.850 16.760807
70.855 15.916345
70.860 16.183329
70.865 16.02117
70.870 15.695733
70.875 14.886822
70.880 14.549293
70.885 14.364441
70.890 14.423916
70.895 14.349717
70.900 14.88787
70.905 15.139297
70.910 15.535102
70.915 15.534691
70.920 16.166016
70.925 16.343334
70.930 15.892888
70.935 15.730939
70.940 15.800923
70.945 15.621235
70.950 15.632155
70.955 16.107948
70.960 16.466446
70.965 16.579651
70.970 16.950481
70.975 17.095871
70.980 17.12851
70.985 17.313562
70.990 16.555809
70.995 16.202473
71.000 16.017822
71.005 15.872945
71.010 15.880636
71.015 16.07093
71.020 16.305344
71.025 16.499535
71.030 16.975597
71.035 17.514322
71.040 17.524515
71.045 17.262672
71.050 17.296175
71.055 17.07634
71.060 16.681793
71.065 16.373318
71.070 15.707106
71.075 15.301167
71.080 15.125999
71.085 14.810495
71.090 14.976633
71.095 15.884983
71.100 15.723393
71.105 16.204058
71.110 16.877096
71.115 17.252928
71.120 17.451197
71.125 17.218187
71.130 17.560301
71.135 18.095577
71.140 18.115904
71.145 18.255234
71.150 18.649099
71.155 18.666954
71.160 18.663816
71.165 18.112875
71.170 18.130756
71.175 17.74897
71.180 17.719349
71.185 17.168814
71.190 16.851824
71.195 16.336794
71.200 15.877086
71.205 15.800785
71.210 15.525593
71.215 14.928674
71.220 14.773111
71.225 14.658302
71.230 14.343207
71.235 14.690828
71.240 14.604104
71.245 15.305135
71.250 16.210733
71.255 16.30212
71.260 16.90428
71.265 17.901707
71.270 18.142721
71.275 17.856459
71.280 17.580099
71.285 17.011925
71.290 16.967186
71.295 16.648703
71.300 16.047844
71.305 15.832997
71.310 16.052401
71.315 15.938202
71.320 16.000881
71.325 15.873193
71.330 15.607762
71.335 15.444949
71.340 15.459131
71.345 15.318233
71.350 15.767065
71.355 15.839622
71.360 15.889375
71.365 16.468012
71.370 16.361643
71.375 16.320858
71.380 16.126408
71.385 15.507162
71.390 15.372612
71.395 15.444776
71.400 15.141036
71.405 15.795965
71.410 15.930587
71.415 15.846533
71.420 16.148134
71.425 16.751846
71.430 16.879646
71.435 16.84733
71.440 16.593586
71.445 16.636108
71.450 16.677591
71.455 16.602612
71.460 16.129126
71.465 16.309637
71.470 16.864161
71.475 17.174438
71.480 17.497004
71.485 17.551815
71.490 17.48027
71.495 17.284023
71.500 17.30608
71.505 16.380833
71.510 16.110018
71.515 16.187372
71.520 16.383135
71.525 16.586857
71.530 16.575956
71.535 16.034523
71.540 16.33592
71.545 16.432577
71.550 16.181458
71.555 16.154869
71.560 16.266758
71.565 17.18014
71.570 17.373034
71.575 17.110304
71.580 17.514595
71.585 17.29705
71.590 17.377689
71.595 17.107218
71.600 16.824032
71.605 16.098848
71.610 15.780651
71.615 15.462247
71.620 15.492263
71.625 15.479587
71.630 15.668913
71.635 15.86056
71.640 16.903439
71.645 16.801786
71.650 16.491106
71.655 16.316885
71.660 15.972219
71.665 16.215776
71.670 15.834819
71.675 15.575387
71.680 16.006166
71.685 16.790792
71.690 17.086388
71.695 16.601841
71.700 16.8174
71.705 17.434278
71.710 17.595213
71.715 17.46417
71.720 17.484514
71.725 17.646011
71.730 17.720657
71.735 16.746424
71.740 16.693165
71.745 17.011644
71.750 16.7131
71.755 16.477057
71.760 16.73369
71.765 17.312447
71.770 17.416006
71.775 17.099621
71.780 17.012993
71.785 17.015594
71.790 17.39382
71.795 17.228613
71.800 17.006956
71.805 17.042896
71.810 17.197531
71.815 16.989758
71.820 17.215151
71.825 16.691187
71.830 16.536541
71.835 16.832529
71.840 17.073118
71.845 16.939356
71.850 17.634935
71.855 17.804512
71.860 18.275595
71.865 18.330837
71.870 18.060427
71.875 18.031301
71.880 17.774555
71.885 17.719309
71.890 17.313061
71.895 17.226313
71.900 17.266632
71.905 17.070896
71.910 17.552729
71.915 16.909378
71.920 16.604218
71.925 16.705051
71.930 16.470379
71.935 16.656647
71.940 16.279757
71.945 15.826285
71.950 16.443733
71.955 16.945148
71.960 17.117775
71.965 17.214649
71.970 17.688343
71.975 18.170801
71.980 18.840801
71.985 18.670603
71.990 18.85813
71.995 19.264534
72.000 18.970798
72.005 18.505976
72.010 18.205769
72.015 17.943985
72.020 17.809944
72.025 16.865784
72.030 16.852852
72.035 16.861076
72.040 17.002541
72.045 17.26964
72.050 17.285143
72.055 16.995728
72.060 16.574781
72.065 16.452929
72.070 16.551544
72.075 16.799158
72.080 16.611202
72.085 16.912861
72.090 17.35051
72.095 17.804089
72.100 17.738129
72.105 17.545719
72.110 17.342552
72.115 16.880001
72.120 16.181618
72.125 16.152336
72.130 15.641109
72.135 15.856111
72.140 16.163206
72.145 15.969531
72.150 16.247175
72.155 16.77177
72.160 16.789354
72.165 16.957502
72.170 16.935675
72.175 16.813023
72.180 16.686331
72.185 16.65889
72.190 16.662273
72.195 16.752254
72.200 15.941981
72.205 15.866258
72.210 15.731156
72.215 15.781748
72.220 15.279179
72.225 14.871664
72.230 14.953547
72.235 15.079538
72.240 15.061478
72.245 14.885695
72.250 14.856486
72.255 15.065068
72.260 15.664508
72.265 16.319031
72.270 16.361534
72.275 16.664236
72.280 16.814518
72.285 17.457577
72.290 17.576685
72.295 17.141777
72.300 17.280029
72.305 16.855736
72.310 16.291542
72.315 16.638884
72.320 16.259083
72.325 15.533079
72.330 14.796032
72.335 15.124836
72.340 15.342319
72.345 15.473485
72.350 15.352618
72.355 16.352116
72.360 17.390593
72.365 17.590033
72.370 17.558229
72.375 17.792215
72.380 17.898401
72.385 17.702999
72.390 16.80328
72.395 16.962431
72.400 16.780008
72.405 16.833916
72.410 17.029896
72.415 17.142786
72.420 17.257946
72.425 17.29846
72.430 17.357988
72.435 17.253134
72.440 17.197357
72.445 17.116014
72.450 17.221025
72.455 16.703444
72.460 16.6443
72.465 16.477266
72.470 15.917461
72.475 15.662348
72.480 15.250188
72.485 15.071634
72.490 14.978967
72.495 14.735342
72.500 15.392337
72.505 15.472627
72.510 15.180786
72.515 14.982428
72.520 14.951737
72.525 14.741149
72.530 14.201483
72.535 14.197255
72.540 14.861871
72.545 15.1812
72.550 15.370136
72.555 15.883551
72.560 16.652834
72.565 16.973286
72.570 16.335045
72.575 16.301624
72.580 16.49794
72.585 16.512644
72.590 16.181602
72.595 16.152033
72.600 16.182913
72.605 16.316586
72.610 16.125992
72.615 16.405333
72.620 16.392414
72.625 16.229082
72.630 15.683596
72.635 15.677688
72.640 15.873984
72.645 15.394661
72.650 14.544751
72.655 14.784487
72.660 14.569913
72.665 14.650899
72.670 14.69443
72.675 14.923597
72.680 15.001272
72.685 15.37765
72.690 15.969695
72.695 16.135864
72.700 16.580584
72.705 15.958312
72.710 15.966182
72.715 16.223598
72.720 16.291723
72.725 16.308014
72.730 16.364384
72.735 15.745861
72.740 15.591992
72.745 15.328609
72.750 15.114466
72.755 14.573984
72.760 14.067481
72.765 14.262193
72.770 14.787135
72.775 15.17586
72.780 15.317392
72.785 15.2957
72.790 15.64232
72.795 16.348301
72.800 16.554047
72.805 16.37768
72.810 16.308479
72.815 16.042448
72.820 16.029026
72.825 15.506898
72.830 14.929421
72.835 14.650786
72.840 15.009585
72.845 15.786572
72.850 16.663404
72.855 17.092295
72.860 17.227644
72.865 17.697186
72.870 17.871708
72.875 17.41917
72.880 16.586651
72.885 15.847106
72.890 15.012987
72.895 15.054687
72.900 14.948357
72.905 14.860577
72.910 14.748776
72.915 14.782124
72.920 15.370192
72.925 15.46478
72.930 15.156678
72.935 14.607445
72.940 15.195356
72.945 15.389708
72.950 15.130721
72.955 15.219599
72.960 15.092142
72.965 14.941453
72.970 15.36294
72.975 15.431207
72.980 15.824591
72.985 16.286499
72.990 16.641006
72.995 17.365343
73.000 17.42197
