!@!!GADDS PLOTSO FILE: Chi integration type
!@!!Title/SampleName: map-88
!@!!Comment: ?
!@!!User: Bruker Instrument Administrator
!@!!Site: University of Illinois Chicago
!@!!Frame: map-88_01_000.gfrm
!@!!Wavelengths    1.54184   1.54056   1.54439
!@!!Frame angles: 2Theta: 63.000 Omega: 50.000 Phi: 0.000 Chi: 90.000
!@!!Integration range: 2Theta: 53.000 to 73.000  Gamma: -105.000 to -75.000
!@!!Integration method: bin normalized
!@!N
!@!SS
!@!M
!@!L 0.0 0.0 0.0 0.0
!@!XDegrees
!@!YCounts
53.000 8.773577
53.005 8.763741
53.010 8.365138
53.015 8.172864
53.020 8.175009
53.025 8.070024
53.030 8.328034
53.035 8.216198
53.040 7.977698
53.045 7.966794
53.050 8.011006
53.055 8.56777
53.060 8.99788
53.065 8.621129
53.070 8.33706
53.075 8.607841
53.080 9.16818
53.085 9.580229
53.090 9.225667
53.095 9.205641
53.100 9.363289
53.105 10.08364
53.110 9.70588
53.115 9.147149
53.120 8.707374
53.125 8.607094
53.130 8.53405
53.135 8.271386
53.140 8.075711
53.145 8.388381
53.150 8.351269
53.155 9.16367
53.160 9.29496
53.165 9.514214
53.170 9.746342
53.175 9.591798
53.180 9.298123
53.185 8.92885
53.190 7.911708
53.195 7.739841
53.200 7.813778
53.205 7.851843
53.210 8.179838
53.215 8.565199
53.220 8.914773
53.225 9.123728
53.230 8.915874
53.235 8.570431
53.240 8.490451
53.245 8.459945
53.250 8.625618
53.255 8.728189
53.260 8.910344
53.265 8.978827
53.270 8.673246
53.275 8.324464
53.280 8.503719
53.285 8.638923
53.290 8.826018
53.295 8.810869
53.300 9.315265
53.305 9.968801
53.310 9.929987
53.315 9.451838
53.320 9.095746
53.325 8.890817
53.330 8.594083
53.335 8.03797
53.340 8.366088
53.345 8.603098
53.350 8.616249
53.355 8.874213
53.360 8.911346
53.365 8.799799
53.370 8.479046
53.375 7.957176
53.380 7.838599
53.385 7.665287
53.390 7.571382
53.395 7.696303
53.400 8.281646
53.405 8.289624
53.410 8.466022
53.415 8.618365
53.420 9.136569
53.425 9.416183
53.430 8.964955
53.435 8.925817
53.440 9.135418
53.445 8.909538
53.450 8.906221
53.455 8.361364
53.460 8.62245
53.465 8.78883
53.470 8.528602
53.475 8.393195
53.480 8.900137
53.485 8.765932
53.490 8.428808
53.495 8.536606
53.500 8.620172
53.505 8.682526
53.510 8.304004
53.515 7.592722
53.520 7.401436
53.525 7.570288
53.530 6.953091
53.535 6.657217
53.540 6.875161
53.545 7.213795
53.550 7.755537
53.555 7.349002
53.560 7.080867
53.565 7.277948
53.570 7.45964
53.575 7.550116
53.580 7.790889
53.585 8.065508
53.590 8.520951
53.595 8.933239
53.600 9.287632
53.605 9.394214
53.610 9.339441
53.615 9.270368
53.620 9.238084
53.625 9.364194
53.630 9.126721
53.635 8.704796
53.640 8.128126
53.645 8.336396
53.650 8.272091
53.655 8.465297
53.660 8.7548
53.665 8.735276
53.670 9.160788
53.675 9.248486
53.680 9.151639
53.685 9.482607
53.690 9.637021
53.695 9.748751
53.700 9.490643
53.705 9.412354
53.710 9.272322
53.715 8.77206
53.720 8.593613
53.725 8.188691
53.730 7.998342
53.735 8.142155
53.740 7.910579
53.745 8.375349
53.750 8.560764
53.755 8.595343
53.760 8.591365
53.765 8.972799
53.770 9.261087
53.775 9.317698
53.780 9.522531
53.785 9.901648
53.790 9.524162
53.795 9.375566
53.800 9.049137
53.805 9.016291
53.810 8.836147
53.815 8.743353
53.820 8.614457
53.825 8.516984
53.830 8.512793
53.835 8.7962
53.840 8.967822
53.845 9.124779
53.850 8.690513
53.855 8.429588
53.860 9.102934
53.865 9.145529
53.870 8.742223
53.875 8.504395
53.880 8.267456
53.885 8.611551
53.890 8.838046
53.895 8.987524
53.900 8.648566
53.905 8.589709
53.910 8.58674
53.915 8.337938
53.920 8.020818
53.925 7.950205
53.930 8.373189
53.935 9.119074
53.940 9.448736
53.945 9.411133
53.950 9.833609
53.955 10.057993
53.960 9.5343
53.965 8.959446
53.970 8.924493
53.975 8.652706
53.980 8.880002
53.985 8.7675
53.990 8.897306
53.995 9.477292
54.000 9.296782
54.005 9.131915
54.010 9.453032
54.015 9.567535
54.020 9.317926
54.025 9.147592
54.030 9.174309
54.035 9.286882
54.040 9.212866
54.045 9.250959
54.050 9.52624
54.055 9.545943
54.060 9.48229
54.065 9.516882
54.070 9.476714
54.075 9.659681
54.080 9.434661
54.085 9.414877
54.090 9.463541
54.095 9.476748
54.100 9.314665
54.105 9.409649
54.110 9.478848
54.115 9.529955
54.120 9.408169
54.125 9.120142
54.130 8.777602
54.135 8.829194
54.140 9.098237
54.145 9.321989
54.150 9.367677
54.155 9.680971
54.160 9.713585
54.165 9.92695
54.170 9.891735
54.175 9.709617
54.180 9.495277
54.185 9.164666
54.190 9.397144
54.195 9.896136
54.200 10.035277
54.205 9.705038
54.210 9.623225
54.215 9.630422
54.220 9.69708
54.225 9.812513
54.230 9.571761
54.235 9.676702
54.240 9.847082
54.245 10.190682
54.250 10.495945
54.255 10.7166
54.260 10.82286
54.265 10.807909
54.270 10.499501
54.275 10.367014
54.280 10.444144
54.285 10.560349
54.290 10.478312
54.295 10.111383
54.300 10.276502
54.305 10.461052
54.310 10.42937
54.315 9.53795
54.320 9.284534
54.325 9.2207
54.330 9.518264
54.335 9.65657
54.340 9.628143
54.345 10.171404
54.350 10.675117
54.355 10.648292
54.360 10.174365
54.365 9.818995
54.370 10.09157
54.375 9.79326
54.380 9.270736
54.385 9.505723
54.390 9.574794
54.395 9.680643
54.400 9.803619
54.405 9.749413
54.410 10.257271
54.415 10.494866
54.420 10.589211
54.425 10.72217
54.430 11.020552
54.435 11.211898
54.440 11.090284
54.445 10.834805
54.450 10.366967
54.455 9.975272
54.460 10.010495
54.465 10.335521
54.470 10.325053
54.475 11.137293
54.480 11.327806
54.485 11.619716
54.490 11.787117
54.495 11.588584
54.500 11.325706
54.505 11.073276
54.510 10.697055
54.515 10.297282
54.520 10.240465
54.525 10.120938
54.530 10.274458
54.535 9.910568
54.540 9.563762
54.545 9.610005
54.550 10.415951
54.555 10.509085
54.560 10.348699
54.565 10.055691
54.570 10.093422
54.575 10.231907
54.580 10.337343
54.585 10.365232
54.590 10.088861
54.595 10.114391
54.600 10.282017
54.605 10.652412
54.610 10.594429
54.615 9.881576
54.620 9.925624
54.625 10.151942
54.630 10.332993
54.635 10.275096
54.640 10.072158
54.645 10.035501
54.650 9.936649
54.655 10.032115
54.660 10.200066
54.665 9.79452
54.670 9.709851
54.675 9.730625
54.680 10.314055
54.685 10.839033
54.690 10.522669
54.695 10.656854
54.700 11.136518
54.705 11.02879
54.710 10.427887
54.715 9.960283
54.720 9.788753
54.725 9.388447
54.730 9.108766
54.735 8.804461
54.740 8.974248
54.745 9.363821
54.750 9.517519
54.755 9.447307
54.760 9.661309
54.765 9.710299
54.770 9.69715
54.775 9.428204
54.780 9.339435
54.785 9.153193
54.790 9.167963
54.795 9.244723
54.800 9.191034
54.805 9.553446
54.810 9.381789
54.815 9.034738
54.820 9.421108
54.825 9.487256
54.830 9.393613
54.835 9.568578
54.840 9.638377
54.845 9.832146
54.850 10.029745
54.855 9.983024
54.860 10.001346
54.865 9.93325
54.870 9.567976
54.875 9.549257
54.880 9.928049
54.885 10.09072
54.890 10.083308
54.895 10.730556
54.900 11.359924
54.905 11.520178
54.910 11.642822
54.915 11.115644
54.920 10.767554
54.925 10.859627
54.930 10.333824
54.935 9.957838
54.940 9.69695
54.945 9.967567
54.950 10.854216
54.955 10.678222
54.960 10.711641
54.965 10.793773
54.970 10.653958
54.975 11.087619
54.980 10.63893
54.985 10.297606
54.990 10.225177
54.995 9.970798
55.000 9.973932
55.005 10.113499
55.010 9.986312
55.015 10.068763
55.020 10.320382
55.025 10.239455
55.030 10.336764
55.035 10.479319
55.040 10.41919
55.045 10.329752
55.050 9.818682
55.055 9.678932
55.060 9.947809
55.065 10.15681
55.070 10.010384
55.075 10.017686
55.080 10.420869
55.085 11.193198
55.090 10.976485
55.095 10.98895
55.100 10.598724
55.105 10.505298
55.110 10.381025
55.115 10.300716
55.120 9.884562
55.125 10.066549
55.130 9.85354
55.135 10.130943
55.140 10.021036
55.145 9.647776
55.150 9.619144
55.155 9.702049
55.160 9.799421
55.165 9.730225
55.170 9.802877
55.175 10.19613
55.180 10.328431
55.185 9.954751
55.190 10.104387
55.195 10.249717
55.200 10.209352
55.205 9.912894
55.210 9.782213
55.215 9.934692
55.220 10.353775
55.225 9.808129
55.230 9.577324
55.235 9.579619
55.240 9.722794
55.245 9.451228
55.250 9.191868
55.255 8.940475
55.260 9.168386
55.265 9.309186
55.270 9.368354
55.275 9.295832
55.280 9.445231
55.285 9.685678
55.290 9.870896
55.295 10.224004
55.300 10.244194
55.305 10.771523
55.310 10.864995
55.315 11.051593
55.320 11.199542
55.325 11.098189
55.330 10.923014
55.335 10.730788
55.340 10.317662
55.345 10.457028
55.350 10.316373
55.355 9.748712
55.360 9.604875
55.365 9.395505
55.370 9.31525
55.375 9.181056
55.380 9.057675
55.385 9.263668
55.390 9.565475
55.395 9.746275
55.400 9.599244
55.405 9.836075
55.410 10.249478
55.415 10.679016
55.420 10.666311
55.425 10.764287
55.430 11.08363
55.435 11.025262
55.440 10.755061
55.445 10.35472
55.450 9.776732
55.455 9.96011
55.460 10.385159
55.465 10.389788
55.470 10.915718
55.475 11.5431
55.480 11.783455
55.485 11.992086
55.490 11.878358
55.495 11.589749
55.500 12.123676
55.505 11.840197
55.510 11.423388
55.515 11.750194
55.520 11.759832
55.525 11.768858
55.530 11.990087
55.535 12.121546
55.540 12.536476
55.545 12.819668
55.550 13.188262
55.555 13.440947
55.560 13.525276
55.565 13.045056
55.570 12.751042
55.575 12.654693
55.580 12.277676
55.585 11.965465
55.590 12.040533
55.595 12.043203
55.600 12.625587
55.605 12.564548
55.610 12.605391
55.615 12.500284
55.620 11.922806
55.625 11.754788
55.630 11.697863
55.635 10.90787
55.640 10.558725
55.645 10.374646
55.650 10.395133
55.655 10.793653
55.660 10.844999
55.665 10.847144
55.670 10.824764
55.675 11.036024
55.680 11.26875
55.685 11.273356
55.690 11.322274
55.695 11.603909
55.700 11.490433
55.705 11.522911
55.710 10.939061
55.715 10.455629
55.720 10.511014
55.725 10.346833
55.730 10.175066
55.735 10.139573
55.740 10.633251
55.745 11.384149
55.750 11.622365
55.755 11.327742
55.760 10.979761
55.765 10.396677
55.770 10.437424
55.775 10.231118
55.780 9.947602
55.785 10.088549
55.790 10.292622
55.795 10.511807
55.800 10.894281
55.805 10.763611
55.810 10.533713
55.815 10.829664
55.820 10.825134
55.825 10.595469
55.830 10.569362
55.835 10.414652
55.840 10.730677
55.845 11.088451
55.850 10.960136
55.855 11.020866
55.860 11.47682
55.865 11.662733
55.870 11.549357
55.875 11.582987
55.880 11.798478
55.885 11.634906
55.890 11.656479
55.895 11.351034
55.900 11.241394
55.905 11.554031
55.910 11.309895
55.915 10.95028
55.920 11.384285
55.925 11.754885
55.930 11.94764
55.935 11.932846
55.940 11.964128
55.945 12.089099
55.950 12.610386
55.955 12.135262
55.960 11.900929
55.965 12.046828
55.970 11.910238
55.975 11.833436
55.980 11.858006
55.985 11.3224
55.990 11.310281
55.995 11.103325
56.000 10.567326
56.005 10.451086
56.010 10.356624
56.015 10.787973
56.020 11.356935
56.025 11.683198
56.030 12.168648
56.035 12.756597
56.040 13.372752
56.045 13.243492
56.050 12.661486
56.055 11.915611
56.060 11.146164
56.065 10.914457
56.070 10.921483
56.075 10.611696
56.080 10.67452
56.085 10.905741
56.090 11.484323
56.095 12.109612
56.100 11.732603
56.105 11.554712
56.110 11.934118
56.115 11.884984
56.120 11.820694
56.125 11.790317
56.130 11.885672
56.135 12.089051
56.140 12.283708
56.145 11.835799
56.150 11.724941
56.155 11.646483
56.160 11.432418
56.165 11.147546
56.170 11.225413
56.175 10.898732
56.180 10.730586
56.185 10.754724
56.190 11.425794
56.195 11.626039
56.200 11.742846
56.205 12.051777
56.210 12.462691
56.215 12.742875
56.220 12.659254
56.225 11.974065
56.230 11.910387
56.235 11.956718
56.240 11.893798
56.245 11.621471
56.250 11.382141
56.255 11.678856
56.260 11.760143
56.265 11.743828
56.270 11.314469
56.275 11.071746
56.280 11.773312
56.285 12.332707
56.290 12.298239
56.295 12.74293
56.300 12.862199
56.305 12.885891
56.310 12.872318
56.315 12.119374
56.320 11.64801
56.325 11.702381
56.330 11.354035
56.335 11.461868
56.340 11.479352
56.345 11.639936
56.350 12.155156
56.355 12.477379
56.360 11.933536
56.365 12.060187
56.370 11.853117
56.375 11.533222
56.380 11.165731
56.385 10.670704
56.390 10.526849
56.395 10.640418
56.400 10.727749
56.405 10.982599
56.410 11.600064
56.415 11.86208
56.420 12.074468
56.425 11.965823
56.430 11.665782
56.435 11.599056
56.440 11.352514
56.445 11.073244
56.450 11.173519
56.455 10.944263
56.460 11.250335
56.465 11.564945
56.470 11.9096
56.475 12.325268
56.480 12.252309
56.485 12.306626
56.490 12.757891
56.495 12.768188
56.500 12.801482
56.505 12.512869
56.510 12.38171
56.515 12.632273
56.520 12.484077
56.525 12.608831
56.530 12.584928
56.535 12.804973
56.540 13.028747
56.545 12.856536
56.550 12.877845
56.555 13.143665
56.560 13.067082
56.565 12.389941
56.570 12.063664
56.575 12.024191
56.580 12.461882
56.585 12.74843
56.590 12.560516
56.595 12.946195
56.600 13.369851
56.605 13.249799
56.610 13.136637
56.615 12.804844
56.620 12.21023
56.625 12.092627
56.630 11.746948
56.635 12.209477
56.640 12.021204
56.645 11.894656
56.650 11.95349
56.655 12.039628
56.660 11.839413
56.665 12.227733
56.670 12.192543
56.675 12.714523
56.680 12.770912
56.685 12.970502
56.690 13.223088
56.695 13.031169
56.700 12.503972
56.705 12.319829
56.710 12.350199
56.715 12.067191
56.720 12.043105
56.725 12.250629
56.730 12.543263
56.735 13.009392
56.740 12.927897
56.745 12.674242
56.750 12.694437
56.755 12.940454
56.760 12.62019
56.765 13.045403
56.770 13.214805
56.775 13.341514
56.780 13.47471
56.785 13.963227
56.790 14.007309
56.795 14.203676
56.800 13.550858
56.805 13.452229
56.810 13.776567
56.815 13.465906
56.820 12.982558
56.825 12.838185
56.830 12.90587
56.835 13.04715
56.840 12.503407
56.845 12.059884
56.850 12.380279
56.855 12.539532
56.860 12.161595
56.865 12.08639
56.870 11.872577
56.875 12.224476
56.880 12.192369
56.885 12.059013
56.890 11.812341
56.895 12.0705
56.900 12.148171
56.905 12.24345
56.910 12.38196
56.915 12.282359
56.920 12.078922
56.925 11.908645
56.930 11.418335
56.935 11.441192
56.940 10.782592
56.945 10.926709
56.950 11.409184
56.955 11.725489
56.960 12.360419
56.965 12.734508
56.970 13.326555
56.975 13.937212
56.980 13.36278
56.985 12.873453
56.990 12.704646
56.995 13.006779
57.000 13.436102
57.005 13.419455
57.010 13.556969
57.015 14.214111
57.020 14.40392
57.025 14.435357
57.030 14.090046
57.035 13.554876
57.040 12.987127
57.045 13.016009
57.050 12.68496
57.055 12.493477
57.060 12.337295
57.065 12.611018
57.070 12.429434
57.075 12.852095
57.080 12.573227
57.085 12.648643
57.090 13.211977
57.095 12.927141
57.100 12.499907
57.105 12.506826
57.110 12.22293
57.115 12.701559
57.120 12.538303
57.125 12.351344
57.130 12.475903
57.135 12.564824
57.140 12.854942
57.145 13.308995
57.150 13.291218
57.155 12.791124
57.160 12.039303
57.165 12.257175
57.170 12.342704
57.175 12.380895
57.180 11.74534
57.185 11.949625
57.190 12.69673
57.195 13.664696
57.200 13.70961
57.205 13.802299
57.210 13.489163
57.215 13.5855
57.220 13.045411
57.225 12.966096
57.230 12.95549
57.235 12.82281
57.240 12.749753
57.245 12.892743
57.250 13.212535
57.255 13.925174
57.260 14.059836
57.265 13.662601
57.270 13.504568
57.275 13.525863
57.280 13.393824
57.285 13.150897
57.290 12.784988
57.295 12.443974
57.300 12.351474
57.305 12.660751
57.310 12.196984
57.315 12.490344
57.320 12.824931
57.325 12.985066
57.330 13.220951
57.335 13.332942
57.340 13.473609
57.345 14.122252
57.350 13.45329
57.355 13.043223
57.360 13.115971
57.365 13.158944
57.370 13.408473
57.375 13.520336
57.380 13.446115
57.385 14.370584
57.390 14.796272
57.395 14.795735
57.400 14.560072
57.405 14.692724
57.410 13.856833
57.415 13.407341
57.420 12.799561
57.425 12.172669
57.430 12.03944
57.435 12.005017
57.440 11.667383
57.445 12.312563
57.450 12.318326
57.455 11.992221
57.460 11.910569
57.465 12.260795
57.470 12.254244
57.475 12.227614
57.480 13.011333
57.485 13.07222
57.490 13.299243
57.495 13.64179
57.500 13.358499
57.505 13.176068
57.510 12.832553
57.515 12.102017
57.520 12.746036
57.525 12.334492
57.530 12.051865
57.535 11.973169
57.540 12.403358
57.545 12.828918
57.550 13.142301
57.555 13.920371
57.560 14.90075
57.565 15.278868
57.570 15.694139
57.575 15.479354
57.580 14.845351
57.585 14.056978
57.590 13.139206
57.595 13.180837
57.600 13.092202
57.605 12.804305
57.610 13.203474
57.615 13.629481
57.620 13.520611
57.625 13.855452
57.630 13.678113
57.635 13.64859
57.640 13.770191
57.645 13.857059
57.650 13.979181
57.655 14.831299
57.660 14.851526
57.665 14.532161
57.670 14.191804
57.675 13.866532
57.680 14.050258
57.685 14.14049
57.690 14.081553
57.695 14.521858
57.700 14.931607
57.705 15.0399
57.710 15.16755
57.715 14.871585
57.720 14.577249
57.725 13.964522
57.730 13.256665
57.735 13.203497
57.740 13.212014
57.745 13.447957
57.750 13.563469
57.755 13.453423
57.760 13.448709
57.765 13.802447
57.770 13.887784
57.775 14.073032
57.780 13.401557
57.785 13.425731
57.790 13.62412
57.795 13.855866
57.800 13.360645
57.805 12.902224
57.810 12.870517
57.815 13.16004
57.820 13.225828
57.825 12.911179
57.830 12.711694
57.835 13.456989
57.840 13.88634
57.845 13.788567
57.850 13.674593
57.855 13.679639
57.860 13.597994
57.865 13.93997
57.870 13.549872
57.875 13.608705
57.880 13.570797
57.885 13.707588
57.890 13.959389
57.895 14.484523
57.900 14.486601
57.905 14.42884
57.910 14.841592
57.915 14.880856
57.920 14.973151
57.925 14.79379
57.930 14.91686
57.935 14.593843
57.940 14.416411
57.945 13.842484
57.950 14.176728
57.955 14.16663
57.960 14.126894
57.965 14.183699
57.970 14.103144
57.975 14.143482
57.980 14.156879
57.985 13.678024
57.990 13.883169
57.995 14.22799
58.000 14.133035
58.005 14.344559
58.010 14.312213
58.015 14.602942
58.020 14.417192
58.025 14.156819
58.030 14.034356
58.035 13.926972
58.040 13.71555
58.045 13.981213
58.050 14.262939
58.055 14.695073
58.060 15.028696
58.065 14.952395
58.070 15.040117
58.075 14.809621
58.080 14.22233
58.085 14.204865
58.090 14.822298
58.095 14.381525
58.100 14.194162
58.105 14.575339
58.110 15.466393
58.115 15.643246
58.120 15.248754
58.125 14.741563
58.130 14.737314
58.135 14.996035
58.140 14.731491
58.145 14.760404
58.150 14.750742
58.155 14.292334
58.160 14.073887
58.165 13.897901
58.170 13.749508
58.175 14.364691
58.180 13.918084
58.185 13.958915
58.190 14.636623
58.195 14.85881
58.200 15.197283
58.205 15.567584
58.210 15.678068
58.215 15.71846
58.220 16.034967
58.225 15.877833
58.230 16.18646
58.235 16.245548
58.240 15.568336
58.245 15.232559
58.250 15.438149
58.255 15.421169
58.260 15.741554
58.265 15.398099
58.270 15.655585
58.275 15.540089
58.280 15.445458
58.285 15.678891
58.290 15.523858
58.295 15.405275
58.300 15.092717
58.305 14.792212
58.310 15.354487
58.315 15.348701
58.320 15.226011
58.325 15.430515
58.330 14.888897
58.335 15.151994
58.340 14.761408
58.345 14.408504
58.350 14.485151
58.355 14.198895
58.360 13.606468
58.365 13.994702
58.370 14.342988
58.375 14.633704
58.380 14.637877
58.385 14.527222
58.390 14.647772
58.395 14.901658
58.400 14.981706
58.405 14.720572
58.410 14.701021
58.415 14.708452
58.420 15.042543
58.425 14.909659
58.430 14.800204
58.435 14.879754
58.440 15.020448
58.445 14.812726
58.450 15.008214
58.455 15.12303
58.460 15.464151
58.465 15.344419
58.470 14.905442
58.475 14.891884
58.480 14.963814
58.485 14.817834
58.490 14.357923
58.495 14.570113
58.500 14.847444
58.505 15.13472
58.510 15.292744
58.515 15.503802
58.520 15.162137
58.525 15.009681
58.530 15.01751
58.535 15.127609
58.540 15.082443
58.545 15.034495
58.550 14.722646
58.555 14.927032
58.560 14.789198
58.565 14.579391
58.570 15.106926
58.575 15.364011
58.580 15.24874
58.585 15.281215
58.590 15.332009
58.595 16.03759
58.600 16.03294
58.605 15.230482
58.610 15.421435
58.615 15.545036
58.620 16.097181
58.625 16.435684
58.630 16.844868
58.635 16.731541
58.640 17.221262
58.645 17.008453
58.650 17.069063
58.655 16.555174
58.660 16.404629
58.665 15.995981
58.670 16.188242
58.675 16.196632
58.680 16.056532
58.685 15.773723
58.690 15.983243
58.695 15.935619
58.700 15.758959
58.705 15.181184
58.710 14.620869
58.715 14.83556
58.720 15.120728
58.725 15.312435
58.730 15.416792
58.735 15.378701
58.740 15.474463
58.745 15.595765
58.750 15.561987
58.755 15.608427
58.760 15.434075
58.765 14.74632
58.770 14.818835
58.775 15.184785
58.780 15.144942
58.785 15.556774
58.790 16.114698
58.795 15.930107
58.800 16.661259
58.805 16.933784
58.810 16.963007
58.815 16.765411
58.820 16.023209
58.825 16.29125
58.830 16.667463
58.835 16.347788
58.840 15.793637
58.845 15.787536
58.850 15.984085
58.855 16.482647
58.860 15.780246
58.865 15.793345
58.870 16.74106
58.875 17.330381
58.880 17.085077
58.885 16.949762
58.890 17.026171
58.895 17.457428
58.900 17.024315
58.905 16.532822
58.910 16.354128
58.915 16.48465
58.920 16.540907
58.925 16.078207
58.930 16.341829
58.935 16.769783
58.940 16.900362
58.945 17.383217
58.950 17.991016
58.955 18.336226
58.960 18.820599
58.965 18.596983
58.970 18.414087
58.975 18.308542
58.980 18.265772
58.985 18.103529
58.990 18.133291
58.995 18.186131
59.000 18.465469
59.005 18.856277
59.010 19.597958
59.015 19.844049
59.020 19.611044
59.025 19.566814
59.030 19.050207
59.035 18.407444
59.040 18.314482
59.045 17.53583
59.050 17.185364
59.055 17.142511
59.060 17.222446
59.065 17.377541
59.070 17.590866
59.075 17.007044
59.080 17.409925
59.085 17.666859
59.090 17.946535
59.095 18.465883
59.100 18.387516
59.105 18.452835
59.110 18.931519
59.115 18.650105
59.120 18.901686
59.125 18.614006
59.130 17.978197
59.135 18.316759
59.140 18.785976
59.145 18.911503
59.150 18.625126
59.155 18.662241
59.160 18.555809
59.165 18.87512
59.170 18.987867
59.175 18.747192
59.180 18.569174
59.185 18.781477
59.190 18.652805
59.195 18.828978
59.200 18.933569
59.205 18.52821
59.210 18.478041
59.215 18.369299
59.220 18.560246
59.225 18.866688
59.230 18.74605
59.235 18.367689
59.240 18.591564
59.245 18.796541
59.250 18.911058
59.255 19.148861
59.260 19.150953
59.265 19.080507
59.270 18.760601
59.275 18.535358
59.280 18.5443
59.285 18.290331
59.290 18.146732
59.295 19.269138
59.300 19.725773
59.305 20.175377
59.310 20.643642
59.315 20.657419
59.320 20.921484
59.325 20.726191
59.330 19.760248
59.335 19.706224
59.340 19.642593
59.345 19.400463
59.350 19.649647
59.355 19.323399
59.360 18.692945
59.365 18.453257
59.370 18.430414
59.375 17.862053
59.380 17.177246
59.385 17.402777
59.390 18.337925
59.395 18.523748
59.400 18.928844
59.405 19.298378
59.410 20.219101
59.415 20.358986
59.420 19.603493
59.425 18.971228
59.430 19.516872
59.435 19.99155
59.440 20.02339
59.445 20.839338
59.450 21.128712
59.455 21.617899
59.460 22.525854
59.465 22.152798
59.470 22.042965
59.475 22.04443
59.480 21.261324
59.485 21.116056
59.490 20.638371
59.495 19.398657
59.500 19.520817
59.505 18.977465
59.510 18.718304
59.515 18.608103
59.520 18.815861
59.525 19.251383
59.530 20.367167
59.535 20.46707
59.540 20.826401
59.545 21.011057
59.550 21.52821
59.555 22.052336
59.560 22.057173
59.565 21.906303
59.570 21.479584
59.575 21.294943
59.580 21.156927
59.585 20.608292
59.590 19.999294
59.595 20.345501
59.600 20.541225
59.605 20.592222
59.610 20.802212
59.615 21.032679
59.620 20.805737
59.625 21.04841
59.630 20.889002
59.635 20.358551
59.640 20.250214
59.645 20.171415
59.650 19.924065
59.655 20.287941
59.660 20.209953
59.665 20.55456
59.670 20.424488
59.675 19.852636
59.680 19.57399
59.685 19.882578
59.690 20.052734
59.695 20.008568
59.700 20.455074
59.705 21.325253
59.710 22.432678
59.715 23.018229
59.720 23.12689
59.725 22.64459
59.730 22.694952
59.735 22.413025
59.740 22.703461
59.745 22.595306
59.750 21.836819
59.755 21.89839
59.760 22.757305
59.765 22.711145
59.770 22.642807
59.775 22.729248
59.780 22.554546
59.785 22.531811
59.790 22.365576
59.795 22.419504
59.800 22.554125
59.805 22.064356
59.810 21.840012
59.815 21.690758
59.820 21.734537
59.825 21.540741
59.830 20.73587
59.835 20.467327
59.840 20.183435
59.845 20.059299
59.850 20.854425
59.855 21.55303
59.860 21.903172
59.865 21.880136
59.870 22.384176
59.875 22.937035
59.880 23.050508
59.885 22.306532
59.890 22.074221
59.895 22.009459
59.900 22.899214
59.905 22.963884
59.910 23.041561
59.915 22.78227
59.920 23.07999
59.925 23.360584
59.930 23.469093
59.935 22.811729
59.940 22.227201
59.945 21.137463
59.950 20.447676
59.955 20.341784
59.960 20.432671
59.965 20.018738
59.970 19.877724
59.975 20.068102
59.980 20.405146
59.985 20.390186
59.990 19.9767
59.995 20.087854
60.000 20.570864
60.005 21.235876
60.010 21.291725
60.015 21.194229
60.020 21.270775
60.025 21.288832
60.030 20.182148
60.035 19.508158
60.040 19.294611
60.045 19.72497
60.050 19.920891
60.055 19.781439
60.060 19.994225
60.065 20.718996
60.070 21.23719
60.075 21.916506
60.080 21.728336
60.085 21.401739
60.090 21.417376
60.095 20.789284
60.100 20.248938
60.105 19.885687
60.110 18.951843
60.115 18.521309
60.120 18.985226
60.125 19.4282
60.130 19.617447
60.135 20.050751
60.140 20.201546
60.145 20.349733
60.150 20.186602
60.155 20.303617
60.160 20.148109
60.165 20.392752
60.170 20.248171
60.175 20.019754
60.180 19.690636
60.185 19.70035
60.190 19.316591
60.195 19.660166
60.200 19.403515
60.205 19.197155
60.210 19.519419
60.215 20.016075
60.220 20.288227
60.225 20.3384
60.230 20.217373
60.235 20.338593
60.240 19.898153
60.245 19.576731
60.250 19.800789
60.255 19.518736
60.260 19.101574
60.265 18.84973
60.270 18.672739
60.275 18.5254
60.280 18.118105
60.285 17.276207
60.290 17.275913
60.295 17.340649
60.300 16.701406
60.305 16.63859
60.310 16.704607
60.315 17.121532
60.320 17.262955
60.325 17.422455
60.330 17.560375
60.335 17.675236
60.340 17.721214
60.345 17.739378
60.350 17.676489
60.355 17.597197
60.360 17.45237
60.365 17.566513
60.370 17.86764
60.375 18.406406
60.380 18.817219
60.385 19.062607
60.390 18.958021
60.395 19.160069
60.400 19.243362
60.405 19.561682
60.410 19.275396
60.415 18.882643
60.420 18.387699
60.425 18.259979
60.430 17.664961
60.435 17.272331
60.440 16.847895
60.445 16.843813
60.450 16.897135
60.455 16.822941
60.460 16.893087
60.465 16.860052
60.470 16.84944
60.475 17.016029
60.480 17.128185
60.485 16.627064
60.490 16.374168
60.495 16.510431
60.500 16.809132
60.505 16.670429
60.510 16.613171
60.515 17.238289
60.520 17.934294
60.525 18.098257
60.530 18.147175
60.535 18.052898
60.540 18.058163
60.545 18.391924
60.550 18.246397
60.555 18.732912
60.560 19.18029
60.565 19.076403
60.570 19.400501
60.575 19.51071
60.580 18.473143
60.585 17.708786
60.590 16.829849
60.595 16.485876
60.600 16.403612
60.605 16.726974
60.610 17.378744
60.615 17.463102
60.620 17.348177
60.625 17.264685
60.630 17.207018
60.635 17.094963
60.640 16.248461
60.645 15.692082
60.650 15.699159
60.655 15.772447
60.660 15.863588
60.665 16.392492
60.670 16.335848
60.675 16.639027
60.680 16.424984
60.685 16.215101
60.690 16.611162
60.695 16.574202
60.700 16.230307
60.705 16.703316
60.710 15.898335
60.715 16.160599
60.720 16.33498
60.725 16.613855
60.730 16.533106
60.735 16.399998
60.740 15.898416
60.745 16.462645
60.750 16.393757
60.755 16.435493
60.760 16.039301
60.765 16.220076
60.770 15.9519
60.775 15.385811
60.780 14.588409
60.785 14.442405
60.790 14.586405
60.795 14.706372
60.800 15.041185
60.805 15.591858
60.810 16.301327
60.815 17.334375
60.820 17.717247
60.825 17.36256
60.830 17.008081
60.835 16.778837
60.840 16.681147
60.845 16.521339
60.850 16.228214
60.855 15.992436
60.860 15.972137
60.865 15.867589
60.870 15.365742
60.875 15.175043
60.880 15.15324
60.885 14.369234
60.890 14.028366
60.895 13.914943
60.900 13.770356
60.905 14.034966
60.910 13.947145
60.915 14.168378
60.920 14.665841
60.925 14.734957
60.930 14.771116
60.935 15.389353
60.940 15.335464
60.945 15.137913
60.950 15.497008
60.955 15.935395
60.960 16.225058
60.965 16.661444
60.970 16.448271
60.975 16.765738
60.980 17.104998
60.985 16.453823
60.990 15.781482
60.995 15.341711
61.000 14.992432
61.005 14.945405
61.010 15.083121
61.015 15.09972
61.020 15.328494
61.025 15.601665
61.030 15.917642
61.035 16.275515
61.040 15.997971
61.045 15.667599
61.050 15.185948
61.055 15.36741
61.060 15.830312
61.065 15.718505
61.070 15.607432
61.075 15.845057
61.080 15.996167
61.085 16.017286
61.090 16.012798
61.095 15.439715
61.100 15.476904
61.105 14.946945
61.110 14.565925
61.115 14.436167
61.120 14.998784
61.125 14.625433
61.130 14.872663
61.135 14.793058
61.140 15.264607
61.145 15.896349
61.150 16.091999
61.155 15.89987
61.160 16.489965
61.165 16.041458
61.170 15.762732
61.175 15.787023
61.180 14.766035
61.185 14.108458
61.190 13.952198
61.195 13.385866
61.200 13.94138
61.205 14.429582
61.210 14.339949
61.215 14.982216
61.220 15.728827
61.225 16.182949
61.230 15.828475
61.235 15.491817
61.240 15.081778
61.245 15.707812
61.250 15.839869
61.255 15.630445
61.260 15.879279
61.265 17.107889
61.270 17.116707
61.275 17.441204
61.280 17.252995
61.285 17.909145
61.290 17.455021
61.295 16.982279
61.300 16.509436
61.305 16.475447
61.310 16.302811
61.315 15.550219
61.320 14.550324
61.325 14.825154
61.330 15.402162
61.335 15.466451
61.340 15.499891
61.345 15.470711
61.350 15.856025
61.355 15.995322
61.360 15.725817
61.365 15.441762
61.370 15.164185
61.375 14.832952
61.380 14.6372
61.385 14.362658
61.390 14.768084
61.395 14.957353
61.400 14.954359
61.405 15.507399
61.410 15.640904
61.415 15.517219
61.420 16.183559
61.425 16.434761
61.430 16.338692
61.435 16.447134
61.440 15.977814
61.445 16.174683
61.450 16.316544
61.455 16.042063
61.460 15.72139
61.465 15.504435
61.470 15.096
61.475 14.648305
61.480 14.689937
61.485 14.470314
61.490 14.56384
61.495 14.241596
61.500 14.47448
61.505 15.014407
61.510 15.708278
61.515 15.653782
61.520 15.485553
61.525 15.111331
61.530 15.877261
61.535 16.085073
61.540 16.058821
61.545 16.553514
61.550 16.887375
61.555 17.462206
61.560 17.787289
61.565 17.497755
61.570 17.17098
61.575 17.112993
61.580 16.501444
61.585 16.051523
61.590 15.866803
61.595 15.513208
61.600 15.466626
61.605 15.455314
61.610 15.535395
61.615 15.898814
61.620 16.379488
61.625 16.954103
61.630 16.788124
61.635 16.165176
61.640 16.017414
61.645 15.458227
61.650 15.327087
61.655 14.623154
61.660 14.370648
61.665 14.506941
61.670 15.23549
61.675 15.337299
61.680 15.349873
61.685 15.729566
61.690 16.182701
61.695 16.071218
61.700 16.169857
61.705 15.980838
61.710 16.080109
61.715 16.312233
61.720 16.170433
61.725 16.334826
61.730 16.437428
61.735 16.895746
61.740 17.486244
61.745 17.653688
61.750 17.153488
61.755 17.157593
61.760 17.116409
61.765 16.825766
61.770 15.96838
61.775 15.100517
61.780 14.86442
61.785 15.026132
61.790 15.21586
61.795 15.426702
61.800 15.798697
61.805 15.795837
61.810 15.896521
61.815 15.893891
61.820 15.596345
61.825 15.602369
61.830 15.509506
61.835 15.863401
61.840 16.167229
61.845 16.345062
61.850 16.726753
61.855 18.090227
61.860 18.134892
61.865 18.246248
61.870 18.288141
61.875 18.229198
61.880 18.725435
61.885 19.174946
61.890 18.692684
61.895 18.837618
61.900 19.193987
61.905 19.253244
61.910 19.796045
61.915 19.533995
61.920 18.885408
61.925 18.987747
61.930 18.630945
61.935 17.882317
61.940 17.421587
61.945 17.105568
61.950 16.641878
61.955 17.257229
61.960 16.625196
61.965 16.014992
61.970 15.322818
61.975 15.580159
61.980 15.306149
61.985 15.101732
61.990 14.727581
61.995 15.154945
62.000 15.556107
62.005 16.269819
62.010 16.168251
62.015 16.217596
62.020 16.399368
62.025 15.945175
62.030 15.743939
62.035 15.694021
62.040 15.605797
62.045 15.540311
62.050 16.041935
62.055 16.309166
62.060 16.587395
62.065 16.945326
62.070 17.247728
62.075 17.176432
62.080 17.544489
62.085 17.184763
62.090 17.133644
62.095 17.465521
62.100 17.13455
62.105 16.92457
62.110 17.39304
62.115 17.451651
62.120 17.468704
62.125 17.607441
62.130 17.638218
62.135 17.403786
62.140 17.645168
62.145 17.459181
62.150 17.902365
62.155 18.370317
62.160 17.94665
62.165 17.759729
62.170 18.319883
62.175 18.740347
62.180 18.590775
62.185 17.720272
62.190 17.427839
62.195 17.79376
62.200 17.968319
62.205 17.208397
62.210 16.092125
62.215 15.76169
62.220 15.403122
62.225 15.193067
62.230 14.477407
62.235 14.461126
62.240 14.361151
62.245 14.746863
62.250 15.028258
62.255 15.208632
62.260 14.990835
62.265 15.133265
62.270 14.766903
62.275 15.961956
62.280 15.805673
62.285 16.098879
62.290 16.35725
62.295 16.635746
62.300 16.758436
62.305 16.315598
62.310 15.519852
62.315 15.450829
62.320 15.123285
62.325 15.101436
62.330 15.040886
62.335 15.484509
62.340 15.872662
62.345 15.793294
62.350 16.0319
62.355 16.157978
62.360 16.334471
62.365 16.623053
62.370 16.032457
62.375 16.288803
62.380 16.317318
62.385 16.482182
62.390 16.256884
62.395 16.034229
62.400 15.945225
62.405 15.907961
62.410 15.856874
62.415 16.677877
62.420 17.613026
62.425 17.728565
62.430 18.131401
62.435 18.572599
62.440 19.433231
62.445 19.952108
62.450 20.063536
62.455 19.466734
62.460 19.447088
62.465 19.065189
62.470 18.678186
62.475 18.461185
62.480 17.950855
62.485 16.89846
62.490 16.552998
62.495 16.366934
62.500 16.198637
62.505 15.930061
62.510 15.710557
62.515 15.550428
62.520 15.928872
62.525 15.903019
62.530 16.227125
62.535 16.207752
62.540 16.279608
62.545 16.540167
62.550 16.621971
62.555 16.521765
62.560 16.795851
62.565 16.577644
62.570 16.780355
62.575 16.558865
62.580 15.742668
62.585 15.829762
62.590 15.666626
62.595 15.706142
62.600 16.004129
62.605 16.054314
62.610 15.814997
62.615 15.882853
62.620 15.779278
62.625 15.843449
62.630 15.457903
62.635 14.884918
62.640 14.688659
62.645 15.115582
62.650 15.496842
62.655 15.479781
62.660 15.900787
62.665 16.405289
62.670 17.005888
62.675 17.539581
62.680 17.542738
62.685 17.398884
62.690 17.78714
62.695 17.057579
62.700 16.237078
62.705 16.005962
62.710 15.800486
62.715 16.426447
62.720 16.688515
62.725 16.786858
62.730 17.88306
62.735 18.681456
62.740 18.503473
62.745 18.422461
62.750 18.178793
62.755 18.009102
62.760 17.801655
62.765 16.868822
62.770 16.772198
62.775 17.199087
62.780 16.857004
62.785 16.707075
62.790 17.092003
62.795 17.247171
62.800 17.549009
62.805 17.161741
62.810 16.444679
62.815 16.459536
62.820 16.445278
62.825 16.546284
62.830 16.064791
62.835 15.735745
62.840 16.321856
62.845 16.870035
62.850 16.757069
62.855 16.08176
62.860 15.270479
62.865 15.392497
62.870 15.564613
62.875 15.677451
62.880 16.326468
62.885 16.649437
62.890 17.070198
62.895 17.593332
62.900 17.431183
62.905 17.969011
62.910 17.456947
62.915 17.054659
62.920 17.289291
62.925 17.292755
62.930 16.925386
62.935 17.119267
62.940 16.833912
62.945 16.988911
62.950 17.387899
62.955 17.965347
62.960 18.001997
62.965 18.167715
62.970 18.010185
62.975 17.876268
62.980 17.842497
62.985 16.870995
62.990 16.646515
62.995 16.76185
63.000 16.777924
63.005 16.561052
63.010 16.744328
63.015 16.357336
63.020 16.317581
63.025 16.030458
63.030 16.220236
63.035 16.436853
63.040 16.854546
63.045 16.352009
63.050 16.830717
63.055 16.531071
63.060 16.466204
63.065 16.718458
63.070 17.068125
63.075 17.204386
63.080 17.794243
63.085 17.86816
63.090 18.464294
63.095 18.033627
63.100 17.615862
63.105 17.245993
63.110 17.376781
63.115 16.983852
63.120 17.335295
63.125 17.78488
63.130 18.545246
63.135 18.474806
63.140 18.792135
63.145 18.309824
63.150 18.360165
63.155 18.117634
63.160 17.680311
63.165 16.968765
63.170 17.134256
63.175 16.586153
63.180 16.569704
63.185 16.26795
63.190 15.598542
63.195 15.168303
63.200 15.061735
63.205 14.400337
63.210 14.260588
63.215 14.801417
63.220 15.298061
63.225 15.462317
63.230 15.910722
63.235 15.797985
63.240 16.20134
63.245 16.59782
63.250 16.506056
63.255 16.59832
63.260 16.851101
63.265 17.045475
63.270 17.412167
63.275 17.62867
63.280 17.291868
63.285 16.857294
63.290 16.63213
63.295 16.399351
63.300 16.135279
63.305 16.299744
63.310 16.141001
63.315 16.560066
63.320 16.893394
63.325 16.645061
63.330 17.30163
63.335 17.455191
63.340 17.487253
63.345 17.459463
63.350 17.034805
63.355 17.16367
63.360 17.453405
63.365 17.528742
63.370 18.042698
63.375 17.854521
63.380 17.754025
63.385 17.973469
63.390 17.615984
63.395 17.635252
63.400 17.348915
63.405 16.780329
63.410 16.634085
63.415 16.628176
63.420 16.580795
63.425 16.57337
63.430 16.883301
63.435 16.783464
63.440 16.35264
63.445 16.545994
63.450 16.671598
63.455 16.386959
63.460 16.436474
63.465 16.424992
63.470 16.4177
63.475 16.500788
63.480 16.484545
63.485 16.370174
63.490 16.921856
63.495 16.96607
63.500 16.518476
63.505 16.445702
63.510 16.8305
63.515 17.422899
63.520 17.342449
63.525 16.715803
63.530 16.476788
63.535 17.279953
63.540 18.074602
63.545 17.701822
63.550 16.987013
63.555 16.969494
63.560 17.246992
63.565 17.081272
63.570 16.685194
63.575 16.499977
63.580 16.71644
63.585 17.079866
63.590 16.850004
63.595 16.656666
63.600 16.911161
63.605 16.39727
63.610 15.781202
63.615 15.48527
63.620 15.894585
63.625 16.986393
63.630 17.26424
63.635 17.026012
63.640 17.255928
63.645 17.200237
63.650 17.249187
63.655 16.64533
63.660 16.121344
63.665 16.037764
63.670 16.780289
63.675 17.244736
63.680 17.471363
63.685 18.057413
63.690 18.808355
63.695 18.811079
63.700 18.419538
63.705 17.8407
63.710 17.586792
63.715 17.856609
63.720 17.274412
63.725 16.935556
63.730 17.096771
63.735 17.917896
63.740 17.660982
63.745 17.675934
63.750 17.397934
63.755 17.562572
63.760 17.394514
63.765 17.248049
63.770 16.775187
63.775 16.656851
63.780 16.513271
63.785 16.752405
63.790 16.896008
63.795 17.030796
63.800 17.054857
63.805 17.025934
63.810 17.111607
63.815 17.133726
63.820 16.99304
63.825 16.981894
63.830 16.979218
63.835 16.921209
63.840 17.137182
63.845 17.53232
63.850 17.663309
63.855 17.193527
63.860 17.277184
63.865 17.313679
63.870 17.15345
63.875 16.692045
63.880 16.328024
63.885 16.770945
63.890 17.228237
63.895 17.356426
63.900 17.51136
63.905 17.405415
63.910 17.710371
63.915 17.706701
63.920 17.67145
63.925 17.45454
63.930 17.031078
63.935 16.636959
63.940 16.842775
63.945 17.493389
63.950 17.493715
63.955 17.294806
63.960 17.963737
63.965 18.223532
63.970 18.305813
63.975 18.560709
63.980 18.087465
63.985 17.42827
63.990 17.030718
63.995 16.74518
64.000 17.290867
64.005 17.414833
64.010 17.264891
64.015 17.617708
64.020 18.731857
64.025 18.894417
64.030 18.628719
64.035 18.720919
64.040 18.698818
64.045 19.10014
64.050 19.066374
64.055 18.01804
64.060 18.121185
64.065 18.157789
64.070 18.126802
64.075 18.309456
64.080 18.282791
64.085 18.682659
64.090 19.198555
64.095 19.228403
64.100 19.264101
64.105 18.72718
64.110 18.39905
64.115 17.697187
64.120 17.283915
64.125 17.504311
64.130 17.833059
64.135 17.885969
64.140 17.725039
64.145 17.571898
64.150 17.902874
64.155 18.230646
64.160 17.986904
64.165 17.558138
64.170 17.560158
64.175 17.628952
64.180 17.987787
64.185 17.966618
64.190 17.890944
64.195 18.083971
64.200 17.97064
64.205 17.838619
64.210 18.127672
64.215 18.149351
64.220 17.768648
64.225 17.249264
64.230 17.521742
64.235 17.646894
64.240 18.185682
64.245 18.244925
64.250 17.650442
64.255 17.897184
64.260 18.144379
64.265 18.19256
64.270 18.571365
64.275 18.044981
64.280 17.961002
64.285 18.553545
64.290 18.225943
64.295 18.528399
64.300 18.564419
64.305 18.129858
64.310 18.539993
64.315 18.677574
64.320 18.803555
64.325 19.482689
64.330 19.251966
64.335 19.417894
64.340 20.063187
64.345 19.961136
64.350 19.864822
64.355 20.023502
64.360 20.174353
64.365 19.911318
64.370 19.631399
64.375 19.341797
64.380 19.566038
64.385 19.329264
64.390 18.944826
64.395 19.312622
64.400 19.488121
64.405 19.602306
64.410 19.846727
64.415 19.635063
64.420 19.862539
64.425 19.852251
64.430 19.537397
64.435 19.452766
64.440 18.733997
64.445 18.081484
64.450 18.161324
64.455 18.799467
64.460 19.345007
64.465 20.00145
64.470 19.939413
64.475 20.709389
64.480 20.722069
64.485 20.354843
64.490 19.649311
64.495 19.605516
64.500 19.623407
64.505 19.093388
64.510 18.693369
64.515 18.909042
64.520 18.962168
64.525 19.196119
64.530 18.36359
64.535 17.828791
64.540 18.690729
64.545 18.983063
64.550 18.921432
64.555 18.721462
64.560 18.546373
64.565 18.951071
64.570 19.649715
64.575 19.552593
64.580 19.495501
64.585 19.814226
64.590 20.217323
64.595 19.938168
64.600 19.694868
64.605 18.950394
64.610 19.258724
64.615 19.936172
64.620 19.848295
64.625 20.261618
64.630 21.040977
64.635 21.036034
64.640 21.154678
64.645 21.42322
64.650 20.615513
64.655 20.770247
64.660 20.208231
64.665 19.871031
64.670 20.135592
64.675 20.497753
64.680 20.386417
64.685 21.248878
64.690 20.883451
64.695 21.249884
64.700 21.465042
64.705 21.622759
64.710 21.692987
64.715 21.822447
64.720 21.429043
64.725 21.691088
64.730 21.69235
64.735 21.179359
64.740 20.834654
64.745 20.200188
64.750 19.790213
64.755 19.533897
64.760 19.116009
64.765 19.081509
64.770 19.477024
64.775 19.664059
64.780 20.100517
64.785 20.10442
64.790 20.511583
64.795 21.404602
64.800 21.490446
64.805 21.438271
64.810 21.443586
64.815 21.29216
64.820 20.832064
64.825 20.39192
64.830 20.004896
64.835 19.921453
64.840 20.147116
64.845 20.491251
64.850 20.992037
64.855 22.011232
64.860 22.858074
64.865 22.730377
64.870 22.622032
64.875 22.208591
64.880 22.042784
64.885 22.169806
64.890 21.226587
64.895 20.324404
64.900 20.380726
64.905 20.459816
64.910 20.986681
64.915 21.285717
64.920 21.012138
64.925 21.667131
64.930 22.324274
64.935 22.766096
64.940 23.298367
64.945 23.766676
64.950 24.177858
64.955 24.717396
64.960 25.134892
64.965 25.652958
64.970 25.668125
64.975 24.9398
64.980 24.63604
64.985 24.479593
64.990 24.551271
64.995 24.22987
65.000 23.465466
65.005 23.614826
65.010 24.002771
65.015 23.75819
65.020 23.859095
65.025 24.250996
65.030 24.154415
65.035 24.518909
65.040 24.279139
65.045 24.008568
65.050 24.202478
65.055 22.791477
65.060 22.25602
65.065 22.338469
65.070 22.144711
65.075 22.117054
65.080 22.516293
65.085 22.92424
65.090 23.358732
65.095 23.205217
65.100 23.425457
65.105 23.885857
65.110 23.545753
65.115 23.199894
65.120 22.64501
65.125 23.167566
65.130 23.297119
65.135 23.022041
65.140 22.735996
65.145 23.23295
65.150 23.6113
65.155 23.339178
65.160 22.636885
65.165 22.698784
65.170 22.909184
65.175 22.596783
65.180 22.234604
65.185 21.486706
65.190 21.433907
65.195 22.196131
65.200 21.774889
65.205 21.888201
65.210 22.289091
65.215 22.550594
65.220 23.387108
65.225 23.862757
65.230 23.816242
65.235 24.038929
65.240 24.361801
65.245 24.781639
65.250 25.438095
65.255 25.554558
65.260 25.663633
65.265 25.795292
65.270 25.768967
65.275 25.426043
65.280 24.765505
65.285 24.351147
65.290 23.979731
65.295 23.672518
65.300 23.655107
65.305 23.647327
65.310 23.910315
65.315 23.785763
65.320 23.716518
65.325 23.902243
65.330 24.304077
65.335 24.458435
65.340 24.610085
65.345 24.614632
65.350 24.725567
65.355 25.145475
65.360 25.325638
65.365 25.682598
65.370 25.171829
65.375 25.477549
65.380 25.124725
65.385 24.750965
65.390 24.88826
65.395 25.261568
65.400 24.821491
65.405 25.36447
65.410 25.19393
65.415 25.761587
65.420 26.370512
65.425 26.341711
65.430 26.078548
65.435 26.516636
65.440 26.579266
65.445 26.280127
65.450 25.751362
65.455 25.671942
65.460 25.517202
65.465 25.305084
65.470 24.874743
65.475 24.932116
65.480 25.136349
65.485 26.022684
65.490 26.089924
65.495 26.216295
65.500 26.385368
65.505 26.811954
65.510 27.226362
65.515 27.160137
65.520 26.850449
65.525 26.937212
65.530 26.766064
65.535 27.042635
65.540 27.242416
65.545 27.729853
65.550 28.573092
65.555 28.55484
65.560 28.497257
65.565 28.403387
65.570 28.754667
65.575 28.492878
65.580 28.273767
65.585 27.825294
65.590 28.398289
65.595 28.593294
65.600 28.562784
65.605 28.992008
65.610 29.446177
65.615 28.906975
65.620 28.922665
65.625 29.627712
65.630 30.441914
65.635 30.63884
65.640 30.270123
65.645 30.476011
65.650 31.574541
65.655 32.140244
65.660 32.27718
65.665 31.769989
65.670 31.913357
65.675 31.220058
65.680 30.841518
65.685 29.902967
65.690 29.674894
65.695 29.210245
65.700 29.249664
65.705 29.219769
65.710 30.248415
65.715 30.850878
65.720 31.584694
65.725 31.974932
65.730 32.350025
65.735 32.801105
65.740 32.487865
65.745 32.552139
65.750 32.543228
65.755 32.531799
65.760 32.73283
65.765 32.453701
65.770 32.836815
65.775 33.284214
65.780 32.947041
65.785 33.158012
65.790 33.078884
65.795 33.029804
65.800 33.343624
65.805 32.351307
65.810 32.161316
65.815 32.33255
65.820 33.039444
65.825 32.911724
65.830 32.316578
65.835 32.100334
65.840 32.699696
65.845 33.30492
65.850 33.502895
65.855 32.60466
65.860 33.141323
65.865 34.458549
65.870 35.007198
65.875 35.643341
65.880 36.029659
65.885 36.175827
65.890 37.483089
65.895 37.092979
65.900 36.577946
65.905 36.657223
65.910 36.093922
65.915 35.167519
65.920 34.876804
65.925 33.683197
65.930 34.067802
65.935 33.81953
65.940 33.280876
65.945 33.607643
65.950 33.981728
65.955 34.155514
65.960 35.660397
65.965 34.922928
65.970 34.589466
65.975 34.762524
65.980 34.193432
65.985 33.802563
65.990 33.231354
65.995 32.78928
66.000 33.350128
66.005 33.877625
66.010 34.32687
66.015 35.047279
66.020 36.076355
66.025 36.778255
66.030 37.841545
66.035 38.640419
66.040 39.337029
66.045 40.005932
66.050 39.753056
66.055 39.119514
66.060 39.170471
66.065 39.031364
66.070 38.658131
66.075 38.351875
66.080 37.925407
66.085 38.046932
66.090 38.052711
66.095 38.257595
66.100 37.742085
66.105 37.691566
66.110 38.120663
66.115 37.954624
66.120 37.139858
66.125 38.329597
66.130 39.080292
66.135 38.594376
66.140 38.72625
66.145 38.189934
66.150 39.038445
66.155 39.172829
66.160 37.083958
66.165 36.745201
66.170 37.657013
66.175 37.926521
66.180 38.176785
66.185 37.545155
66.190 38.115364
66.195 38.621639
66.200 38.010101
66.205 38.403793
66.210 38.063232
66.215 37.803398
66.220 38.244759
66.225 37.821144
66.230 37.610611
66.235 37.587688
66.240 36.564041
66.245 36.023193
66.250 36.214085
66.255 35.726112
66.260 35.691715
66.265 36.402843
66.270 36.465508
66.275 36.207165
66.280 36.557201
66.285 36.359848
66.290 36.628948
66.295 36.405094
66.300 35.816841
66.305 35.788422
66.310 36.169724
66.315 36.344643
66.320 35.679119
66.325 35.383057
66.330 35.504379
66.335 35.579025
66.340 35.335007
66.345 35.124767
66.350 35.801811
66.355 36.647068
66.360 36.840454
66.365 36.607658
66.370 36.350349
66.375 36.579502
66.380 36.031094
66.385 34.685154
66.390 33.646805
66.395 33.434826
66.400 33.30061
66.405 33.544609
66.410 32.67181
66.415 32.478436
66.420 32.335022
66.425 32.883347
66.430 33.133205
66.435 33.23481
66.440 32.58326
66.445 31.712282
66.450 31.682135
66.455 32.219952
66.460 31.820055
66.465 31.236685
66.470 30.588387
66.475 30.632517
66.480 31.415766
66.485 32.114017
66.490 32.207989
66.495 31.532272
66.500 31.899836
66.505 31.5296
66.510 31.404934
66.515 30.297569
66.520 28.318039
66.525 27.099882
66.530 26.900675
66.535 26.647991
66.540 26.738182
66.545 26.466003
66.550 26.922764
66.555 27.473419
66.560 27.966928
66.565 28.220665
66.570 28.139866
66.575 28.453041
66.580 28.684959
66.585 28.708115
66.590 28.828024
66.595 28.852715
66.600 28.892578
66.605 28.39172
66.610 27.684811
66.615 27.389433
66.620 27.245268
66.625 27.372454
66.630 27.084333
66.635 26.64678
66.640 25.972975
66.645 25.572338
66.650 24.698776
66.655 23.594316
66.660 22.393545
66.665 21.551275
66.670 21.541149
66.675 21.861425
66.680 22.140064
66.685 22.787306
66.690 23.281574
66.695 23.519655
66.700 23.878786
66.705 23.651405
66.710 23.606464
66.715 23.195839
66.720 23.355967
66.725 22.697615
66.730 22.410715
66.735 22.356895
66.740 22.426325
66.745 22.780483
66.750 22.280588
66.755 21.560324
66.760 22.351088
66.765 22.931919
66.770 23.058802
66.775 22.581026
66.780 22.354362
66.785 23.013403
66.790 22.996958
66.795 22.336262
66.800 22.069464
66.805 22.402586
66.810 22.402063
66.815 22.309605
66.820 21.395126
66.825 21.174631
66.830 20.604935
66.835 20.226837
66.840 19.609314
66.845 20.389385
66.850 21.286085
66.855 21.637589
66.860 21.817503
66.865 22.857618
66.870 23.323421
66.875 23.332844
66.880 22.323618
66.885 21.851885
66.890 22.291489
66.895 21.870342
66.900 21.104488
66.905 20.592043
66.910 20.683336
66.915 20.732937
66.920 19.863966
66.925 19.552616
66.930 19.542162
66.935 19.573378
66.940 19.591137
66.945 20.310581
66.950 20.513206
66.955 20.87591
66.960 20.894175
66.965 21.485565
66.970 21.428297
66.975 21.098068
66.980 20.62089
66.985 20.190805
66.990 20.638632
66.995 20.590916
67.000 19.613373
67.005 20.316744
67.010 20.042852
67.015 19.141199
67.020 19.297245
67.025 19.225372
67.030 20.24601
67.035 21.04225
67.040 20.614256
67.045 20.766262
67.050 20.876963
67.055 20.969236
67.060 20.784489
67.065 20.109648
67.070 19.407562
67.075 19.251316
67.080 20.060392
67.085 19.956846
67.090 19.652912
67.095 19.661526
67.100 20.219322
67.105 21.152683
67.110 21.568106
67.115 21.26939
67.120 22.158482
67.125 22.158083
67.130 21.923779
67.135 21.861301
67.140 21.565161
67.145 21.753426
67.150 21.804495
67.155 21.540653
67.160 21.856207
67.165 21.814795
67.170 21.521744
67.175 21.876141
67.180 21.155245
67.185 21.536098
67.190 22.015467
67.195 21.835075
67.200 21.619047
67.205 21.567848
67.210 21.688915
67.215 21.748125
67.220 21.201674
67.225 20.953976
67.230 20.840647
67.235 20.609066
67.240 20.546148
67.245 19.791788
67.250 19.287733
67.255 19.083624
67.260 18.943922
67.265 19.159836
67.270 19.344606
67.275 19.335257
67.280 19.528046
67.285 20.096558
67.290 20.064581
67.295 20.464312
67.300 20.604048
67.305 20.768824
67.310 20.345289
67.315 20.295492
67.320 20.201305
67.325 20.353004
67.330 19.912546
67.335 19.464243
67.340 19.500357
67.345 20.04504
67.350 20.214869
67.355 20.133005
67.360 20.298988
67.365 20.644762
67.370 21.4872
67.375 21.913391
67.380 21.501068
67.385 21.243591
67.390 20.86591
67.395 20.284754
67.400 19.790735
67.405 19.271259
67.410 19.049974
67.415 18.893789
67.420 19.232323
67.425 20.243258
67.430 20.368544
67.435 20.517567
67.440 20.45228
67.445 20.168036
67.450 20.335661
67.455 20.187563
67.460 19.940187
67.465 20.070351
67.470 19.880045
67.475 19.817619
67.480 20.088299
67.485 19.829746
67.490 19.840206
67.495 20.277966
67.500 20.689865
67.505 20.803429
67.510 20.831156
67.515 20.900448
67.520 21.377218
67.525 21.134378
67.530 21.084963
67.535 20.916191
67.540 20.77408
67.545 20.534187
67.550 20.459557
67.555 19.873976
67.560 20.078083
67.565 19.926796
67.570 19.875713
67.575 20.246744
67.580 20.224821
67.585 20.480959
67.590 21.265821
67.595 21.480734
67.600 20.978363
67.605 20.680929
67.610 20.695442
67.615 20.974672
67.620 20.964434
67.625 21.142326
67.630 21.007162
67.635 21.33305
67.640 21.570122
67.645 21.358267
67.650 20.872398
67.655 20.61689
67.660 20.250792
67.665 20.254951
67.670 20.492519
67.675 21.018461
67.680 20.98591
67.685 20.989626
67.690 20.681921
67.695 20.231911
67.700 19.964334
67.705 19.94721
67.710 20.004141
67.715 19.980047
67.720 20.085892
67.725 20.389696
67.730 20.523067
67.735 20.764467
67.740 20.183796
67.745 20.345129
67.750 20.661974
67.755 20.064507
67.760 20.276049
67.765 20.773516
67.770 21.323883
67.775 22.139971
67.780 21.920019
67.785 21.755873
67.790 22.459305
67.795 22.451462
67.800 21.826866
67.805 21.306244
67.810 20.605711
67.815 20.275772
67.820 20.315592
67.825 19.777475
67.830 18.878643
67.835 18.647272
67.840 18.463192
67.845 18.960348
67.850 18.911604
67.855 19.013111
67.860 19.91498
67.865 20.312593
67.870 19.861021
67.875 19.245371
67.880 18.506483
67.885 18.593304
67.890 18.748442
67.895 17.823381
67.900 18.724468
67.905 19.436878
67.910 20.027187
67.915 20.297861
67.920 19.985144
67.925 19.722103
67.930 20.229811
67.935 20.016636
67.940 19.795513
67.945 19.198227
67.950 18.793995
67.955 18.733809
67.960 18.238735
67.965 17.720961
67.970 17.636274
67.975 18.160707
67.980 18.527401
67.985 19.000811
67.990 19.646978
67.995 20.017715
68.000 20.413342
68.005 19.923149
68.010 19.783699
68.015 20.468185
68.020 20.482996
68.025 20.044916
68.030 20.346092
68.035 20.443943
68.040 20.46294
68.045 20.227613
68.050 20.007843
68.055 20.750292
68.060 20.659182
68.065 20.282164
68.070 19.90836
68.075 20.213686
68.080 20.651436
68.085 20.667784
68.090 20.004921
68.095 20.094967
68.100 19.959553
68.105 21.006945
68.110 21.237606
68.115 20.362707
68.120 19.371874
68.125 19.840073
68.130 20.234045
68.135 20.580494
68.140 19.509146
68.145 18.636011
68.150 18.689785
68.155 18.908859
68.160 18.550161
68.165 18.525497
68.170 18.088411
68.175 18.529259
68.180 19.006521
68.185 19.571745
68.190 20.0977
68.195 20.638309
68.200 20.524345
68.205 20.800777
68.210 20.800337
68.215 21.217987
68.220 20.877758
68.225 20.797165
68.230 21.146112
68.235 21.034433
68.240 21.015329
68.245 21.44879
68.250 21.5935
68.255 21.7143
68.260 21.752728
68.265 21.796734
68.270 22.123747
68.275 21.451473
68.280 20.876335
68.285 20.8526
68.290 20.704504
68.295 19.987335
68.300 19.83716
68.305 19.572193
68.310 19.977108
68.315 19.902601
68.320 19.92779
68.325 19.514217
68.330 19.576778
68.335 18.720631
68.340 18.723766
68.345 18.938023
68.350 18.641008
68.355 18.358549
68.360 18.443701
68.365 18.959702
68.370 19.369728
68.375 19.148029
68.380 19.404076
68.385 20.037813
68.390 20.856087
68.395 20.619879
68.400 19.51107
68.405 19.3943
68.410 19.642569
68.415 19.089348
68.420 18.866207
68.425 18.749376
68.430 19.155798
68.435 19.722458
68.440 19.580435
68.445 19.499285
68.450 19.550293
68.455 19.44195
68.460 19.316236
68.465 19.204967
68.470 19.364111
68.475 19.137875
68.480 18.852516
68.485 18.768999
68.490 18.892723
68.495 19.2735
68.500 19.573727
68.505 19.781786
68.510 20.122673
68.515 20.712435
68.520 21.54883
68.525 21.78183
68.530 21.601902
68.535 21.08943
68.540 20.660757
68.545 20.711811
68.550 20.564787
68.555 20.321007
68.560 19.420988
68.565 19.576805
68.570 20.629913
68.575 21.06538
68.580 21.082378
68.585 20.696386
68.590 20.412264
68.595 20.536211
68.600 20.413321
68.605 19.889654
68.610 20.273968
68.615 20.490282
68.620 20.604067
68.625 20.279613
68.630 20.322618
68.635 20.272501
68.640 20.319286
68.645 20.283854
68.650 20.436926
68.655 21.003145
68.660 21.496904
68.665 21.548031
68.670 21.398932
68.675 21.027178
68.680 20.887051
68.685 20.612259
68.690 20.340874
68.695 20.397718
68.700 20.489799
68.705 19.97747
68.710 19.46633
68.715 19.645649
68.720 19.939661
68.725 20.307934
68.730 20.448013
68.735 20.768988
68.740 21.266174
68.745 21.48591
68.750 20.700653
68.755 20.726032
68.760 20.575819
68.765 20.769136
68.770 21.167631
68.775 21.530235
68.780 21.65938
68.785 21.897905
68.790 21.761814
68.795 21.73686
68.800 21.314272
68.805 21.119396
68.810 21.577448
68.815 21.667
68.820 21.588074
68.825 21.878431
68.830 22.49159
68.835 22.095928
68.840 21.86941
68.845 21.906395
68.850 22.448172
68.855 22.764549
68.860 22.307425
68.865 22.100962
68.870 22.713541
68.875 22.609297
68.880 22.040449
68.885 22.175419
68.890 22.441515
68.895 22.52158
68.900 22.246283
68.905 22.127989
68.910 22.539808
68.915 22.572569
68.920 21.798113
68.925 21.317533
68.930 21.318384
68.935 20.876743
68.940 20.958628
68.945 20.637663
68.950 20.568506
68.955 20.638819
68.960 20.703548
68.965 21.126413
68.970 21.268885
68.975 21.275057
68.980 21.279781
68.985 21.436195
68.990 21.653389
68.995 21.595785
69.000 21.898523
69.005 22.167019
69.010 21.842009
69.015 21.734207
69.020 21.782019
69.025 21.79854
69.030 21.144384
69.035 20.396252
69.040 20.594913
69.045 21.151989
69.050 21.365753
69.055 21.70886
69.060 22.554066
69.065 23.282551
69.070 24.130417
69.075 24.607079
69.080 24.622952
69.085 24.748251
69.090 25.086988
69.095 24.615299
69.100 24.802927
69.105 24.786798
69.110 25.049833
69.115 25.659744
69.120 25.706339
69.125 25.818016
69.130 26.203455
69.135 26.057772
69.140 26.050007
69.145 25.493784
69.150 25.249647
69.155 24.8102
69.160 24.265497
69.165 24.414936
69.170 25.186111
69.175 25.68487
69.180 25.610001
69.185 26.465548
69.190 27.091505
69.195 26.978172
69.200 26.39414
69.205 25.674763
69.210 25.366625
69.215 24.865107
69.220 24.614962
69.225 25.148392
69.230 25.8235
69.235 26.186859
69.240 25.726854
69.245 25.91939
69.250 26.936113
69.255 26.874264
69.260 26.797243
69.265 27.2097
69.270 27.797701
69.275 28.459314
69.280 28.026142
69.285 27.764513
69.290 28.016987
69.295 27.721254
69.300 27.289162
69.305 26.808508
69.310 26.852697
69.315 27.501535
69.320 27.464451
69.325 27.115047
69.330 27.002676
69.335 26.605909
69.340 27.48835
69.345 28.163185
69.350 28.758694
69.355 28.980059
69.360 29.316984
69.365 30.134766
69.370 30.63472
69.375 30.204659
69.380 30.899403
69.385 30.714241
69.390 30.827175
69.395 30.449423
69.400 30.012777
69.405 30.13686
69.410 30.296026
69.415 30.026634
69.420 30.161016
69.425 31.028072
69.430 32.042603
69.435 32.256371
69.440 31.95573
69.445 32.22065
69.450 32.63063
69.455 32.363068
69.460 32.134819
69.465 31.908148
69.470 31.876133
69.475 32.06953
69.480 31.798468
69.485 32.493286
69.490 33.715363
69.495 34.13834
69.500 34.456245
69.505 34.941395
69.510 35.171848
69.515 34.283249
69.520 32.660984
69.525 31.915953
69.530 31.604109
69.535 30.739614
69.540 30.613565
69.545 30.35132
69.550 31.39514
69.555 31.744223
69.560 31.392496
69.565 31.08062
69.570 31.867416
69.575 32.264126
69.580 32.557968
69.585 32.47023
69.590 31.543945
69.595 31.363398
69.600 32.12022
69.605 31.573244
69.610 31.15976
69.615 30.994785
69.620 31.567917
69.625 32.211811
69.630 31.775488
69.635 31.721395
69.640 31.854952
69.645 31.858517
69.650 32.413246
69.655 31.839933
69.660 32.785053
69.665 33.411343
69.670 33.269901
69.675 33.925236
69.680 34.009914
69.685 33.446045
69.690 33.113312
69.695 32.151745
69.700 32.694614
69.705 31.988728
69.710 31.472078
69.715 31.228668
69.720 31.43807
69.725 31.971584
69.730 32.069668
69.735 31.323343
69.740 31.608746
69.745 31.718328
69.750 31.742359
69.755 31.806675
69.760 31.441015
69.765 30.505112
69.770 30.550756
69.775 29.830774
69.780 29.617287
69.785 29.052019
69.790 28.233799
69.795 27.636284
69.800 27.20043
69.805 26.634171
69.810 26.59848
69.815 26.375938
69.820 25.784546
69.825 25.904987
69.830 27.227468
69.835 27.952065
69.840 27.846989
69.845 27.612112
69.850 27.664154
69.855 27.787615
69.860 27.323439
69.865 26.150539
69.870 25.606556
69.875 26.435854
69.880 26.909662
69.885 27.16781
69.890 27.843731
69.895 28.055174
69.900 28.894705
69.905 29.264063
69.910 27.958384
69.915 27.159952
69.920 26.855743
69.925 26.433212
69.930 25.70986
69.935 25.105169
69.940 24.793505
69.945 24.805424
69.950 24.262447
69.955 24.113798
69.960 24.155096
69.965 24.348755
69.970 23.788082
69.975 23.680437
69.980 23.810452
69.985 23.703587
69.990 23.21657
69.995 22.062056
70.000 21.390797
70.005 21.512369
70.010 21.497974
70.015 21.720387
70.020 21.65671
70.025 22.383928
70.030 22.597248
70.035 22.132565
70.040 21.821524
70.045 21.646284
70.050 21.213467
70.055 20.32398
70.060 19.513029
70.065 20.369383
70.070 21.430082
70.075 21.523563
70.080 21.018684
70.085 21.404074
70.090 22.033075
70.095 22.118603
70.100 22.254326
70.105 21.885201
70.110 21.688261
70.115 22.35602
70.120 22.29357
70.125 22.053263
70.130 21.983093
70.135 21.326511
70.140 21.023167
70.145 21.025568
70.150 20.25119
70.155 20.319258
70.160 20.452818
70.165 20.259882
70.170 20.476183
70.175 20.833122
70.180 20.626524
70.185 20.553192
70.190 20.527546
70.195 20.480026
70.200 20.417137
70.205 20.426596
70.210 20.667356
70.215 21.302742
70.220 21.938066
70.225 22.030874
70.230 22.066494
70.235 21.833408
70.240 21.304003
70.245 20.485392
70.250 20.379707
70.255 19.662954
70.260 19.489761
70.265 19.663639
70.270 19.948372
70.275 20.08272
70.280 20.192923
70.285 20.87039
70.290 21.03907
70.295 20.901619
70.300 20.663633
70.305 20.53442
70.310 20.572342
70.315 19.9188
70.320 19.147808
70.325 19.264791
70.330 19.606737
70.335 19.470913
70.340 19.974642
70.345 20.160364
70.350 20.599289
70.355 20.664841
70.360 20.830706
70.365 21.112865
70.370 20.86167
70.375 19.845764
70.380 19.847248
70.385 19.369854
70.390 19.295166
70.395 19.087381
70.400 18.779919
70.405 18.887075
70.410 18.815235
70.415 19.154308
70.420 19.550287
70.425 19.429745
70.430 18.903994
70.435 18.73325
70.440 18.445196
70.445 18.579573
70.450 18.436422
70.455 18.172781
70.460 18.263014
70.465 18.152334
70.470 18.632246
70.475 19.423271
70.480 19.164454
70.485 18.745768
70.490 18.690081
70.495 18.451855
70.500 19.075953
70.505 18.606359
70.510 18.284258
70.515 18.320856
70.520 18.658171
70.525 18.695606
70.530 19.105282
70.535 19.180222
70.540 19.682125
70.545 20.412722
70.550 20.850853
70.555 21.089672
70.560 21.406893
70.565 20.787796
70.570 20.713854
70.575 20.314571
70.580 19.35565
70.585 18.995901
70.590 18.676256
70.595 18.505426
70.600 18.57601
70.605 17.949221
70.610 18.006939
70.615 18.474232
70.620 18.405941
70.625 18.992121
70.630 18.752317
70.635 19.130463
70.640 19.297613
70.645 19.227568
70.650 19.05401
70.655 19.32649
70.660 18.734158
70.665 18.840319
70.670 18.126068
70.675 18.192648
70.680 18.312103
70.685 18.895241
70.690 19.240643
70.695 19.667912
70.700 19.26026
70.705 19.006918
70.710 18.879023
70.715 18.832821
70.720 18.840366
70.725 18.537239
70.730 18.728449
70.735 19.624554
70.740 19.489347
70.745 19.607782
70.750 19.30056
70.755 18.529303
70.760 18.125011
70.765 17.610521
70.770 17.491426
70.775 17.793106
70.780 17.529215
70.785 17.450115
70.790 18.119963
70.795 17.868622
70.800 18.406956
70.805 18.890507
70.810 19.367981
70.815 19.185658
70.820 18.957178
70.825 18.650314
70.830 18.839174
70.835 18.239002
70.840 17.850182
70.845 17.770422
70.850 18.447235
70.855 18.65604
70.860 19.142666
70.865 18.938128
70.870 19.197117
70.875 19.35589
70.880 18.865728
70.885 17.947872
70.890 17.189457
70.895 17.515141
70.900 17.94804
70.905 17.82202
70.910 17.81304
70.915 17.976149
70.920 18.501463
70.925 18.897934
70.930 18.231075
70.935 18.39604
70.940 18.288485
70.945 18.036957
70.950 18.516069
70.955 18.866161
70.960 18.843197
70.965 19.031645
70.970 19.389866
70.975 19.621857
70.980 19.624212
70.985 19.110535
70.990 19.00288
70.995 19.193068
71.000 18.811047
71.005 18.526445
71.010 18.590549
71.015 18.581621
71.020 19.00495
71.025 19.422022
71.030 19.474409
71.035 19.351101
71.040 19.302586
71.045 19.645908
71.050 19.909883
71.055 19.523478
71.060 19.639734
71.065 19.819706
71.070 19.72711
71.075 19.40263
71.080 19.36034
71.085 19.615725
71.090 19.542196
71.095 19.199036
71.100 19.486414
71.105 19.394674
71.110 19.336321
71.115 18.82679
71.120 18.362478
71.125 18.17222
71.130 18.002974
71.135 17.97283
71.140 18.465675
71.145 18.630796
71.150 19.042652
71.155 18.992231
71.160 19.779509
71.165 20.056355
71.170 20.338331
71.175 19.624765
71.180 19.660444
71.185 19.44841
71.190 20.271017
71.195 20.218271
71.200 19.703791
71.205 20.122746
71.210 20.333391
71.215 20.353947
71.220 19.663492
71.225 19.023857
71.230 18.656645
71.235 18.423388
71.240 18.168388
71.245 18.149126
71.250 18.174168
71.255 18.702024
71.260 18.778532
71.265 19.531803
71.270 19.695599
71.275 19.70809
71.280 20.507479
71.285 20.667795
71.290 20.600979
71.295 20.318991
71.300 19.980558
71.305 19.596104
71.310 19.206507
71.315 19.047422
71.320 19.152176
71.325 18.490164
71.330 18.441097
71.335 18.459923
71.340 18.853479
71.345 18.781837
71.350 18.191999
71.355 18.194231
71.360 18.429817
71.365 17.902258
71.370 17.748396
71.375 17.699234
71.380 18.388184
71.385 18.823746
71.390 19.039639
71.395 19.517391
71.400 19.494268
71.405 19.057192
71.410 18.976559
71.415 18.586428
71.420 18.678852
71.425 18.925068
71.430 18.564734
71.435 18.815855
71.440 19.410339
71.445 19.200237
71.450 18.835642
71.455 18.547016
71.460 18.978405
71.465 19.956425
71.470 19.989691
71.475 19.808113
71.480 19.775177
71.485 20.169127
71.490 20.286068
71.495 19.986366
71.500 19.244722
71.505 19.017771
71.510 19.844526
71.515 20.604048
71.520 19.99143
71.525 19.490877
71.530 19.088408
71.535 19.193022
71.540 19.338923
71.545 18.622284
71.550 18.956137
71.555 19.282637
71.560 19.322212
71.565 19.418503
71.570 19.350943
71.575 18.895496
71.580 18.641857
71.585 18.945078
71.590 19.289024
71.595 19.639334
71.600 19.628788
71.605 19.367765
71.610 19.353382
71.615 18.844656
71.620 18.044819
71.625 17.694143
71.630 17.447552
71.635 17.349957
71.640 17.232027
71.645 16.751499
71.650 16.587688
71.655 16.354141
71.660 16.753593
71.665 16.969549
71.670 17.452232
71.675 17.96863
71.680 18.200972
71.685 18.417957
71.690 17.994352
71.695 18.311913
71.700 18.522419
71.705 18.836578
71.710 19.151346
71.715 18.836731
71.720 19.582951
71.725 19.811522
71.730 19.537838
71.735 19.721045
71.740 19.341108
71.745 19.770218
71.750 19.62677
71.755 19.165564
71.760 18.9863
71.765 18.424278
71.770 18.050272
71.775 18.714651
71.780 18.968121
71.785 19.217373
71.790 19.008715
71.795 18.699306
71.800 18.328152
71.805 18.355978
71.810 18.318243
71.815 18.357178
71.820 18.724667
71.825 18.994556
71.830 19.572105
71.835 19.798292
71.840 19.649178
71.845 19.376354
71.850 18.995234
71.855 19.596001
71.860 19.553356
71.865 19.576845
71.870 19.447802
71.875 19.733271
71.880 19.26446
71.885 19.736979
71.890 19.82579
71.895 19.823837
71.900 20.024313
71.905 20.170151
71.910 20.019087
71.915 20.163891
71.920 19.335651
71.925 19.482634
71.930 19.35955
71.935 18.975458
71.940 18.814535
71.945 18.896091
71.950 18.793322
71.955 18.764265
71.960 17.631302
71.965 17.881971
71.970 18.165859
71.975 18.234608
71.980 17.903296
71.985 17.615456
71.990 17.636143
71.995 17.927551
72.000 17.503422
72.005 17.7006
72.010 17.523386
72.015 17.721918
72.020 18.062679
72.025 18.178974
72.030 18.305834
72.035 18.278818
72.040 18.439373
72.045 18.884726
72.050 19.251312
72.055 19.251644
72.060 19.518936
72.065 19.771013
72.070 19.75831
72.075 19.021742
72.080 18.368685
72.085 18.038113
72.090 17.758028
72.095 17.321175
72.100 17.621183
72.105 17.74024
72.110 17.879677
72.115 17.671585
72.120 17.793821
72.125 18.422167
72.130 18.460407
72.135 18.518734
72.140 18.919918
72.145 19.023849
72.150 18.782553
72.155 18.770449
72.160 18.100946
72.165 17.818926
72.170 17.34696
72.175 16.733734
72.180 17.04841
72.185 17.170862
72.190 17.537617
72.195 17.918558
72.200 17.760422
72.205 17.652582
72.210 18.481421
72.215 18.698986
72.220 18.299892
72.225 18.286449
72.230 18.665293
72.235 19.332371
72.240 19.775017
72.245 19.444733
72.250 19.588472
72.255 20.064791
72.260 20.263674
72.265 20.599125
72.270 20.265949
72.275 20.274677
72.280 19.646059
72.285 19.302242
72.290 18.424595
72.295 17.300406
72.300 17.16544
72.305 16.995176
72.310 17.005562
72.315 17.147699
72.320 17.447847
72.325 18.033283
72.330 18.3304
72.335 18.410101
72.340 17.949064
72.345 17.396257
72.350 17.433748
72.355 17.625143
72.360 18.324104
72.365 17.942356
72.370 17.353085
72.375 18.117563
72.380 18.683027
72.385 18.286634
72.390 17.491997
72.395 17.045591
72.400 16.536753
72.405 16.192539
72.410 15.622566
72.415 15.515718
72.420 15.336202
72.425 15.605316
72.430 15.416756
72.435 15.710562
72.440 15.680558
72.445 15.428693
72.450 15.580276
72.455 15.527551
72.460 15.117376
72.465 15.335451
72.470 15.904915
72.475 16.261364
72.480 16.834726
72.485 17.436222
72.490 17.804577
72.495 18.218321
72.500 18.477631
72.505 18.16346
72.510 18.251228
72.515 18.303068
72.520 18.206697
72.525 18.281322
72.530 18.504757
72.535 18.191971
72.540 18.524168
72.545 18.256203
72.550 17.61063
72.555 18.461233
72.560 18.211483
72.565 17.905005
72.570 17.926208
72.575 17.633287
72.580 17.403624
72.585 17.449949
72.590 16.539581
72.595 16.644426
72.600 16.822893
72.605 16.908045
72.610 17.268522
72.615 17.85454
72.620 18.109529
72.625 18.324085
72.630 18.093309
72.635 18.308344
72.640 18.60008
72.645 18.331339
72.650 17.727991
72.655 17.166107
72.660 17.53216
72.665 18.001938
72.670 17.766348
72.675 17.452366
72.680 17.795668
72.685 18.192022
72.690 18.048382
72.695 18.362398
72.700 18.507429
72.705 18.984272
72.710 18.372955
72.715 17.928978
72.720 18.103542
72.725 18.658739
72.730 18.276188
72.735 17.629343
72.740 17.003286
72.745 17.184795
72.750 17.126726
72.755 16.905901
72.760 16.10685
72.765 16.479906
72.770 16.388659
72.775 16.656727
72.780 16.766975
72.785 16.835632
72.790 17.310392
72.795 17.25523
72.800 16.844185
72.805 17.15502
72.810 17.247108
72.815 17.30772
72.820 16.601002
72.825 16.635473
72.830 16.694448
72.835 17.104914
72.840 17.150045
72.845 16.789394
72.850 16.939594
72.855 16.81147
72.860 16.553553
72.865 16.403654
72.870 16.276283
72.875 16.471151
72.880 16.741014
72.885 17.120106
72.890 17.236099
72.895 16.927547
72.900 16.633945
72.905 16.88599
72.910 16.807062
72.915 16.50153
72.920 16.54837
72.925 16.664488
72.930 17.306311
72.935 17.364836
72.940 17.505733
72.945 17.280233
72.950 17.043865
72.955 16.996088
72.960 16.554914
72.965 16.198875
72.970 16.19022
72.975 16.253616
72.980 16.199215
72.985 15.914777
72.990 15.814013
72.995 15.929799
73.000 15.916476
