!@!!GADDS PLOTSO FILE: Chi integration type
!@!!Title/SampleName: map-135
!@!!Comment: ?
!@!!User: Bruker Instrument Administrator
!@!!Site: University of Illinois Chicago
!@!!Frame: map-135_01_000.gfrm
!@!!Wavelengths    1.54184   1.54056   1.54439
!@!!Frame angles: 2Theta: 63.000 Omega: 50.000 Phi: 0.000 Chi: 90.000
!@!!Integration range: 2Theta: 53.000 to 73.000  Gamma: -105.000 to -75.000
!@!!Integration method: bin normalized
!@!N
!@!SS
!@!M
!@!L 0.0 0.0 0.0 0.0
!@!XDegrees
!@!YCounts
53.000 3.87803
53.005 3.509312
53.010 3.375474
53.015 3.396254
53.020 3.260107
53.025 2.952961
53.030 3.201251
53.035 3.388749
53.040 3.371899
53.045 3.482395
53.050 3.746793
53.055 4.07029
53.060 3.9576
53.065 3.669113
53.070 3.479702
53.075 3.953281
53.080 4.096628
53.085 4.187734
53.090 4.0767
53.095 4.229978
53.100 4.377297
53.105 4.444206
53.110 4.344013
53.115 4.415433
53.120 4.220871
53.125 4.340806
53.130 4.300346
53.135 4.481325
53.140 4.828174
53.145 4.653818
53.150 5.021956
53.155 5.331024
53.160 5.039782
53.165 5.067824
53.170 4.95548
53.175 4.73402
53.180 4.924347
53.185 4.690919
53.190 4.718313
53.195 4.956054
53.200 4.812228
53.205 4.831515
53.210 4.68402
53.215 4.292206
53.220 4.208667
53.225 4.449929
53.230 4.755831
53.235 5.040642
53.240 5.146661
53.245 5.069166
53.250 4.924009
53.255 5.01152
53.260 5.058164
53.265 4.460073
53.270 4.026348
53.275 4.302927
53.280 4.382202
53.285 4.596027
53.290 4.246822
53.295 4.329883
53.300 5.069339
53.305 5.411892
53.310 5.115753
53.315 4.923554
53.320 4.729884
53.325 4.654698
53.330 4.428745
53.335 3.875865
53.340 3.704573
53.345 3.935478
53.350 4.20435
53.355 4.319693
53.360 4.243999
53.365 4.246757
53.370 4.398924
53.375 4.393945
53.380 4.144989
53.385 4.352089
53.390 4.528056
53.395 4.548609
53.400 4.571526
53.405 4.401633
53.410 4.388829
53.415 4.409371
53.420 3.995261
53.425 4.015893
53.430 4.023506
53.435 4.151179
53.440 4.537842
53.445 4.50394
53.450 5.116908
53.455 5.144691
53.460 5.015323
53.465 5.212052
53.470 5.333316
53.475 5.37547
53.480 5.305579
53.485 5.204237
53.490 5.539689
53.495 5.670135
53.500 5.728606
53.505 5.742828
53.510 5.928106
53.515 5.689262
53.520 5.422901
53.525 5.334157
53.530 5.51333
53.535 5.546305
53.540 5.187072
53.545 4.810435
53.550 5.125049
53.555 5.137304
53.560 5.031071
53.565 4.797174
53.570 4.735775
53.575 4.957165
53.580 5.031502
53.585 4.728385
53.590 4.939752
53.595 4.920571
53.600 4.727255
53.605 5.069934
53.610 4.96071
53.615 4.980232
53.620 5.21063
53.625 5.176478
53.630 5.439641
53.635 5.312419
53.640 5.236815
53.645 5.491954
53.650 5.560219
53.655 5.766198
53.660 5.623833
53.665 5.57362
53.670 5.530787
53.675 5.429553
53.680 5.224438
53.685 5.02211
53.690 4.843906
53.695 4.8205
53.700 4.519422
53.705 4.534291
53.710 4.339362
53.715 4.417572
53.720 4.483008
53.725 4.613972
53.730 4.783353
53.735 4.973754
53.740 5.177955
53.745 5.628622
53.750 5.721043
53.755 5.508124
53.760 5.261592
53.765 5.084083
53.770 5.052171
53.775 4.867286
53.780 5.025168
53.785 5.199448
53.790 5.252285
53.795 5.416075
53.800 5.528199
53.805 5.47099
53.810 5.006621
53.815 4.624034
53.820 4.46659
53.825 4.531973
53.830 4.497931
53.835 4.481873
53.840 4.505795
53.845 4.548898
53.850 4.614282
53.855 4.342017
53.860 3.893155
53.865 3.718657
53.870 3.70401
53.875 3.673507
53.880 3.557583
53.885 3.728768
53.890 4.112844
53.895 4.330385
53.900 4.670504
53.905 5.257024
53.910 5.669656
53.915 5.785141
53.920 5.746547
53.925 5.527164
53.930 5.269172
53.935 5.149055
53.940 5.070045
53.945 4.742352
53.950 4.73901
53.955 4.906038
53.960 4.936422
53.965 4.899121
53.970 4.344066
53.975 4.224944
53.980 4.334968
53.985 4.351449
53.990 4.074917
53.995 4.459898
54.000 4.617682
54.005 4.817364
54.010 4.797341
54.015 4.681085
54.020 4.552159
54.025 4.483486
54.030 4.210495
54.035 4.097277
54.040 3.839457
54.045 3.943728
54.050 4.232721
54.055 4.495202
54.060 4.66713
54.065 4.801237
54.070 5.04735
54.075 5.189161
54.080 4.850107
54.085 4.860611
54.090 4.965459
54.095 5.116969
54.100 5.130663
54.105 5.22492
54.110 5.466643
54.115 5.733238
54.120 5.508805
54.125 5.284149
54.130 5.121131
54.135 5.061824
54.140 4.901488
54.145 4.939452
54.150 4.679555
54.155 4.735047
54.160 4.953762
54.165 5.525727
54.170 5.728618
54.175 5.672071
54.180 5.538384
54.185 5.631112
54.190 5.566527
54.195 5.664695
54.200 5.451469
54.205 5.16183
54.210 4.780515
54.215 4.689981
54.220 4.898042
54.225 4.724535
54.230 4.353374
54.235 4.226587
54.240 4.496852
54.245 4.642562
54.250 4.753087
54.255 4.935359
54.260 5.189425
54.265 5.333826
54.270 5.449476
54.275 5.667031
54.280 5.712813
54.285 5.517182
54.290 5.451156
54.295 5.392704
54.300 5.106798
54.305 4.899581
54.310 4.518598
54.315 4.587821
54.320 4.815434
54.325 4.8958
54.330 4.775964
54.335 4.587192
54.340 4.662922
54.345 4.828129
54.350 4.691869
54.355 4.452153
54.360 4.337168
54.365 4.413218
54.370 4.587546
54.375 4.398191
54.380 4.315211
54.385 4.022098
54.390 4.092197
54.395 4.259513
54.400 4.351274
54.405 4.616254
54.410 4.798411
54.415 4.962406
54.420 5.300958
54.425 5.271315
54.430 4.916179
54.435 4.752783
54.440 4.281716
54.445 4.371429
54.450 4.491183
54.455 4.362433
54.460 4.600408
54.465 4.788249
54.470 5.197443
54.475 5.703373
54.480 5.628668
54.485 5.617359
54.490 5.727861
54.495 5.871672
54.500 6.134431
54.505 5.751727
54.510 5.6566
54.515 5.56975
54.520 5.424884
54.525 5.315532
54.530 5.008406
54.535 4.831144
54.540 4.985352
54.545 5.004287
54.550 5.151303
54.555 5.005154
54.560 4.834888
54.565 4.72685
54.570 4.596856
54.575 4.456998
54.580 4.059599
54.585 3.995103
54.590 4.113129
54.595 4.168528
54.600 4.321126
54.605 4.412383
54.610 4.480642
54.615 4.954941
54.620 4.854752
54.625 4.651495
54.630 4.257791
54.635 4.175777
54.640 4.346573
54.645 4.564602
54.650 4.604366
54.655 4.733884
54.660 5.094073
54.665 5.430973
54.670 5.610427
54.675 5.123634
54.680 4.998576
54.685 4.901094
54.690 4.955067
54.695 5.003278
54.700 5.234674
54.705 5.366396
54.710 5.712575
54.715 5.467659
54.720 5.645876
54.725 5.781007
54.730 5.778842
54.735 5.681053
54.740 5.643644
54.745 5.618912
54.750 5.69713
54.755 5.315616
54.760 5.019729
54.765 4.81781
54.770 4.874461
54.775 4.858226
54.780 4.907579
54.785 5.069084
54.790 5.20477
54.795 5.182317
54.800 5.438277
54.805 5.122869
54.810 5.141025
54.815 5.245266
54.820 5.148757
54.825 5.680129
54.830 5.753568
54.835 5.348319
54.840 5.514484
54.845 5.403957
54.850 5.425949
54.855 5.080572
54.860 4.680267
54.865 4.775759
54.870 4.749218
54.875 4.268816
54.880 4.058324
54.885 4.100482
54.890 4.428602
54.895 4.539312
54.900 4.742505
54.905 4.751899
54.910 4.962419
54.915 5.06125
54.920 5.298983
54.925 5.116505
54.930 4.584786
54.935 4.358626
54.940 4.503447
54.945 4.330385
54.950 4.040461
54.955 3.670024
54.960 3.937165
54.965 4.38134
54.970 4.434063
54.975 4.409503
54.980 4.590789
54.985 4.783289
54.990 4.732314
54.995 4.608183
55.000 4.540251
55.005 4.482974
55.010 4.760016
55.015 5.009155
55.020 5.18189
55.025 5.588723
55.030 5.721425
55.035 6.048304
55.040 6.103082
55.045 5.892879
55.050 6.044151
55.055 6.107579
55.060 6.09271
55.065 6.053278
55.070 5.56808
55.075 5.557214
55.080 5.876436
55.085 5.546693
55.090 5.199409
55.095 5.098576
55.100 5.702631
55.105 6.145268
55.110 6.170743
55.115 5.563995
55.120 5.597547
55.125 5.656325
55.130 5.287669
55.135 4.893592
55.140 5.064438
55.145 5.227665
55.150 5.421665
55.155 5.314038
55.160 5.722923
55.165 6.053482
55.170 5.999304
55.175 5.930182
55.180 5.953699
55.185 6.067211
55.190 6.07627
55.195 5.696877
55.200 5.542115
55.205 5.34134
55.210 5.222015
55.215 5.260146
55.220 5.371373
55.225 5.291339
55.230 5.002253
55.235 4.68972
55.240 4.997697
55.245 5.425434
55.250 5.341563
55.255 5.405891
55.260 5.594938
55.265 6.033936
55.270 6.238834
55.275 5.893552
55.280 5.595969
55.285 5.497936
55.290 5.32643
55.295 4.958547
55.300 4.899702
55.305 4.730296
55.310 4.37879
55.315 4.326859
55.320 4.279747
55.325 4.442254
55.330 4.677097
55.335 4.900354
55.340 5.16048
55.345 5.510491
55.350 5.51292
55.355 5.433005
55.360 5.300431
55.365 5.26505
55.370 4.805291
55.375 4.694944
55.380 4.707484
55.385 4.99659
55.390 5.240559
55.395 5.740305
55.400 6.194637
55.405 6.375142
55.410 6.253926
55.415 6.115109
55.420 6.146464
55.425 6.269573
55.430 5.944583
55.435 5.696023
55.440 5.748775
55.445 6.315851
55.450 6.425493
55.455 6.420182
55.460 6.263028
55.465 6.163008
55.470 6.145467
55.475 6.152126
55.480 6.071839
55.485 6.065252
55.490 6.046156
55.495 6.028206
55.500 6.506303
55.505 6.28838
55.510 5.752261
55.515 5.454361
55.520 5.182994
55.525 5.312027
55.530 5.403669
55.535 5.479986
55.540 5.740274
55.545 6.207151
55.550 6.33088
55.555 6.520136
55.560 6.335656
55.565 6.122056
55.570 5.612808
55.575 5.394548
55.580 5.446372
55.585 5.664453
55.590 5.922665
55.595 5.90761
55.600 5.631392
55.605 5.726013
55.610 5.568953
55.615 5.243616
55.620 5.009583
55.625 4.97041
55.630 5.132823
55.635 5.229914
55.640 5.416049
55.645 5.874842
55.650 6.017831
55.655 6.098532
55.660 5.984483
55.665 6.208064
55.670 6.051102
55.675 6.062055
55.680 5.927923
55.685 5.814603
55.690 5.623034
55.695 5.500123
55.700 5.370409
55.705 5.351893
55.710 4.936483
55.715 4.879678
55.720 4.920834
55.725 4.888568
55.730 4.752491
55.735 4.829523
55.740 5.195457
55.745 5.487086
55.750 5.656559
55.755 5.890574
55.760 6.012597
55.765 5.897892
55.770 6.279442
55.775 6.210646
55.780 5.929743
55.785 6.087237
55.790 6.087735
55.795 6.259678
55.800 6.30703
55.805 5.786674
55.810 5.894226
55.815 5.732506
55.820 5.413268
55.825 5.579567
55.830 5.333341
55.835 5.529874
55.840 5.823831
55.845 6.014876
55.850 6.538552
55.855 6.682009
55.860 6.447672
55.865 6.539858
55.870 6.246895
55.875 6.385584
55.880 6.368149
55.885 6.096442
55.890 5.739597
55.895 5.488077
55.900 5.459163
55.905 5.319346
55.910 4.795155
55.915 4.732691
55.920 4.637527
55.925 4.813719
55.930 5.120667
55.935 5.151258
55.940 5.313065
55.945 5.871019
55.950 5.894125
55.955 6.160277
55.960 6.405154
55.965 6.44581
55.970 6.508481
55.975 6.4634
55.980 6.446043
55.985 6.580608
55.990 6.566892
55.995 6.433635
56.000 6.445832
56.005 6.261463
56.010 6.348194
56.015 5.995121
56.020 5.980173
56.025 6.075572
56.030 6.442278
56.035 6.587715
56.040 6.843449
56.045 6.773392
56.050 6.926452
56.055 6.98399
56.060 6.668436
56.065 6.267681
56.070 6.399124
56.075 6.360476
56.080 6.380192
56.085 6.422381
56.090 6.181463
56.095 6.064092
56.100 5.843048
56.105 5.79108
56.110 6.136572
56.115 6.396973
56.120 6.231297
56.125 6.313585
56.130 6.565587
56.135 6.798725
56.140 6.841867
56.145 6.359849
56.150 6.156747
56.155 6.458997
56.160 6.57653
56.165 6.350044
56.170 6.333305
56.175 6.358164
56.180 6.386382
56.185 6.187805
56.190 5.945856
56.195 5.807059
56.200 6.282928
56.205 6.150372
56.210 5.820758
56.215 5.82833
56.220 5.811671
56.225 5.781095
56.230 5.805714
56.235 5.342638
56.240 5.304039
56.245 5.473899
56.250 5.746547
56.255 5.725274
56.260 5.9081
56.265 6.028052
56.270 6.25694
56.275 6.127543
56.280 5.825113
56.285 5.627607
56.290 5.60251
56.295 5.328205
56.300 5.577468
56.305 5.670912
56.310 5.955875
56.315 6.718255
56.320 6.828211
56.325 7.198997
56.330 7.032264
56.335 6.529666
56.340 6.153968
56.345 6.09894
56.350 5.526921
56.355 5.312525
56.360 5.325385
56.365 5.571573
56.370 5.739885
56.375 6.293688
56.380 6.27097
56.385 6.170769
56.390 6.129892
56.395 6.043842
56.400 6.068284
56.405 6.339727
56.410 5.977733
56.415 6.232885
56.420 6.858321
56.425 6.927992
56.430 6.922273
56.435 6.877572
56.440 6.922381
56.445 6.89011
56.450 6.582637
56.455 6.357761
56.460 6.214847
56.465 6.070342
56.470 5.985638
56.475 5.815481
56.480 6.055021
56.485 6.149173
56.490 6.515267
56.495 6.862617
56.500 7.06448
56.505 6.789299
56.510 6.5602
56.515 6.344838
56.520 6.493109
56.525 5.990142
56.530 5.809533
56.535 5.806458
56.540 6.10945
56.545 6.639122
56.550 6.568606
56.555 6.357012
56.560 6.466175
56.565 6.2054
56.570 6.326766
56.575 6.227958
56.580 5.919635
56.585 5.936784
56.590 5.824676
56.595 5.627052
56.600 5.408305
56.605 5.226153
56.610 5.215279
56.615 5.435353
56.620 5.625905
56.625 6.221094
56.630 7.036174
56.635 7.411527
56.640 7.548139
56.645 7.189206
56.650 6.856558
56.655 6.942111
56.660 6.705041
56.665 6.445852
56.670 6.193932
56.675 6.170121
56.680 6.531554
56.685 6.710994
56.690 6.51485
56.695 6.44168
56.700 6.460343
56.705 6.60977
56.710 6.602791
56.715 6.532078
56.720 6.506543
56.725 6.24272
56.730 5.984216
56.735 5.954499
56.740 6.308547
56.745 6.371888
56.750 6.188177
56.755 6.213704
56.760 6.531544
56.765 6.518755
56.770 6.524214
56.775 6.450853
56.780 6.773831
56.785 7.352642
56.790 7.441421
56.795 7.480363
56.800 7.625147
56.805 7.599119
56.810 7.457923
56.815 7.017838
56.820 6.539514
56.825 6.51333
56.830 6.490799
56.835 6.632826
56.840 6.519317
56.845 6.600871
56.850 6.826956
56.855 7.042378
56.860 7.136106
56.865 7.338222
56.870 7.360091
56.875 7.297197
56.880 7.349274
56.885 7.252861
56.890 7.340357
56.895 7.597375
56.900 7.56368
56.905 7.439447
56.910 7.043694
56.915 6.714614
56.920 6.494231
56.925 6.127549
56.930 5.83981
56.935 5.913652
56.940 6.342936
56.945 6.874585
56.950 7.252516
56.955 7.295774
56.960 7.284544
56.965 7.130942
56.970 6.437628
56.975 6.232041
56.980 5.84055
56.985 5.671718
56.990 5.549292
56.995 5.215897
57.000 4.992113
57.005 5.390674
57.010 5.477583
57.015 5.91729
57.020 6.009047
57.025 6.158338
57.030 6.697474
57.035 6.968646
57.040 7.049897
57.045 6.976772
57.050 6.851668
57.055 7.104425
57.060 7.205186
57.065 7.390154
57.070 7.52023
57.075 7.477369
57.080 7.514907
57.085 7.524984
57.090 7.361327
57.095 6.909175
57.100 6.763192
57.105 6.338871
57.110 6.127547
57.115 6.008602
57.120 6.398943
57.125 6.834524
57.130 7.015431
57.135 6.982169
57.140 7.520145
57.145 7.855915
57.150 7.956393
57.155 7.311204
57.160 6.857832
57.165 6.681192
57.170 6.694306
57.175 6.519292
57.180 6.466909
57.185 6.145572
57.190 6.358873
57.195 6.731856
57.200 6.961223
57.205 6.998523
57.210 6.577984
57.215 6.619633
57.220 7.023659
57.225 7.03625
57.230 6.941156
57.235 6.872636
57.240 6.717622
57.245 6.570192
57.250 6.227211
57.255 6.221372
57.260 6.392991
57.265 6.606624
57.270 6.67861
57.275 6.957568
57.280 7.345191
57.285 7.433672
57.290 7.146656
57.295 6.706866
57.300 6.449409
57.305 6.214033
57.310 6.310168
57.315 6.258372
57.320 6.381854
57.325 6.589905
57.330 6.875755
57.335 7.049913
57.340 7.111801
57.345 7.170594
57.350 7.427085
57.355 7.656872
57.360 7.624164
57.365 7.702636
57.370 7.643293
57.375 7.98875
57.380 8.149418
57.385 7.888001
57.390 7.764741
57.395 7.58003
57.400 7.458518
57.405 7.632567
57.410 7.414374
57.415 7.155796
57.420 6.855432
57.425 6.94011
57.430 7.168622
57.435 6.883439
57.440 6.80699
57.445 6.563379
57.450 6.917515
57.455 7.299734
57.460 7.077965
57.465 7.054517
57.470 6.902547
57.475 6.753273
57.480 6.932345
57.485 6.567296
57.490 6.465061
57.495 6.46659
57.500 6.566813
57.505 6.820952
57.510 6.754654
57.515 6.515918
57.520 6.557205
57.525 6.872114
57.530 6.42801
57.535 6.182485
57.540 6.152864
57.545 6.300863
57.550 6.323572
57.555 6.13785
57.560 5.976961
57.565 6.471653
57.570 6.515146
57.575 6.631811
57.580 6.745224
57.585 6.873838
57.590 6.990838
57.595 7.293003
57.600 7.238473
57.605 7.245766
57.610 7.28252
57.615 7.222891
57.620 7.381156
57.625 7.198144
57.630 6.777154
57.635 6.573274
57.640 6.610941
57.645 6.750361
57.650 6.799709
57.655 6.576231
57.660 6.597965
57.665 6.59234
57.670 6.431907
57.675 6.353703
57.680 5.954781
57.685 5.941578
57.690 6.483801
57.695 7.078759
57.700 7.585962
57.705 8.011164
57.710 7.978323
57.715 7.646336
57.720 7.50123
57.725 7.231193
57.730 6.935174
57.735 6.395944
57.740 6.525421
57.745 6.836579
57.750 7.031169
57.755 7.225276
57.760 7.313281
57.765 7.288361
57.770 7.25156
57.775 7.164782
57.780 7.267206
57.785 7.406836
57.790 6.714246
57.795 6.232747
57.800 6.367427
57.805 6.665709
57.810 6.353764
57.815 6.085473
57.820 6.038621
57.825 6.664193
57.830 7.250184
57.835 7.311776
57.840 7.246229
57.845 7.397745
57.850 7.965798
57.855 8.095366
57.860 7.966859
57.865 7.535794
57.870 7.278587
57.875 7.203777
57.880 7.145404
57.885 6.955296
57.890 6.891727
57.895 6.995334
57.900 6.866517
57.905 6.706123
57.910 6.83127
57.915 6.731133
57.920 6.900025
57.925 6.8757
57.930 6.322278
57.935 6.371362
57.940 6.389078
57.945 6.483984
57.950 5.910693
57.955 5.672395
57.960 5.801313
57.965 6.315849
57.970 6.487825
57.975 6.8268
57.980 6.915596
57.985 7.599686
57.990 7.626612
57.995 7.834605
58.000 7.869979
58.005 7.927641
58.010 7.493176
58.015 7.712146
58.020 7.504035
58.025 7.212628
58.030 7.059874
58.035 7.285635
58.040 7.427233
58.045 7.559652
58.050 7.53407
58.055 7.558123
58.060 7.766423
58.065 7.620187
58.070 7.164268
58.075 7.284435
58.080 7.162272
58.085 6.656147
58.090 6.583726
58.095 6.55007
58.100 6.872056
58.105 6.925929
58.110 6.725586
58.115 6.829345
58.120 6.972185
58.125 7.175314
58.130 7.053958
58.135 7.114641
58.140 7.223201
58.145 7.181624
58.150 7.140874
58.155 7.312847
58.160 7.434117
58.165 7.521759
58.170 6.98927
58.175 6.954183
58.180 7.082682
58.185 7.291963
58.190 7.291089
58.195 7.384464
58.200 7.953245
58.205 8.347235
58.210 8.244413
58.215 8.080816
58.220 8.612634
58.225 8.81151
58.230 8.517528
58.235 7.919641
58.240 8.177493
58.245 8.006454
58.250 7.86624
58.255 7.377694
58.260 6.878437
58.265 6.963392
58.270 7.168218
58.275 7.262197
58.280 7.601084
58.285 7.584996
58.290 7.421933
58.295 7.592317
58.300 7.791407
58.305 7.53955
58.310 7.266907
58.315 7.352396
58.320 7.504763
58.325 7.856209
58.330 7.512621
58.335 7.462984
58.340 7.629024
58.345 7.499063
58.350 7.575049
58.355 7.881505
58.360 7.958657
58.365 8.452808
58.370 8.27657
58.375 8.60752
58.380 9.218931
58.385 9.116341
58.390 8.581748
58.395 8.070834
58.400 7.709374
58.405 7.697515
58.410 7.564201
58.415 6.964764
58.420 7.167982
58.425 7.459295
58.430 8.2658
58.435 8.589645
58.440 8.683528
58.445 8.527536
58.450 8.90329
58.455 9.248893
58.460 9.11915
58.465 8.646387
58.470 8.757727
58.475 9.197861
58.480 9.609668
58.485 9.824414
58.490 10.239942
58.495 10.827465
58.500 11.021692
58.505 10.997006
58.510 10.757238
58.515 10.797675
58.520 10.776674
58.525 10.547494
58.530 10.391299
58.535 11.018113
58.540 11.666086
58.545 11.716123
58.550 11.737258
58.555 11.646953
58.560 11.889749
58.565 11.998742
58.570 11.900219
58.575 12.086244
58.580 11.915173
58.585 11.914552
58.590 11.77871
58.595 11.952502
58.600 12.369169
58.605 12.148537
58.610 11.964536
58.615 12.041652
58.620 12.045362
58.625 12.339687
58.630 13.21519
58.635 13.339874
58.640 13.394753
58.645 13.699339
58.650 14.594437
58.655 15.121755
58.660 15.163211
58.665 14.099101
58.670 13.626811
58.675 14.063551
58.680 13.715564
58.685 13.277462
58.690 13.381366
58.695 13.746497
58.700 13.821883
58.705 13.687816
58.710 13.377441
58.715 13.816104
58.720 13.881018
58.725 13.673382
58.730 13.165742
58.735 13.023102
58.740 13.525016
58.745 13.561242
58.750 13.397171
58.755 13.537996
58.760 13.779877
58.765 14.214739
58.770 15.096181
58.775 14.961388
58.780 15.088151
58.785 15.031882
58.790 14.792985
58.795 14.950199
58.800 14.911469
58.805 14.231926
58.810 14.033167
58.815 13.558121
58.820 13.319065
58.825 12.943975
58.830 12.579567
58.835 12.439194
58.840 11.898149
58.845 11.474393
58.850 11.405529
58.855 11.535243
58.860 11.639357
58.865 11.284244
58.870 11.006924
58.875 11.418941
58.880 11.747432
58.885 11.48997
58.890 11.276799
58.895 10.995523
58.900 10.428702
58.905 9.632258
58.910 9.394495
58.915 9.081523
58.920 8.851342
58.925 8.934568
58.930 9.100543
58.935 9.613473
58.940 9.938957
58.945 9.626167
58.950 9.443954
58.955 9.752542
58.960 9.535561
58.965 9.766742
58.970 9.459132
58.975 9.66074
58.980 10.220773
58.985 10.378102
58.990 10.317243
58.995 10.15214
59.000 10.342525
59.005 10.361967
59.010 10.214631
59.015 10.113884
59.020 9.932152
59.025 9.597136
59.030 9.525664
59.035 9.03575
59.040 9.33562
59.045 9.277825
59.050 8.913815
59.055 8.760504
59.060 8.724701
59.065 8.66148
59.070 8.882747
59.075 8.82691
59.080 8.530699
59.085 8.450006
59.090 8.477778
59.095 8.718302
59.100 9.02876
59.105 8.960043
59.110 8.693049
59.115 8.620299
59.120 8.666636
59.125 8.711611
59.130 8.535579
59.135 8.126263
59.140 7.951437
59.145 7.774746
59.150 8.01169
59.155 7.925198
59.160 7.56454
59.165 7.158501
59.170 6.949866
59.175 7.068048
59.180 7.221291
59.185 7.186413
59.190 6.846091
59.195 6.907115
59.200 6.994662
59.205 7.121396
59.210 7.379651
59.215 7.258708
59.220 7.616082
59.225 8.096129
59.230 8.167683
59.235 8.255749
59.240 8.382007
59.245 8.001205
59.250 7.91446
59.255 7.772892
59.260 7.708752
59.265 8.028646
59.270 7.823569
59.275 7.537376
59.280 7.629218
59.285 7.354469
59.290 6.917592
59.295 6.554179
59.300 6.675189
59.305 6.93109
59.310 7.176871
59.315 7.397812
59.320 7.654553
59.325 7.677107
59.330 7.926649
59.335 7.63918
59.340 7.671968
59.345 7.677893
59.350 7.68555
59.355 7.867527
59.360 8.377008
59.365 8.633183
59.370 8.482749
59.375 8.427675
59.380 8.360516
59.385 8.266236
59.390 8.301201
59.395 8.118875
59.400 7.778559
59.405 7.800652
59.410 7.598989
59.415 7.259831
59.420 7.204181
59.425 7.413137
59.430 7.32047
59.435 7.52511
59.440 7.312982
59.445 7.577537
59.450 7.887651
59.455 7.96023
59.460 8.297517
59.465 8.55836
59.470 8.545637
59.475 8.677965
59.480 8.608788
59.485 8.576369
59.490 8.320963
59.495 7.780336
59.500 7.617542
59.505 7.322661
59.510 6.910301
59.515 6.989798
59.520 7.156696
59.525 7.041343
59.530 6.858896
59.535 6.97119
59.540 7.456343
59.545 7.738587
59.550 7.736782
59.555 8.22875
59.560 8.433226
59.565 8.179004
59.570 7.892237
59.575 7.470405
59.580 7.469882
59.585 7.127604
59.590 6.509462
59.595 6.508628
59.600 6.900988
59.605 7.074673
59.610 7.146904
59.615 7.314102
59.620 7.235071
59.625 7.178158
59.630 7.352269
59.635 7.734704
59.640 7.99397
59.645 8.017071
59.650 7.8716
59.655 8.151311
59.660 8.192697
59.665 8.079258
59.670 7.491958
59.675 7.388589
59.680 7.493413
59.685 7.83642
59.690 7.719744
59.695 7.449641
59.700 7.716617
59.705 7.931987
59.710 7.890272
59.715 7.66973
59.720 7.415736
59.725 7.388091
59.730 7.707433
59.735 7.457597
59.740 7.422964
59.745 7.646386
59.750 7.715104
59.755 7.717155
59.760 7.577338
59.765 7.202383
59.770 7.521812
59.775 7.449017
59.780 7.220971
59.785 7.287577
59.790 7.637743
59.795 7.983889
59.800 7.878596
59.805 7.105359
59.810 7.027787
59.815 7.226024
59.820 7.366427
59.825 7.48987
59.830 7.657568
59.835 8.245455
59.840 8.980324
59.845 9.050655
59.850 8.974482
59.855 8.88881
59.860 8.674609
59.865 8.386708
59.870 8.375527
59.875 8.288445
59.880 8.302536
59.885 8.295102
59.890 7.950388
59.895 7.808161
59.900 7.980568
59.905 7.719603
59.910 7.376639
59.915 7.428861
59.920 7.147192
59.925 7.255608
59.930 7.018153
59.935 6.92834
59.940 6.854951
59.945 7.506659
59.950 7.671504
59.955 7.783095
59.960 7.649171
59.965 7.704325
59.970 7.562205
59.975 7.648069
59.980 7.412161
59.985 7.395885
59.990 7.662181
59.995 7.856846
60.000 7.82447
60.005 7.692127
60.010 7.421109
60.015 7.130178
60.020 6.923122
60.025 6.623446
60.030 6.496768
60.035 6.668477
60.040 6.827421
60.045 7.096479
60.050 7.265267
60.055 7.52065
60.060 7.768668
60.065 8.038863
60.070 8.032287
60.075 8.089432
60.080 7.944893
60.085 8.419963
60.090 8.546762
60.095 8.624649
60.100 8.748055
60.105 8.920352
60.110 8.901817
60.115 8.585126
60.120 8.079717
60.125 7.918003
60.130 7.540009
60.135 7.445357
60.140 7.60738
60.145 7.917823
60.150 8.247476
60.155 8.519059
60.160 8.629296
60.165 8.840725
60.170 8.931882
60.175 8.904502
60.180 8.80099
60.185 8.487083
60.190 8.133214
60.195 8.035738
60.200 8.511513
60.205 8.449965
60.210 8.273026
60.215 8.337203
60.220 8.662898
60.225 9.154581
60.230 9.112497
60.235 8.574672
60.240 8.582863
60.245 8.70281
60.250 8.23177
60.255 7.891394
60.260 7.572774
60.265 7.655447
60.270 7.96877
60.275 8.021501
60.280 7.840316
60.285 8.279839
60.290 8.203029
60.295 7.830258
60.300 7.665368
60.305 7.60681
60.310 7.45769
60.315 7.853758
60.320 7.670292
60.325 7.616235
60.330 7.680472
60.335 7.824908
60.340 7.872579
60.345 7.664867
60.350 7.488321
60.355 7.667173
60.360 7.504004
60.365 7.534257
60.370 7.685746
60.375 8.024171
60.380 8.595783
60.385 8.40589
60.390 8.501747
60.395 9.140596
60.400 9.076332
60.405 8.851678
60.410 8.414908
60.415 8.188356
60.420 8.689919
60.425 8.597425
60.430 8.279814
60.435 7.830594
60.440 7.602481
60.445 7.870025
60.450 8.037411
60.455 7.390228
60.460 7.449971
60.465 7.462875
60.470 8.116625
60.475 8.308333
60.480 8.594067
60.485 8.675816
60.490 8.998117
60.495 8.950799
60.500 9.113325
60.505 9.085982
60.510 8.984989
60.515 8.328831
60.520 8.426969
60.525 8.612396
60.530 8.585588
60.535 9.00459
60.540 8.87496
60.545 9.192931
60.550 9.05042
60.555 8.868811
60.560 8.640574
60.565 8.316372
60.570 7.851866
60.575 7.872553
60.580 7.479899
60.585 7.14334
60.590 6.637842
60.595 6.671355
60.600 6.891491
60.605 6.861613
60.610 6.93641
60.615 6.980576
60.620 7.607501
60.625 8.340487
60.630 8.391377
60.635 8.20162
60.640 8.197714
60.645 8.201888
60.650 8.708814
60.655 8.668064
60.660 8.5647
60.665 8.623593
60.670 8.974895
60.675 9.339124
60.680 9.005684
60.685 8.625573
60.690 8.546458
60.695 8.397
60.700 8.46798
60.705 8.156906
60.710 7.934679
60.715 8.147783
60.720 7.997496
60.725 7.731978
60.730 7.339918
60.735 7.278591
60.740 7.514976
60.745 7.613281
60.750 7.709792
60.755 7.910046
60.760 8.141183
60.765 8.670362
60.770 8.767979
60.775 8.404045
60.780 8.054531
60.785 7.820177
60.790 8.063491
60.795 8.234282
60.800 7.732704
60.805 7.61846
60.810 7.722972
60.815 8.011416
60.820 8.50804
60.825 8.503527
60.830 8.347765
60.835 8.41764
60.840 8.625928
60.845 8.736857
60.850 8.895407
60.855 8.3879
60.860 8.089397
60.865 8.112498
60.870 7.934871
60.875 7.606485
60.880 7.533654
60.885 7.475258
60.890 7.684125
60.895 7.400239
60.900 7.557549
60.905 7.874911
60.910 8.360334
60.915 8.416101
60.920 8.204865
60.925 8.38836
60.930 8.710586
60.935 8.951189
60.940 8.978395
60.945 9.000951
60.950 9.251159
60.955 8.902622
60.960 8.449108
60.965 8.549664
60.970 8.428116
60.975 8.534262
60.980 8.559507
60.985 8.703402
60.990 8.911513
60.995 8.85045
61.000 8.376393
61.005 8.383358
61.010 8.234401
61.015 7.90068
61.020 7.801064
61.025 7.608323
61.030 7.919523
61.035 8.378916
61.040 8.455457
61.045 8.641953
61.050 8.529733
61.055 8.334457
61.060 8.647242
61.065 8.593026
61.070 8.385649
61.075 7.948163
61.080 7.659803
61.085 7.670841
61.090 7.768685
61.095 7.99633
61.100 7.636484
61.105 7.523898
61.110 7.960323
61.115 7.970945
61.120 7.857085
61.125 7.794504
61.130 7.599125
61.135 8.02195
61.140 7.887609
61.145 7.738325
61.150 7.662119
61.155 7.714085
61.160 7.803051
61.165 7.848966
61.170 7.648097
61.175 7.531972
61.180 7.187186
61.185 7.21941
61.190 7.368176
61.195 7.853843
61.200 8.156769
61.205 8.912302
61.210 9.016758
61.215 9.098216
61.220 9.162947
61.225 9.32723
61.230 8.738822
61.235 8.256665
61.240 8.048261
61.245 8.32619
61.250 8.642906
61.255 9.002719
61.260 9.261744
61.265 9.317614
61.270 9.313899
61.275 8.945933
61.280 9.098142
61.285 9.027572
61.290 8.709448
61.295 8.441936
61.300 8.462931
61.305 8.610949
61.310 8.917292
61.315 9.033448
61.320 9.078603
61.325 9.006137
61.330 8.913117
61.335 8.855005
61.340 8.823971
61.345 8.559094
61.350 8.356236
61.355 8.628924
61.360 8.856099
61.365 8.660005
61.370 8.982088
61.375 9.22586
61.380 9.304243
61.385 9.005634
61.390 8.805012
61.395 8.881049
61.400 8.849201
61.405 8.430272
61.410 7.966886
61.415 7.90551
61.420 8.407742
61.425 7.987001
61.430 7.612947
61.435 7.352354
61.440 7.56669
61.445 7.584345
61.450 7.630179
61.455 7.220812
61.460 7.195691
61.465 7.138185
61.470 7.505725
61.475 7.480199
61.480 7.559849
61.485 7.334055
61.490 7.272402
61.495 7.722603
61.500 8.016187
61.505 7.85
61.510 7.954413
61.515 8.273723
61.520 8.674026
61.525 8.984715
61.530 8.86366
61.535 8.706319
61.540 8.539373
61.545 8.230186
61.550 7.966415
61.555 7.824776
61.560 7.631985
61.565 7.737899
61.570 7.677422
61.575 7.902199
61.580 7.825117
61.585 7.929381
61.590 7.63844
61.595 7.701696
61.600 7.361266
61.605 7.84939
61.610 8.231656
61.615 8.462546
61.620 8.244853
61.625 8.474658
61.630 8.414927
61.635 8.69792
61.640 8.400708
61.645 8.170597
61.650 8.244786
61.655 8.347033
61.660 8.345904
61.665 8.562872
61.670 8.32386
61.675 8.606556
61.680 8.503405
61.685 8.363239
61.690 8.256581
61.695 8.058943
61.700 8.009179
61.705 8.032823
61.710 8.068913
61.715 8.717146
61.720 8.942545
61.725 9.436906
61.730 9.637845
61.735 9.477416
61.740 9.439649
61.745 9.085814
61.750 8.974289
61.755 8.989841
61.760 8.648149
61.765 8.649941
61.770 8.74113
61.775 8.834468
61.780 8.587305
61.785 8.167597
61.790 8.095462
61.795 7.942102
61.800 7.715312
61.805 7.618896
61.810 7.651745
61.815 7.720599
61.820 7.650416
61.825 7.78405
61.830 8.383637
61.835 8.755892
61.840 9.036201
61.845 9.582635
61.850 9.886352
61.855 10.202654
61.860 10.37
61.865 10.380745
61.870 10.452449
61.875 10.530641
61.880 10.195802
61.885 10.087696
61.890 9.88561
61.895 9.628361
61.900 9.35352
61.905 9.257419
61.910 8.72315
61.915 8.480292
61.920 8.72067
61.925 8.76262
61.930 8.538151
61.935 8.435352
61.940 8.226428
61.945 8.13441
61.950 8.343327
61.955 7.724387
61.960 7.210305
61.965 7.406209
61.970 7.677609
61.975 8.394477
61.980 8.897091
61.985 8.854654
61.990 9.209367
61.995 9.767609
62.000 9.699014
62.005 9.560488
62.010 8.908439
62.015 8.451824
62.020 8.653519
62.025 8.935921
62.030 9.04713
62.035 9.183873
62.040 8.726268
62.045 8.990793
62.050 9.18663
62.055 8.781988
62.060 8.404511
62.065 8.13448
62.070 8.174507
62.075 8.645215
62.080 9.03159
62.085 8.974277
62.090 8.926332
62.095 8.902987
62.100 8.364913
62.105 8.11389
62.110 8.072379
62.115 7.681604
62.120 7.717205
62.125 7.803236
62.130 8.02742
62.135 8.532776
62.140 8.6258
62.145 8.497105
62.150 8.435658
62.155 8.094327
62.160 8.459945
62.165 8.617976
62.170 9.003989
62.175 9.435251
62.180 9.505489
62.185 9.506024
62.190 9.880656
62.195 9.474507
62.200 8.909652
62.205 8.157536
62.210 7.863212
62.215 7.812374
62.220 7.542543
62.225 7.33328
62.230 7.374338
62.235 7.89788
62.240 8.036074
62.245 7.806585
62.250 7.955397
62.255 8.290879
62.260 7.992273
62.265 7.609881
62.270 7.267525
62.275 7.187399
62.280 7.534488
62.285 7.454732
62.290 7.380198
62.295 7.839728
62.300 8.08697
62.305 8.304975
62.310 8.550021
62.315 8.411654
62.320 8.825689
62.325 8.791463
62.330 8.467248
62.335 8.649859
62.340 8.595828
62.345 8.366863
62.350 7.906103
62.355 7.779143
62.360 8.206985
62.365 8.690896
62.370 8.698179
62.375 8.446757
62.380 8.727958
62.385 9.231279
62.390 9.049516
62.395 8.797284
62.400 8.610192
62.405 8.447909
62.410 8.504731
62.415 8.681744
62.420 8.342048
62.425 8.262511
62.430 8.31705
62.435 8.537122
62.440 8.841892
62.445 9.154109
62.450 9.235291
62.455 9.363708
62.460 9.589389
62.465 9.382372
62.470 9.108623
62.475 9.073376
62.480 9.092418
62.485 8.938569
62.490 9.135909
62.495 9.096204
62.500 9.468593
62.505 9.826735
62.510 9.674717
62.515 9.46295
62.520 9.615808
62.525 9.605098
62.530 9.872616
62.535 9.368534
62.540 9.019915
62.545 8.825579
62.550 8.899994
62.555 8.824655
62.560 8.731681
62.565 8.354899
62.570 8.838393
62.575 8.790438
62.580 8.847453
62.585 8.60043
62.590 8.403017
62.595 8.206596
62.600 8.402009
62.605 8.120553
62.610 8.12086
62.615 8.272845
62.620 8.399406
62.625 8.365094
62.630 8.446008
62.635 8.290038
62.640 8.771375
62.645 8.885942
62.650 9.052509
62.655 9.304906
62.660 9.258675
62.665 9.064104
62.670 8.981708
62.675 8.370124
62.680 8.206752
62.685 7.985563
62.690 7.761714
62.695 7.738265
62.700 7.730331
62.705 8.0948
62.710 8.581347
62.715 8.667792
62.720 8.812634
62.725 9.102538
62.730 9.231377
62.735 9.756091
62.740 9.578839
62.745 9.36474
62.750 9.593884
62.755 9.198769
62.760 8.721828
62.765 8.961249
62.770 8.474855
62.775 8.853438
62.780 8.90348
62.785 8.739027
62.790 9.122727
62.795 10.069885
62.800 9.940977
62.805 10.175009
62.810 9.512646
62.815 9.494929
62.820 9.758113
62.825 9.709273
62.830 9.03441
62.835 8.86857
62.840 8.645209
62.845 8.741158
62.850 9.064504
62.855 9.264771
62.860 9.430923
62.865 9.948928
62.870 9.909656
62.875 10.10458
62.880 10.460302
62.885 10.008698
62.890 9.607899
62.895 9.845565
62.900 9.733587
62.905 9.967405
62.910 9.907297
62.915 9.638176
62.920 9.840808
62.925 9.742184
62.930 9.493655
62.935 9.619188
62.940 9.741053
62.945 9.826615
62.950 9.823597
62.955 9.959748
62.960 10.17878
62.965 10.009204
62.970 9.825218
62.975 9.671555
62.980 9.422403
62.985 9.520698
62.990 9.350266
62.995 9.196445
63.000 9.31546
63.005 9.199503
63.010 9.047314
63.015 9.161661
63.020 9.285972
63.025 9.62044
63.030 9.590355
63.035 9.45229
63.040 9.444987
63.045 9.32286
63.050 9.122561
63.055 9.052472
63.060 8.386605
63.065 8.051453
63.070 8.061184
63.075 8.390145
63.080 8.515168
63.085 8.368175
63.090 8.05987
63.095 8.479451
63.100 8.634627
63.105 8.625943
63.110 8.153089
63.115 8.782503
63.120 9.552687
63.125 9.784288
63.130 9.375566
63.135 9.012423
63.140 8.933891
63.145 9.237796
63.150 8.757365
63.155 8.256342
63.160 8.29563
63.165 8.650384
63.170 9.161038
63.175 9.362415
63.180 9.217723
63.185 9.235642
63.190 9.212973
63.195 8.869214
63.200 9.00828
63.205 8.818908
63.210 8.857642
63.215 9.331802
63.220 9.352192
63.225 9.306994
63.230 9.417797
63.235 9.325147
63.240 9.613176
63.245 9.199389
63.250 8.591608
63.255 8.808583
63.260 8.827129
63.265 8.85049
63.270 8.554751
63.275 8.403973
63.280 8.86779
63.285 9.375229
63.290 9.223884
63.295 9.422952
63.300 9.390682
63.305 9.526597
63.310 9.699743
63.315 9.786522
63.320 9.539086
63.325 9.830198
63.330 9.708694
63.335 9.859165
63.340 9.871719
63.345 9.92598
63.350 9.61781
63.355 9.68097
63.360 9.74284
63.365 9.676607
63.370 9.698177
63.375 10.129085
63.380 9.947949
63.385 10.039709
63.390 10.483166
63.395 10.189061
63.400 10.30308
63.405 9.866562
63.410 9.075876
63.415 9.189908
63.420 9.241873
63.425 8.807318
63.430 9.146927
63.435 9.180626
63.440 9.675351
63.445 9.811716
63.450 9.390058
63.455 9.099056
63.460 9.114403
63.465 9.103486
63.470 9.378143
63.475 9.513291
63.480 9.399975
63.485 9.434887
63.490 9.485708
63.495 9.447114
63.500 9.332769
63.505 9.164722
63.510 8.556784
63.515 8.816791
63.520 9.332421
63.525 9.043823
63.530 8.77738
63.535 8.808963
63.540 8.788495
63.545 8.930616
63.550 9.082847
63.555 9.462882
63.560 10.431377
63.565 10.513185
63.570 10.567102
63.575 10.871271
63.580 11.141715
63.585 10.978589
63.590 10.613923
63.595 9.456032
63.600 9.474444
63.605 9.02436
63.610 9.157253
63.615 9.109733
63.620 8.986546
63.625 8.592043
63.630 8.862207
63.635 9.149469
63.640 9.672439
63.645 9.208275
63.650 9.25988
63.655 9.357058
63.660 9.62959
63.665 10.24972
63.670 10.394352
63.675 10.285076
63.680 10.355097
63.685 10.207046
63.690 10.359786
63.695 10.306311
63.700 9.946989
63.705 9.533368
63.710 9.620683
63.715 9.652395
63.720 9.459009
63.725 8.993193
63.730 8.423776
63.735 8.458861
63.740 8.467362
63.745 8.107326
63.750 7.785936
63.755 7.77622
63.760 7.932581
63.765 8.367635
63.770 8.24998
63.775 8.34995
63.780 8.590407
63.785 8.89527
63.790 9.35872
63.795 9.746222
63.800 10.050309
63.805 10.289952
63.810 10.377089
63.815 10.362873
63.820 10.465877
63.825 10.43631
63.830 10.323756
63.835 10.496189
63.840 11.035695
63.845 11.005992
63.850 10.578728
63.855 10.354608
63.860 10.39982
63.865 10.367275
63.870 9.718567
63.875 8.762207
63.880 8.982029
63.885 9.736381
63.890 10.053314
63.895 9.693449
63.900 9.815065
63.905 10.082141
63.910 10.345118
63.915 9.968601
63.920 9.708394
63.925 9.656688
63.930 9.936741
63.935 10.285945
63.940 10.606842
63.945 10.554183
63.950 10.727756
63.955 11.0578
63.960 11.25413
63.965 11.084212
63.970 10.802663
63.975 10.782056
63.980 11.046625
63.985 10.843478
63.990 10.558585
63.995 10.569202
64.000 10.612331
64.005 10.771115
64.010 10.600582
64.015 10.807972
64.020 11.518112
64.025 11.729726
64.030 11.666281
64.035 11.618127
64.040 11.587566
64.045 11.996372
64.050 12.126998
64.055 11.796072
64.060 11.587766
64.065 11.352423
64.070 11.387762
64.075 11.623186
64.080 11.547804
64.085 10.853152
64.090 10.490209
64.095 10.413638
64.100 10.844612
64.105 10.688391
64.110 10.606311
64.115 10.544305
64.120 10.811576
64.125 11.0618
64.130 11.125972
64.135 11.538402
64.140 11.421732
64.145 11.463189
64.150 11.808376
64.155 12.133918
64.160 12.239065
64.165 12.241825
64.170 11.615636
64.175 11.911147
64.180 11.628585
64.185 11.396419
64.190 11.118887
64.195 11.152365
64.200 11.591806
64.205 12.331889
64.210 12.314445
64.215 12.458331
64.220 13.194042
64.225 14.489599
64.230 14.898881
64.235 14.889812
64.240 14.928829
64.245 15.831447
64.250 16.433674
64.255 16.585573
64.260 17.067255
64.265 17.761911
64.270 18.365444
64.275 18.522106
64.280 18.643768
64.285 18.427965
64.290 18.057869
64.295 17.104767
64.300 16.762081
64.305 16.140272
64.310 16.465593
64.315 16.630144
64.320 16.770113
64.325 16.917648
64.330 17.974953
64.335 18.850641
64.340 19.476889
64.345 19.49791
64.350 19.61931
64.355 20.394308
64.360 20.845608
64.365 20.773148
64.370 20.863007
64.375 21.470402
64.380 22.552153
64.385 23.102242
64.390 22.524035
64.395 23.647358
64.400 23.978725
64.405 23.681532
64.410 23.819895
64.415 23.349928
64.420 23.085831
64.425 23.593481
64.430 23.063278
64.435 22.9505
64.440 23.190342
64.445 22.871344
64.450 22.523182
64.455 22.199064
64.460 21.816402
64.465 21.321766
64.470 21.176016
64.475 21.137402
64.480 20.682816
64.485 20.715322
64.490 21.128004
64.495 21.445034
64.500 21.473448
64.505 21.418573
64.510 21.31214
64.515 21.281126
64.520 20.831999
64.525 20.672184
64.530 20.262918
64.535 19.9111
64.540 19.730972
64.545 19.816563
64.550 19.022533
64.555 18.823313
64.560 18.820189
64.565 19.168287
64.570 19.244329
64.575 18.948252
64.580 18.523743
64.585 18.671839
64.590 18.451138
64.595 17.827232
64.600 17.050404
64.605 16.638575
64.610 15.645491
64.615 15.516761
64.620 15.576063
64.625 15.862469
64.630 15.740274
64.635 15.385627
64.640 14.901211
64.645 15.293059
64.650 14.957278
64.655 15.229107
64.660 14.890504
64.665 14.788759
64.670 14.718578
64.675 14.614799
64.680 14.576097
64.685 14.414166
64.690 13.440754
64.695 13.075013
64.700 13.420117
64.705 13.447702
64.710 12.963177
64.715 12.493927
64.720 12.739986
64.725 12.562957
64.730 12.865056
64.735 12.406506
64.740 12.635202
64.745 13.190299
64.750 13.027474
64.755 12.524885
64.760 12.862556
64.765 12.419217
64.770 12.377376
64.775 12.20847
64.780 11.600039
64.785 11.364528
64.790 11.581219
64.795 11.451267
64.800 11.216933
64.805 10.935801
64.810 10.775387
64.815 11.209547
64.820 11.599972
64.825 11.801474
64.830 11.711566
64.835 11.770117
64.840 11.96602
64.845 12.096548
64.850 11.907371
64.855 11.946847
64.860 11.926149
64.865 11.997676
64.870 12.122906
64.875 11.565136
64.880 11.228749
64.885 11.52448
64.890 11.511661
64.895 11.500502
64.900 12.114506
64.905 12.099968
64.910 12.462397
64.915 12.668736
64.920 12.118587
64.925 11.667135
64.930 11.541902
64.935 11.329331
64.940 11.450578
64.945 11.772395
64.950 11.782796
64.955 11.812936
64.960 11.482664
64.965 11.077374
64.970 10.769844
64.975 10.976773
64.980 10.290418
64.985 10.206572
64.990 10.089403
64.995 10.19381
65.000 10.487716
65.005 10.434778
65.010 10.53531
65.015 10.954189
65.020 11.379961
65.025 11.740664
65.030 12.323435
65.035 12.409879
65.040 12.22192
65.045 12.660823
65.050 12.878922
65.055 13.173409
65.060 13.638805
65.065 13.624515
65.070 13.541829
65.075 13.840797
65.080 13.742397
65.085 13.929286
65.090 14.47632
65.095 14.451736
65.100 14.049058
65.105 14.283915
65.110 14.455411
65.115 14.263668
65.120 14.25966
65.125 14.746763
65.130 15.263896
65.135 15.816792
65.140 15.651431
65.145 15.858866
65.150 15.649219
65.155 15.059123
65.160 13.79206
65.165 13.645261
65.170 13.573405
65.175 13.890058
65.180 13.704523
65.185 14.164886
65.190 15.007975
65.195 15.351032
65.200 15.34699
65.205 15.064084
65.210 14.836184
65.215 14.528551
65.220 14.243331
65.225 14.160487
65.230 14.562034
65.235 14.205023
65.240 14.234419
65.245 14.303805
65.250 14.65154
65.255 14.855123
65.260 14.621738
65.265 14.638446
65.270 15.005466
65.275 15.49527
65.280 15.423755
65.285 15.889386
65.290 15.726514
65.295 15.989705
65.300 15.920162
65.305 16.150276
65.310 16.095707
65.315 16.367805
65.320 16.380135
65.325 16.481915
65.330 16.686045
65.335 16.68117
65.340 16.62225
65.345 17.182251
65.350 17.208019
65.355 17.086285
65.360 17.160402
65.365 17.080376
65.370 16.827934
65.375 16.949429
65.380 17.264784
65.385 17.434982
65.390 17.856844
65.395 18.321178
65.400 18.500572
65.405 19.209269
65.410 19.622475
65.415 19.296926
65.420 19.612593
65.425 19.568176
65.430 19.376627
65.435 19.551039
65.440 20.156157
65.445 20.397966
65.450 21.021011
65.455 21.458099
65.460 21.726633
65.465 22.099207
65.470 21.833141
65.475 21.967442
65.480 21.82864
65.485 21.717327
65.490 21.700216
65.495 21.639153
65.500 22.215448
65.505 22.677477
65.510 22.928171
65.515 23.408913
65.520 22.797562
65.525 23.22707
65.530 23.555449
65.535 24.147346
65.540 24.448923
65.545 24.482615
65.550 24.385168
65.555 24.784061
65.560 24.218355
65.565 23.540543
65.570 22.688715
65.575 22.367771
65.580 22.383223
65.585 21.591526
65.590 21.209621
65.595 21.400637
65.600 21.316509
65.605 21.773653
65.610 21.016703
65.615 20.268919
65.620 20.542881
65.625 20.926292
65.630 20.892855
65.635 20.553123
65.640 19.916611
65.645 20.048668
65.650 19.759378
65.655 19.468925
65.660 18.619722
65.665 18.179163
65.670 17.830971
65.675 17.813709
65.680 17.584082
65.685 17.680864
65.690 17.940647
65.695 17.623013
65.700 17.337313
65.705 17.316973
65.710 17.204742
65.715 17.154156
65.720 16.508629
65.725 16.596537
65.730 16.675165
65.735 16.728832
65.740 17.013636
65.745 17.129108
65.750 16.938091
65.755 17.076372
65.760 16.352732
65.765 16.16894
65.770 15.849101
65.775 15.390292
65.780 15.005507
65.785 15.035772
65.790 14.53673
65.795 14.827045
65.800 15.081535
65.805 15.260817
65.810 14.809874
65.815 14.640738
65.820 14.324984
65.825 14.36273
65.830 14.245484
65.835 13.92196
65.840 13.797076
65.845 13.620521
65.850 13.260666
65.855 12.796922
65.860 12.588496
65.865 12.37052
65.870 12.23608
65.875 12.354897
65.880 12.387328
65.885 12.461436
65.890 12.785984
65.895 12.58669
65.900 12.468309
65.905 12.204105
65.910 12.054461
65.915 12.484481
65.920 12.565585
65.925 12.697938
65.930 12.709226
65.935 12.716077
65.940 12.834301
65.945 12.472958
65.950 12.139706
65.955 12.057786
65.960 11.786763
65.965 11.566994
65.970 11.716213
65.975 11.706079
65.980 11.802611
65.985 11.657964
65.990 11.227465
65.995 10.822706
66.000 10.857126
66.005 10.518577
66.010 10.122
66.015 10.082891
66.020 10.143511
66.025 10.50493
66.030 10.248917
66.035 10.075247
66.040 10.161271
66.045 10.337708
66.050 10.097642
66.055 9.611599
66.060 9.417528
66.065 9.949718
66.070 10.080074
66.075 9.983289
66.080 10.04719
66.085 9.759572
66.090 9.813423
66.095 10.068124
66.100 10.079293
66.105 9.853274
66.110 9.792193
66.115 9.753435
66.120 10.158649
66.125 10.336758
66.130 10.170025
66.135 9.98892
66.140 10.280086
66.145 10.21704
66.150 9.889805
66.155 9.684612
66.160 9.706179
66.165 9.823009
66.170 9.714693
66.175 9.806508
66.180 10.058057
66.185 10.520734
66.190 10.957396
66.195 11.182778
66.200 11.095018
66.205 11.509416
66.210 11.066882
66.215 11.486132
66.220 11.329079
66.225 10.773288
66.230 10.702158
66.235 10.493423
66.240 10.060926
66.245 10.171582
66.250 9.750809
66.255 9.802671
66.260 9.781784
66.265 9.775333
66.270 9.556896
66.275 9.429692
66.280 9.283224
66.285 9.357528
66.290 9.507702
66.295 9.738193
66.300 9.936755
66.305 10.694247
66.310 10.933715
66.315 11.080482
66.320 11.368281
66.325 11.485595
66.330 11.226782
66.335 10.903948
66.340 10.681446
66.345 10.795004
66.350 10.598691
66.355 10.377771
66.360 10.23339
66.365 10.111827
66.370 9.899652
66.375 9.74254
66.380 9.764806
66.385 9.740842
66.390 9.13297
66.395 8.616441
66.400 8.692603
66.405 8.935452
66.410 8.882335
66.415 8.860968
66.420 9.311842
66.425 9.958662
66.430 10.763848
66.435 10.785074
66.440 10.854799
66.445 11.217569
66.450 10.953428
66.455 10.722256
66.460 10.092666
66.465 9.856283
66.470 9.98818
66.475 10.170934
66.480 10.658791
66.485 10.747057
66.490 11.249026
66.495 11.502604
66.500 11.290662
66.505 10.914672
66.510 10.493598
66.515 10.079268
66.520 10.213329
66.525 10.102741
66.530 10.545567
66.535 11.091456
66.540 11.529198
66.545 11.219175
66.550 10.757553
66.555 10.557968
66.560 10.444484
66.565 10.108732
66.570 9.792442
66.575 9.728148
66.580 10.064704
66.585 10.257794
66.590 10.514506
66.595 10.591033
66.600 10.763203
66.605 11.108883
66.610 11.002134
66.615 10.753561
66.620 10.876779
66.625 10.822175
66.630 10.760679
66.635 10.931595
66.640 10.649736
66.645 10.803568
66.650 11.0675
66.655 11.495436
66.660 11.189004
66.665 10.452445
66.670 9.925222
66.675 9.612772
66.680 9.820979
66.685 9.608344
66.690 9.42467
66.695 9.471008
66.700 9.564385
66.705 9.564937
66.710 9.724295
66.715 9.674382
66.720 9.743191
66.725 9.693029
66.730 9.81369
66.735 9.747915
66.740 9.772333
66.745 9.591255
66.750 9.696351
66.755 10.017252
66.760 9.984198
66.765 10.672894
66.770 10.993396
66.775 11.191448
66.780 11.461795
66.785 11.276319
66.790 11.130162
66.795 11.056194
66.800 10.630619
66.805 10.773355
66.810 10.385443
66.815 10.309054
66.820 10.105966
66.825 10.114889
66.830 9.84898
66.835 9.975402
66.840 10.049343
66.845 10.085939
66.850 9.969419
66.855 10.113359
66.860 9.824972
66.865 9.674983
66.870 9.562894
66.875 9.79405
66.880 9.732471
66.885 9.333231
66.890 9.503666
66.895 9.647809
66.900 9.999821
66.905 9.931664
66.910 9.687619
66.915 9.856466
66.920 9.783053
66.925 9.507201
66.930 9.443349
66.935 9.01197
66.940 8.793738
66.945 8.195014
66.950 8.178664
66.955 8.293295
66.960 8.345268
66.965 8.357434
66.970 8.428824
66.975 8.418517
66.980 8.713241
66.985 8.819791
66.990 8.824921
66.995 8.676815
67.000 8.585005
67.005 8.605111
67.010 9.520556
67.015 9.926869
67.020 10.138228
67.025 10.500903
67.030 10.558589
67.035 10.885586
67.040 10.841083
67.045 10.468776
67.050 10.105166
67.055 10.176824
67.060 10.054525
67.065 9.769745
67.070 9.509742
67.075 9.957846
67.080 9.893732
67.085 9.821413
67.090 9.685754
67.095 9.991648
67.100 10.395231
67.105 10.912276
67.110 10.86323
67.115 11.029084
67.120 11.152654
67.125 10.784064
67.130 10.946959
67.135 10.863111
67.140 10.382207
67.145 10.07874
67.150 10.077379
67.155 10.210896
67.160 10.396273
67.165 10.278395
67.170 10.46689
67.175 10.795297
67.180 10.745154
67.185 10.679965
67.190 10.846524
67.195 10.721262
67.200 10.343391
67.205 9.662962
67.210 9.271413
67.215 9.461953
67.220 9.491794
67.225 9.346291
67.230 9.063481
67.235 8.760917
67.240 9.263332
67.245 9.325524
67.250 9.329977
67.255 9.36149
67.260 9.29339
67.265 9.700062
67.270 9.963183
67.275 10.322217
67.280 11.003633
67.285 10.966796
67.290 10.700068
67.295 10.657845
67.300 10.759923
67.305 10.957704
67.310 10.367445
67.315 10.007879
67.320 9.950058
67.325 10.082759
67.330 10.222281
67.335 10.206512
67.340 10.227218
67.345 10.426564
67.350 10.079918
67.355 10.04824
67.360 9.994067
67.365 9.693964
67.370 9.927784
67.375 9.855807
67.380 9.563207
67.385 9.792692
67.390 10.08823
67.395 10.025804
67.400 10.384701
67.405 9.840058
67.410 9.927691
67.415 10.048055
67.420 10.013135
67.425 9.92821
67.430 10.504515
67.435 10.472112
67.440 10.707986
67.445 10.857237
67.450 10.515594
67.455 10.507003
67.460 10.701107
67.465 10.542171
67.470 10.423507
67.475 10.373526
67.480 10.11106
67.485 10.071196
67.490 9.779216
67.495 9.449126
67.500 8.923511
67.505 9.179747
67.510 9.402773
67.515 9.869821
67.520 10.398749
67.525 10.48943
67.530 10.584585
67.535 10.916311
67.540 10.834793
67.545 10.876579
67.550 10.616137
67.555 10.46126
67.560 10.168397
67.565 10.216905
67.570 10.456894
67.575 10.22345
67.580 9.936635
67.585 9.720347
67.590 9.86182
67.595 9.941545
67.600 9.583304
67.605 9.497499
67.610 9.556771
67.615 9.30607
67.620 9.788774
67.625 9.924202
67.630 10.066474
67.635 10.5058
67.640 10.456904
67.645 10.46721
67.650 10.799638
67.655 10.412356
67.660 10.382838
67.665 10.16003
67.670 9.823164
67.675 9.952017
67.680 9.792159
67.685 9.651259
67.690 10.039096
67.695 9.863175
67.700 10.320921
67.705 10.118067
67.710 10.157265
67.715 10.304873
67.720 10.639997
67.725 10.947515
67.730 10.921826
67.735 10.453961
67.740 10.257794
67.745 10.165736
67.750 9.906996
67.755 9.404094
67.760 9.043292
67.765 9.432364
67.770 9.614536
67.775 10.328511
67.780 10.053367
67.785 10.328435
67.790 10.811078
67.795 10.875073
67.800 11.059299
67.805 11.32198
67.810 10.833698
67.815 10.955851
67.820 10.547407
67.825 10.333247
67.830 10.508977
67.835 10.60622
67.840 10.707018
67.845 10.99456
67.850 11.603391
67.855 11.953302
67.860 11.808827
67.865 11.557164
67.870 11.577812
67.875 11.235167
67.880 10.915596
67.885 10.577235
67.890 10.266797
67.895 10.140178
67.900 9.915555
67.905 9.403981
67.910 9.508691
67.915 9.530027
67.920 9.623646
67.925 10.165163
67.930 10.374636
67.935 10.764595
67.940 11.089045
67.945 11.092292
67.950 11.520881
67.955 11.239646
67.960 10.843315
67.965 10.671614
67.970 10.603341
67.975 10.47715
67.980 10.402564
67.985 10.097836
67.990 9.904522
67.995 9.767309
68.000 9.76554
68.005 9.411154
68.010 9.572651
68.015 9.688792
68.020 9.892734
68.025 10.187752
68.030 10.134084
68.035 10.204592
68.040 10.175924
68.045 10.249539
68.050 10.651834
68.055 10.373414
68.060 10.355143
68.065 10.354665
68.070 9.838779
68.075 10.149452
68.080 9.561709
68.085 9.142596
68.090 9.622127
68.095 10.157331
68.100 10.300014
68.105 10.277703
68.110 10.361333
68.115 10.583521
68.120 10.567708
68.125 10.260655
68.130 9.636046
68.135 9.713145
68.140 9.869737
68.145 9.593783
68.150 9.382722
68.155 9.308035
68.160 9.680035
68.165 9.928757
68.170 10.0485
68.175 11.016086
68.180 11.772751
68.185 12.265158
68.190 12.380347
68.195 12.085961
68.200 12.217354
68.205 12.56501
68.210 11.901317
68.215 11.578394
68.220 11.4398
68.225 11.488967
68.230 11.605528
68.235 11.609978
68.240 11.110901
68.245 11.163361
68.250 11.335931
68.255 11.814565
68.260 12.094695
68.265 11.768576
68.270 12.083726
68.275 12.676362
68.280 12.945782
68.285 12.247812
68.290 11.966761
68.295 11.83998
68.300 12.260942
68.305 12.144584
68.310 11.963093
68.315 12.244204
68.320 13.066126
68.325 13.587459
68.330 13.825953
68.335 13.86167
68.340 13.378201
68.345 12.957416
68.350 12.519418
68.355 12.08337
68.360 11.559063
68.365 11.614363
68.370 11.733495
68.375 12.001233
68.380 12.216426
68.385 12.638147
68.390 12.64135
68.395 12.328337
68.400 11.944151
68.405 12.129065
68.410 12.118432
68.415 12.085238
68.420 11.891826
68.425 12.450552
68.430 12.902431
68.435 12.918793
68.440 13.240343
68.445 13.416392
68.450 13.712259
68.455 14.367629
68.460 14.148288
68.465 14.20454
68.470 14.264069
68.475 13.810549
68.480 13.855989
68.485 13.326195
68.490 12.787321
68.495 12.816471
68.500 12.872737
68.505 13.687533
68.510 13.948524
68.515 14.113459
68.520 14.2959
68.525 14.777874
68.530 14.691287
68.535 14.420018
68.540 13.88291
68.545 14.085183
68.550 14.262887
68.555 14.54574
68.560 14.489877
68.565 15.086483
68.570 15.477435
68.575 15.480672
68.580 15.131602
68.585 15.130533
68.590 14.968263
68.595 14.66999
68.600 14.26793
68.605 14.476295
68.610 15.049242
68.615 15.611866
68.620 15.715705
68.625 16.083839
68.630 16.607632
68.635 16.856022
68.640 16.657839
68.645 17.177032
68.650 17.633343
68.655 18.208286
68.660 18.775915
68.665 18.579256
68.670 18.868917
68.675 18.755371
68.680 18.275721
68.685 18.235481
68.690 18.068441
68.695 17.725538
68.700 17.577934
68.705 17.66415
68.710 17.875683
68.715 18.08427
68.720 18.038675
68.725 18.521965
68.730 18.958488
68.735 19.363258
68.740 19.363581
68.745 19.459087
68.750 19.444532
68.755 19.910236
68.760 19.531731
68.765 19.645704
68.770 19.853029
68.775 19.936361
68.780 19.779043
68.785 19.478134
68.790 18.796455
68.795 19.011166
68.800 18.641899
68.805 18.144653
68.810 18.344748
68.815 18.53009
68.820 18.431358
68.825 18.284491
68.830 17.845428
68.835 18.238792
68.840 18.528734
68.845 18.486181
68.850 18.577763
68.855 18.987068
68.860 19.099035
68.865 18.969627
68.870 18.757397
68.875 18.565132
68.880 18.078972
68.885 17.525776
68.890 17.439945
68.895 17.89994
68.900 18.216572
68.905 18.212095
68.910 17.69639
68.915 17.782511
68.920 18.126579
68.925 17.832088
68.930 17.093121
68.935 16.351223
68.940 15.936094
68.945 16.205986
68.950 15.704969
68.955 15.342274
68.960 14.744196
68.965 14.900017
68.970 15.116729
68.975 15.161598
68.980 15.172791
68.985 15.522202
68.990 15.252121
68.995 15.314075
69.000 14.991678
69.005 14.462623
69.010 14.239048
69.015 13.873981
69.020 13.295949
69.025 13.561218
69.030 13.597783
69.035 13.306794
69.040 13.315187
69.045 13.23274
69.050 13.64887
69.055 14.1189
69.060 13.873877
69.065 13.712742
69.070 13.690426
69.075 13.82126
69.080 13.598866
69.085 12.875899
69.090 12.684717
69.095 12.702355
69.100 12.733191
69.105 12.615761
69.110 12.325254
69.115 12.455892
69.120 12.289751
69.125 12.166783
69.130 12.227007
69.135 12.460688
69.140 12.74092
69.145 12.984924
69.150 12.910253
69.155 13.394315
69.160 13.377156
69.165 12.77786
69.170 12.541048
69.175 11.856502
69.180 11.903967
69.185 11.873747
69.190 11.284019
69.195 11.137629
69.200 10.739298
69.205 10.607979
69.210 10.767367
69.215 10.749107
69.220 10.727036
69.225 11.078765
69.230 11.395991
69.235 11.906823
69.240 12.067017
69.245 11.69579
69.250 11.496135
69.255 11.193629
69.260 11.156884
69.265 11.170962
69.270 11.432553
69.275 11.371251
69.280 11.459914
69.285 11.311783
69.290 11.627886
69.295 11.703263
69.300 11.340448
69.305 11.218791
69.310 11.540211
69.315 11.454134
69.320 11.425665
69.325 11.168458
69.330 11.03261
69.335 11.329094
69.340 11.457625
69.345 11.792157
69.350 11.983206
69.355 11.929577
69.360 11.948267
69.365 11.895026
69.370 11.669712
69.375 11.637377
69.380 11.203041
69.385 11.227795
69.390 11.949196
69.395 12.010791
69.400 11.885366
69.405 11.701704
69.410 11.287465
69.415 11.14811
69.420 10.847353
69.425 10.344558
69.430 10.349968
69.435 10.669397
69.440 10.537099
69.445 10.405007
69.450 10.602406
69.455 10.950596
69.460 11.002012
69.465 11.121387
69.470 10.555558
69.475 10.524075
69.480 10.363182
69.485 9.766031
69.490 9.616029
69.495 9.449395
69.500 9.38132
69.505 9.499269
69.510 9.739827
69.515 10.300595
69.520 10.487186
69.525 10.595827
69.530 10.599032
69.535 10.779652
69.540 11.169228
69.545 10.763208
69.550 10.313126
69.555 10.105743
69.560 10.097622
69.565 10.061531
69.570 9.92035
69.575 9.834198
69.580 9.718342
69.585 9.932575
69.590 9.71985
69.595 9.651172
69.600 9.709792
69.605 9.589852
69.610 9.581314
69.615 9.950458
69.620 10.266058
69.625 10.256319
69.630 10.234262
69.635 10.432232
69.640 10.608499
69.645 10.855845
69.650 10.520819
69.655 10.553704
69.660 11.239185
69.665 10.804819
69.670 10.487264
69.675 10.388499
69.680 10.399883
69.685 10.920117
69.690 10.976683
69.695 11.06935
69.700 11.113229
69.705 11.633924
69.710 11.334049
69.715 10.877823
69.720 10.687611
69.725 10.421964
69.730 9.888745
69.735 9.596396
69.740 9.591314
69.745 9.906223
69.750 9.653075
69.755 9.136539
69.760 9.253642
69.765 9.610002
69.770 9.670884
69.775 9.377576
69.780 9.496024
69.785 9.945784
69.790 10.193903
69.795 10.412511
69.800 10.510485
69.805 10.802443
69.810 10.765278
69.815 10.551204
69.820 10.657374
69.825 10.49345
69.830 10.241337
69.835 10.32325
69.840 9.657762
69.845 9.250961
69.850 9.397753
69.855 9.534875
69.860 9.048703
69.865 8.716666
69.870 8.447901
69.875 9.061385
69.880 9.846218
69.885 9.570131
69.890 9.574343
69.895 9.664942
69.900 10.050088
69.905 10.08508
69.910 9.85322
69.915 9.698564
69.920 9.472754
69.925 9.379047
69.930 9.506016
69.935 9.567482
69.940 9.752764
69.945 9.641705
69.950 9.917696
69.955 10.290639
69.960 10.153065
69.965 10.48558
69.970 10.593918
69.975 10.699458
69.980 10.676989
69.985 10.416643
69.990 10.453386
69.995 11.114639
70.000 10.858126
70.005 11.034999
70.010 11.000186
70.015 11.176412
70.020 11.339554
70.025 11.223948
70.030 10.63177
70.035 10.732709
70.040 10.295548
70.045 10.024777
70.050 9.936085
70.055 10.232326
70.060 10.216812
70.065 9.928246
70.070 9.892615
70.075 9.828031
70.080 9.747688
70.085 9.916042
70.090 9.878843
70.095 9.939415
70.100 10.422451
70.105 10.523155
70.110 10.737383
70.115 10.734064
70.120 10.322733
70.125 10.367547
70.130 10.252253
70.135 10.423194
70.140 10.213032
70.145 10.429043
70.150 10.782687
70.155 10.57578
70.160 10.551468
70.165 10.60633
70.170 10.615209
70.175 10.762149
70.180 10.378092
70.185 9.997906
70.190 9.99029
70.195 9.915051
70.200 9.755733
70.205 9.346047
70.210 9.043049
70.215 9.290144
70.220 9.467929
70.225 9.470831
70.230 9.687197
70.235 9.873169
70.240 9.890302
70.245 10.238585
70.250 10.082143
70.255 10.061926
70.260 10.015522
70.265 10.140869
70.270 10.386706
70.275 10.638037
70.280 10.385341
70.285 10.753578
70.290 10.686663
70.295 11.035803
70.300 10.498772
70.305 10.438761
70.310 10.81769
70.315 11.192142
70.320 10.974419
70.325 11.315277
70.330 11.178029
70.335 11.186924
70.340 11.034181
70.345 10.748524
70.350 10.346507
70.355 10.290049
70.360 10.067364
70.365 10.243367
70.370 10.426632
70.375 10.411749
70.380 10.561646
70.385 10.80416
70.390 10.83147
70.395 10.547223
70.400 10.299301
70.405 10.239679
70.410 10.421947
70.415 10.10934
70.420 9.850165
70.425 9.987848
70.430 10.07848
70.435 10.426771
70.440 10.211029
70.445 9.771513
70.450 9.843544
70.455 10.047743
70.460 9.90463
70.465 9.922864
70.470 10.302701
70.475 10.821668
70.480 11.072573
70.485 11.076728
70.490 10.956741
70.495 10.905684
70.500 10.850884
70.505 10.620228
70.510 10.478838
70.515 11.309866
70.520 11.176944
70.525 11.324651
70.530 11.30862
70.535 10.908633
70.540 10.745307
70.545 10.548881
70.550 10.176376
70.555 10.26046
70.560 10.19782
70.565 10.677653
70.570 10.974103
70.575 11.201968
70.580 11.261436
70.585 11.122862
70.590 11.234483
70.595 11.430922
70.600 11.081445
70.605 11.039043
70.610 10.727509
70.615 10.636204
70.620 10.549978
70.625 10.664128
70.630 10.514643
70.635 10.350673
70.640 9.959093
70.645 10.067078
70.650 10.06149
70.655 10.211595
70.660 9.559195
70.665 9.335521
70.670 9.642438
70.675 9.908254
70.680 9.671516
70.685 9.316372
70.690 9.173032
70.695 9.207988
70.700 9.460546
70.705 9.23842
70.710 8.971141
70.715 9.194956
70.720 9.628669
70.725 9.745769
70.730 10.210239
70.735 10.315582
70.740 10.093413
70.745 10.175967
70.750 10.078203
70.755 9.966234
70.760 10.002476
70.765 9.731924
70.770 9.800942
70.775 9.964068
70.780 9.668463
70.785 9.190056
70.790 8.946613
70.795 9.019941
70.800 8.795002
70.805 8.689784
70.810 8.905306
70.815 9.338269
70.820 9.860914
70.825 9.964087
70.830 9.929546
70.835 10.174036
70.840 10.044643
70.845 10.214365
70.850 10.059797
70.855 9.653285
70.860 9.813681
70.865 9.635968
70.870 9.405364
70.875 9.457342
70.880 9.159215
70.885 9.541063
70.890 9.845675
70.895 10.26781
70.900 10.782166
70.905 11.130999
70.910 10.786683
70.915 10.536452
70.920 10.222134
70.925 9.898583
70.930 9.432635
70.935 9.00116
70.940 9.023384
70.945 9.479693
70.950 9.820485
70.955 9.629044
70.960 9.874728
70.965 9.868278
70.970 9.88094
70.975 9.699973
70.980 9.405877
70.985 9.4752
70.990 9.435645
70.995 9.365252
71.000 9.558561
71.005 9.639207
71.010 10.025635
71.015 10.001716
71.020 10.19542
71.025 10.456202
71.030 9.956653
71.035 10.11839
71.040 10.200668
71.045 9.787781
71.050 10.025277
71.055 9.900223
71.060 10.420409
71.065 10.89156
71.070 10.368092
71.075 10.48416
71.080 10.609644
71.085 10.358224
71.090 10.010858
71.095 10.117961
71.100 10.255135
71.105 10.150967
71.110 10.194311
71.115 10.232242
71.120 10.428201
71.125 10.876995
71.130 10.946771
71.135 11.20786
71.140 11.448277
71.145 11.259366
71.150 11.139971
71.155 11.110093
71.160 10.992211
71.165 10.913975
71.170 10.613221
71.175 10.209785
71.180 9.963463
71.185 9.67231
71.190 9.711023
71.195 9.292748
71.200 8.886217
71.205 9.397367
71.210 10.058824
71.215 10.31334
71.220 10.767347
71.225 10.653631
71.230 10.844433
71.235 11.31659
71.240 11.604353
71.245 11.5374
71.250 11.984314
71.255 11.917722
71.260 11.455348
71.265 11.245536
71.270 11.181615
71.275 10.758652
71.280 10.416042
71.285 9.775105
71.290 9.70987
71.295 10.049177
71.300 9.578364
71.305 9.168468
71.310 9.334103
71.315 9.848965
71.320 10.534337
71.325 10.776069
71.330 10.86254
71.335 11.337647
71.340 11.225978
71.345 10.986753
71.350 10.643673
71.355 9.95657
71.360 9.918821
71.365 9.965149
71.370 10.040792
71.375 10.330447
71.380 10.452942
71.385 9.998319
71.390 10.116351
71.395 10.023296
71.400 10.005065
71.405 9.589478
71.410 9.48391
71.415 9.543216
71.420 10.090399
71.425 10.168136
71.430 10.153708
71.435 10.183673
71.440 10.602495
71.445 10.561709
71.450 10.732415
71.455 11.104421
71.460 11.344962
71.465 11.213174
71.470 10.738716
71.475 10.519483
71.480 10.348145
71.485 9.858508
71.490 9.284955
71.495 8.970736
71.500 9.4473
71.505 9.517776
71.510 9.432953
71.515 9.413784
71.520 9.744215
71.525 9.728411
71.530 9.684627
71.535 10.17375
71.540 10.170329
71.545 10.055984
71.550 10.28566
71.555 10.806787
71.560 11.40735
71.565 11.045856
71.570 10.420639
71.575 10.646555
71.580 10.812614
71.585 10.714129
71.590 10.572245
71.595 10.50825
71.600 10.838591
71.605 11.078996
71.610 11.160901
71.615 10.856567
71.620 10.935454
71.625 10.68222
71.630 10.6904
71.635 10.25522
71.640 10.185647
71.645 10.004772
71.650 9.690982
71.655 9.372709
71.660 9.144128
71.665 9.114802
71.670 9.241948
71.675 9.593425
71.680 10.09587
71.685 10.562833
71.690 10.526911
71.695 10.538433
71.700 10.790812
71.705 10.737392
71.710 10.203267
71.715 10.221925
71.720 10.172858
71.725 10.31703
71.730 10.486875
71.735 10.526231
71.740 10.587597
71.745 10.813946
71.750 10.502252
71.755 10.739518
71.760 10.590667
71.765 10.555079
71.770 10.618908
71.775 10.373165
71.780 10.27076
71.785 10.262522
71.790 10.021266
71.795 10.467223
71.800 10.522305
71.805 10.500474
71.810 10.963432
71.815 11.033386
71.820 11.250865
71.825 11.147203
71.830 10.613983
71.835 10.467228
71.840 10.132244
71.845 10.032599
71.850 9.939004
71.855 9.674096
71.860 9.593221
71.865 9.653975
71.870 9.592238
71.875 9.971869
71.880 9.652497
71.885 9.947412
71.890 10.140788
71.895 10.356225
71.900 10.108245
71.905 10.007227
71.910 9.735246
71.915 9.5253
71.920 9.346253
71.925 9.414596
71.930 9.640749
71.935 10.001117
71.940 9.894486
71.945 10.083264
71.950 10.152387
71.955 9.548804
71.960 9.206026
71.965 8.816842
71.970 8.667055
71.975 8.39156
71.980 8.560456
71.985 9.14349
71.990 9.383438
71.995 9.793125
72.000 9.674817
72.005 10.021095
72.010 9.763726
72.015 9.335706
72.020 9.641606
72.025 9.743815
72.030 9.592811
72.035 9.565116
72.040 9.44731
72.045 9.97204
72.050 10.272407
72.055 10.015162
72.060 9.976751
72.065 9.998472
72.070 10.111164
72.075 10.36673
72.080 10.207984
72.085 9.773678
72.090 9.446486
72.095 9.78974
72.100 9.839094
72.105 9.654016
72.110 9.249976
72.115 9.028586
72.120 9.242591
72.125 9.103867
72.130 8.847346
72.135 9.019751
72.140 9.378842
72.145 9.773711
72.150 10.082761
72.155 10.094842
72.160 10.235258
72.165 10.385876
72.170 10.541521
72.175 10.641447
72.180 10.353375
72.185 10.029462
72.190 9.957355
72.195 9.774927
72.200 9.666805
72.205 9.208041
72.210 9.523584
72.215 9.662719
72.220 9.765422
72.225 9.808996
72.230 10.01245
72.235 10.304745
72.240 10.499823
72.245 10.516446
72.250 10.46186
72.255 10.492038
72.260 10.53069
72.265 10.63244
72.270 10.190321
72.275 10.150082
72.280 10.0829
72.285 10.002011
72.290 10.420761
72.295 10.610983
72.300 10.503158
72.305 10.945922
72.310 10.841181
72.315 11.293678
72.320 11.32036
72.325 11.164561
72.330 10.820623
72.335 10.740837
72.340 10.301969
72.345 9.867176
72.350 9.693985
72.355 9.643373
72.360 9.936553
72.365 9.896804
72.370 9.673612
72.375 9.854643
72.380 10.000358
72.385 9.911573
72.390 10.068887
72.395 9.829416
72.400 9.961657
72.405 10.108737
72.410 9.918085
72.415 10.411685
72.420 10.910378
72.425 11.072638
72.430 10.883179
72.435 11.097115
72.440 11.435214
72.445 11.577478
72.450 11.209919
72.455 10.865179
72.460 10.548356
72.465 10.344805
72.470 10.053701
72.475 9.927142
72.480 10.187818
72.485 9.996084
72.490 9.84652
72.495 9.883583
72.500 10.167346
72.505 10.142151
72.510 10.146601
72.515 9.741534
72.520 9.403111
72.525 9.102463
72.530 9.090045
72.535 9.093585
72.540 8.814516
72.545 8.397309
72.550 8.383211
72.555 8.55918
72.560 8.787932
72.565 8.82275
72.570 8.47351
72.575 8.619029
72.580 9.270006
72.585 9.756804
72.590 10.776445
72.595 10.742083
72.600 10.893506
72.605 11.562517
72.610 11.733143
72.615 11.494542
72.620 11.473436
72.625 10.762537
72.630 10.736494
72.635 10.675574
72.640 10.222382
72.645 10.361569
72.650 10.425236
72.655 10.427141
72.660 10.530697
72.665 10.70944
72.670 10.80936
72.675 10.894675
72.680 10.471502
72.685 10.032763
72.690 9.988766
72.695 10.300236
72.700 10.272614
72.705 10.365775
72.710 10.210214
72.715 10.15008
72.720 10.040475
72.725 9.449023
72.730 9.416921
72.735 9.648805
72.740 9.79466
72.745 10.292341
72.750 10.796799
72.755 10.952372
72.760 10.94483
72.765 10.511725
72.770 10.267301
72.775 10.349167
72.780 9.758882
72.785 9.643306
72.790 9.656138
72.795 9.431741
72.800 9.605647
72.805 9.219764
72.810 9.428553
72.815 9.505246
72.820 9.313366
72.825 9.863798
72.830 10.288037
72.835 10.494821
72.840 10.580721
72.845 10.763254
72.850 11.314464
72.855 11.231076
72.860 10.607586
72.865 10.595623
72.870 10.519801
72.875 10.424135
72.880 9.761854
72.885 9.317316
72.890 9.667277
72.895 10.368536
72.900 10.730628
72.905 10.944367
72.910 11.159102
72.915 11.190013
72.920 11.029512
72.925 11.134115
72.930 10.338803
72.935 9.56774
72.940 9.243436
72.945 9.42787
72.950 9.767604
72.955 10.04504
72.960 10.485196
72.965 11.030593
72.970 11.153408
72.975 10.860179
72.980 10.425813
72.985 10.116093
72.990 9.702915
72.995 9.238312
73.000 9.02679
