!@!!GADDS PLOTSO FILE: Chi integration type
!@!!Title/SampleName: map-47
!@!!Comment: ?
!@!!User: Bruker Instrument Administrator
!@!!Site: University of Illinois Chicago
!@!!Frame: map-47_01_000.gfrm
!@!!Wavelengths    1.54184   1.54056   1.54439
!@!!Frame angles: 2Theta: 63.000 Omega: 50.000 Phi: 0.000 Chi: 90.000
!@!!Integration range: 2Theta: 53.000 to 73.000  Gamma: -105.000 to -75.000
!@!!Integration method: bin normalized
!@!N
!@!SS
!@!M
!@!L 0.0 0.0 0.0 0.0
!@!XDegrees
!@!YCounts
53.000 9.375328
53.005 9.435214
53.010 9.8309
53.015 10.211242
53.020 10.355408
53.025 10.303262
53.030 9.90899
53.035 9.50149
53.040 9.590467
53.045 9.691089
53.050 9.565611
53.055 9.287737
53.060 9.580849
53.065 10.067457
53.070 10.364445
53.075 10.364309
53.080 10.323475
53.085 10.872427
53.090 10.798656
53.095 10.117834
53.100 9.84982
53.105 9.628041
53.110 9.300794
53.115 8.812628
53.120 8.365366
53.125 8.597596
53.130 8.726057
53.135 8.610415
53.140 8.756183
53.145 9.026648
53.150 9.599743
53.155 10.1487
53.160 10.607442
53.165 11.022676
53.170 11.024217
53.175 11.149812
53.180 11.442341
53.185 11.27879
53.190 10.911096
53.195 10.442091
53.200 9.972807
53.205 9.764863
53.210 8.955712
53.215 8.690426
53.220 9.084152
53.225 9.40274
53.230 9.887903
53.235 10.532554
53.240 10.951056
53.245 11.301677
53.250 10.714305
53.255 10.088682
53.260 9.597432
53.265 9.229069
53.270 8.727174
53.275 8.254175
53.280 8.699591
53.285 9.564712
53.290 9.842436
53.295 9.918271
53.300 9.871739
53.305 10.035674
53.310 10.193232
53.315 9.760784
53.320 9.324308
53.325 9.337887
53.330 9.69887
53.335 9.820871
53.340 9.752713
53.345 9.767382
53.350 9.777576
53.355 10.228872
53.360 10.084538
53.365 9.998745
53.370 10.110188
53.375 9.948545
53.380 10.522348
53.385 10.753901
53.390 10.522552
53.395 10.776613
53.400 10.724442
53.405 11.087477
53.410 10.897038
53.415 10.334216
53.420 10.142433
53.425 10.20967
53.430 9.903328
53.435 9.650743
53.440 9.606924
53.445 9.396746
53.450 9.415195
53.455 9.150027
53.460 9.10288
53.465 9.346306
53.470 9.613201
53.475 9.740864
53.480 9.888911
53.485 9.812044
53.490 9.917724
53.495 9.515207
53.500 9.652383
53.505 9.469252
53.510 9.655805
53.515 9.870393
53.520 9.909787
53.525 9.605011
53.530 9.386219
53.535 9.21888
53.540 9.419514
53.545 9.158132
53.550 8.935267
53.555 9.075354
53.560 9.62886
53.565 10.110609
53.570 9.82557
53.575 9.510103
53.580 10.159866
53.585 10.327391
53.590 10.518206
53.595 10.490657
53.600 10.244024
53.605 10.479168
53.610 10.306602
53.615 9.891966
53.620 9.412211
53.625 9.474714
53.630 9.547814
53.635 9.445023
53.640 9.09158
53.645 9.013741
53.650 9.136024
53.655 9.501887
53.660 9.741757
53.665 9.629607
53.670 9.990915
53.675 10.866279
53.680 10.708381
53.685 11.157918
53.690 11.121917
53.695 11.148403
53.700 11.607317
53.705 11.370827
53.710 11.193904
53.715 11.373647
53.720 11.442954
53.725 12.129433
53.730 11.982403
53.735 12.080728
53.740 11.754027
53.745 11.67055
53.750 11.920691
53.755 11.495226
53.760 10.919324
53.765 10.65743
53.770 10.545904
53.775 10.883192
53.780 10.698793
53.785 10.130118
53.790 10.143154
53.795 10.01949
53.800 10.248153
53.805 9.799276
53.810 9.666952
53.815 10.144472
53.820 10.523279
53.825 10.92415
53.830 10.622876
53.835 10.556911
53.840 10.94206
53.845 10.853585
53.850 10.38578
53.855 10.108761
53.860 10.483598
53.865 10.703363
53.870 10.765773
53.875 10.488482
53.880 10.493571
53.885 10.445004
53.890 10.207039
53.895 9.785426
53.900 9.883396
53.905 10.284659
53.910 10.786675
53.915 10.908231
53.920 10.801818
53.925 11.216069
53.930 11.782414
53.935 11.885948
53.940 11.526612
53.945 11.478238
53.950 11.692253
53.955 11.674143
53.960 10.901475
53.965 10.773363
53.970 10.854555
53.975 11.424556
53.980 11.674775
53.985 11.891905
53.990 12.630296
53.995 13.031384
54.000 12.707383
54.005 12.252476
54.010 11.411179
54.015 11.004346
54.020 10.533
54.025 10.031158
54.030 10.085627
54.035 10.189555
54.040 10.200397
54.045 10.388944
54.050 10.528727
54.055 10.554389
54.060 10.500476
54.065 10.276169
54.070 10.75194
54.075 11.208908
54.080 11.106848
54.085 10.757972
54.090 10.917766
54.095 10.743913
54.100 10.395852
54.105 10.225151
54.110 10.739325
54.115 10.992937
54.120 11.193304
54.125 11.200977
54.130 11.045854
54.135 11.207623
54.140 11.129322
54.145 11.113986
54.150 11.071103
54.155 10.959098
54.160 10.593322
54.165 10.546069
54.170 10.60527
54.175 10.082303
54.180 9.697864
54.185 10.215837
54.190 10.724524
54.195 10.961719
54.200 11.179791
54.205 10.865695
54.210 10.715858
54.215 10.296774
54.220 9.817457
54.225 9.665237
54.230 10.307916
54.235 10.774912
54.240 11.356565
54.245 12.233375
54.250 12.844191
54.255 13.455577
54.260 13.445488
54.265 12.743454
54.270 12.558052
54.275 12.369861
54.280 11.947858
54.285 12.110301
54.290 12.375344
54.295 12.459406
54.300 13.414784
54.305 13.735589
54.310 13.408146
54.315 13.301818
54.320 12.552829
54.325 12.390993
54.330 12.589527
54.335 11.896639
54.340 11.558652
54.345 11.390721
54.350 11.359052
54.355 11.186842
54.360 11.156089
54.365 10.977071
54.370 11.231975
54.375 11.130056
54.380 11.204229
54.385 11.398962
54.390 11.826679
54.395 11.562339
54.400 11.084146
54.405 11.026772
54.410 11.672428
54.415 11.617002
54.420 11.220675
54.425 10.591565
54.430 10.508805
54.435 10.745101
54.440 10.81571
54.445 10.94982
54.450 11.01644
54.455 10.859238
54.460 11.093483
54.465 11.079494
54.470 11.394383
54.475 11.239012
54.480 11.164915
54.485 11.193499
54.490 11.16345
54.495 10.927582
54.500 10.985682
54.505 10.310144
54.510 9.805299
54.515 10.031989
54.520 10.308839
54.525 11.152267
54.530 11.929689
54.535 12.179249
54.540 12.611457
54.545 12.618671
54.550 12.02596
54.555 11.444642
54.560 10.941789
54.565 10.412659
54.570 9.865371
54.575 10.127402
54.580 10.588696
54.585 11.518848
54.590 11.91742
54.595 11.815416
54.600 12.278378
54.605 12.835255
54.610 12.349587
54.615 12.069968
54.620 11.93789
54.625 11.576549
54.630 11.496267
54.635 11.402613
54.640 11.167579
54.645 11.35632
54.650 11.245831
54.655 10.838965
54.660 10.665245
54.665 10.574867
54.670 10.958935
54.675 11.780965
54.680 11.703592
54.685 11.704775
54.690 12.213654
54.695 12.326068
54.700 12.283252
54.705 11.409085
54.710 10.730913
54.715 10.967319
54.720 11.29727
54.725 11.133435
54.730 11.492191
54.735 11.620723
54.740 11.961267
54.745 12.483535
54.750 12.258901
54.755 11.886727
54.760 12.368865
54.765 12.272468
54.770 12.214484
54.775 11.672554
54.780 10.963293
54.785 10.862284
54.790 10.81912
54.795 10.800027
54.800 11.118077
54.805 11.401531
54.810 11.524268
54.815 11.569611
54.820 12.231473
54.825 12.091343
54.830 11.702003
54.835 11.675806
54.840 11.408744
54.845 11.222569
54.850 11.779637
54.855 11.366216
54.860 11.347099
54.865 11.508053
54.870 11.679348
54.875 12.09939
54.880 12.255217
54.885 12.051246
54.890 13.016526
54.895 13.610499
54.900 13.047815
54.905 12.832992
54.910 12.842798
54.915 13.233409
54.920 12.978519
54.925 11.91402
54.930 11.40293
54.935 11.244043
54.940 10.821115
54.945 10.94082
54.950 10.902421
54.955 10.784739
54.960 10.936702
54.965 10.77248
54.970 11.121855
54.975 11.538204
54.980 11.602267
54.985 11.40201
54.990 11.915133
54.995 12.033632
55.000 12.574609
55.005 12.684861
55.010 12.762974
55.015 12.441136
55.020 12.675586
55.025 12.514961
55.030 12.469184
55.035 12.033904
55.040 11.593884
55.045 11.188432
55.050 10.835181
55.055 10.886731
55.060 11.23339
55.065 11.26846
55.070 11.374951
55.075 11.611119
55.080 11.996286
55.085 11.955874
55.090 11.852472
55.095 11.434925
55.100 11.294177
55.105 11.461165
55.110 11.220867
55.115 11.378074
55.120 11.485404
55.125 11.089114
55.130 10.808293
55.135 11.535531
55.140 11.861676
55.145 11.972462
55.150 11.724471
55.155 12.041639
55.160 12.545931
55.165 12.780169
55.170 12.30941
55.175 12.341046
55.180 12.770501
55.185 12.814397
55.190 13.094342
55.195 13.157941
55.200 13.251143
55.205 12.909908
55.210 12.436193
55.215 12.840731
55.220 12.382601
55.225 11.90712
55.230 11.864357
55.235 11.68453
55.240 11.720863
55.245 11.54251
55.250 11.465963
55.255 11.922244
55.260 11.931842
55.265 12.132022
55.270 12.314741
55.275 12.415172
55.280 12.563912
55.285 11.766894
55.290 11.876707
55.295 12.063093
55.300 11.475715
55.305 11.023199
55.310 11.100684
55.315 11.049222
55.320 11.017078
55.325 11.251016
55.330 11.210345
55.335 11.440835
55.340 11.145323
55.345 11.510618
55.350 11.925603
55.355 12.231202
55.360 11.812468
55.365 11.740464
55.370 12.076712
55.375 12.481029
55.380 12.552041
55.385 12.656433
55.390 12.343103
55.395 12.082935
55.400 12.094707
55.405 12.269813
55.410 12.070254
55.415 11.680712
55.420 11.261431
55.425 11.211686
55.430 11.479281
55.435 11.238487
55.440 11.249773
55.445 11.013726
55.450 11.090921
55.455 11.111512
55.460 11.272344
55.465 11.394169
55.470 11.665109
55.475 11.875801
55.480 11.565007
55.485 11.778738
55.490 12.155478
55.495 13.138093
55.500 13.348571
55.505 13.338322
55.510 13.371932
55.515 13.522174
55.520 13.344204
55.525 12.859368
55.530 12.427398
55.535 12.979156
55.540 12.744485
55.545 12.471813
55.550 12.654036
55.555 12.642095
55.560 12.398047
55.565 12.456972
55.570 11.792888
55.575 11.964347
55.580 12.306418
55.585 12.641516
55.590 13.231236
55.595 13.841895
55.600 13.62513
55.605 13.742993
55.610 13.992361
55.615 14.028846
55.620 13.730038
55.625 13.212097
55.630 12.805583
55.635 12.9193
55.640 12.939901
55.645 12.771183
55.650 12.587591
55.655 12.708456
55.660 13.003961
55.665 12.568009
55.670 12.151493
55.675 12.301618
55.680 12.318337
55.685 12.219331
55.690 12.330788
55.695 12.086915
55.700 12.33672
55.705 12.865867
55.710 12.872231
55.715 12.930756
55.720 13.28546
55.725 13.562186
55.730 13.638767
55.735 13.463095
55.740 13.715577
55.745 13.986144
55.750 14.367532
55.755 13.909743
55.760 13.701266
55.765 13.800678
55.770 13.769514
55.775 13.454165
55.780 12.854985
55.785 12.439892
55.790 12.101793
55.795 11.948297
55.800 11.867407
55.805 11.659809
55.810 11.730185
55.815 11.925402
55.820 12.154044
55.825 12.592104
55.830 13.353982
55.835 13.707903
55.840 14.144907
55.845 14.275472
55.850 14.170402
55.855 14.441612
55.860 14.261394
55.865 13.63741
55.870 13.912394
55.875 13.61358
55.880 12.988759
55.885 12.797057
55.890 12.267699
55.895 12.334064
55.900 12.22578
55.905 11.761422
55.910 11.862976
55.915 12.313789
55.920 12.684522
55.925 13.101512
55.930 13.503372
55.935 13.724092
55.940 13.680839
55.945 13.872379
55.950 14.223248
55.955 14.549473
55.960 14.657168
55.965 14.664622
55.970 14.996284
55.975 14.926535
55.980 15.477874
55.985 15.590294
55.990 15.942105
55.995 16.215082
56.000 15.926894
56.005 15.641345
56.010 15.194168
56.015 14.299814
56.020 13.820755
56.025 13.282314
56.030 12.750869
56.035 12.331771
56.040 12.384446
56.045 12.686213
56.050 12.599579
56.055 12.260258
56.060 12.190398
56.065 12.561989
56.070 12.828331
56.075 12.882519
56.080 13.314308
56.085 13.700981
56.090 13.479817
56.095 13.152214
56.100 12.886302
56.105 12.752567
56.110 12.329276
56.115 11.747137
56.120 11.900784
56.125 11.792533
56.130 11.557423
56.135 11.611273
56.140 11.892248
56.145 12.591944
56.150 12.986464
56.155 13.324434
56.160 13.574148
56.165 13.680275
56.170 13.573664
56.175 13.322227
56.180 12.952606
56.185 12.670406
56.190 12.182247
56.195 12.182274
56.200 12.867152
56.205 13.148421
56.210 13.126163
56.215 13.464832
56.220 13.548383
56.225 13.852753
56.230 14.114199
56.235 13.730785
56.240 13.512151
56.245 13.524787
56.250 13.111952
56.255 13.072259
56.260 13.397473
56.265 13.505336
56.270 13.740346
56.275 14.021458
56.280 13.855752
56.285 14.293859
56.290 14.381069
56.295 14.166367
56.300 13.857038
56.305 13.881516
56.310 13.622054
56.315 14.304872
56.320 14.604359
56.325 14.250472
56.330 14.341997
56.335 14.085117
56.340 14.114743
56.345 14.092852
56.350 13.812104
56.355 13.283933
56.360 13.569347
56.365 13.581684
56.370 13.884541
56.375 14.00522
56.380 13.889525
56.385 13.314887
56.390 13.335953
56.395 13.292113
56.400 13.356017
56.405 13.637418
56.410 13.583112
56.415 13.267497
56.420 13.643809
56.425 13.540599
56.430 13.554221
56.435 13.312201
56.440 12.777857
56.445 12.93272
56.450 13.345446
56.455 13.210176
56.460 13.176417
56.465 13.14055
56.470 13.245032
56.475 13.795092
56.480 13.724215
56.485 13.820881
56.490 14.297708
56.495 14.283298
56.500 14.087944
56.505 13.407749
56.510 13.067041
56.515 12.708158
56.520 12.426554
56.525 12.042656
56.530 12.112841
56.535 12.216153
56.540 12.493269
56.545 12.547264
56.550 12.823788
56.555 13.063021
56.560 13.523916
56.565 13.534024
56.570 13.766299
56.575 13.58172
56.580 13.273858
56.585 13.747199
56.590 13.684583
56.595 14.117779
56.600 14.418038
56.605 14.576052
56.610 15.242991
56.615 15.65694
56.620 15.438004
56.625 15.59178
56.630 15.24437
56.635 14.821342
56.640 14.427838
56.645 13.788047
56.650 13.078235
56.655 13.025417
56.660 12.795282
56.665 12.711697
56.670 12.432672
56.675 13.117611
56.680 13.418618
56.685 13.48306
56.690 13.325368
56.695 13.266933
56.700 13.182307
56.705 13.477234
56.710 13.302275
56.715 13.656564
56.720 13.869159
56.725 14.070762
56.730 14.354115
56.735 14.540009
56.740 15.027777
56.745 14.810804
56.750 15.152589
56.755 15.211551
56.760 15.586067
56.765 15.397027
56.770 15.276818
56.775 14.983253
56.780 15.08067
56.785 14.720543
56.790 14.08739
56.795 13.500524
56.800 13.381075
56.805 13.667921
56.810 13.599611
56.815 13.319553
56.820 13.137151
56.825 13.507481
56.830 13.874336
56.835 14.348969
56.840 14.367063
56.845 15.047254
56.850 15.400138
56.855 15.853004
56.860 16.043325
56.865 15.941904
56.870 15.35449
56.875 14.448651
56.880 14.067237
56.885 13.999833
56.890 13.532339
56.895 13.424489
56.900 13.416276
56.905 13.264894
56.910 13.128229
56.915 13.245314
56.920 13.052858
56.925 13.234576
56.930 13.71696
56.935 13.921926
56.940 14.292649
56.945 14.47178
56.950 13.913665
56.955 14.219171
56.960 13.986453
56.965 13.605398
56.970 13.110875
56.975 13.410516
56.980 13.665156
56.985 14.093733
56.990 14.08954
56.995 14.1092
57.000 13.893383
57.005 14.466161
57.010 15.112316
57.015 15.392027
57.020 15.353173
57.025 15.436275
57.030 15.642084
57.035 15.834348
57.040 16.182472
57.045 15.363211
57.050 15.239552
57.055 14.812303
57.060 14.435281
57.065 14.27781
57.070 14.069551
57.075 13.999611
57.080 13.83486
57.085 13.685646
57.090 14.087542
57.095 14.172124
57.100 14.332375
57.105 14.097118
57.110 13.968378
57.115 14.029679
57.120 13.638961
57.125 13.476113
57.130 14.000525
57.135 14.259227
57.140 14.131886
57.145 13.497927
57.150 14.206182
57.155 14.296953
57.160 13.569493
57.165 13.001473
57.170 12.582187
57.175 12.76629
57.180 13.184201
57.185 12.503758
57.190 12.809796
57.195 13.449778
57.200 13.849485
57.205 13.838215
57.210 13.895631
57.215 13.581982
57.220 13.918209
57.225 14.423747
57.230 14.218201
57.235 14.585898
57.240 14.716445
57.245 14.397699
57.250 14.694217
57.255 14.879224
57.260 15.16048
57.265 15.363002
57.270 15.118623
57.275 15.596775
57.280 16.26264
57.285 16.133917
57.290 15.473501
57.295 15.147146
57.300 14.713248
57.305 14.646351
57.310 14.55549
57.315 14.007683
57.320 14.038953
57.325 14.012651
57.330 14.071136
57.335 14.41439
57.340 14.57606
57.345 14.462472
57.350 14.57314
57.355 15.093364
57.360 15.072047
57.365 15.079007
57.370 15.202207
57.375 14.74835
57.380 15.056552
57.385 14.876269
57.390 14.769305
57.395 15.045635
57.400 15.082662
57.405 14.679955
57.410 14.296364
57.415 14.468125
57.420 14.520863
57.425 14.51823
57.430 14.821708
57.435 14.955689
57.440 15.251172
57.445 15.510236
57.450 15.374853
57.455 15.925806
57.460 16.044678
57.465 15.689734
57.470 15.647789
57.475 15.54891
57.480 14.948235
57.485 14.79729
57.490 14.709571
57.495 14.77967
57.500 14.626904
57.505 14.554264
57.510 14.78681
57.515 15.462401
57.520 15.732696
57.525 15.816829
57.530 15.688228
57.535 16.162544
57.540 16.265074
57.545 16.202711
57.550 15.841807
57.555 15.616942
57.560 15.572574
57.565 15.946187
57.570 15.91017
57.575 15.972756
57.580 15.974467
57.585 16.313496
57.590 16.397095
57.595 15.939564
57.600 15.603928
57.605 15.685246
57.610 15.664236
57.615 16.052406
57.620 16.052946
57.625 16.253525
57.630 17.171522
57.635 17.107241
57.640 16.957558
57.645 16.966282
57.650 17.001556
57.655 17.849728
57.660 17.734306
57.665 17.422766
57.670 17.214165
57.675 17.327345
57.680 17.230154
57.685 16.80941
57.690 15.960133
57.695 15.665777
57.700 15.801734
57.705 15.850427
57.710 16.06646
57.715 15.95784
57.720 15.798547
57.725 16.107262
57.730 15.728785
57.735 14.894141
57.740 14.833275
57.745 14.693203
57.750 14.707982
57.755 15.006902
57.760 14.785679
57.765 15.061666
57.770 15.407306
57.775 15.44662
57.780 16.11801
57.785 16.196732
57.790 16.274576
57.795 16.777122
57.800 16.539463
57.805 16.767332
57.810 17.078625
57.815 17.364954
57.820 18.078032
57.825 17.502594
57.830 16.963476
57.835 17.404779
57.840 17.496752
57.845 16.693295
57.850 15.576587
57.855 15.173602
57.860 15.403051
57.865 15.610279
57.870 15.59171
57.875 15.380882
57.880 15.283293
57.885 15.976708
57.890 16.166895
57.895 15.57671
57.900 15.868782
57.905 15.947156
57.910 15.836217
57.915 15.849853
57.920 15.263186
57.925 15.737683
57.930 16.208885
57.935 15.714952
57.940 15.008946
57.945 15.105353
57.950 15.09156
57.955 14.837379
57.960 14.287795
57.965 13.837894
57.970 14.301143
57.975 14.489177
57.980 14.16231
57.985 14.793811
57.990 15.23557
57.995 15.348611
58.000 15.399234
58.005 16.246445
58.010 16.751852
58.015 17.423744
58.020 17.284857
58.025 17.536476
58.030 18.127035
58.035 17.99655
58.040 17.526651
58.045 17.773237
58.050 17.703726
58.055 17.388544
58.060 16.873884
58.065 16.36063
58.070 16.436235
58.075 16.024269
58.080 15.821166
58.085 15.691319
58.090 15.785638
58.095 16.190622
58.100 16.906206
58.105 17.105858
58.110 17.728874
58.115 18.079359
58.120 18.489746
58.125 18.291716
58.130 18.196806
58.135 18.439976
58.140 19.314739
58.145 19.081944
58.150 18.700401
58.155 18.526474
58.160 18.546741
58.165 18.513597
58.170 18.418947
58.175 17.634027
58.180 17.486355
58.185 17.893986
58.190 18.350952
58.195 18.472416
58.200 18.040461
58.205 17.448769
58.210 17.68939
58.215 17.648787
58.220 17.229372
58.225 17.342428
58.230 17.909637
58.235 18.29361
58.240 18.393753
58.245 18.513756
58.250 18.618113
58.255 18.793993
58.260 18.506958
58.265 18.200085
58.270 18.276691
58.275 18.566181
58.280 18.612465
58.285 18.284868
58.290 18.265951
58.295 18.450159
58.300 18.935974
58.305 19.028032
58.310 18.72451
58.315 18.955524
58.320 19.895796
58.325 20.295126
58.330 20.289675
58.335 21.108467
58.340 21.811981
58.345 21.952703
58.350 22.108587
58.355 21.813595
58.360 22.115908
58.365 22.21521
58.370 21.422499
58.375 21.558279
58.380 21.620811
58.385 22.163877
58.390 22.579458
58.395 22.779835
58.400 23.448877
58.405 23.888832
58.410 24.354895
58.415 24.789242
58.420 25.503727
58.425 26.304787
58.430 26.850843
58.435 27.186279
58.440 26.894886
58.445 26.753174
58.450 27.513395
58.455 27.638229
58.460 27.313856
58.465 27.508327
58.470 28.184471
58.475 29.120802
58.480 29.393879
58.485 29.567732
58.490 30.475727
58.495 31.488739
58.500 31.672815
58.505 30.839243
58.510 30.442532
58.515 30.867481
58.520 30.785749
58.525 29.668444
58.530 29.533684
58.535 29.888718
58.540 30.525122
58.545 31.26017
58.550 31.421761
58.555 32.443874
58.560 33.763325
58.565 33.864681
58.570 34.042439
58.575 34.350243
58.580 34.074558
58.585 33.704494
58.590 33.690792
58.595 33.527061
58.600 33.477219
58.605 33.495022
58.610 33.802509
58.615 33.601734
58.620 33.522133
58.625 33.093201
58.630 33.24876
58.635 33.501877
58.640 33.391502
58.645 33.256107
58.650 33.053543
58.655 32.938213
58.660 32.792847
58.665 32.615665
58.670 32.243092
58.675 31.925913
58.680 31.579176
58.685 31.799694
58.690 32.469646
58.695 32.896969
58.700 32.811977
58.705 33.798428
58.710 34.428398
58.715 34.625057
58.720 34.306156
58.725 33.565292
58.730 32.706032
58.735 31.698381
58.740 30.47694
58.745 29.654894
58.750 29.720388
58.755 29.261927
58.760 30.101835
58.765 30.546963
58.770 30.44696
58.775 29.722391
58.780 29.634132
58.785 29.433359
58.790 29.211021
58.795 27.894724
58.800 26.687712
58.805 26.695833
58.810 26.77507
58.815 26.156864
58.820 25.916809
58.825 25.577896
58.830 25.378349
58.835 24.68247
58.840 24.355719
58.845 23.981836
58.850 22.997641
58.855 23.173698
58.860 22.73111
58.865 22.025568
58.870 21.993021
58.875 21.698801
58.880 21.531048
58.885 21.954807
58.890 21.460838
58.895 22.289648
58.900 22.249723
58.905 22.366674
58.910 22.6609
58.915 22.11845
58.920 21.535151
58.925 21.419018
58.930 21.45364
58.935 21.73093
58.940 21.281111
58.945 20.949165
58.950 21.448643
58.955 21.351738
58.960 20.49748
58.965 19.776674
58.970 19.581793
58.975 20.00923
58.980 20.442955
58.985 20.328407
58.990 20.400061
58.995 20.751261
59.000 20.831203
59.005 20.721872
59.010 20.357914
59.015 20.545938
59.020 20.801308
59.025 20.617687
59.030 20.406166
59.035 20.537638
59.040 20.916964
59.045 21.278795
59.050 19.906446
59.055 19.602013
59.060 19.768234
59.065 19.601761
59.070 19.029383
59.075 18.343254
59.080 17.380777
59.085 17.892139
59.090 17.850666
59.095 18.201117
59.100 17.900158
59.105 18.085606
59.110 17.950293
59.115 18.552263
59.120 18.242079
59.125 17.951181
59.130 17.702744
59.135 18.15284
59.140 18.213882
59.145 18.253399
59.150 17.854565
59.155 17.757515
59.160 17.454382
59.165 17.071182
59.170 16.818928
59.175 16.828428
59.180 16.290821
59.185 16.610153
59.190 16.237823
59.195 16.359051
59.200 16.566433
59.205 16.61883
59.210 16.650349
59.215 17.08901
59.220 17.038679
59.225 17.688881
59.230 18.324162
59.235 18.477932
59.240 18.690979
59.245 18.666246
59.250 17.892134
59.255 17.786591
59.260 17.170536
59.265 16.653732
59.270 16.596636
59.275 16.391283
59.280 16.12862
59.285 16.21463
59.290 16.336325
59.295 17.014872
59.300 17.042818
59.305 16.814896
59.310 16.797663
59.315 17.13105
59.320 17.183201
59.325 17.565012
59.330 17.467396
59.335 17.030811
59.340 17.015116
59.345 16.562967
59.350 15.92244
59.355 16.016069
59.360 15.997218
59.365 15.92991
59.370 15.911192
59.375 15.712507
59.380 16.242241
59.385 16.623756
59.390 17.059692
59.395 16.381292
59.400 15.9774
59.405 16.090029
59.410 16.159117
59.415 16.09124
59.420 15.99861
59.425 15.532063
59.430 15.724526
59.435 16.024866
59.440 16.626587
59.445 16.648663
59.450 16.840334
59.455 16.861712
59.460 17.03216
59.465 17.447214
59.470 17.777086
59.475 17.412544
59.480 17.460333
59.485 17.064865
59.490 16.905695
59.495 16.788912
59.500 16.949318
59.505 16.666843
59.510 16.748285
59.515 16.676672
59.520 16.828651
59.525 16.383314
59.530 15.297218
59.535 14.802133
59.540 14.876284
59.545 14.39854
59.550 13.962446
59.555 14.170485
59.560 14.511313
59.565 15.236592
59.570 15.488553
59.575 15.299676
59.580 15.910738
59.585 16.312189
59.590 16.32782
59.595 16.336544
59.600 16.501804
59.605 16.266684
59.610 16.513859
59.615 16.83164
59.620 17.227821
59.625 17.506453
59.630 17.771822
59.635 17.650225
59.640 17.582315
59.645 17.285013
59.650 17.256552
59.655 16.821093
59.660 16.378603
59.665 16.275997
59.670 15.911646
59.675 16.073027
59.680 15.925917
59.685 15.53507
59.690 15.696867
59.695 15.801589
59.700 16.231758
59.705 16.65444
59.710 16.868593
59.715 16.640903
59.720 16.487972
59.725 16.423328
59.730 16.239725
59.735 16.364597
59.740 16.490444
59.745 16.265425
59.750 16.634535
59.755 16.699383
59.760 17.079933
59.765 17.394836
59.770 17.003368
59.775 17.354101
59.780 17.32505
59.785 16.836569
59.790 16.751896
59.795 16.488485
59.800 16.606371
59.805 16.368727
59.810 16.111172
59.815 16.889503
59.820 17.353096
59.825 17.736343
59.830 17.74399
59.835 17.372257
59.840 17.440979
59.845 16.890995
59.850 16.444767
59.855 16.279867
59.860 15.816792
59.865 15.55772
59.870 15.888355
59.875 16.23217
59.880 16.205473
59.885 16.030861
59.890 16.257065
59.895 16.311842
59.900 16.368099
59.905 16.310158
59.910 16.008694
59.915 15.466981
59.920 15.284227
59.925 15.421449
59.930 15.962111
59.935 16.05241
59.940 15.953388
59.945 16.635353
59.950 16.960844
59.955 16.794834
59.960 17.312334
59.965 16.994242
59.970 16.909811
59.975 16.822884
59.980 16.100159
59.985 16.050812
59.990 16.335457
59.995 15.391271
60.000 15.029937
60.005 15.150683
60.010 15.849127
60.015 15.947722
60.020 15.86868
60.025 15.6188
60.030 15.254572
60.035 15.51402
60.040 14.942955
60.045 14.890124
60.050 15.969118
60.055 16.344307
60.060 16.567856
60.065 17.279079
60.070 17.268503
60.075 17.385246
60.080 16.452341
60.085 16.003414
60.090 16.145868
60.095 15.692959
60.100 15.403644
60.105 15.231527
60.110 15.470895
60.115 15.933996
60.120 15.409728
60.125 15.84441
60.130 16.804443
60.135 17.100149
60.140 17.34622
60.145 17.330788
60.150 17.317686
60.155 17.47913
60.160 16.98395
60.165 16.572031
60.170 16.408901
60.175 16.290136
60.180 15.682692
60.185 15.20192
60.190 15.320965
60.195 15.253585
60.200 15.232253
60.205 14.787492
60.210 14.84872
60.215 15.068026
60.220 15.236607
60.225 15.357407
60.230 15.857933
60.235 15.981459
60.240 16.051292
60.245 15.909283
60.250 16.220688
60.255 16.494175
60.260 16.113598
60.265 15.710248
60.270 15.93027
60.275 16.270155
60.280 16.668463
60.285 16.299402
60.290 16.167442
60.295 16.281874
60.300 16.32299
60.305 15.869724
60.310 15.676776
60.315 15.772051
60.320 15.884617
60.325 15.683311
60.330 15.813296
60.335 16.031605
60.340 16.769009
60.345 17.058537
60.350 17.374846
60.355 17.401913
60.360 17.292767
60.365 16.906479
60.370 16.820015
60.375 16.289404
60.380 16.029917
60.385 15.870713
60.390 16.047562
60.395 16.451664
60.400 16.822809
60.405 17.132599
60.410 17.313852
60.415 16.777071
60.420 16.473772
60.425 16.405275
60.430 16.933405
60.435 16.658213
60.440 15.927855
60.445 15.757053
60.450 16.257492
60.455 16.20504
60.460 16.58849
60.465 16.348137
60.470 16.609659
60.475 17.13015
60.480 16.98624
60.485 16.658451
60.490 15.983358
60.495 15.265906
60.500 14.922331
60.505 14.711981
60.510 14.605866
60.515 14.798998
60.520 14.669504
60.525 15.499297
60.530 15.643257
60.535 15.442406
60.540 15.142342
60.545 14.92555
60.550 14.631713
60.555 15.071404
60.560 14.519754
60.565 14.341476
60.570 14.859026
60.575 15.576359
60.580 15.849618
60.585 16.502411
60.590 16.562609
60.595 16.757034
60.600 16.78023
60.605 16.171833
60.610 15.783196
60.615 15.529398
60.620 15.374167
60.625 14.8278
60.630 14.9698
60.635 15.212585
60.640 15.298406
60.645 15.206542
60.650 14.569539
60.655 14.465199
60.660 14.807961
60.665 14.352372
60.670 14.01378
60.675 14.258671
60.680 15.028976
60.685 16.095245
60.690 16.594376
60.695 16.715702
60.700 16.900774
60.705 17.10923
60.710 16.872538
60.715 16.401928
60.720 15.830685
60.725 15.204652
60.730 15.175932
60.735 15.609633
60.740 15.956941
60.745 15.718825
60.750 15.917606
60.755 16.008989
60.760 15.991461
60.765 16.105406
60.770 16.399279
60.775 16.165585
60.780 16.244947
60.785 15.460187
60.790 15.182146
60.795 15.324353
60.800 15.174224
60.805 14.865622
60.810 14.813537
60.815 14.473294
60.820 14.790291
60.825 14.756829
60.830 15.21227
60.835 15.392753
60.840 14.900186
60.845 14.809855
60.850 15.11143
60.855 15.390968
60.860 15.782288
60.865 15.573092
60.870 15.330569
60.875 15.575554
60.880 15.811232
60.885 16.127743
60.890 16.552633
60.895 16.519321
60.900 16.32012
60.905 15.98945
60.910 15.566654
60.915 15.583659
60.920 15.58273
60.925 15.126385
60.930 14.867629
60.935 15.067954
60.940 15.837667
60.945 16.004698
60.950 15.913543
60.955 15.324569
60.960 15.216696
60.965 15.374937
60.970 14.922609
60.975 14.934272
60.980 15.00437
60.985 15.412638
60.990 15.738866
60.995 15.706448
61.000 15.880064
61.005 15.894149
61.010 15.776587
61.015 16.199011
61.020 15.7012
61.025 16.35684
61.030 16.842552
61.035 16.755527
61.040 16.979227
61.045 16.799013
61.050 16.865961
61.055 16.692591
61.060 16.403322
61.065 15.965537
61.070 16.389547
61.075 16.072256
61.080 16.457314
61.085 16.361223
61.090 16.769835
61.095 16.689293
61.100 16.738651
61.105 16.724386
61.110 16.710247
61.115 16.202711
61.120 15.91054
61.125 15.603765
61.130 15.74829
61.135 15.673534
61.140 15.878396
61.145 16.586489
61.150 17.232807
61.155 17.328697
61.160 16.765934
61.165 16.221102
61.170 16.541834
61.175 16.424845
61.180 16.089209
61.185 15.783025
61.190 15.748104
61.195 16.659887
61.200 17.764647
61.205 17.864422
61.210 17.673876
61.215 17.462471
61.220 17.254385
61.225 17.604753
61.230 17.150461
61.235 16.223083
61.240 16.255978
61.245 16.521675
61.250 17.007765
61.255 17.215818
61.260 16.924595
61.265 17.364983
61.270 17.597443
61.275 17.282211
61.280 17.054897
61.285 16.499718
61.290 16.857285
61.295 17.715214
61.300 17.54327
61.305 17.294685
61.310 17.559416
61.315 17.325674
61.320 17.703712
61.325 17.345684
61.330 16.667887
61.335 16.121361
61.340 15.734361
61.345 15.569527
61.350 15.573533
61.355 15.483619
61.360 15.316332
61.365 15.243683
61.370 15.422461
61.375 15.932561
61.380 16.363338
61.385 16.673378
61.390 16.528894
61.395 16.418968
61.400 16.656054
61.405 16.457758
61.410 16.067207
61.415 15.528198
61.420 15.07036
61.425 15.152642
61.430 15.750551
61.435 16.013168
61.440 16.599535
61.445 16.702259
61.450 16.804987
61.455 17.077061
61.460 16.641228
61.465 15.842591
61.470 15.493212
61.475 15.529968
61.480 15.832292
61.485 16.390398
61.490 16.465883
61.495 17.181726
61.500 17.936964
61.505 18.442225
61.510 18.922991
61.515 18.8405
61.520 18.229004
61.525 17.775621
61.530 17.35504
61.535 16.865181
61.540 16.912252
61.545 16.472054
61.550 16.737238
61.555 17.513247
61.560 18.216547
61.565 17.870695
61.570 18.013981
61.575 18.075415
61.580 17.512611
61.585 17.284796
61.590 16.628185
61.595 16.410496
61.600 16.674894
61.605 16.400091
61.610 16.138638
61.615 16.038061
61.620 15.817644
61.625 16.07136
61.630 16.267811
61.635 16.567781
61.640 16.417801
61.645 16.622818
61.650 17.273565
61.655 17.394331
61.660 17.015999
61.665 16.611616
61.670 16.903608
61.675 17.138859
61.680 16.643465
61.685 16.333241
61.690 15.969311
61.695 16.198523
61.700 15.959706
61.705 15.522785
61.710 15.736849
61.715 16.384455
61.720 16.911541
61.725 17.265419
61.730 17.259457
61.735 17.364798
61.740 17.547451
61.745 17.150644
61.750 17.031958
61.755 17.002069
61.760 16.504971
61.765 16.677383
61.770 17.042149
61.775 17.578905
61.780 17.808222
61.785 17.095852
61.790 17.190201
61.795 18.302944
61.800 18.806849
61.805 18.94084
61.810 19.027252
61.815 19.058737
61.820 19.58469
61.825 19.250837
61.830 18.261879
61.835 17.391157
61.840 16.483555
61.845 16.084766
61.850 16.491549
61.855 16.256796
61.860 16.308104
61.865 17.185999
61.870 18.390549
61.875 18.599541
61.880 18.881918
61.885 19.205471
61.890 19.282038
61.895 18.731594
61.900 18.514412
61.905 17.71089
61.910 17.359266
61.915 16.662994
61.920 16.087601
61.925 16.255901
61.930 16.102514
61.935 15.405995
61.940 15.668106
61.945 16.166805
61.950 16.287489
61.955 16.403406
61.960 16.785126
61.965 17.231373
61.970 17.987963
61.975 17.793589
61.980 17.5357
61.985 17.305754
61.990 17.103367
61.995 16.846607
62.000 16.697006
62.005 16.324785
62.010 16.268471
62.015 16.243893
62.020 16.431667
62.025 16.539274
62.030 16.529982
62.035 16.618536
62.040 16.474052
62.045 17.20034
62.050 17.085894
62.055 17.04467
62.060 16.852072
62.065 16.74408
62.070 16.75576
62.075 16.636667
62.080 16.259357
62.085 16.629791
62.090 16.916634
62.095 16.611092
62.100 16.750757
62.105 17.346884
62.110 17.805405
62.115 17.608473
62.120 17.211992
62.125 17.342983
62.130 17.221447
62.135 17.076971
62.140 16.191753
62.145 15.600667
62.150 16.22945
62.155 16.282093
62.160 15.789123
62.165 16.611614
62.170 17.065849
62.175 18.043623
62.180 18.713419
62.185 18.354883
62.190 18.374334
62.195 18.708307
62.200 18.139843
62.205 17.927757
62.210 17.473984
62.215 16.984558
62.220 16.850058
62.225 17.085999
62.230 17.285902
62.235 17.31949
62.240 17.171431
62.245 17.096907
62.250 16.955637
62.255 16.912954
62.260 16.61796
62.265 15.891138
62.270 15.830548
62.275 16.084805
62.280 16.041473
62.285 16.294178
62.290 16.129181
62.295 16.637428
62.300 17.112444
62.305 17.244566
62.310 16.935369
62.315 16.89463
62.320 16.800533
62.325 16.887413
62.330 17.02236
62.335 17.091154
62.340 17.389797
62.345 17.258125
62.350 17.262623
62.355 17.661545
62.360 17.780054
62.365 17.84502
62.370 17.979212
62.375 17.961109
62.380 18.218742
62.385 17.971554
62.390 18.010986
62.395 17.730305
62.400 17.533972
62.405 17.610023
62.410 17.729084
62.415 17.653639
62.420 18.027225
62.425 17.843685
62.430 18.215252
62.435 18.195923
62.440 17.613493
62.445 17.567175
62.450 18.106007
62.455 18.51232
62.460 18.745813
62.465 18.603342
62.470 18.363951
62.475 18.888384
62.480 18.521528
62.485 17.700996
62.490 17.392773
62.495 17.028896
62.500 17.099981
62.505 17.467634
62.510 17.74428
62.515 18.114567
62.520 18.476238
62.525 18.410168
62.530 18.718248
62.535 18.922478
62.540 18.975813
62.545 18.662642
62.550 17.950497
62.555 17.635521
62.560 17.488693
62.565 17.153372
62.570 16.301256
62.575 15.609597
62.580 15.277033
62.585 16.101311
62.590 16.265541
62.595 16.209455
62.600 16.706656
62.605 16.915949
62.610 17.079582
62.615 16.898121
62.620 16.636353
62.625 16.84602
62.630 17.33238
62.635 17.313835
62.640 17.830942
62.645 18.37151
62.650 18.99984
62.655 18.89819
62.660 18.944527
62.665 18.546734
62.670 18.288473
62.675 17.950214
62.680 17.669191
62.685 17.217506
62.690 17.156675
62.695 17.399561
62.700 17.276537
62.705 16.713602
62.710 16.995136
62.715 16.610756
62.720 16.685232
62.725 17.027431
62.730 16.638004
62.735 17.004562
62.740 17.527031
62.745 17.06847
62.750 17.85051
62.755 18.810287
62.760 19.195787
62.765 19.35302
62.770 19.363453
62.775 19.046608
62.780 19.143482
62.785 18.691252
62.790 18.079596
62.795 17.605553
62.800 17.538094
62.805 17.822559
62.810 17.88851
62.815 17.897223
62.820 17.87524
62.825 17.638739
62.830 17.455059
62.835 17.242115
62.840 16.94417
62.845 17.044268
62.850 17.268497
62.855 16.84671
62.860 16.919483
62.865 17.075706
62.870 17.426678
62.875 17.499723
62.880 17.266079
62.885 16.994045
62.890 17.172804
62.895 16.957495
62.900 17.16489
62.905 17.230972
62.910 17.368076
62.915 17.633259
62.920 17.712732
62.925 17.361139
62.930 16.931223
62.935 16.016109
62.940 16.325378
62.945 16.639917
62.950 16.998047
62.955 16.925245
62.960 17.482456
62.965 17.798054
62.970 18.340631
62.975 18.340355
62.980 18.197981
62.985 17.988272
62.990 18.528091
62.995 18.735603
63.000 18.862125
63.005 18.449858
63.010 17.901121
63.015 17.543245
63.020 17.115294
63.025 16.428892
63.030 16.006842
63.035 16.376953
63.040 16.651438
63.045 17.212257
63.050 17.446009
63.055 18.110691
63.060 18.492531
63.065 18.399487
63.070 18.310528
63.075 18.191854
63.080 18.227551
63.085 17.931238
63.090 17.578068
63.095 17.40666
63.100 17.227819
63.105 17.298306
63.110 17.081078
63.115 16.653551
63.120 16.73877
63.125 16.893147
63.130 16.73493
63.135 16.856934
63.140 16.991417
63.145 17.629187
63.150 17.865206
63.155 18.347731
63.160 18.836063
63.165 19.393337
63.170 19.770025
63.175 20.030304
63.180 19.478815
63.185 18.782408
63.190 18.013733
63.195 17.352022
63.200 16.846365
63.205 16.980579
63.210 16.750465
63.215 16.763512
63.220 16.912174
63.225 16.827339
63.230 16.977564
63.235 17.476042
63.240 17.10433
63.245 16.44009
63.250 16.650215
63.255 16.977243
63.260 17.504236
63.265 17.895144
63.270 17.497805
63.275 17.417734
63.280 18.186588
63.285 18.238605
63.290 18.38382
63.295 18.25173
63.300 18.232765
63.305 18.383259
63.310 18.256079
63.315 18.199806
63.320 18.590961
63.325 18.612743
63.330 18.641966
63.335 18.299749
63.340 17.724726
63.345 17.608524
63.350 17.024298
63.355 16.220285
63.360 16.030237
63.365 16.125202
63.370 16.092709
63.375 16.46871
63.380 16.810722
63.385 17.059042
63.390 17.621223
63.395 17.579659
63.400 17.614552
63.405 17.80825
63.410 17.784184
63.415 17.553593
63.420 17.648781
63.425 18.319347
63.430 18.629425
63.435 18.527983
63.440 18.59869
63.445 19.046459
63.450 19.614571
63.455 19.490223
63.460 19.096428
63.465 19.053465
63.470 18.787289
63.475 18.652145
63.480 19.205046
63.485 19.501135
63.490 19.325239
63.495 18.963358
63.500 18.690477
63.505 19.063366
63.510 19.224257
63.515 17.857689
63.520 17.41972
63.525 17.674252
63.530 17.59341
63.535 18.108522
63.540 18.045576
63.545 18.384291
63.550 18.772709
63.555 18.893757
63.560 19.00779
63.565 19.246788
63.570 18.803776
63.575 19.148256
63.580 19.171618
63.585 19.244505
63.590 19.437056
63.595 19.228947
63.600 18.680809
63.605 18.536594
63.610 17.59425
63.615 17.169035
63.620 17.032162
63.625 17.016352
63.630 17.275692
63.635 17.818699
63.640 17.830717
63.645 18.638477
63.650 18.854214
63.655 18.766432
63.660 19.255705
63.665 19.546888
63.670 19.805681
63.675 19.509958
63.680 19.179775
63.685 19.497372
63.690 19.709906
63.695 19.030716
63.700 18.819412
63.705 18.562584
63.710 18.805552
63.715 19.05484
63.720 19.064508
63.725 18.974989
63.730 19.132895
63.735 19.519789
63.740 20.105238
63.745 20.516268
63.750 20.293953
63.755 20.295748
63.760 20.280891
63.765 20.012747
63.770 19.733873
63.775 19.048027
63.780 19.259315
63.785 19.247828
63.790 19.539568
63.795 19.788664
63.800 19.75568
63.805 19.715279
63.810 19.819654
63.815 20.053156
63.820 20.868734
63.825 21.142879
63.830 21.104061
63.835 21.381413
63.840 22.321472
63.845 22.968447
63.850 22.945015
63.855 22.43655
63.860 21.980986
63.865 22.657936
63.870 22.934557
63.875 22.984852
63.880 22.441469
63.885 22.402021
63.890 22.58638
63.895 23.056122
63.900 23.413151
63.905 23.08762
63.910 22.343254
63.915 22.598289
63.920 22.635651
63.925 22.925409
63.930 23.521896
63.935 23.499971
63.940 24.224642
63.945 25.295597
63.950 25.876118
63.955 26.286684
63.960 26.3811
63.965 26.554739
63.970 26.634523
63.975 26.855286
63.980 27.486629
63.985 28.06875
63.990 28.222612
63.995 28.878643
64.000 28.856834
64.005 28.716816
64.010 28.334873
64.015 27.51976
64.020 27.772758
64.025 27.690401
64.030 26.831743
64.035 26.920818
64.040 27.239857
64.045 28.187393
64.050 28.691566
64.055 28.592634
64.060 29.089378
64.065 29.511522
64.070 28.904276
64.075 28.941748
64.080 28.980909
64.085 29.153639
64.090 28.827713
64.095 28.446167
64.100 28.737209
64.105 29.71718
64.110 29.756584
64.115 29.833759
64.120 31.005358
64.125 31.738224
64.130 31.978022
64.135 32.396591
64.140 32.957073
64.145 32.83643
64.150 33.710518
64.155 33.75309
64.160 34.906391
64.165 36.151222
64.170 36.12331
64.175 36.220207
64.180 37.061604
64.185 37.131416
64.190 37.441856
64.195 37.205975
64.200 36.519989
64.205 36.182735
64.210 35.688847
64.215 35.714912
64.220 35.276299
64.225 35.188805
64.230 35.953785
64.235 37.403473
64.240 39.567612
64.245 40.564987
64.250 40.171314
64.255 40.954548
64.260 40.94352
64.265 40.292934
64.270 40.630806
64.275 39.908306
64.280 40.149006
64.285 40.598183
64.290 40.537743
64.295 40.319736
64.300 40.839764
64.305 40.501709
64.310 40.886192
64.315 41.491478
64.320 41.85397
64.325 42.244061
64.330 42.712433
64.335 42.232258
64.340 41.69199
64.345 41.164318
64.350 40.830177
64.355 40.995617
64.360 41.546947
64.365 41.674156
64.370 41.227764
64.375 41.347599
64.380 41.038105
64.385 40.966259
64.390 40.928841
64.395 39.721165
64.400 40.068447
64.405 40.712128
64.410 40.556698
64.415 40.930393
64.420 40.799931
64.425 40.500084
64.430 39.929745
64.435 39.138954
64.440 38.623775
64.445 38.262585
64.450 37.893494
64.455 37.217384
64.460 37.228657
64.465 37.489307
64.470 37.2831
64.475 36.993847
64.480 36.51609
64.485 35.937576
64.490 35.452751
64.495 35.505325
64.500 36.004932
64.505 35.808968
64.510 35.327084
64.515 34.848698
64.520 34.519836
64.525 34.404877
64.530 33.042835
64.535 32.015514
64.540 31.551037
64.545 32.062004
64.550 31.811369
64.555 31.413507
64.560 31.132317
64.565 31.187252
64.570 30.475386
64.575 29.853846
64.580 29.121973
64.585 28.665941
64.590 28.542501
64.595 28.426853
64.600 28.253298
64.605 27.575857
64.610 27.399359
64.615 27.744785
64.620 27.840117
64.625 27.256826
64.630 26.924126
64.635 25.681297
64.640 25.569748
64.645 24.938223
64.650 24.171564
64.655 24.316597
64.660 24.807693
64.665 24.710047
64.670 25.611713
64.675 26.124413
64.680 26.136162
64.685 25.885485
64.690 25.347876
64.695 24.923609
64.700 24.902298
64.705 24.092451
64.710 22.978264
64.715 22.60997
64.720 22.140394
64.725 22.120901
64.730 21.548956
64.735 20.909573
64.740 21.255508
64.745 21.477575
64.750 21.4209
64.755 21.848972
64.760 22.211575
64.765 22.982475
64.770 22.767475
64.775 22.208681
64.780 21.986584
64.785 21.83005
64.790 21.29343
64.795 20.627684
64.800 20.305117
64.805 20.886211
64.810 21.085308
64.815 21.213087
64.820 21.518326
64.825 21.477703
64.830 21.225704
64.835 20.831045
64.840 20.644476
64.845 20.990335
64.850 20.982395
64.855 20.674091
64.860 21.031372
64.865 21.595764
64.870 21.647247
64.875 21.741158
64.880 21.689354
64.885 21.958416
64.890 21.818443
64.895 21.586788
64.900 21.58128
64.905 21.431347
64.910 21.186937
64.915 21.215366
64.920 21.728268
64.925 21.717432
64.930 21.301235
64.935 21.343277
64.940 22.228319
64.945 22.751034
64.950 22.157276
64.955 21.547712
64.960 22.113798
64.965 22.323946
64.970 21.955084
64.975 21.197544
64.980 20.873678
64.985 21.689171
64.990 21.603424
64.995 21.848095
65.000 21.981949
65.005 22.119682
65.010 22.697973
65.015 23.121683
65.020 22.853373
65.025 23.242702
65.030 23.032894
65.035 23.404123
65.040 23.501163
65.045 23.649885
65.050 23.929367
65.055 24.482698
65.060 24.125137
65.065 24.19529
65.070 24.800184
65.075 25.357021
65.080 24.952429
65.085 25.164328
65.090 25.766403
65.095 26.7502
65.100 26.901842
65.105 27.090002
65.110 27.833584
65.115 28.840828
65.120 28.723783
65.125 28.571409
65.130 28.240623
65.135 28.185904
65.140 27.872799
65.145 26.680319
65.150 25.53933
65.155 25.744337
65.160 25.635727
65.165 25.977575
65.170 26.132715
65.175 25.685957
65.180 26.435671
65.185 26.65036
65.190 25.810114
65.195 25.421022
65.200 25.918516
65.205 26.194118
65.210 26.79311
65.215 26.301748
65.220 26.239267
65.225 27.010443
65.230 27.82761
65.235 27.551256
65.240 27.06002
65.245 26.969687
65.250 27.148581
65.255 27.173065
65.260 27.196861
65.265 26.790834
65.270 27.036577
65.275 27.306452
65.280 27.568676
65.285 27.83849
65.290 27.849277
65.295 28.458321
65.300 29.661976
65.305 30.285116
65.310 30.298943
65.315 30.035234
65.320 30.589098
65.325 30.835178
65.330 30.033175
65.335 29.534031
65.340 29.608921
65.345 29.905128
65.350 30.208384
65.355 30.481562
65.360 30.994236
65.365 31.321976
65.370 31.248352
65.375 31.388779
65.380 31.39642
65.385 31.235653
65.390 30.839739
65.395 30.934401
65.400 31.028423
65.405 30.607084
65.410 30.216087
65.415 30.77807
65.420 31.610661
65.425 31.683647
65.430 31.34697
65.435 31.83287
65.440 32.603371
65.445 32.834061
65.450 31.888662
65.455 31.060223
65.460 31.156986
65.465 31.284889
65.470 31.402222
65.475 31.668888
65.480 32.137962
65.485 32.735214
65.490 33.261501
65.495 33.47868
65.500 33.797283
65.505 33.653507
65.510 33.488785
65.515 33.400211
65.520 33.329102
65.525 33.006508
65.530 33.007343
65.535 33.231773
65.540 33.545944
65.545 33.89032
65.550 34.653793
65.555 35.462795
65.560 35.750187
65.565 35.726757
65.570 35.473312
65.575 35.036999
65.580 35.211361
65.585 35.27774
65.590 34.317501
65.595 33.794411
65.600 33.744022
65.605 33.43726
65.610 32.931992
65.615 32.251015
65.620 31.989038
65.625 32.865669
65.630 34.017395
65.635 34.131634
65.640 34.749165
65.645 35.83292
65.650 36.500488
65.655 36.499775
65.660 36.799629
65.665 36.684162
65.670 37.47131
65.675 38.02993
65.680 38.108467
65.685 37.372631
65.690 37.870857
65.695 37.95998
65.700 37.576344
65.705 37.488903
65.710 37.413925
65.715 37.26606
65.720 37.94418
65.725 37.551723
65.730 37.409103
65.735 38.11594
65.740 38.08329
65.745 38.276798
65.750 38.461342
65.755 38.74065
65.760 38.921391
65.765 38.628891
65.770 37.843021
65.775 37.324383
65.780 36.932224
65.785 37.012596
65.790 36.680401
65.795 36.368832
65.800 36.098572
65.805 36.740833
65.810 36.906731
65.815 36.75721
65.820 36.8689
65.825 36.344028
65.830 36.371655
65.835 36.596489
65.840 36.93856
65.845 36.324551
65.850 35.510353
65.855 34.426895
65.860 34.740005
65.865 35.074619
65.870 35.169525
65.875 34.800262
65.880 35.600079
65.885 36.439747
65.890 36.221657
65.895 36.491726
65.900 36.743847
65.905 36.329693
65.910 35.987701
65.915 35.41367
65.920 35.586246
65.925 35.43121
65.930 34.124607
65.935 33.253845
65.940 33.09486
65.945 33.023479
65.950 32.89344
65.955 32.772579
65.960 32.735481
65.965 32.813725
65.970 32.915222
65.975 32.822025
65.980 32.257416
65.985 32.101147
65.990 31.777937
65.995 31.705818
66.000 32.198917
66.005 32.070202
66.010 31.932615
66.015 32.3638
66.020 33.020473
66.025 33.341728
66.030 34.170589
66.035 33.461025
66.040 33.188255
66.045 33.830093
66.050 33.309635
66.055 32.824451
66.060 31.714874
66.065 30.248318
66.070 29.805513
66.075 29.352089
66.080 28.900972
66.085 28.958612
66.090 29.498514
66.095 29.847561
66.100 29.614584
66.105 29.452162
66.110 29.444117
66.115 28.775259
66.120 28.282227
66.125 27.572006
66.130 27.117363
66.135 27.565454
66.140 28.021605
66.145 27.696995
66.150 27.555714
66.155 27.979939
66.160 28.617882
66.165 29.30443
66.170 29.240984
66.175 28.845482
66.180 29.244116
66.185 29.257647
66.190 29.131697
66.195 28.917795
66.200 29.343878
66.205 28.514368
66.210 28.239883
66.215 28.070051
66.220 27.800528
66.225 26.188879
66.230 25.593885
66.235 25.048632
66.240 25.394339
66.245 25.513943
66.250 25.39353
66.255 25.651468
66.260 25.930294
66.265 25.26754
66.270 24.405659
66.275 24.901001
66.280 25.075546
66.285 25.117706
66.290 25.261896
66.295 25.374926
66.300 25.722271
66.305 25.502035
66.310 23.794847
66.315 23.030928
66.320 22.843817
66.325 22.052069
66.330 22.112869
66.335 21.988977
66.340 22.586542
66.345 23.347113
66.350 23.643248
66.355 23.848816
66.360 24.207216
66.365 24.337585
66.370 24.347311
66.375 24.1947
66.380 23.941669
66.385 23.702028
66.390 23.631247
66.395 23.686869
66.400 23.010847
66.405 22.666687
66.410 22.234179
66.415 21.928326
66.420 21.881931
66.425 21.582344
66.430 21.313808
66.435 21.322508
66.440 21.460928
66.445 21.307745
66.450 21.180216
66.455 20.907192
66.460 21.2115
66.465 21.251667
66.470 20.755754
66.475 20.325687
66.480 19.937967
66.485 20.016886
66.490 20.124817
66.495 20.111546
66.500 19.845341
66.505 20.44585
66.510 20.832541
66.515 21.185062
66.520 21.434938
66.525 21.434532
66.530 21.366199
66.535 21.893705
66.540 21.810364
66.545 21.763128
66.550 21.686796
66.555 21.315311
66.560 21.089993
66.565 20.878599
66.570 20.89991
66.575 20.909027
66.580 20.28196
66.585 20.012968
66.590 20.08321
66.595 19.711744
66.600 20.119074
66.605 20.597029
66.610 21.174984
66.615 21.704582
66.620 21.83555
66.625 21.72323
66.630 21.899427
66.635 21.116503
66.640 20.194672
66.645 19.903502
66.650 20.357676
66.655 21.211317
66.660 21.65608
66.665 21.203016
66.670 21.252308
66.675 21.373468
66.680 21.226665
66.685 20.694153
66.690 19.338997
66.695 18.267351
66.700 18.691477
66.705 18.747074
66.710 18.73868
66.715 18.572252
66.720 18.626669
66.725 19.652067
66.730 20.41733
66.735 20.360126
66.740 19.901655
66.745 19.667263
66.750 19.572989
66.755 19.210827
66.760 18.951632
66.765 18.677853
66.770 18.252344
66.775 18.365791
66.780 18.450842
66.785 18.081966
66.790 18.606993
66.795 18.824142
66.800 18.886126
66.805 19.280781
66.810 19.140686
66.815 18.832069
66.820 19.062737
66.825 18.333548
66.830 17.71207
66.835 17.430902
66.840 17.648386
66.845 18.001455
66.850 18.350714
66.855 18.490215
66.860 18.824076
66.865 19.095388
66.870 19.268623
66.875 18.930811
66.880 18.57732
66.885 18.986362
66.890 18.900021
66.895 19.36891
66.900 19.531231
66.905 19.730429
66.910 20.091953
66.915 20.127234
66.920 19.760563
66.925 19.9562
66.930 19.37315
66.935 19.383949
66.940 19.269783
66.945 19.412992
66.950 19.818426
66.955 19.952612
66.960 19.901049
66.965 21.073368
66.970 21.174883
66.975 21.238617
66.980 21.220057
66.985 20.748247
66.990 20.411184
66.995 20.045479
67.000 18.776855
67.005 18.19099
67.010 17.269547
67.015 16.929419
67.020 17.00515
67.025 17.310553
67.030 17.512968
67.035 18.036173
67.040 18.145258
67.045 18.436363
67.050 18.705402
67.055 18.837057
67.060 19.110973
67.065 18.595388
67.070 18.191841
67.075 18.419523
67.080 18.469305
67.085 18.177313
67.090 18.03587
67.095 18.182617
67.100 18.578079
67.105 18.356274
67.110 18.004583
67.115 17.718987
67.120 18.24342
67.125 17.385143
67.130 17.022602
67.135 17.339186
67.140 17.986467
67.145 18.810934
67.150 18.920647
67.155 18.64679
67.160 19.164892
67.165 19.148714
67.170 19.65802
67.175 19.66082
67.180 19.323874
67.185 19.196495
67.190 19.16419
67.195 18.989365
67.200 18.681322
67.205 17.727659
67.210 17.857965
67.215 18.343075
67.220 18.529722
67.225 18.908976
67.230 18.97295
67.235 18.763262
67.240 18.878115
67.245 18.400387
67.250 18.51115
67.255 18.776724
67.260 18.65881
67.265 19.053959
67.270 18.966713
67.275 18.990643
67.280 18.818878
67.285 18.870821
67.290 18.959686
67.295 19.381191
67.300 19.638321
67.305 19.911325
67.310 19.892117
67.315 20.179224
67.320 19.861811
67.325 19.529367
67.330 18.894098
67.335 18.556776
67.340 18.968046
67.345 19.542379
67.350 19.718479
67.355 19.590885
67.360 19.466272
67.365 19.609322
67.370 20.384338
67.375 20.202311
67.380 19.565823
67.385 18.959518
67.390 19.436573
67.395 19.599363
67.400 19.130363
67.405 18.626322
67.410 18.674902
67.415 19.531879
67.420 20.032047
67.425 19.960751
67.430 20.667459
67.435 21.068674
67.440 20.860165
67.445 20.992962
67.450 21.242266
67.455 21.140072
67.460 21.181175
67.465 20.435011
67.470 20.323889
67.475 20.509165
67.480 20.202394
67.485 19.66864
67.490 19.71331
67.495 19.741411
67.500 20.142656
67.505 20.193296
67.510 20.393238
67.515 20.276327
67.520 20.007668
67.525 19.882553
67.530 19.576862
67.535 19.439253
67.540 19.00363
67.545 18.707714
67.550 18.562061
67.555 18.773598
67.560 18.311527
67.565 17.883009
67.570 17.704174
67.575 18.156181
67.580 18.066792
67.585 17.800314
67.590 17.276802
67.595 17.538282
67.600 17.783386
67.605 18.016058
67.610 18.50112
67.615 19.250399
67.620 19.921377
67.625 20.678301
67.630 21.226646
67.635 21.479727
67.640 21.189575
67.645 20.671068
67.650 20.074167
67.655 20.003389
67.660 19.737144
67.665 19.418005
67.670 19.622353
67.675 20.059757
67.680 20.192047
67.685 20.288696
67.690 20.4263
67.695 20.472668
67.700 20.213102
67.705 19.666037
67.710 19.244062
67.715 18.948971
67.720 18.658335
67.725 18.296886
67.730 18.110605
67.735 17.929348
67.740 17.567034
67.745 17.776129
67.750 17.965477
67.755 18.075729
67.760 18.033676
67.765 17.89613
67.770 18.186621
67.775 18.691383
67.780 18.37291
67.785 18.174597
67.790 18.786146
67.795 18.858351
67.800 18.74502
67.805 18.426933
67.810 18.305727
67.815 18.380199
67.820 17.972662
67.825 17.4881
67.830 17.749001
67.835 18.141388
67.840 18.47628
67.845 18.351379
67.850 18.122089
67.855 18.318905
67.860 18.443102
67.865 18.232931
67.870 18.197483
67.875 17.561895
67.880 17.606407
67.885 18.311146
67.890 18.704439
67.895 18.801373
67.900 19.236235
67.905 19.154961
67.910 19.372822
67.915 19.386803
67.920 18.699593
67.925 18.00366
67.930 17.680309
67.935 17.274326
67.940 17.083506
67.945 17.004686
67.950 17.441862
67.955 18.031675
67.960 18.12764
67.965 18.621305
67.970 19.317327
67.975 20.050142
67.980 20.696365
67.985 20.230923
67.990 20.253668
67.995 20.139015
68.000 19.327242
68.005 18.572372
68.010 18.097767
68.015 18.1991
68.020 18.127079
68.025 17.964706
68.030 18.625973
68.035 18.951078
68.040 19.497013
68.045 19.45809
68.050 19.312992
68.055 19.665712
68.060 19.971094
68.065 20.402275
68.070 20.58016
68.075 20.656826
68.080 21.326511
68.085 21.37134
68.090 21.414324
68.095 21.162235
68.100 20.660755
68.105 20.510883
68.110 20.172089
68.115 19.64579
68.120 18.986746
68.125 18.813343
68.130 18.332035
68.135 18.165154
68.140 18.587576
68.145 19.008366
68.150 19.258684
68.155 19.672112
68.160 19.795021
68.165 20.547611
68.170 20.600468
68.175 20.408333
68.180 20.429596
68.185 20.214146
68.190 20.818588
68.195 20.822502
68.200 21.033621
68.205 21.589025
68.210 22.213072
68.215 21.940472
68.220 22.112665
68.225 21.370728
68.230 21.105644
68.235 21.217733
68.240 20.267832
68.245 19.496819
68.250 19.524197
68.255 19.996538
68.260 21.874321
68.265 22.294746
68.270 22.126053
68.275 22.378687
68.280 22.664728
68.285 23.099716
68.290 22.553524
68.295 21.548626
68.300 21.435545
68.305 21.284883
68.310 21.471004
68.315 21.559399
68.320 21.490023
68.325 21.932308
68.330 22.183622
68.335 22.288309
68.340 22.553566
68.345 22.918518
68.350 22.919052
68.355 23.185423
68.360 23.282701
68.365 23.153399
68.370 23.381184
68.375 23.20792
68.380 22.744371
68.385 23.057058
68.390 22.412413
68.395 22.120602
68.400 21.996523
68.405 22.238001
68.410 23.040649
68.415 23.312136
68.420 23.773001
68.425 24.411917
68.430 24.46792
68.435 24.66206
68.440 24.343571
68.445 24.653648
68.450 24.980915
68.455 24.508265
68.460 24.469645
68.465 24.293608
68.470 24.546303
68.475 24.647181
68.480 24.410126
68.485 24.571856
68.490 24.812561
68.495 25.036112
68.500 24.904058
68.505 24.866066
68.510 24.67008
68.515 24.820915
68.520 25.002357
68.525 24.532236
68.530 24.095016
68.535 24.525377
68.540 25.085617
68.545 26.033707
68.550 26.305614
68.555 27.216656
68.560 28.283766
68.565 29.315687
68.570 29.916456
68.575 30.0986
68.580 29.595991
68.585 29.504326
68.590 29.196857
68.595 29.032101
68.600 28.676004
68.605 27.988068
68.610 28.468628
68.615 28.631449
68.620 27.943161
68.625 27.3871
68.630 27.048887
68.635 27.475475
68.640 27.974579
68.645 27.291206
68.650 27.530506
68.655 28.135195
68.660 28.285812
68.665 28.393135
68.670 28.735483
68.675 28.604427
68.680 28.052469
68.685 27.676962
68.690 28.189783
68.695 28.566492
68.700 28.145605
68.705 28.033585
68.710 28.259075
68.715 29.134735
68.720 29.124893
68.725 29.40674
68.730 30.696228
68.735 31.566406
68.740 31.162048
68.745 30.863892
68.750 30.635178
68.755 30.959034
68.760 30.700947
68.765 30.190102
68.770 30.732004
68.775 31.889931
68.780 32.446819
68.785 32.98045
68.790 33.044933
68.795 32.632973
68.800 32.817074
68.805 32.95937
68.810 32.867104
68.815 32.90411
68.820 33.400963
68.825 33.693108
68.830 33.923962
68.835 34.864075
68.840 33.859493
68.845 33.742683
68.850 33.716915
68.855 33.664619
68.860 33.884533
68.865 34.458244
68.870 34.449043
68.875 34.727787
68.880 34.813217
68.885 34.236961
68.890 33.352142
68.895 33.25351
68.900 33.24152
68.905 32.867504
68.910 32.695606
68.915 32.331326
68.920 33.179138
68.925 33.794796
68.930 33.546703
68.935 33.28194
68.940 33.0191
68.945 33.686733
68.950 34.280769
68.955 33.32864
68.960 33.255653
68.965 33.326958
68.970 33.080273
68.975 33.494793
68.980 33.697811
68.985 34.113373
68.990 34.611454
68.995 34.356785
69.000 34.45052
69.005 35.536877
69.010 35.074917
69.015 34.399075
69.020 34.092331
69.025 34.305138
69.030 34.132717
69.035 33.526787
69.040 32.956779
69.045 32.911732
69.050 32.297478
69.055 31.733027
69.060 31.405191
69.065 31.615154
69.070 31.722244
69.075 31.906355
69.080 32.093327
69.085 33.01981
69.090 32.699181
69.095 32.357018
69.100 32.689938
69.105 32.66119
69.110 32.823841
69.115 32.271736
69.120 31.24724
69.125 31.948303
69.130 32.288151
69.135 31.481766
69.140 31.555733
69.145 30.575657
69.150 31.120144
69.155 32.358303
69.160 32.341438
69.165 32.444717
69.170 32.760113
69.175 32.579155
69.180 33.517387
69.185 33.727051
69.190 33.069019
69.195 32.38361
69.200 32.249352
69.205 32.883312
69.210 32.449444
69.215 31.155416
69.220 30.201838
69.225 29.300632
69.230 29.445414
69.235 29.138165
69.240 28.353371
69.245 28.831108
69.250 28.596123
69.255 29.054665
69.260 29.836811
69.265 29.947012
69.270 29.605709
69.275 29.353561
69.280 28.253378
69.285 28.440094
69.290 28.281281
69.295 28.318111
69.300 28.052631
69.305 28.180634
69.310 27.690132
69.315 27.246124
69.320 26.940575
69.325 26.955229
69.330 26.547846
69.335 26.48287
69.340 26.0021
69.345 26.138796
69.350 26.958344
69.355 27.126295
69.360 26.463467
69.365 25.69598
69.370 25.223986
69.375 25.112318
69.380 25.007069
69.385 24.601362
69.390 24.584993
69.395 24.625299
69.400 24.89156
69.405 24.891939
69.410 25.034899
69.415 24.76243
69.420 25.427383
69.425 25.665867
69.430 26.200449
69.435 26.613808
69.440 26.265057
69.445 26.144875
69.450 25.879854
69.455 24.412142
69.460 23.857897
69.465 23.5954
69.470 23.22142
69.475 23.730436
69.480 23.562563
69.485 23.450649
69.490 23.618324
69.495 23.259626
69.500 22.913652
69.505 22.983879
69.510 22.671648
69.515 22.751089
69.520 23.324741
69.525 23.244825
69.530 23.206532
69.535 22.958216
69.540 22.756968
69.545 23.255604
69.550 23.539841
69.555 23.87727
69.560 23.973419
69.565 24.144987
69.570 24.509851
69.575 24.549982
69.580 23.974936
69.585 22.549809
69.590 22.331955
69.595 22.394825
69.600 22.069302
69.605 21.858091
69.610 21.221783
69.615 21.120934
69.620 21.267218
69.625 20.834618
69.630 20.91428
69.635 20.686808
69.640 20.849623
69.645 21.078844
69.650 21.389959
69.655 22.132765
69.660 22.482944
69.665 22.342527
69.670 22.184551
69.675 21.614592
69.680 21.204529
69.685 20.828764
69.690 20.720867
69.695 20.635406
69.700 21.053841
69.705 21.211639
69.710 21.233402
69.715 21.177723
69.720 21.177994
69.725 21.043509
69.730 20.422432
69.735 19.89784
69.740 20.374941
69.745 20.614067
69.750 20.583052
69.755 20.158186
69.760 20.061495
69.765 19.732012
69.770 19.470037
69.775 19.332384
69.780 19.357725
69.785 19.607849
69.790 19.01195
69.795 18.848406
69.800 19.369537
69.805 19.403574
69.810 19.22093
69.815 19.164822
69.820 18.828182
69.825 19.039742
69.830 19.20063
69.835 19.620708
69.840 19.151018
69.845 19.23613
69.850 18.88825
69.855 19.063618
69.860 18.930244
69.865 18.232996
69.870 18.564711
69.875 18.88003
69.880 18.197311
69.885 18.368809
69.890 18.602245
69.895 19.188995
69.900 18.669378
69.905 17.898821
69.910 17.597708
69.915 17.098127
69.920 17.02721
69.925 17.035133
69.930 17.418278
69.935 17.64934
69.940 18.192814
69.945 19.077887
69.950 20.123686
69.955 20.405746
69.960 20.488525
69.965 20.639097
69.970 20.39884
69.975 20.472925
69.980 20.159597
69.985 19.015657
69.990 19.005728
69.995 18.366175
70.000 18.479792
70.005 18.730833
70.010 18.380686
70.015 18.935051
70.020 19.453188
70.025 19.564896
70.030 19.770973
70.035 19.630274
70.040 19.350445
70.045 19.199894
70.050 18.662905
70.055 18.179365
70.060 17.367081
70.065 17.294683
70.070 17.483065
70.075 17.33585
70.080 16.876772
70.085 17.307129
70.090 18.066368
70.095 18.300003
70.100 18.523668
70.105 18.492304
70.110 18.654263
70.115 19.045809
70.120 19.130327
70.125 18.893572
70.130 18.847736
70.135 18.695826
70.140 18.966429
70.145 19.000641
70.150 18.916592
70.155 18.498669
70.160 18.717966
70.165 18.698843
70.170 17.892759
70.175 17.192139
70.180 17.343555
70.185 17.080647
70.190 17.30463
70.195 18.114302
70.200 18.070478
70.205 18.031712
70.210 18.179136
70.215 18.027477
70.220 17.919106
70.225 17.584921
70.230 17.05349
70.235 17.185717
70.240 17.548231
70.245 18.162989
70.250 18.440784
70.255 18.914259
70.260 19.114693
70.265 18.753244
70.270 19.333387
70.275 19.635712
70.280 18.87438
70.285 18.519512
70.290 18.258728
70.295 18.590567
70.300 19.127253
70.305 18.535444
70.310 18.6863
70.315 18.841043
70.320 18.502485
70.325 17.817263
70.330 17.307478
70.335 17.272055
70.340 17.276417
70.345 16.561203
70.350 16.61574
70.355 16.687504
70.360 17.078142
70.365 17.545563
70.370 17.329834
70.375 17.589874
70.380 17.157036
70.385 17.000431
70.390 17.262266
70.395 16.974543
70.400 16.486254
70.405 16.569618
70.410 16.504015
70.415 17.523005
70.420 18.1301
70.425 18.101311
70.430 18.918442
70.435 19.087574
70.440 18.89637
70.445 18.929895
70.450 18.842949
70.455 18.955969
70.460 19.085386
70.465 18.356503
70.470 18.396404
70.475 18.293285
70.480 18.12343
70.485 18.175121
70.490 17.819603
70.495 17.631315
70.500 17.890923
70.505 17.96859
70.510 18.230171
70.515 18.442839
70.520 18.331234
70.525 18.417099
70.530 18.369104
70.535 18.186802
70.540 18.394407
70.545 17.88788
70.550 18.264038
70.555 18.400515
70.560 17.848804
70.565 17.515774
70.570 17.832012
70.575 17.284145
70.580 17.523602
70.585 17.033592
70.590 16.606693
70.595 17.436563
70.600 17.471411
70.605 17.598427
70.610 17.548975
70.615 16.741053
70.620 16.602192
70.625 17.080145
70.630 17.298077
70.635 17.857691
70.640 18.319309
70.645 19.302713
70.650 19.808115
70.655 20.51646
70.660 21.19622
70.665 20.836487
70.670 20.561575
70.675 20.113813
70.680 19.624258
70.685 19.745829
70.690 19.66935
70.695 19.062191
70.700 18.839603
70.705 19.425953
70.710 19.202831
70.715 19.403904
70.720 19.455757
70.725 19.453396
70.730 19.797464
70.735 19.118046
70.740 18.655085
70.745 18.999922
70.750 19.735491
70.755 19.88043
70.760 19.535624
70.765 19.177298
70.770 19.463343
70.775 19.047234
70.780 18.769758
70.785 18.418819
70.790 18.627443
70.795 18.600302
70.800 18.545767
70.805 18.252377
70.810 19.322662
70.815 19.544222
70.820 19.426182
70.825 19.330656
70.830 19.738552
70.835 20.368292
70.840 20.806253
70.845 20.653353
70.850 19.951059
70.855 19.463371
70.860 18.920218
70.865 18.360796
70.870 18.024323
70.875 17.541426
70.880 16.920681
70.885 17.073071
70.890 17.08593
70.895 17.521099
70.900 17.846697
70.905 17.770613
70.910 17.455545
70.915 17.419983
70.920 17.475634
70.925 17.034105
70.930 16.38184
70.935 16.270256
70.940 15.833684
70.945 16.302313
70.950 16.21538
70.955 16.201368
70.960 15.957998
70.965 15.999084
70.970 16.066509
70.975 16.318417
70.980 16.195784
70.985 16.884356
70.990 17.164171
70.995 17.802691
71.000 17.971125
71.005 18.519808
71.010 18.389919
71.015 18.219152
71.020 17.574245
71.025 17.18482
71.030 17.008053
71.035 17.169809
71.040 16.557894
71.045 17.020388
71.050 17.502827
71.055 17.759348
71.060 17.647652
71.065 17.345949
71.070 17.276201
71.075 17.680895
71.080 17.15486
71.085 17.398172
71.090 17.861404
71.095 18.640646
71.100 19.29364
71.105 20.003128
71.110 20.256674
71.115 20.339577
71.120 20.107531
71.125 19.66394
71.130 19.807312
71.135 19.571472
71.140 19.454901
71.145 19.439362
71.150 19.340578
71.155 19.533703
71.160 20.642361
71.165 20.460041
71.170 19.840946
71.175 19.861202
71.180 19.703226
71.185 18.922447
71.190 18.80455
71.195 18.715666
71.200 18.905546
71.205 19.510431
71.210 19.369955
71.215 19.671177
71.220 20.44453
71.225 19.870663
71.230 19.302122
71.235 18.915339
71.240 18.417931
71.245 18.154745
71.250 18.111954
71.255 17.869089
71.260 17.480272
71.265 18.14805
71.270 18.14863
71.275 18.607134
71.280 19.000238
71.285 18.785683
71.290 18.632515
71.295 18.594398
71.300 17.376318
71.305 17.403078
71.310 17.38728
71.315 17.360069
71.320 17.678303
71.325 17.50465
71.330 17.891411
71.335 18.517637
71.340 18.63002
71.345 18.30472
71.350 18.273619
71.355 18.363482
71.360 18.116272
71.365 18.168476
71.370 18.49469
71.375 18.552427
71.380 18.061981
71.385 18.06724
71.390 18.084063
71.395 18.172832
71.400 18.128166
71.405 17.758329
71.410 17.795738
71.415 18.041145
71.420 18.014078
71.425 17.501783
71.430 17.10446
71.435 16.139996
71.440 15.902774
71.445 15.646316
71.450 16.151281
71.455 16.542629
71.460 16.852795
71.465 17.613163
71.470 18.16967
71.475 18.111551
71.480 18.622547
71.485 18.155893
71.490 17.923185
71.495 18.015694
71.500 17.811441
71.505 18.452328
71.510 18.406151
71.515 18.123898
71.520 18.323175
71.525 18.334723
71.530 18.49814
71.535 17.930641
71.540 16.75374
71.545 17.026102
71.550 17.115932
71.555 17.301685
71.560 17.158689
71.565 16.471437
71.570 17.208643
71.575 18.46306
71.580 17.968182
71.585 17.812384
71.590 17.291435
71.595 18.148281
71.600 18.427252
71.605 18.181606
71.610 17.868187
71.615 18.406265
71.620 18.691309
71.625 18.690126
71.630 18.644815
71.635 18.538572
71.640 18.549694
71.645 18.021599
71.650 17.600887
71.655 17.16025
71.660 17.350548
71.665 17.221556
71.670 17.300329
71.675 17.039675
71.680 17.985645
71.685 18.775335
71.690 19.079916
71.695 19.273338
71.700 18.97459
71.705 18.758932
71.710 18.526024
71.715 17.443682
71.720 16.85751
71.725 16.715723
71.730 16.652954
71.735 16.586687
71.740 17.616966
71.745 18.567614
71.750 18.746494
71.755 18.638344
71.760 18.147573
71.765 18.567463
71.770 18.045633
71.775 17.997154
71.780 18.12007
71.785 18.051693
71.790 18.439346
71.795 18.878529
71.800 19.485149
71.805 19.908072
71.810 19.314722
71.815 19.372183
71.820 19.181543
71.825 19.045872
71.830 18.92874
71.835 18.574587
71.840 18.486677
71.845 18.433846
71.850 18.237598
71.855 19.08802
71.860 19.099079
71.865 19.212072
71.870 19.374874
71.875 19.858999
71.880 19.910494
71.885 19.391462
71.890 18.599577
71.895 18.389198
71.900 17.821943
71.905 16.82192
71.910 15.942696
71.915 15.554762
71.920 15.232222
71.925 15.225971
71.930 15.312264
71.935 16.013712
71.940 16.684351
71.945 17.265587
71.950 17.716627
71.955 18.787563
71.960 19.05657
71.965 18.698191
71.970 18.88345
71.975 18.97031
71.980 18.960163
71.985 18.887077
71.990 18.538055
71.995 18.9932
72.000 19.265711
72.005 19.233473
72.010 19.392775
72.015 19.152212
72.020 19.550091
72.025 19.588842
72.030 19.25182
72.035 18.820539
72.040 18.514366
72.045 18.635599
72.050 18.964264
72.055 19.320843
72.060 19.234549
72.065 18.81111
72.070 18.931282
72.075 19.083687
72.080 18.854809
72.085 17.908409
72.090 17.103355
72.095 17.541458
72.100 17.512005
72.105 17.161018
72.110 16.86323
72.115 17.5548
72.120 18.125841
72.125 17.859463
72.130 17.359255
72.135 17.84322
72.140 17.86581
72.145 17.924973
72.150 17.722412
72.155 17.948132
72.160 18.41707
72.165 18.418411
72.170 18.73708
72.175 18.853476
72.180 19.013239
72.185 19.325005
72.190 18.982721
72.195 18.810116
72.200 18.997686
72.205 18.929762
72.210 18.681913
72.215 18.146441
72.220 17.617493
72.225 18.098997
72.230 18.113571
72.235 17.768812
72.240 17.565279
72.245 17.889679
72.250 18.153584
72.255 17.884388
72.260 17.718321
72.265 17.820454
72.270 18.456488
72.275 19.130869
72.280 18.909035
72.285 18.92408
72.290 18.668043
72.295 18.637367
72.300 18.462599
72.305 18.246431
72.310 17.869299
72.315 17.722975
72.320 17.928593
72.325 17.928209
72.330 18.117146
72.335 18.407631
72.340 18.063662
72.345 18.066954
72.350 18.819849
72.355 18.675741
72.360 18.616314
72.365 18.055546
72.370 17.604836
72.375 17.533371
72.380 17.763826
72.385 16.915054
72.390 17.33794
72.395 17.923595
72.400 17.665264
72.405 17.838289
72.410 17.500357
72.415 17.690697
72.420 17.595356
72.425 17.016376
72.430 16.640213
72.435 17.000114
72.440 16.940308
72.445 17.477781
72.450 18.102535
72.455 18.786587
72.460 18.632233
72.465 19.14283
72.470 19.437712
72.475 19.402031
72.480 18.647902
72.485 18.125301
72.490 17.880636
72.495 18.261415
72.500 18.152248
72.505 18.192478
72.510 18.071684
72.515 17.659031
72.520 17.946312
72.525 18.254972
72.530 18.110817
72.535 17.798519
72.540 17.651472
72.545 17.966146
72.550 17.814114
72.555 17.673803
72.560 17.577505
72.565 17.767601
72.570 18.001072
72.575 18.267141
72.580 18.602222
72.585 18.719749
72.590 18.363125
72.595 18.477835
72.600 18.184078
72.605 18.322563
72.610 18.083027
72.615 18.302999
72.620 18.583914
72.625 18.944849
72.630 18.704378
72.635 18.053249
72.640 17.381346
72.645 17.029383
72.650 16.737558
72.655 16.565186
72.660 16.105825
72.665 15.916939
72.670 16.637684
72.675 17.343817
72.680 17.334427
72.685 17.057444
72.690 16.693707
72.695 17.37332
72.700 17.671642
72.705 17.001377
72.710 17.27977
72.715 18.018234
72.720 18.352549
72.725 18.287775
72.730 17.78537
72.735 17.660604
72.740 17.920664
72.745 17.110863
72.750 16.780624
72.755 16.440939
72.760 16.630911
72.765 16.937283
72.770 16.573616
72.775 16.825666
72.780 17.046692
72.785 17.382914
72.790 17.527466
72.795 17.449154
72.800 17.860373
72.805 18.322575
72.810 18.670418
72.815 18.784544
72.820 18.97069
72.825 19.35932
72.830 19.919615
72.835 19.492361
72.840 19.091183
72.845 18.644724
72.850 18.377525
72.855 18.199114
72.860 17.829115
72.865 17.710869
72.870 17.65309
72.875 17.772284
72.880 17.839941
72.885 17.743073
72.890 17.35545
72.895 17.196642
72.900 16.881121
72.905 16.804005
72.910 16.385962
72.915 16.563232
72.920 16.907156
72.925 16.658213
72.930 16.723387
72.935 17.72006
72.940 18.030893
72.945 18.569715
72.950 18.534803
72.955 18.325846
72.960 18.500381
72.965 18.579311
72.970 18.775644
72.975 19.06805
72.980 18.870192
72.985 18.360228
72.990 18.38294
72.995 17.998178
73.000 17.589527
