!@!!GADDS PLOTSO FILE: Chi integration type
!@!!Title/SampleName: map-9e
!@!!Comment: ?
!@!!User: Bruker Instrument Administrator
!@!!Site: University of Illinois Chicago
!@!!Frame: map-9e_01_000.gfrm
!@!!Wavelengths    1.54184   1.54056   1.54439
!@!!Frame angles: 2Theta: 63.000 Omega: 50.000 Phi: 0.000 Chi: 90.000
!@!!Integration range: 2Theta: 53.000 to 73.000  Gamma: -105.000 to -75.000
!@!!Integration method: bin normalized
!@!N
!@!SS
!@!M
!@!L 0.0 0.0 0.0 0.0
!@!XDegrees
!@!YCounts
53.000 9.906106
53.005 9.239593
53.010 9.369466
53.015 9.331551
53.020 9.368254
53.025 9.364396
53.030 9.261038
53.035 9.60685
53.040 9.929568
53.045 9.495639
53.050 9.222331
53.055 9.09094
53.060 8.951418
53.065 8.936263
53.070 8.384528
53.075 8.385106
53.080 8.958619
53.085 9.398196
53.090 9.607508
53.095 10.029263
53.100 10.357458
53.105 10.440344
53.110 10.363026
53.115 9.98705
53.120 9.747021
53.125 9.331917
53.130 8.74629
53.135 8.713644
53.140 8.420205
53.145 8.110098
53.150 8.532188
53.155 8.624599
53.160 8.871315
53.165 8.968047
53.170 9.094268
53.175 9.255329
53.180 9.408331
53.185 9.745113
53.190 9.988629
53.195 9.874513
53.200 9.658712
53.205 9.711044
53.210 10.232482
53.215 10.435909
53.220 10.06743
53.225 10.385023
53.230 10.827954
53.235 11.066641
53.240 10.920426
53.245 10.965406
53.250 10.791643
53.255 10.448827
53.260 9.616803
53.265 9.180187
53.270 9.200747
53.275 9.0022
53.280 8.454728
53.285 8.386511
53.290 8.886477
53.295 9.706755
53.300 9.836247
53.305 9.664959
53.310 9.796185
53.315 9.960375
53.320 9.862855
53.325 9.893028
53.330 9.808956
53.335 10.245877
53.340 10.529778
53.345 10.409315
53.350 10.963667
53.355 10.907911
53.360 10.433634
53.365 10.33287
53.370 10.033474
53.375 9.997968
53.380 10.08487
53.385 9.809252
53.390 9.942951
53.395 10.253102
53.400 10.369885
53.405 9.997258
53.410 10.005079
53.415 9.488614
53.420 9.406179
53.425 9.348453
53.430 8.91528
53.435 8.909503
53.440 9.422858
53.445 9.249641
53.450 9.382936
53.455 9.49979
53.460 9.775548
53.465 10.202683
53.470 10.107505
53.475 10.123084
53.480 10.145866
53.485 10.212593
53.490 10.100314
53.495 9.971437
53.500 9.681939
53.505 9.289821
53.510 9.445813
53.515 9.480832
53.520 9.48175
53.525 9.551816
53.530 9.287271
53.535 9.372993
53.540 9.559312
53.545 9.868648
53.550 10.154142
53.555 10.068885
53.560 10.077087
53.565 10.340416
53.570 10.645556
53.575 10.461379
53.580 10.273174
53.585 10.549292
53.590 10.592404
53.595 10.467821
53.600 10.423513
53.605 10.585532
53.610 10.924771
53.615 10.692154
53.620 10.33246
53.625 10.024801
53.630 10.11756
53.635 10.207677
53.640 10.233014
53.645 10.211176
53.650 10.234291
53.655 10.356821
53.660 10.803852
53.665 10.936655
53.670 10.665933
53.675 10.653994
53.680 10.555984
53.685 10.584499
53.690 10.434468
53.695 9.995915
53.700 9.644262
53.705 9.521799
53.710 9.35584
53.715 9.086466
53.720 9.271415
53.725 9.550928
53.730 9.983705
53.735 10.547861
53.740 10.120845
53.745 10.242108
53.750 10.45472
53.755 10.309402
53.760 10.165431
53.765 9.961172
53.770 9.556744
53.775 9.85224
53.780 9.753602
53.785 9.719421
53.790 9.675249
53.795 9.55264
53.800 9.81168
53.805 10.284511
53.810 10.403146
53.815 10.508628
53.820 10.66406
53.825 11.177138
53.830 11.295938
53.835 11.005336
53.840 10.48149
53.845 10.427981
53.850 10.652678
53.855 10.629817
53.860 10.546185
53.865 10.107853
53.870 9.783896
53.875 10.061859
53.880 10.189069
53.885 9.96917
53.890 10.31264
53.895 10.54968
53.900 10.622002
53.905 11.126778
53.910 11.054009
53.915 10.848118
53.920 10.364346
53.925 10.197086
53.930 10.026056
53.935 9.988007
53.940 9.633206
53.945 9.844143
53.950 10.104414
53.955 10.487819
53.960 9.847908
53.965 10.155696
53.970 10.63313
53.975 10.93583
53.980 10.7623
53.985 10.991144
53.990 11.086076
53.995 11.215015
54.000 11.335434
54.005 11.607683
54.010 11.800308
54.015 11.641839
54.020 11.631445
54.025 11.403274
54.030 11.022291
54.035 11.133962
54.040 10.290818
54.045 10.14632
54.050 9.934601
54.055 9.996801
54.060 10.020277
54.065 9.597898
54.070 9.618558
54.075 9.318472
54.080 9.317636
54.085 8.792809
54.090 8.333673
54.095 8.658621
54.100 8.722604
54.105 8.464498
54.110 8.918453
54.115 9.142884
54.120 9.720183
54.125 9.894576
54.130 9.987124
54.135 10.462622
54.140 11.086207
54.145 11.246911
54.150 11.214828
54.155 11.086751
54.160 10.878948
54.165 10.185556
54.170 9.759099
54.175 9.589803
54.180 9.764915
54.185 10.065453
54.190 10.007128
54.195 10.460321
54.200 11.495257
54.205 11.640487
54.210 11.441188
54.215 11.169711
54.220 11.19351
54.225 11.993971
54.230 12.22319
54.235 11.745823
54.240 11.607258
54.245 11.741475
54.250 11.949786
54.255 12.034082
54.260 11.807348
54.265 12.008616
54.270 12.328554
54.275 12.529296
54.280 12.321048
54.285 12.051439
54.290 11.544391
54.295 11.137245
54.300 10.589409
54.305 10.122188
54.310 9.821035
54.315 9.769444
54.320 10.110503
54.325 10.363225
54.330 10.45252
54.335 10.227845
54.340 9.986182
54.345 9.834259
54.350 9.980658
54.355 9.477407
54.360 9.114179
54.365 9.306243
54.370 9.686364
54.375 10.468904
54.380 10.405289
54.385 10.079509
54.390 10.613624
54.395 10.929121
54.400 10.768328
54.405 10.512899
54.410 10.101293
54.415 10.52528
54.420 10.79059
54.425 10.569447
54.430 10.335105
54.435 10.02367
54.440 10.405584
54.445 10.23973
54.450 9.743138
54.455 9.581936
54.460 10.001945
54.465 10.438807
54.470 11.064509
54.475 11.046514
54.480 11.401977
54.485 12.075411
54.490 12.665319
54.495 12.194306
54.500 12.310494
54.505 12.305494
54.510 12.535301
54.515 12.453454
54.520 11.910519
54.525 11.765241
54.530 11.709349
54.535 11.574301
54.540 11.392884
54.545 11.222812
54.550 11.267949
54.555 11.007896
54.560 10.689601
54.565 10.438392
54.570 10.476645
54.575 10.681115
54.580 10.943328
54.585 10.949898
54.590 10.899724
54.595 10.926181
54.600 11.003287
54.605 10.755301
54.610 9.923469
54.615 9.794772
54.620 9.7954
54.625 9.813723
54.630 9.872022
54.635 10.037653
54.640 10.383456
54.645 10.359946
54.650 10.151229
54.655 10.600168
54.660 10.855034
54.665 10.922073
54.670 10.4964
54.675 10.597065
54.680 11.315784
54.685 11.501688
54.690 11.35588
54.695 10.780081
54.700 10.381855
54.705 10.481846
54.710 10.623857
54.715 10.227057
54.720 9.702373
54.725 9.813657
54.730 10.138801
54.735 10.791577
54.740 11.212906
54.745 11.543769
54.750 12.00605
54.755 12.228526
54.760 12.125025
54.765 12.367805
54.770 11.915966
54.775 11.208253
54.780 10.691635
54.785 10.751039
54.790 11.001036
54.795 11.327801
54.800 11.248181
54.805 11.214058
54.810 11.404889
54.815 11.305385
54.820 11.50894
54.825 11.510334
54.830 11.635157
54.835 12.092212
54.840 12.157976
54.845 11.764679
54.850 11.484689
54.855 11.227761
54.860 10.323306
54.865 9.840734
54.870 9.804564
54.875 10.058153
54.880 10.718962
54.885 11.132372
54.890 11.039294
54.895 11.417875
54.900 11.771906
54.905 11.923575
54.910 11.982758
54.915 12.15109
54.920 12.139777
54.925 12.451546
54.930 12.593192
54.935 12.54364
54.940 12.479887
54.945 12.700867
54.950 12.957744
54.955 13.092048
54.960 13.638134
54.965 14.004725
54.970 13.525566
54.975 13.371566
54.980 13.234263
54.985 12.807482
54.990 12.178119
54.995 11.729068
55.000 11.415583
55.005 11.817869
55.010 11.341171
55.015 10.482127
55.020 10.08464
55.025 10.068794
55.030 10.16291
55.035 9.834365
55.040 10.00522
55.045 10.682969
55.050 10.78937
55.055 11.860379
55.060 12.181459
55.065 12.441515
55.070 12.491508
55.075 12.050623
55.080 11.791221
55.085 12.28955
55.090 11.681775
55.095 11.246614
55.100 10.911551
55.105 10.970266
55.110 10.983015
55.115 10.891037
55.120 10.934005
55.125 10.566003
55.130 10.483954
55.135 10.615777
55.140 10.512422
55.145 10.822932
55.150 11.145354
55.155 10.890742
55.160 11.390421
55.165 11.728559
55.170 11.948953
55.175 12.244349
55.180 12.532266
55.185 12.61822
55.190 12.588725
55.195 12.681072
55.200 12.334594
55.205 12.031606
55.210 11.831335
55.215 11.388887
55.220 10.909701
55.225 10.395744
55.230 9.983916
55.235 10.159219
55.240 10.964742
55.245 11.078302
55.250 11.210577
55.255 11.105827
55.260 11.160649
55.265 11.632159
55.270 11.539664
55.275 10.926832
55.280 11.196102
55.285 11.277217
55.290 11.692937
55.295 11.856255
55.300 11.79366
55.305 11.763124
55.310 11.853791
55.315 11.451211
55.320 11.547906
55.325 12.451059
55.330 12.514268
55.335 11.932405
55.340 11.57041
55.345 11.220337
55.350 11.295445
55.355 10.895242
55.360 10.633413
55.365 10.844909
55.370 11.298388
55.375 11.774044
55.380 11.593592
55.385 11.680929
55.390 11.724931
55.395 11.570236
55.400 11.362554
55.405 11.373122
55.410 11.724436
55.415 11.886345
55.420 11.635161
55.425 11.569397
55.430 11.396164
55.435 11.394707
55.440 11.225979
55.445 10.917396
55.450 11.072651
55.455 11.268478
55.460 11.15054
55.465 11.261681
55.470 11.897727
55.475 12.116104
55.480 12.226496
55.485 12.18831
55.490 11.953104
55.495 12.566706
55.500 12.567504
55.505 12.710876
55.510 12.6685
55.515 12.693228
55.520 12.652719
55.525 12.48947
55.530 12.003056
55.535 11.857416
55.540 11.275424
55.545 10.79967
55.550 10.673187
55.555 10.546762
55.560 10.613059
55.565 10.717924
55.570 10.92127
55.575 11.451118
55.580 11.901874
55.585 12.381831
55.590 12.813571
55.595 12.698782
55.600 11.807956
55.605 11.555571
55.610 11.491097
55.615 11.140463
55.620 10.605679
55.625 10.380219
55.630 10.701933
55.635 11.196756
55.640 11.192632
55.645 11.645436
55.650 12.102027
55.655 12.34772
55.660 12.869158
55.665 13.262034
55.670 13.11415
55.675 13.068531
55.680 12.510642
55.685 12.427634
55.690 12.812106
55.695 12.445951
55.700 12.556859
55.705 12.767566
55.710 12.575198
55.715 12.5337
55.720 12.622262
55.725 12.238559
55.730 12.741321
55.735 12.25417
55.740 12.265464
55.745 12.276433
55.750 12.333795
55.755 12.264545
55.760 12.535913
55.765 12.413786
55.770 12.398953
55.775 12.128093
55.780 12.228018
55.785 12.476008
55.790 12.423551
55.795 12.102077
55.800 12.005462
55.805 12.655957
55.810 12.932736
55.815 12.876116
55.820 12.342062
55.825 12.282903
55.830 11.914954
55.835 11.875468
55.840 11.699801
55.845 11.750839
55.850 11.97222
55.855 12.206933
55.860 12.490033
55.865 12.562639
55.870 12.28585
55.875 12.263783
55.880 12.253193
55.885 11.871636
55.890 11.869752
55.895 12.088943
55.900 12.454928
55.905 12.553327
55.910 12.720942
55.915 12.591638
55.920 12.866011
55.925 12.571771
55.930 12.105238
55.935 12.25287
55.940 12.016945
55.945 12.149467
55.950 12.357869
55.955 12.295963
55.960 12.814533
55.965 12.890626
55.970 13.110337
55.975 13.42524
55.980 13.147532
55.985 12.648654
55.990 12.778892
55.995 12.694608
56.000 12.714641
56.005 12.618093
56.010 12.525174
56.015 12.737581
56.020 13.098924
56.025 13.012465
56.030 12.637097
56.035 12.56336
56.040 12.277521
56.045 11.847205
56.050 11.744362
56.055 12.059307
56.060 11.871656
56.065 11.806509
56.070 12.003614
56.075 12.047735
56.080 12.538758
56.085 11.988954
56.090 11.564926
56.095 11.69943
56.100 11.57391
56.105 11.46567
56.110 11.272334
56.115 11.077588
56.120 11.659564
56.125 11.586456
56.130 11.721106
56.135 11.904559
56.140 12.48884
56.145 13.268936
56.150 13.628237
56.155 13.561684
56.160 13.478407
56.165 13.653847
56.170 13.54551
56.175 12.95604
56.180 12.49437
56.185 12.941423
56.190 13.61834
56.195 13.982943
56.200 13.651554
56.205 13.369608
56.210 13.1411
56.215 11.950653
56.220 10.904202
56.225 10.635501
56.230 10.646206
56.235 10.952168
56.240 11.576207
56.245 12.644187
56.250 13.910798
56.255 13.650061
56.260 13.718895
56.265 13.904799
56.270 13.695116
56.275 13.574935
56.280 13.057693
56.285 13.064374
56.290 13.20393
56.295 13.648726
56.300 13.990666
56.305 14.080707
56.310 13.606478
56.315 13.506791
56.320 14.214041
56.325 14.58256
56.330 14.212917
56.335 14.116649
56.340 14.367581
56.345 14.78291
56.350 13.885089
56.355 13.060308
56.360 12.867964
56.365 12.488704
56.370 12.238925
56.375 12.0166
56.380 11.783076
56.385 12.226018
56.390 12.209239
56.395 12.004454
56.400 11.995764
56.405 12.006147
56.410 12.145411
56.415 12.06579
56.420 12.042809
56.425 12.195092
56.430 12.335215
56.435 12.471582
56.440 12.230997
56.445 12.163188
56.450 12.474895
56.455 11.933624
56.460 11.405698
56.465 10.978849
56.470 11.096148
56.475 11.482683
56.480 11.431814
56.485 11.690516
56.490 12.479706
56.495 12.641899
56.500 12.550804
56.505 12.421651
56.510 12.165041
56.515 12.186094
56.520 12.284531
56.525 12.646977
56.530 12.854287
56.535 12.893245
56.540 12.934364
56.545 13.272405
56.550 13.309565
56.555 13.610497
56.560 13.378059
56.565 13.65846
56.570 13.346501
56.575 12.487745
56.580 12.249304
56.585 12.098299
56.590 11.712616
56.595 11.712203
56.600 12.02564
56.605 12.665998
56.610 13.333086
56.615 13.990436
56.620 14.097157
56.625 14.236723
56.630 14.090749
56.635 13.394788
56.640 13.42144
56.645 13.558433
56.650 13.288777
56.655 13.081319
56.660 13.22678
56.665 13.504394
56.670 13.655622
56.675 13.41955
56.680 13.205047
56.685 12.942184
56.690 12.931208
56.695 13.133703
56.700 13.112939
56.705 13.774468
56.710 14.207395
56.715 14.00707
56.720 13.997084
56.725 14.43438
56.730 14.144672
56.735 14.571071
56.740 14.63521
56.745 14.172811
56.750 14.528799
56.755 14.725437
56.760 14.672215
56.765 14.790567
56.770 13.975972
56.775 13.792039
56.780 14.029262
56.785 13.708455
56.790 13.190519
56.795 13.143163
56.800 13.124176
56.805 13.493652
56.810 13.668136
56.815 13.578479
56.820 13.672944
56.825 14.15864
56.830 14.128901
56.835 13.989006
56.840 13.883373
56.845 13.583947
56.850 13.515903
56.855 13.495694
56.860 13.51356
56.865 13.968903
56.870 14.236306
56.875 13.521839
56.880 13.607566
56.885 14.111039
56.890 13.96668
56.895 13.341847
56.900 12.79458
56.905 12.52458
56.910 12.20074
56.915 12.029599
56.920 11.994819
56.925 11.843932
56.930 11.958586
56.935 12.920343
56.940 13.064648
56.945 14.00162
56.950 14.326652
56.955 14.657842
56.960 14.782377
56.965 14.555242
56.970 13.773883
56.975 14.246354
56.980 13.917231
56.985 13.655207
56.990 13.018101
56.995 13.309461
57.000 13.492187
57.005 12.966051
57.010 13.085591
57.015 13.248214
57.020 13.347997
57.025 13.613148
57.030 13.245421
57.035 13.229464
57.040 13.266475
57.045 12.915952
57.050 12.51297
57.055 12.273612
57.060 12.260491
57.065 12.283954
57.070 12.551783
57.075 13.218514
57.080 13.559271
57.085 13.827461
57.090 14.305838
57.095 14.43871
57.100 14.476567
57.105 14.085287
57.110 14.105358
57.115 13.829295
57.120 14.075686
57.125 13.754672
57.130 13.964153
57.135 13.975224
57.140 14.123357
57.145 14.208642
57.150 13.741166
57.155 13.664984
57.160 13.883588
57.165 14.26687
57.170 14.966895
57.175 14.533902
57.180 14.245319
57.185 14.761346
57.190 14.561541
57.195 14.166078
57.200 13.924642
57.205 13.954797
57.210 14.231318
57.215 14.066359
57.220 14.357112
57.225 14.467417
57.230 14.545936
57.235 14.278428
57.240 13.760167
57.245 13.762067
57.250 14.075864
57.255 13.826521
57.260 13.645642
57.265 13.264888
57.270 13.145343
57.275 13.136187
57.280 13.044539
57.285 13.068092
57.290 13.476171
57.295 13.619584
57.300 14.175797
57.305 13.779683
57.310 13.524484
57.315 13.256727
57.320 13.131192
57.325 12.838952
57.330 13.143457
57.335 13.474491
57.340 13.888821
57.345 14.178043
57.350 14.868145
57.355 15.348015
57.360 15.269525
57.365 14.765875
57.370 14.565498
57.375 14.960807
57.380 15.438185
57.385 15.377436
57.390 15.214591
57.395 15.864207
57.400 16.419235
57.405 16.028915
57.410 15.613597
57.415 15.394978
57.420 15.339146
57.425 14.793691
57.430 13.956527
57.435 13.330966
57.440 13.706153
57.445 14.347816
57.450 14.252164
57.455 14.170725
57.460 14.490159
57.465 14.720213
57.470 14.956709
57.475 14.589173
57.480 14.036507
57.485 14.078563
57.490 14.487404
57.495 14.800398
57.500 15.501226
57.505 16.105625
57.510 16.140253
57.515 16.492344
57.520 16.176779
57.525 15.057
57.530 14.272105
57.535 13.796571
57.540 13.583664
57.545 13.880625
57.550 13.141615
57.555 13.232987
57.560 14.212744
57.565 14.941851
57.570 15.02439
57.575 15.273677
57.580 15.529799
57.585 15.648787
57.590 16.348238
57.595 16.940208
57.600 17.462711
57.605 16.940874
57.610 16.123213
57.615 16.04237
57.620 16.236074
57.625 15.8547
57.630 15.158265
57.635 14.16482
57.640 14.342193
57.645 14.628352
57.650 15.107385
57.655 15.199786
57.660 15.087892
57.665 15.519688
57.670 16.641081
57.675 16.8885
57.680 16.562029
57.685 16.078932
57.690 15.740985
57.695 15.610973
57.700 15.118683
57.705 14.716829
57.710 14.77578
57.715 14.982987
57.720 15.158375
57.725 15.981888
57.730 16.514418
57.735 16.279352
57.740 15.536659
57.745 15.089687
57.750 14.939033
57.755 14.6569
57.760 14.061098
57.765 13.2837
57.770 12.956929
57.775 13.418466
57.780 13.710691
57.785 14.351125
57.790 14.490399
57.795 14.377654
57.800 14.778385
57.805 15.024957
57.810 15.420869
57.815 15.841103
57.820 15.686506
57.825 15.455352
57.830 15.175574
57.835 15.458933
57.840 15.730601
57.845 15.409726
57.850 15.041791
57.855 14.804618
57.860 15.372207
57.865 15.854703
57.870 15.879257
57.875 15.876055
57.880 16.788544
57.885 16.950203
57.890 17.360214
57.895 17.419825
57.900 17.112362
57.905 16.968941
57.910 16.704014
57.915 15.955621
57.920 15.886853
57.925 15.0719
57.930 14.819029
57.935 15.009973
57.940 14.992375
57.945 15.137589
57.950 15.079866
57.955 15.11381
57.960 15.812813
57.965 16.174994
57.970 16.603889
57.975 17.259996
57.980 17.787117
57.985 18.251175
57.990 18.619455
57.995 18.141384
58.000 17.86433
58.005 17.365942
58.010 17.214094
58.015 16.628553
58.020 16.674294
58.025 16.534025
58.030 16.651985
58.035 16.834265
58.040 17.462179
58.045 17.399237
58.050 17.615839
58.055 17.545401
58.060 17.685904
58.065 18.038752
58.070 17.7493
58.075 17.436604
58.080 17.172621
58.085 17.496634
58.090 17.367723
58.095 16.964216
58.100 16.916494
58.105 17.107586
58.110 17.004654
58.115 17.116245
58.120 16.866055
58.125 17.211855
58.130 17.288828
58.135 17.209845
58.140 17.634539
58.145 18.289663
58.150 18.092506
58.155 18.372252
58.160 18.271767
58.165 18.770641
58.170 18.799667
58.175 18.353085
58.180 19.024937
58.185 19.786669
58.190 20.150171
58.195 20.618389
58.200 21.01318
58.205 21.075014
58.210 20.478352
58.215 19.158871
58.220 18.264458
58.225 18.235102
58.230 18.128597
58.235 18.238043
58.240 18.655514
58.245 19.386686
58.250 19.409899
58.255 19.129478
58.260 18.914827
58.265 18.788351
58.270 18.679024
58.275 18.581099
58.280 18.595739
58.285 18.838734
58.290 19.140335
58.295 19.064199
58.300 19.096731
58.305 19.510202
58.310 19.521801
58.315 19.648632
58.320 20.285141
58.325 20.3916
58.330 20.577597
58.335 20.336433
58.340 19.889257
58.345 19.837738
58.350 19.653786
58.355 19.770723
58.360 20.210283
58.365 20.165512
58.370 20.747385
58.375 20.595812
58.380 21.103647
58.385 21.645046
58.390 21.411448
58.395 21.088882
58.400 20.802616
58.405 20.662464
58.410 20.775991
58.415 20.401562
58.420 20.051344
58.425 20.681547
58.430 21.147593
58.435 21.207136
58.440 21.72764
58.445 21.895121
58.450 22.688728
58.455 23.093554
58.460 22.961218
58.465 23.788006
58.470 24.535181
58.475 24.446138
58.480 24.576931
58.485 24.242199
58.490 24.483038
58.495 23.952894
58.500 23.179565
58.505 22.595669
58.510 22.510164
58.515 22.988886
58.520 23.129974
58.525 22.191397
58.530 21.752007
58.535 21.429781
58.540 21.352259
58.545 21.463171
58.550 21.583916
58.555 21.609827
58.560 22.817074
58.565 24.219931
58.570 24.217352
58.575 24.81823
58.580 24.409832
58.585 23.861984
58.590 24.129665
58.595 23.452187
58.600 23.621929
58.605 24.13929
58.610 23.344772
58.615 23.264914
58.620 22.805531
58.625 22.983841
58.630 23.296679
58.635 22.98052
58.640 23.263466
58.645 23.063921
58.650 23.185867
58.655 22.985264
58.660 22.748804
58.665 22.57099
58.670 22.380432
58.675 22.689594
58.680 23.636972
58.685 23.823568
58.690 23.996136
58.695 23.378841
58.700 22.999523
58.705 22.690022
58.710 21.944065
58.715 21.623032
58.720 21.863617
58.725 22.109175
58.730 22.912523
58.735 22.609436
58.740 22.800463
58.745 22.657999
58.750 22.358118
58.755 22.355717
58.760 22.095528
58.765 21.204084
58.770 21.198301
58.775 20.451109
58.780 20.636904
58.785 20.818735
58.790 21.084967
58.795 21.572096
58.800 22.082298
58.805 22.069534
58.810 22.200346
58.815 22.149277
58.820 21.572975
58.825 21.631203
58.830 21.867811
58.835 21.531137
58.840 22.267645
58.845 22.178045
58.850 22.137054
58.855 21.944199
58.860 21.347605
58.865 21.366789
58.870 21.408268
58.875 21.601219
58.880 21.800226
58.885 21.827089
58.890 22.091103
58.895 21.869862
58.900 21.177326
58.905 21.133934
58.910 20.081511
58.915 19.625429
58.920 19.702621
58.925 19.856043
58.930 19.939075
58.935 20.320793
58.940 20.263779
58.945 20.590963
58.950 21.292784
58.955 21.550785
58.960 21.603586
58.965 22.171892
58.970 21.750168
58.975 21.71479
58.980 22.213791
58.985 22.214901
58.990 22.216051
58.995 21.690147
59.000 21.139154
59.005 21.163528
59.010 21.339008
59.015 20.873245
59.020 20.390652
59.025 20.611338
59.030 20.97142
59.035 21.822895
59.040 22.463306
59.045 22.271231
59.050 22.135038
59.055 21.906145
59.060 22.208967
59.065 21.859898
59.070 20.83791
59.075 20.68399
59.080 20.792488
59.085 21.173468
59.090 21.123335
59.095 20.902138
59.100 21.468676
59.105 21.176413
59.110 21.163864
59.115 20.952229
59.120 20.132519
59.125 20.046045
59.130 19.572285
59.135 19.420284
59.140 19.35553
59.145 18.642599
59.150 18.459362
59.155 19.218264
59.160 19.182276
59.165 19.648567
59.170 19.955669
59.175 20.486984
59.180 21.470352
59.185 21.916962
59.190 21.650345
59.195 21.512434
59.200 21.00757
59.205 20.591972
59.210 20.05617
59.215 19.891468
59.220 19.244387
59.225 19.217363
59.230 19.309261
59.235 19.147837
59.240 19.144272
59.245 19.570395
59.250 18.973722
59.255 19.364187
59.260 18.950623
59.265 18.863235
59.270 19.068882
59.275 19.439846
59.280 19.549698
59.285 19.219406
59.290 19.169395
59.295 19.826675
59.300 20.129585
59.305 19.955833
59.310 18.928925
59.315 18.495436
59.320 18.838936
59.325 18.862106
59.330 18.490934
59.335 18.076067
59.340 18.065701
59.345 18.487289
59.350 17.944351
59.355 17.537403
59.360 17.140078
59.365 17.156246
59.370 17.227606
59.375 17.621893
59.380 17.606272
59.385 17.774199
59.390 18.262701
59.395 18.583221
59.400 19.020483
59.405 19.135847
59.410 19.114305
59.415 19.589943
59.420 19.963991
59.425 19.384935
59.430 19.34597
59.435 19.012457
59.440 19.12114
59.445 19.116661
59.450 19.269413
59.455 19.54772
59.460 19.983345
59.465 19.867638
59.470 19.790102
59.475 19.392818
59.480 19.027641
59.485 18.580057
59.490 18.639898
59.495 19.070395
59.500 19.083015
59.505 19.155409
59.510 19.176765
59.515 19.426195
59.520 19.683315
59.525 19.260752
59.530 19.045362
59.535 19.237341
59.540 19.293943
59.545 19.150549
59.550 19.078421
59.555 18.83239
59.560 18.667456
59.565 18.175377
59.570 18.576605
59.575 18.471029
59.580 18.594498
59.585 18.557865
59.590 18.462709
59.595 18.521257
59.600 18.254084
59.605 17.705902
59.610 18.166088
59.615 17.55282
59.620 17.232647
59.625 17.527445
59.630 17.942053
59.635 18.672182
59.640 19.040533
59.645 19.180328
59.650 20.023279
59.655 20.342899
59.660 20.411131
59.665 20.477774
59.670 19.836771
59.675 19.05702
59.680 19.057592
59.685 18.866798
59.690 18.689693
59.695 18.868612
59.700 19.114697
59.705 19.225393
59.710 19.339579
59.715 18.629351
59.720 18.636847
59.725 18.821564
59.730 18.516361
59.735 17.732845
59.740 17.375443
59.745 17.334209
59.750 17.019215
59.755 16.119572
59.760 15.463034
59.765 15.264544
59.770 15.311312
59.775 15.98053
59.780 16.851255
59.785 17.752022
59.790 18.925024
59.795 19.572794
59.800 19.872574
59.805 19.932554
59.810 19.859802
59.815 19.69206
59.820 19.439713
59.825 19.058611
59.830 19.094393
59.835 19.468149
59.840 20.156391
59.845 19.481441
59.850 18.987173
59.855 18.82786
59.860 18.523045
59.865 18.074194
59.870 17.860025
59.875 17.301723
59.880 17.680395
59.885 18.181839
59.890 18.338606
59.895 18.435299
59.900 18.447552
59.905 18.174891
59.910 17.53544
59.915 17.214808
59.920 16.527985
59.925 16.14373
59.930 16.067854
59.935 16.037748
59.940 15.907638
59.945 16.019968
59.950 16.067986
59.955 16.745985
59.960 16.903173
59.965 17.103779
59.970 17.399086
59.975 17.433289
59.980 17.721167
59.985 17.297779
59.990 16.897184
59.995 16.969555
60.000 16.854731
60.005 16.876616
60.010 16.763012
60.015 16.732822
60.020 17.596859
60.025 17.757923
60.030 17.939795
60.035 17.738829
60.040 17.205307
60.045 17.510662
60.050 17.488083
60.055 16.877438
60.060 17.298872
60.065 17.344397
60.070 17.551905
60.075 17.904778
60.080 17.660175
60.085 17.10561
60.090 17.260294
60.095 16.581266
60.100 16.170605
60.105 16.345947
60.110 16.258465
60.115 16.422981
60.120 16.708158
60.125 16.330027
60.130 16.109716
60.135 16.056002
60.140 16.056187
60.145 16.287992
60.150 16.563925
60.155 17.609947
60.160 17.782764
60.165 18.155718
60.170 18.825352
60.175 18.57497
60.180 18.11937
60.185 17.812597
60.190 17.514912
60.195 17.35541
60.200 16.796923
60.205 16.433754
60.210 16.563765
60.215 16.460569
60.220 15.532047
60.225 15.008664
60.230 15.560654
60.235 15.694589
60.240 15.11669
60.245 14.75456
60.250 15.004199
60.255 15.487184
60.260 15.075832
60.265 15.24251
60.270 15.443827
60.275 15.601166
60.280 16.037617
60.285 15.964379
60.290 16.385656
60.295 16.690802
60.300 16.563864
60.305 16.421452
60.310 16.434359
60.315 15.964452
60.320 15.377345
60.325 14.73911
60.330 14.424963
60.335 14.104661
60.340 14.242717
60.345 14.471155
60.350 14.834721
60.355 15.899952
60.360 17.04517
60.365 17.034813
60.370 17.330244
60.375 17.602327
60.380 17.791906
60.385 18.015387
60.390 17.516897
60.395 17.459576
60.400 17.614473
60.405 17.065536
60.410 16.426977
60.415 16.064762
60.420 16.187748
60.425 16.189991
60.430 16.226622
60.435 16.314781
60.440 16.474997
60.445 16.516068
60.450 16.653637
60.455 16.266834
60.460 16.174704
60.465 15.768778
60.470 15.933929
60.475 15.873471
60.480 16.110415
60.485 16.510569
60.490 17.009235
60.495 17.011457
60.500 16.55036
60.505 16.145491
60.510 16.754698
60.515 16.776262
60.520 16.404543
60.525 16.461353
60.530 16.754505
60.535 17.209242
60.540 17.844257
60.545 17.899775
60.550 17.218599
60.555 17.247427
60.560 17.191576
60.565 17.077108
60.570 17.040457
60.575 16.514753
60.580 16.527086
60.585 17.359726
60.590 17.482924
60.595 17.315929
60.600 17.793085
60.605 18.306715
60.610 18.465336
60.615 17.970905
60.620 17.675154
60.625 17.854019
60.630 17.490826
60.635 17.216295
60.640 16.955931
60.645 16.850328
60.650 17.155504
60.655 16.931515
60.660 16.386967
60.665 16.216234
60.670 15.998382
60.675 15.423574
60.680 15.077356
60.685 14.805638
60.690 14.917493
60.695 15.170433
60.700 15.43879
60.705 15.705245
60.710 16.078539
60.715 16.562721
60.720 16.811584
60.725 16.811892
60.730 16.366898
60.735 16.034994
60.740 15.664867
60.745 15.327732
60.750 15.302814
60.755 15.396094
60.760 15.510592
60.765 16.403917
60.770 16.670078
60.775 16.711164
60.780 16.594299
60.785 16.408295
60.790 16.304701
60.795 16.400505
60.800 16.218744
60.805 16.396502
60.810 16.662624
60.815 16.728123
60.820 16.971216
60.825 17.266882
60.830 17.168024
60.835 16.92445
60.840 16.508617
60.845 16.585672
60.850 16.666134
60.855 16.454393
60.860 16.22216
60.865 16.229935
60.870 16.657015
60.875 16.829174
60.880 16.563816
60.885 16.140404
60.890 15.803362
60.895 15.714253
60.900 15.255645
60.905 14.857192
60.910 14.641088
60.915 14.51505
60.920 14.72496
60.925 14.637256
60.930 14.377242
60.935 14.676589
60.940 14.650333
60.945 14.749609
60.950 15.295015
60.955 15.661067
60.960 16.01923
60.965 16.070761
60.970 15.959352
60.975 16.00386
60.980 15.968377
60.985 15.578497
60.990 15.238892
60.995 15.465774
61.000 15.660271
61.005 15.413824
61.010 15.217722
61.015 15.352707
61.020 15.989891
61.025 15.985319
61.030 15.353534
61.035 15.57848
61.040 16.035418
61.045 16.279064
61.050 16.119686
61.055 15.717727
61.060 16.093863
61.065 16.630735
61.070 16.559572
61.075 16.731239
61.080 17.117571
61.085 17.613503
61.090 17.662041
61.095 17.992264
61.100 18.11441
61.105 17.98975
61.110 17.720083
61.115 17.624166
61.120 17.38722
61.125 17.238739
61.130 16.784531
61.135 16.56012
61.140 16.936625
61.145 17.415827
61.150 17.862135
61.155 17.584614
61.160 18.028191
61.165 18.416414
61.170 18.449423
61.175 18.209667
61.180 17.683212
61.185 17.015379
61.190 17.204796
61.195 17.132385
61.200 16.674351
61.205 16.673658
61.210 16.816084
61.215 16.519112
61.220 16.784971
61.225 17.353306
61.230 17.324146
61.235 17.607731
61.240 18.137531
61.245 18.129354
61.250 18.404959
61.255 18.078573
61.260 18.096338
61.265 17.869635
61.270 17.797264
61.275 17.319525
61.280 17.521154
61.285 17.629107
61.290 17.726311
61.295 17.140537
61.300 16.916159
61.305 16.933878
61.310 16.940485
61.315 17.029587
61.320 16.681202
61.325 16.264063
61.330 16.463478
61.335 16.598125
61.340 16.19573
61.345 15.68442
61.350 15.013909
61.355 14.999771
61.360 15.211187
61.365 15.315501
61.370 15.683946
61.375 15.598695
61.380 15.942736
61.385 16.30896
61.390 16.57692
61.395 17.071037
61.400 16.735781
61.405 16.415382
61.410 17.32132
61.415 17.176447
61.420 16.730789
61.425 16.330114
61.430 15.943761
61.435 16.335421
61.440 16.438906
61.445 15.947841
61.450 15.953428
61.455 16.073648
61.460 16.300112
61.465 16.298973
61.470 15.935232
61.475 16.396843
61.480 17.324268
61.485 17.639067
61.490 17.890171
61.495 17.76409
61.500 18.042341
61.505 18.069174
61.510 17.486496
61.515 16.774012
61.520 16.347294
61.525 16.009911
61.530 15.982685
61.535 15.922583
61.540 15.638257
61.545 16.131828
61.550 16.667803
61.555 16.989628
61.560 17.423922
61.565 17.23226
61.570 16.984198
61.575 17.499977
61.580 16.997974
61.585 16.55015
61.590 16.647884
61.595 16.765312
61.600 17.050432
61.605 17.021179
61.610 16.675167
61.615 16.396278
61.620 16.324049
61.625 16.183508
61.630 15.491688
61.635 15.449444
61.640 15.593387
61.645 15.573238
61.650 15.41708
61.655 14.924813
61.660 15.273363
61.665 15.679321
61.670 15.90388
61.675 15.688966
61.680 15.389646
61.685 15.747847
61.690 16.046446
61.695 16.045551
61.700 16.110411
61.705 16.283249
61.710 16.948732
61.715 17.139664
61.720 17.178602
61.725 17.749216
61.730 17.663609
61.735 17.803122
61.740 17.484394
61.745 17.178137
61.750 17.456636
61.755 17.58881
61.760 17.084591
61.765 17.19067
61.770 17.496183
61.775 17.951685
61.780 18.363949
61.785 18.422937
61.790 18.377728
61.795 18.238514
61.800 17.834455
61.805 16.946781
61.810 16.976433
61.815 16.871742
61.820 17.137373
61.825 17.326763
61.830 17.956905
61.835 17.929033
61.840 18.392719
61.845 17.794846
61.850 17.560905
61.855 16.852436
61.860 17.251926
61.865 16.966183
61.870 17.807831
61.875 17.706764
61.880 17.950907
61.885 18.32394
61.890 18.472076
61.895 17.849941
61.900 17.675049
61.905 17.637423
61.910 18.04937
61.915 18.206873
61.920 18.071495
61.925 18.209715
61.930 18.253941
61.935 18.549892
61.940 18.535294
61.945 18.148617
61.950 17.995808
61.955 18.014627
61.960 17.99054
61.965 18.053236
61.970 17.873362
61.975 17.550158
61.980 17.679327
61.985 17.725304
61.990 17.648735
61.995 17.456135
62.000 17.592604
62.005 17.193838
62.010 17.854965
62.015 18.048338
62.020 18.357117
62.025 18.300211
62.030 18.361876
62.035 18.12027
62.040 18.221319
62.045 17.530979
62.050 17.029057
62.055 16.593628
62.060 16.892653
62.065 17.200539
62.070 17.339685
62.075 17.476761
62.080 17.571732
62.085 17.087467
62.090 17.114216
62.095 16.834402
62.100 16.669331
62.105 16.826353
62.110 16.713179
62.115 16.439989
62.120 17.355629
62.125 17.648588
62.130 17.830036
62.135 18.329643
62.140 18.5548
62.145 18.580145
62.150 18.985737
62.155 18.452799
62.160 18.216183
62.165 18.372131
62.170 17.9161
62.175 17.609226
62.180 17.763918
62.185 17.441505
62.190 17.938368
62.195 17.449162
62.200 17.209
62.205 17.464905
62.210 17.7514
62.215 17.483
62.220 17.225353
62.225 16.925985
62.230 17.426191
62.235 17.594631
62.240 16.928398
62.245 16.6654
62.250 17.380003
62.255 17.813559
62.260 17.953964
62.265 17.934795
62.270 17.253263
62.275 16.939573
62.280 16.954823
62.285 16.698101
62.290 16.431261
62.295 16.160175
62.300 15.605104
62.305 15.590687
62.310 15.543821
62.315 14.525658
62.320 14.548251
62.325 14.477248
62.330 14.432139
62.335 14.741175
62.340 14.976165
62.345 15.048591
62.350 15.760671
62.355 16.081121
62.360 16.95454
62.365 18.015978
62.370 18.585155
62.375 18.441877
62.380 18.648153
62.385 18.621784
62.390 18.079388
62.395 17.367168
62.400 16.72163
62.405 16.697954
62.410 17.220303
62.415 17.724669
62.420 17.882685
62.425 18.006371
62.430 18.772524
62.435 19.110785
62.440 18.888323
62.445 19.524462
62.450 20.241636
62.455 20.032341
62.460 20.584644
62.465 20.316973
62.470 19.970068
62.475 19.89669
62.480 19.578112
62.485 18.455906
62.490 18.371157
62.495 18.341908
62.500 18.217957
62.505 18.011145
62.510 17.557211
62.515 17.194635
62.520 17.609377
62.525 17.506001
62.530 16.838123
62.535 16.327896
62.540 16.301386
62.545 16.549816
62.550 16.230209
62.555 16.045731
62.560 15.860332
62.565 15.697958
62.570 15.753753
62.575 15.91906
62.580 16.005672
62.585 16.657618
62.590 17.386629
62.595 17.395828
62.600 17.878773
62.605 17.929562
62.610 17.897284
62.615 17.620136
62.620 16.038889
62.625 15.185423
62.630 15.621548
62.635 14.932915
62.640 15.014438
62.645 14.640234
62.650 15.423451
62.655 16.630705
62.660 16.440414
62.665 16.54595
62.670 16.791792
62.675 16.978672
62.680 16.809063
62.685 16.468832
62.690 16.723635
62.695 16.865768
62.700 16.245283
62.705 15.953697
62.710 15.353062
62.715 15.463402
62.720 14.957211
62.725 14.927725
62.730 14.774348
62.735 15.47609
62.740 15.951791
62.745 16.275963
62.750 16.837324
62.755 17.203634
62.760 16.77071
62.765 16.824995
62.770 16.9471
62.775 17.158445
62.780 17.342592
62.785 16.902395
62.790 16.673504
62.795 16.665329
62.800 17.202343
62.805 17.270008
62.810 16.776083
62.815 17.196131
62.820 17.087013
62.825 17.235052
62.830 18.673136
62.835 18.713474
62.840 18.806396
62.845 18.900284
62.850 18.946623
62.855 19.310394
62.860 19.240814
62.865 18.351828
62.870 18.091694
62.875 17.92972
62.880 18.180912
62.885 17.371923
62.890 17.131866
62.895 16.739859
62.900 16.476149
62.905 16.14467
62.910 15.449909
62.915 15.345011
62.920 15.587197
62.925 16.31002
62.930 16.101929
62.935 15.452502
62.940 15.221004
62.945 15.576139
62.950 15.734657
62.955 15.535701
62.960 15.144161
62.965 15.428846
62.970 16.1922
62.975 17.486811
62.980 17.836777
62.985 17.893105
62.990 18.555712
62.995 19.02359
63.000 19.483473
63.005 19.251236
63.010 18.466215
63.015 18.493057
63.020 18.686737
63.025 19.164316
63.030 19.187326
63.035 19.390203
63.040 19.266348
63.045 19.154934
63.050 18.930576
63.055 18.705765
63.060 17.489887
63.065 17.29995
63.070 16.90654
63.075 17.208132
63.080 17.887423
63.085 17.896442
63.090 17.538706
63.095 17.276457
63.100 16.778645
63.105 16.881529
63.110 16.851032
63.115 16.249891
63.120 16.356478
63.125 16.692915
63.130 17.283472
63.135 17.863607
63.140 17.620424
63.145 17.865868
63.150 18.315386
63.155 18.367172
63.160 18.183371
63.165 18.74963
63.170 18.540268
63.175 18.568335
63.180 18.57169
63.185 18.741432
63.190 18.492418
63.195 18.563185
63.200 18.007889
63.205 18.128023
63.210 18.611351
63.215 18.483828
63.220 17.808443
63.225 18.241066
63.230 18.537745
63.235 18.110325
63.240 18.019741
63.245 17.586599
63.250 17.055586
63.255 17.691145
63.260 17.773623
63.265 17.309362
63.270 17.371534
63.275 17.285345
63.280 17.795563
63.285 18.633556
63.290 18.968254
63.295 19.258812
63.300 19.504686
63.305 19.740938
63.310 20.189016
63.315 20.108953
63.320 20.13044
63.325 19.795549
63.330 19.668392
63.335 19.860624
63.340 20.221682
63.345 20.15819
63.350 19.983852
63.355 19.565533
63.360 19.587572
63.365 19.597881
63.370 19.331848
63.375 19.217606
63.380 19.025457
63.385 19.003248
63.390 18.601982
63.395 18.087032
63.400 17.944569
63.405 17.884487
63.410 17.557735
63.415 17.497244
63.420 17.672674
63.425 18.06567
63.430 18.791628
63.435 18.876251
63.440 18.877121
63.445 19.176882
63.450 18.679552
63.455 18.85284
63.460 18.80768
63.465 18.372635
63.470 18.733259
63.475 18.711777
63.480 18.819431
63.485 19.566977
63.490 19.353291
63.495 19.604836
63.500 19.996452
63.505 19.897583
63.510 20.34902
63.515 20.189085
63.520 19.478083
63.525 19.086578
63.530 18.417816
63.535 18.073898
63.540 17.960993
63.545 17.598648
63.550 17.661465
63.555 18.026138
63.560 17.88493
63.565 17.874456
63.570 17.454195
63.575 17.384512
63.580 17.6702
63.585 17.399529
63.590 17.918058
63.595 18.177881
63.600 18.268379
63.605 18.995359
63.610 18.977116
63.615 18.71236
63.620 19.247175
63.625 19.247316
63.630 19.822176
63.635 20.275965
63.640 20.08975
63.645 20.181837
63.650 20.180254
63.655 19.478083
63.660 19.199175
63.665 19.390083
63.670 19.019299
63.675 18.251186
63.680 18.445049
63.685 18.807283
63.690 19.38007
63.695 19.933325
63.700 20.233871
63.705 20.671852
63.710 21.362755
63.715 20.662073
63.720 20.629154
63.725 20.507654
63.730 20.13414
63.735 20.395187
63.740 21.173801
63.745 20.886717
63.750 21.125618
63.755 20.838543
63.760 20.532225
63.765 20.506147
63.770 19.829498
63.775 19.11783
63.780 19.769753
63.785 20.266106
63.790 21.110657
63.795 21.980814
63.800 22.637184
63.805 23.072273
63.810 23.014135
63.815 22.726925
63.820 22.264091
63.825 21.6782
63.830 21.019121
63.835 20.873363
63.840 21.504791
63.845 21.751905
63.850 21.752031
63.855 21.862722
63.860 22.291367
63.865 22.511204
63.870 21.989788
63.875 21.326273
63.880 21.688103
63.885 21.992447
63.890 22.885159
63.895 22.940195
63.900 23.05876
63.905 22.993034
63.910 23.104889
63.915 23.38884
63.920 23.507017
63.925 23.322001
63.930 23.667496
63.935 23.776278
63.940 23.361557
63.945 23.200115
63.950 22.889334
63.955 22.911156
63.960 22.856297
63.965 22.71163
63.970 23.335157
63.975 24.201771
63.980 25.017458
63.985 25.450197
63.990 25.173582
63.995 25.563311
64.000 25.412691
64.005 25.183004
64.010 26.090982
64.015 27.148046
64.020 27.910927
64.025 28.15836
64.030 28.205435
64.035 28.556086
64.040 28.40925
64.045 27.85989
64.050 26.775105
64.055 26.410967
64.060 26.395741
64.065 26.447559
64.070 26.468927
64.075 26.98175
64.080 27.148445
64.085 26.908014
64.090 26.413933
64.095 26.482788
64.100 26.356483
64.105 26.636402
64.110 26.363054
64.115 26.56308
64.120 27.675682
64.125 28.706762
64.130 28.848825
64.135 28.360052
64.140 27.542114
64.145 27.340237
64.150 26.605589
64.155 25.754639
64.160 24.821917
64.165 24.265738
64.170 24.995575
64.175 25.288614
64.180 25.315424
64.185 25.436563
64.190 25.60503
64.195 26.458775
64.200 26.940451
64.205 26.517673
64.210 26.793152
64.215 27.275196
64.220 27.305006
64.225 26.636986
64.230 26.378485
64.235 26.43284
64.240 26.130123
64.245 26.1098
64.250 25.667122
64.255 26.077641
64.260 26.433178
64.265 25.802855
64.270 25.647533
64.275 25.937798
64.280 25.699007
64.285 25.777536
64.290 25.291304
64.295 24.879835
64.300 25.136787
64.305 25.251194
64.310 25.0303
64.315 25.438387
64.320 25.292498
64.325 24.99519
64.330 25.234049
64.335 25.588022
64.340 25.514662
64.345 25.514124
64.350 25.239592
64.355 25.384455
64.360 26.247164
64.365 26.649803
64.370 26.751732
64.375 26.713476
64.380 27.379463
64.385 27.008108
64.390 26.89637
64.395 26.529625
64.400 26.639679
64.405 26.685797
64.410 26.77256
64.415 26.45047
64.420 26.613785
64.425 26.443083
64.430 26.791241
64.435 27.088491
64.440 26.942232
64.445 26.919729
64.450 26.760082
64.455 26.615232
64.460 26.627411
64.465 26.287231
64.470 25.421101
64.475 24.847347
64.480 25.146612
64.485 25.064127
64.490 25.098179
64.495 25.054899
64.500 24.92079
64.505 25.33783
64.510 25.222099
64.515 24.812893
64.520 25.437807
64.525 26.21072
64.530 26.293541
64.535 26.113182
64.540 25.758295
64.545 25.708563
64.550 25.561953
64.555 25.000828
64.560 24.197018
64.565 24.320265
64.570 23.67202
64.575 23.582493
64.580 24.505753
64.585 24.574915
64.590 24.201578
64.595 23.903507
64.600 23.731377
64.605 23.973555
64.610 23.927446
64.615 23.341621
64.620 22.749043
64.625 22.979559
64.630 23.490936
64.635 23.518568
64.640 23.748199
64.645 24.236897
64.650 23.634233
64.655 23.975309
64.660 24.442293
64.665 24.153326
64.670 23.546265
64.675 22.584251
64.680 22.493851
64.685 23.179832
64.690 23.255894
64.695 22.194313
64.700 21.881571
64.705 22.303032
64.710 22.711321
64.715 22.574585
64.720 22.657572
64.725 22.642921
64.730 23.768274
64.735 24.159573
64.740 24.164572
64.745 24.083246
64.750 23.29915
64.755 22.954327
64.760 22.39916
64.765 22.24469
64.770 22.150869
64.775 22.486364
64.780 22.470442
64.785 22.345509
64.790 22.541933
64.795 22.766685
64.800 22.446688
64.805 21.894505
64.810 21.986023
64.815 22.035837
64.820 22.588076
64.825 22.626261
64.830 22.784605
64.835 23.390572
64.840 23.864061
64.845 23.490402
64.850 23.404861
64.855 23.190187
64.860 22.840828
64.865 22.702154
64.870 21.960728
64.875 22.299944
64.880 22.536037
64.885 22.995148
64.890 23.289465
64.895 23.693207
64.900 23.923815
64.905 24.085581
64.910 23.37554
64.915 23.755436
64.920 23.50293
64.925 23.359644
64.930 23.291359
64.935 23.423138
64.940 23.904259
64.945 24.363773
64.950 24.165644
64.955 24.276102
64.960 24.388594
64.965 23.981161
64.970 23.67194
64.975 22.720339
64.980 21.888535
64.985 21.315561
64.990 21.456327
64.995 21.457148
65.000 21.421732
65.005 21.831667
65.010 22.900192
65.015 23.860409
65.020 24.616619
65.025 24.676357
65.030 25.392065
65.035 25.799536
65.040 25.663652
65.045 25.052757
65.050 25.10486
65.055 24.985989
65.060 24.846626
65.065 24.075109
65.070 24.458532
65.075 24.814894
65.080 24.853733
65.085 24.234268
65.090 24.297983
65.095 24.420145
65.100 24.483816
65.105 24.444412
65.110 24.648466
65.115 24.903111
65.120 25.452938
65.125 25.661812
65.130 26.452911
65.135 26.579748
65.140 26.226027
65.145 26.296305
65.150 26.213905
65.155 26.000694
65.160 25.885538
65.165 25.668819
65.170 26.494125
65.175 26.635662
65.180 26.599073
65.185 26.430424
65.190 25.978241
65.195 25.293137
65.200 24.744802
65.205 24.490896
65.210 24.678083
65.215 24.655127
65.220 25.191954
65.225 25.799557
65.230 26.197578
65.235 25.989126
65.240 25.020702
65.245 24.344198
65.250 24.236633
65.255 24.434996
65.260 24.326742
65.265 23.646164
65.270 23.502995
65.275 23.72546
65.280 23.968109
65.285 23.857847
65.290 23.440962
65.295 23.235518
65.300 23.827339
65.305 23.876072
65.310 23.843245
65.315 24.085146
65.320 23.859682
65.325 23.748047
65.330 23.894451
65.335 23.810982
65.340 23.645199
65.345 23.672709
65.350 23.113066
65.355 23.205328
65.360 22.784668
65.365 22.771891
65.370 22.550129
65.375 23.310219
65.380 23.542999
65.385 23.618258
65.390 23.546766
65.395 24.125702
65.400 24.289822
65.405 24.462816
65.410 23.634584
65.415 23.318483
65.420 23.170715
65.425 23.120968
65.430 22.446871
65.435 22.322485
65.440 22.194284
65.445 22.369215
65.450 22.667095
65.455 22.400473
65.460 22.444986
65.465 22.479671
65.470 21.955761
65.475 21.913321
65.480 21.229847
65.485 20.727003
65.490 21.603336
65.495 21.434715
65.500 21.575235
65.505 21.928207
65.510 23.006632
65.515 23.614065
65.520 23.653614
65.525 23.145212
65.530 23.261656
65.535 23.635656
65.540 23.899639
65.545 23.58214
65.550 24.280611
65.555 24.935902
65.560 25.193316
65.565 25.400717
65.570 25.521049
65.575 25.234625
65.580 25.600903
65.585 25.340645
65.590 25.189083
65.595 24.764132
65.600 24.452532
65.605 24.538975
65.610 24.914848
65.615 24.057703
65.620 24.096478
65.625 23.94322
65.630 23.723431
65.635 23.595537
65.640 23.386713
65.645 23.45557
65.650 23.480373
65.655 22.97994
65.660 22.785515
65.665 23.676071
65.670 24.285046
65.675 24.42906
65.680 24.750788
65.685 24.966013
65.690 25.093964
65.695 25.516106
65.700 25.381477
65.705 25.453575
65.710 25.159267
65.715 24.44828
65.720 25.081711
65.725 25.403601
65.730 25.477417
65.735 25.984438
65.740 26.2062
65.745 26.578709
65.750 26.765133
65.755 27.152191
65.760 27.646441
65.765 27.937492
65.770 27.802952
65.775 27.749451
65.780 27.907305
65.785 27.639742
65.790 26.732103
65.795 26.51017
65.800 26.856878
65.805 26.229298
65.810 25.445311
65.815 25.020336
65.820 25.267845
65.825 25.792055
65.830 25.887991
65.835 26.014294
65.840 26.526079
65.845 27.407375
65.850 28.820715
65.855 29.443542
65.860 29.630173
65.865 29.787558
65.870 28.899462
65.875 28.326565
65.880 28.090708
65.885 27.901096
65.890 28.682415
65.895 28.638042
65.900 28.770754
65.905 29.31765
65.910 30.174494
65.915 30.252562
65.920 29.809446
65.925 29.748026
65.930 29.891577
65.935 30.095022
65.940 30.436506
65.945 30.808758
65.950 31.288891
65.955 31.123072
65.960 31.6588
65.965 31.807028
65.970 31.949234
65.975 32.486515
65.980 32.958569
65.985 33.177998
65.990 33.55587
65.995 32.969517
66.000 33.642246
66.005 34.134445
66.010 33.794563
66.015 33.562614
66.020 34.270042
66.025 35.379734
66.030 36.519459
66.035 36.27739
66.040 35.76609
66.045 34.861958
66.050 34.300262
66.055 34.068958
66.060 33.652534
66.065 33.838528
66.070 34.40955
66.075 35.375038
66.080 36.314053
66.085 36.629406
66.090 37.124554
66.095 37.12817
66.100 37.825356
66.105 37.992371
66.110 37.843452
66.115 38.234097
66.120 38.433048
66.125 38.344238
66.130 38.105499
66.135 37.702225
66.140 38.567425
66.145 38.155697
66.150 37.699909
66.155 37.470318
66.160 37.507206
66.165 38.81599
66.170 39.459858
66.175 39.658596
66.180 40.949757
66.185 42.112644
66.190 43.548283
66.195 44.178749
66.200 44.725555
66.205 44.312202
66.210 43.788952
66.215 43.424831
66.220 43.157913
66.225 42.947262
66.230 42.682545
66.235 41.955631
66.240 41.687656
66.245 41.548882
66.250 41.176487
66.255 40.134083
66.260 39.345634
66.265 38.789787
66.270 38.56831
66.275 39.455151
66.280 39.814026
66.285 40.602097
66.290 41.32658
66.295 41.361855
66.300 41.674465
66.305 40.712246
66.310 39.582012
66.315 39.919579
66.320 40.139919
66.325 39.679634
66.330 39.615376
66.335 39.380886
66.340 40.300365
66.345 40.365955
66.350 40.380531
66.355 40.508671
66.360 40.536114
66.365 40.131111
66.370 39.538754
66.375 39.305698
66.380 39.37368
66.385 38.350029
66.390 37.916573
66.395 38.185863
66.400 37.986687
66.405 37.69952
66.410 36.733936
66.415 36.091011
66.420 35.418373
66.425 35.027607
66.430 34.693657
66.435 34.703819
66.440 34.93573
66.445 34.72184
66.450 34.647202
66.455 34.844311
66.460 34.555767
66.465 34.373268
66.470 33.898975
66.475 33.520893
66.480 33.386532
66.485 33.076477
66.490 33.682621
66.495 33.519268
66.500 33.452091
66.505 33.854755
66.510 33.55798
66.515 32.956348
66.520 31.986357
66.525 31.080923
66.530 31.050009
66.535 30.44626
66.540 29.787514
66.545 29.571201
66.550 30.230873
66.555 30.430132
66.560 30.134825
66.565 30.373531
66.570 30.993574
66.575 30.458038
66.580 29.710218
66.585 28.374496
66.590 27.937904
66.595 27.747166
66.600 27.149698
66.605 26.312069
66.610 26.129747
66.615 26.311096
66.620 26.071915
66.625 25.865452
66.630 25.873241
66.635 25.753468
66.640 25.532768
66.645 25.266024
66.650 25.158672
66.655 24.825779
66.660 24.337454
66.665 23.516285
66.670 23.17271
66.675 23.761965
66.680 23.653086
66.685 23.409233
66.690 23.709978
66.695 24.441547
66.700 24.522583
66.705 24.030865
66.710 23.302898
66.715 23.443823
66.720 23.645008
66.725 23.187117
66.730 22.622116
66.735 22.481501
66.740 22.629349
66.745 23.484764
66.750 23.425413
66.755 22.6623
66.760 22.51075
66.765 22.468918
66.770 22.658268
66.775 22.43133
66.780 21.807138
66.785 22.67103
66.790 23.247528
66.795 23.460033
66.800 22.985701
66.805 22.554857
66.810 22.32925
66.815 21.937822
66.820 20.850382
66.825 20.21204
66.830 20.268623
66.835 20.654673
66.840 20.802343
66.845 20.7033
66.850 20.69434
66.855 21.100597
66.860 21.592564
66.865 21.008192
66.870 20.325283
66.875 20.062023
66.880 20.049604
66.885 20.011774
66.890 19.977993
66.895 18.991375
66.900 18.686243
66.905 18.539637
66.910 18.85305
66.915 19.254734
66.920 19.332302
66.925 19.218851
66.930 20.091757
66.935 20.810202
66.940 21.490822
66.945 21.464106
66.950 21.168627
66.955 20.90715
66.960 21.557098
66.965 22.098452
66.970 22.223791
66.975 21.818205
66.980 21.862244
66.985 21.54619
66.990 20.940329
66.995 19.954109
67.000 19.594389
67.005 19.141556
67.010 19.255236
67.015 19.117149
67.020 19.496683
67.025 20.110731
67.030 20.587019
67.035 20.841997
67.040 20.8731
67.045 20.851883
67.050 20.899616
67.055 20.854492
67.060 21.130156
67.065 20.912964
67.070 20.711254
67.075 20.48144
67.080 21.035324
67.085 21.261539
67.090 21.974159
67.095 22.020227
67.100 22.223413
67.105 21.79599
67.110 21.586618
67.115 20.723854
67.120 20.831409
67.125 20.038782
67.130 19.374365
67.135 18.863441
67.140 19.054171
67.145 19.289618
67.150 19.84461
67.155 20.04137
67.160 20.396212
67.165 20.480015
67.170 21.099949
67.175 21.96244
67.180 21.957315
67.185 21.383488
67.190 20.956583
67.195 20.789125
67.200 20.399918
67.205 19.472378
67.210 19.436363
67.215 19.950741
67.220 19.953814
67.225 19.855371
67.230 19.760025
67.235 20.402193
67.240 20.494495
67.245 19.923296
67.250 19.812939
67.255 19.978514
67.260 20.084009
67.265 20.321686
67.270 20.574068
67.275 20.67931
67.280 20.426886
67.285 20.138365
67.290 20.011766
67.295 20.330233
67.300 20.366592
67.305 19.499868
67.310 19.932917
67.315 20.122765
67.320 19.628115
67.325 19.131136
67.330 18.876209
67.335 18.539564
67.340 18.382383
67.345 17.899277
67.350 17.722878
67.355 18.359192
67.360 18.443384
67.365 18.200457
67.370 18.415182
67.375 18.594042
67.380 18.731977
67.385 19.457241
67.390 19.313679
67.395 19.482721
67.400 19.429821
67.405 19.615589
67.410 19.417177
67.415 19.168697
67.420 18.462347
67.425 18.260277
67.430 17.875101
67.435 18.06074
67.440 17.968235
67.445 18.226805
67.450 18.322781
67.455 18.876402
67.460 19.466854
67.465 19.591679
67.470 19.554771
67.475 19.856621
67.480 19.85355
67.485 19.656092
67.490 19.460947
67.495 19.442883
67.500 19.948441
67.505 19.844912
67.510 19.543695
67.515 19.518414
67.520 19.891399
67.525 19.982283
67.530 19.862659
67.535 20.12178
67.540 19.972441
67.545 20.175495
67.550 19.99205
67.555 19.629894
67.560 20.149054
67.565 20.328764
67.570 19.921213
67.575 19.761745
67.580 19.713734
67.585 19.672781
67.590 19.841349
67.595 19.393467
67.600 18.955086
67.605 19.045086
67.610 19.15733
67.615 19.515125
67.620 20.207754
67.625 20.364624
67.630 20.077049
67.635 20.680733
67.640 21.378733
67.645 21.758074
67.650 21.54538
67.655 20.610048
67.660 20.010178
67.665 19.909853
67.670 19.375856
67.675 18.844858
67.680 18.527887
67.685 18.404474
67.690 19.027071
67.695 19.18384
67.700 19.222513
67.705 19.336128
67.710 19.415085
67.715 19.475925
67.720 19.576221
67.725 19.448
67.730 19.497423
67.735 19.734838
67.740 20.112421
67.745 19.897879
67.750 19.848734
67.755 19.689157
67.760 19.969324
67.765 20.262707
67.770 19.764305
67.775 19.421125
67.780 19.728994
67.785 19.65712
67.790 19.545122
67.795 19.123964
67.800 19.167006
67.805 19.310797
67.810 19.50078
67.815 19.059958
67.820 19.12607
67.825 19.165915
67.830 19.432161
67.835 19.553068
67.840 19.424126
67.845 19.547331
67.850 20.144682
67.855 20.223158
67.860 20.739607
67.865 20.807281
67.870 20.785748
67.875 20.730631
67.880 20.478819
67.885 20.222189
67.890 20.200413
67.895 20.365742
67.900 20.958685
67.905 21.462502
67.910 21.460016
67.915 21.357286
67.920 21.892565
67.925 22.023735
67.930 21.266966
67.935 20.532434
67.940 20.225266
67.945 20.52265
67.950 20.301445
67.955 19.364561
67.960 19.117506
67.965 19.410664
67.970 19.550299
67.975 19.596901
67.980 19.755713
67.985 20.243044
67.990 20.5075
67.995 20.230558
68.000 19.373259
68.005 18.712683
68.010 18.211016
68.015 18.439808
68.020 18.887981
68.025 19.107851
68.030 19.529142
68.035 20.111206
68.040 20.288549
68.045 20.72596
68.050 20.140957
68.055 19.526264
68.060 19.415894
68.065 19.236805
68.070 19.378477
68.075 19.174091
68.080 18.67276
68.085 18.526493
68.090 18.861597
68.095 19.879606
68.100 19.918142
68.105 20.465931
68.110 20.905596
68.115 21.144724
68.120 21.445143
68.125 21.567677
68.130 21.228056
68.135 21.38689
68.140 21.02458
68.145 20.638508
68.150 20.652016
68.155 20.587042
68.160 20.156872
68.165 19.834011
68.170 19.441813
68.175 19.559977
68.180 20.507832
68.185 20.769892
68.190 20.965883
68.195 20.708622
68.200 20.385021
68.205 21.038755
68.210 20.80512
68.215 19.893343
68.220 19.228165
68.225 19.331869
68.230 19.533358
68.235 19.464876
68.240 19.090496
68.245 19.063234
68.250 19.592276
68.255 19.776878
68.260 19.504093
68.265 19.984425
68.270 20.4548
68.275 20.997389
68.280 20.817499
68.285 20.514292
68.290 19.951004
68.295 19.504253
68.300 19.506941
68.305 19.113419
68.310 18.561741
68.315 18.692024
68.320 19.049419
68.325 19.634699
68.330 19.623417
68.335 19.40539
68.340 19.524574
68.345 19.777651
68.350 19.631081
68.355 19.014708
68.360 19.025101
68.365 19.187809
68.370 19.272722
68.375 19.690065
68.380 19.155872
68.385 19.446163
68.390 19.635145
68.395 19.63862
68.400 19.01506
68.405 18.347662
68.410 18.117659
68.415 18.411629
68.420 18.588438
68.425 19.059752
68.430 19.272758
68.435 19.781416
68.440 20.209806
68.445 19.832577
68.450 20.272999
68.455 20.074013
68.460 19.846947
68.465 20.325726
68.470 20.717014
68.475 21.213013
68.480 21.384769
68.485 21.20672
68.490 21.239044
68.495 21.760023
68.500 21.986755
68.505 21.77039
68.510 21.365845
68.515 21.390362
68.520 21.1777
68.525 20.832609
68.530 19.52397
68.535 18.223568
68.540 17.707939
68.545 17.486971
68.550 17.960291
68.555 17.861534
68.560 18.21777
68.565 18.875078
68.570 19.706247
68.575 19.985662
68.580 19.740467
68.585 19.276741
68.590 19.473902
68.595 19.329296
68.600 19.228888
68.605 19.042015
68.610 19.57527
68.615 20.005465
68.620 20.305029
68.625 20.276688
68.630 20.682121
68.635 21.457804
68.640 22.083803
68.645 21.931883
68.650 21.652086
68.655 21.789036
68.660 22.098566
68.665 21.810385
68.670 20.866022
68.675 20.65523
68.680 20.438984
68.685 20.19861
68.690 20.25724
68.695 20.74328
68.700 21.334595
68.705 21.732859
68.710 22.08168
68.715 22.138371
68.720 22.673552
68.725 22.795404
68.730 22.421644
68.735 22.159441
68.740 22.483105
68.745 22.507923
68.750 22.401756
68.755 22.11282
68.760 22.247793
68.765 22.211222
68.770 22.103739
68.775 21.213747
68.780 21.337944
68.785 21.554605
68.790 21.654573
68.795 20.739281
68.800 20.504543
68.805 20.740795
68.810 21.091568
68.815 21.483347
68.820 21.632658
68.825 22.315681
68.830 22.708303
68.835 22.658075
68.840 22.470564
68.845 22.259146
68.850 22.300756
68.855 22.356592
68.860 22.220411
68.865 22.718834
68.870 22.761906
68.875 23.034006
68.880 23.354033
68.885 22.925045
68.890 22.628263
68.895 22.200825
68.900 22.253372
68.905 22.095596
68.910 21.974148
68.915 22.136719
68.920 22.878239
68.925 23.134449
68.930 22.586153
68.935 22.371845
68.940 22.629932
68.945 22.379129
68.950 21.900095
68.955 21.373482
68.960 21.825991
68.965 22.730221
68.970 23.387468
68.975 23.901447
68.980 24.925686
68.985 25.164738
68.990 25.151007
68.995 25.070433
69.000 24.91288
69.005 24.501942
69.010 24.449537
69.015 23.859743
69.020 23.853743
69.025 24.058851
69.030 23.923737
69.035 24.398962
69.040 24.888939
69.045 24.723965
69.050 24.532259
69.055 24.794191
69.060 24.51334
69.065 25.197895
69.070 24.958031
69.075 25.345083
69.080 26.096218
69.085 27.116484
69.090 27.359842
69.095 27.773525
69.100 27.92041
69.105 28.315691
69.110 28.045298
69.115 27.822424
69.120 27.084751
69.125 27.623617
69.130 27.709915
69.135 27.338701
69.140 27.202242
69.145 26.693985
69.150 26.678499
69.155 27.083466
69.160 26.457258
69.165 26.149515
69.170 26.475771
69.175 27.323244
69.180 28.311197
69.185 28.989174
69.190 29.133659
69.195 30.198523
69.200 30.204573
69.205 29.87619
69.210 28.862288
69.215 28.573381
69.220 28.908068
69.225 28.461046
69.230 27.818157
69.235 28.329826
69.240 29.41333
69.245 30.707804
69.250 31.716181
69.255 31.624084
69.260 32.22234
69.265 32.931618
69.270 32.429123
69.275 32.320183
69.280 32.401096
69.285 32.311363
69.290 32.690529
69.295 32.425301
69.300 32.297062
69.305 32.857071
69.310 32.849346
69.315 33.001904
69.320 33.351479
69.325 33.496105
69.330 33.96011
69.335 33.792835
69.340 33.33152
69.345 33.728401
69.350 33.164364
69.355 32.777897
69.360 33.195518
69.365 32.851849
69.370 32.898354
69.375 33.444294
69.380 33.022583
69.385 33.345657
69.390 33.182217
69.395 32.799892
69.400 33.515579
69.405 34.457573
69.410 34.889961
69.415 34.437771
69.420 34.967636
69.425 35.365295
69.430 35.84066
69.435 35.536175
69.440 35.571251
69.445 35.639111
69.450 36.642876
69.455 36.981754
69.460 36.83157
69.465 36.616901
69.470 36.379719
69.475 36.127518
69.480 35.730022
69.485 35.237206
69.490 34.632488
69.495 34.529888
69.500 34.098698
69.505 34.530849
69.510 34.233654
69.515 34.325596
69.520 33.766464
69.525 33.318878
69.530 33.541885
69.535 33.789467
69.540 33.620941
69.545 34.344681
69.550 35.363468
69.555 35.897957
69.560 35.855553
69.565 35.969612
69.570 36.182217
69.575 36.282578
69.580 35.817142
69.585 34.967106
69.590 34.729794
69.595 34.711987
69.600 34.998425
69.605 34.626274
69.610 34.012684
69.615 33.553894
69.620 33.733051
69.625 33.712372
69.630 33.56773
69.635 32.969696
69.640 33.35582
69.645 33.269516
69.650 33.020115
69.655 31.97681
69.660 31.695057
69.665 31.565351
69.670 30.549345
69.675 30.196911
69.680 30.070509
69.685 30.908197
69.690 31.401901
69.695 31.439714
69.700 32.168724
69.705 32.788277
69.710 32.647495
69.715 32.342369
69.720 31.128866
69.725 31.539257
69.730 31.815109
69.735 31.100792
69.740 31.004505
69.745 30.945404
69.750 30.987339
69.755 30.176952
69.760 29.735401
69.765 28.580814
69.770 28.506317
69.775 27.850073
69.780 27.846432
69.785 27.913649
69.790 27.594164
69.795 26.828924
69.800 27.009253
69.805 26.885195
69.810 27.005581
69.815 27.32482
69.820 27.664389
69.825 28.389832
69.830 28.078028
69.835 28.27994
69.840 27.940384
69.845 26.941853
69.850 26.622139
69.855 26.379812
69.860 26.582605
69.865 26.872732
69.870 26.338997
69.875 26.884117
69.880 27.188396
69.885 26.828728
69.890 26.606308
69.895 25.287476
69.900 24.630629
69.905 24.788834
69.910 24.21876
69.915 23.955111
69.920 24.064989
69.925 23.99575
69.930 24.795448
69.935 25.417288
69.940 25.224026
69.945 25.284603
69.950 24.95726
69.955 24.545025
69.960 24.875832
69.965 23.925531
69.970 23.34304
69.975 22.608656
69.980 22.207855
69.985 22.273928
69.990 22.089476
69.995 21.731098
70.000 21.820627
70.005 21.360998
70.010 21.644272
70.015 22.413475
70.020 22.481859
70.025 22.380014
70.030 21.83787
70.035 20.978392
70.040 20.761093
70.045 20.010303
70.050 18.617096
70.055 17.844568
70.060 17.535307
70.065 17.640478
70.070 18.079594
70.075 18.308979
70.080 19.026484
70.085 19.62845
70.090 19.88364
70.095 19.757853
70.100 19.669971
70.105 20.193853
70.110 20.720894
70.115 20.495419
70.120 20.776054
70.125 20.913935
70.130 21.009777
70.135 21.592253
70.140 21.294806
70.145 21.295732
70.150 21.36902
70.155 20.865599
70.160 20.85837
70.165 20.670231
70.170 20.091167
70.175 19.823265
70.180 19.29248
70.185 18.90567
70.190 18.87215
70.195 18.395567
70.200 18.515734
70.205 18.642626
70.210 19.060688
70.215 19.361822
70.220 19.579298
70.225 19.763155
70.230 20.635025
70.235 21.537188
70.240 21.518299
70.245 21.7773
70.250 21.559021
70.255 21.376293
70.260 21.077993
70.265 20.222694
70.270 19.266979
70.275 18.698856
70.280 18.625263
70.285 19.105715
70.290 18.725052
70.295 18.781311
70.300 18.96451
70.305 19.053623
70.310 19.133499
70.315 18.835117
70.320 18.911505
70.325 19.07823
70.330 19.347666
70.335 19.124891
70.340 19.366039
70.345 19.358576
70.350 18.85116
70.355 18.622925
70.360 18.598024
70.365 18.374254
70.370 18.139822
70.375 17.246706
70.380 17.497845
70.385 18.267117
70.390 18.497717
70.395 19.032413
70.400 19.428236
70.405 20.060575
70.410 20.301279
70.415 19.348265
70.420 18.937603
70.425 18.732359
70.430 18.556877
70.435 18.223953
70.440 17.722906
70.445 18.069904
70.450 18.304405
70.455 18.455481
70.460 18.748291
70.465 18.91577
70.470 19.217527
70.475 19.387823
70.480 19.192402
70.485 18.862738
70.490 18.833082
70.495 18.409788
70.500 18.447308
70.505 18.493921
70.510 18.530146
70.515 18.710566
70.520 19.265614
70.525 19.479301
70.530 20.267859
70.535 20.580076
70.540 20.876995
70.545 21.057329
70.550 21.195784
70.555 20.962624
70.560 20.297163
70.565 19.364511
70.570 19.335114
70.575 18.816259
70.580 18.521961
70.585 18.388317
70.590 18.258581
70.595 18.190054
70.600 18.256172
70.605 18.046375
70.610 17.682793
70.615 17.46817
70.620 18.079575
70.625 18.217705
70.630 18.781652
70.635 18.620714
70.640 18.703375
70.645 18.858686
70.650 19.165186
70.655 18.827797
70.660 18.801241
70.665 18.316273
70.670 18.117348
70.675 18.219767
70.680 18.428524
70.685 18.871998
70.690 19.204723
70.695 19.130898
70.700 19.936258
70.705 20.180285
70.710 20.199106
70.715 21.075285
70.720 20.935091
70.725 20.498487
70.730 20.011127
70.735 18.941347
70.740 18.488607
70.745 18.732271
70.750 18.229408
70.755 19.00572
70.760 19.865116
70.765 20.427345
70.770 20.335829
70.775 20.297632
70.780 19.880323
70.785 19.644917
70.790 18.88847
70.795 18.457628
70.800 18.119658
70.805 18.635099
70.810 18.876184
70.815 18.963282
70.820 18.626373
70.825 18.38139
70.830 18.691948
70.835 18.778322
70.840 18.826851
70.845 19.171522
70.850 19.232546
70.855 18.803673
70.860 19.058201
70.865 19.568151
70.870 19.660788
70.875 19.407755
70.880 19.064651
70.885 18.916706
70.890 18.905491
70.895 18.240778
70.900 17.8118
70.905 18.124878
70.910 18.516481
70.915 18.633778
70.920 19.347101
70.925 19.940685
70.930 20.076097
70.935 20.269112
70.940 20.142563
70.945 19.737047
70.950 19.477118
70.955 18.656494
70.960 18.152964
70.965 18.022991
70.970 17.829323
70.975 18.040087
70.980 18.394279
70.985 18.550318
70.990 18.422716
70.995 18.668995
71.000 18.538685
71.005 18.421749
71.010 18.310963
71.015 18.259436
71.020 18.967531
71.025 19.226065
71.030 19.049109
71.035 18.531115
71.040 18.45451
71.045 18.058521
71.050 18.229864
71.055 18.411392
71.060 18.566357
71.065 18.410925
71.070 18.998055
71.075 19.491529
71.080 19.455873
71.085 19.02807
71.090 18.278351
71.095 18.018145
71.100 18.510199
71.105 18.031218
71.110 17.826923
71.115 17.873371
71.120 17.508818
71.125 17.781874
71.130 17.83638
71.135 17.749739
71.140 17.679478
71.145 17.782169
71.150 17.939785
71.155 18.315205
71.160 17.940762
71.165 18.160162
71.170 17.974844
71.175 18.174963
71.180 17.907684
71.185 17.668625
71.190 17.689453
71.195 18.658878
71.200 18.843117
71.205 19.02672
71.210 19.382469
71.215 19.840202
71.220 19.903378
71.225 19.448807
71.230 19.207924
71.235 19.007147
71.240 19.042162
71.245 18.692413
71.250 18.363537
71.255 18.209389
71.260 18.162802
71.265 17.800564
71.270 18.099417
71.275 17.919144
71.280 17.459808
71.285 17.871559
71.290 18.337395
71.295 18.304123
71.300 17.805836
71.305 17.551506
71.310 18.085144
71.315 18.336594
71.320 18.119568
71.325 18.149157
71.330 17.936993
71.335 19.11203
71.340 19.824125
71.345 19.789284
71.350 19.910694
71.355 19.680073
71.360 20.19519
71.365 20.575649
71.370 19.911407
71.375 19.596628
71.380 19.458296
71.385 19.523666
71.390 19.490696
71.395 19.291422
71.400 19.010363
71.405 18.276949
71.410 17.936802
71.415 17.982973
71.420 17.381281
71.425 17.502398
71.430 17.267174
71.435 16.916985
71.440 17.105392
71.445 17.280806
71.450 17.29904
71.455 17.682777
71.460 17.624508
71.465 17.311876
71.470 17.589321
71.475 17.491423
71.480 17.384525
71.485 17.230469
71.490 17.003632
71.495 16.870405
71.500 17.832006
71.505 18.447828
71.510 18.672018
71.515 18.408022
71.520 18.947435
71.525 19.116514
71.530 18.881798
71.535 18.955502
71.540 18.66214
71.545 18.67082
71.550 19.081621
71.555 18.945044
71.560 18.955111
71.565 19.056486
71.570 18.073874
71.575 18.136929
71.580 17.753284
71.585 17.524994
71.590 17.452665
71.595 17.723255
71.600 17.476206
71.605 17.420877
71.610 17.431551
71.615 17.420931
71.620 17.297712
71.625 17.090509
71.630 17.437668
71.635 18.043137
71.640 18.98962
71.645 18.813261
71.650 19.057735
71.655 19.483397
71.660 19.743357
71.665 19.323736
71.670 18.93762
71.675 18.50189
71.680 18.599628
71.685 18.721258
71.690 18.889441
71.695 18.891113
71.700 18.89007
71.705 18.7925
71.710 18.806753
71.715 18.669012
71.720 18.191481
71.725 17.771948
71.730 17.491426
71.735 17.276041
71.740 17.215052
71.745 17.153721
71.750 17.716009
71.755 18.689819
71.760 18.847773
71.765 19.262621
71.770 19.8599
71.775 20.12484
71.780 19.913099
71.785 19.70717
71.790 19.428064
71.795 19.670244
71.800 19.546703
71.805 19.504805
71.810 19.361427
71.815 19.410624
71.820 18.953588
71.825 18.310032
71.830 17.803045
71.835 17.304466
71.840 17.249102
71.845 17.13026
71.850 17.125765
71.855 17.20829
71.860 17.292648
71.865 17.618891
71.870 17.517107
71.875 17.610596
71.880 17.340208
71.885 16.927597
71.890 16.480528
71.895 16.080229
71.900 16.143265
71.905 16.189697
71.910 16.737726
71.915 17.10676
71.920 17.591806
71.925 17.808424
71.930 18.363226
71.935 18.404392
71.940 18.613123
71.945 18.211411
71.950 18.038692
71.955 18.173586
71.960 18.188456
71.965 18.13331
71.970 18.349545
71.975 19.218742
71.980 19.279661
71.985 19.548983
71.990 20.001991
71.995 19.887506
72.000 19.570301
72.005 19.140306
72.010 18.672153
72.015 18.598934
72.020 18.160542
72.025 17.895271
72.030 18.33239
72.035 17.867069
72.040 17.563141
72.045 17.412596
72.050 18.06373
72.055 18.375492
72.060 18.584505
72.065 18.73361
72.070 19.427269
72.075 19.419031
72.080 18.99802
72.085 18.433586
72.090 18.381754
72.095 18.263748
72.100 18.010431
72.105 17.898298
72.110 18.495638
72.115 19.269535
72.120 19.043406
72.125 18.863651
72.130 18.386526
72.135 18.619852
72.140 18.729446
72.145 18.415672
72.150 18.319471
72.155 18.675211
72.160 18.613129
72.165 18.315056
72.170 17.77776
72.175 17.624216
72.180 17.747717
72.185 18.356823
72.190 19.142965
72.195 20.240751
72.200 21.024733
72.205 21.36134
72.210 21.120874
72.215 20.239111
72.220 19.341345
72.225 18.090359
72.230 17.796267
72.235 17.775826
72.240 17.499187
72.245 17.972918
72.250 18.107567
72.255 18.355526
72.260 18.807762
72.265 18.940012
72.270 19.106539
72.275 19.200306
72.280 18.97953
72.285 18.830973
72.290 18.532608
72.295 18.331467
72.300 17.640915
72.305 17.691759
72.310 17.706846
72.315 17.960476
72.320 18.505011
72.325 18.667761
72.330 19.185892
72.335 20.118282
72.340 19.99489
72.345 20.460087
72.350 20.371252
72.355 20.848814
72.360 20.650589
72.365 20.294855
72.370 19.694496
72.375 19.644209
72.380 19.385464
72.385 19.394236
72.390 19.41906
72.395 19.151531
72.400 19.2859
72.405 19.626072
72.410 19.716719
72.415 19.213055
72.420 18.515997
72.425 17.820034
72.430 17.64336
72.435 16.932878
72.440 17.065838
72.445 17.230112
72.450 17.453194
72.455 17.13653
72.460 17.477217
72.465 17.760754
72.470 17.742493
72.475 17.586832
72.480 17.34602
72.485 17.419607
72.490 17.985329
72.495 18.274076
72.500 18.275871
72.505 18.271282
72.510 18.245934
72.515 18.77453
72.520 19.469145
72.525 18.258081
72.530 18.089725
72.535 18.297972
72.540 18.374691
72.545 18.796747
72.550 18.06986
72.555 17.812672
72.560 18.317476
72.565 18.729073
72.570 18.607325
72.575 18.172953
72.580 17.434864
72.585 17.958435
72.590 17.978491
72.595 18.147135
72.600 18.429863
72.605 18.735695
72.610 18.831615
72.615 19.189625
72.620 19.243147
72.625 19.581465
72.630 19.192326
72.635 18.975477
72.640 19.06431
72.645 19.001892
72.650 19.090748
72.655 19.484343
72.660 19.495228
72.665 19.189804
72.670 19.370081
72.675 19.417072
72.680 19.517513
72.685 19.095236
72.690 18.203403
72.695 18.160984
72.700 18.378645
72.705 17.992731
72.710 17.386845
72.715 17.013895
72.720 17.133986
72.725 17.505199
72.730 18.153046
72.735 18.716492
72.740 18.232121
72.745 18.245617
72.750 17.929773
72.755 18.221647
72.760 18.181608
72.765 17.210659
72.770 16.727526
72.775 16.646254
72.780 17.113127
72.785 17.073992
72.790 16.971287
72.795 17.192299
72.800 17.188124
72.805 17.69825
72.810 18.097393
72.815 17.791553
72.820 17.985592
72.825 17.781326
72.830 16.988867
72.835 17.10343
72.840 16.942118
72.845 17.267609
72.850 17.66925
72.855 17.136156
72.860 16.490496
72.865 16.976748
72.870 17.021994
72.875 16.975832
72.880 17.073547
72.885 17.048435
72.890 17.651836
72.895 18.147795
72.900 18.606857
72.905 18.953716
72.910 19.153059
72.915 18.728189
72.920 18.823742
72.925 18.453024
72.930 17.957315
72.935 17.102983
72.940 16.324839
72.945 16.496227
72.950 17.014097
72.955 17.377037
72.960 17.852283
72.965 17.754801
72.970 18.088837
72.975 18.278965
72.980 17.999268
72.985 17.989576
72.990 17.664532
72.995 17.753168
73.000 18.12644
