!@!!GADDS PLOTSO FILE: Chi integration type
!@!!Title/SampleName: map-7f
!@!!Comment: ?
!@!!User: Bruker Instrument Administrator
!@!!Site: University of Illinois Chicago
!@!!Frame: map-7f_01_000.gfrm
!@!!Wavelengths    1.54184   1.54056   1.54439
!@!!Frame angles: 2Theta: 63.000 Omega: 50.000 Phi: 0.000 Chi: 90.000
!@!!Integration range: 2Theta: 53.000 to 73.000  Gamma: -105.000 to -75.000
!@!!Integration method: bin normalized
!@!N
!@!SS
!@!M
!@!L 0.0 0.0 0.0 0.0
!@!XDegrees
!@!YCounts
53.000 10.822856
53.005 10.327694
53.010 10.303287
53.015 10.114473
53.020 9.706931
53.025 9.526608
53.030 8.884377
53.035 9.285923
53.040 9.789002
53.045 9.503104
53.050 9.431187
53.055 9.805388
53.060 10.444369
53.065 10.620514
53.070 10.270757
53.075 10.272614
53.080 10.402264
53.085 10.701402
53.090 10.365497
53.095 10.124487
53.100 9.972335
53.105 10.081245
53.110 10.334662
53.115 10.480277
53.120 10.657512
53.125 10.745526
53.130 10.474383
53.135 10.6653
53.140 10.92083
53.145 11.188876
53.150 10.759207
53.155 10.724353
53.160 10.663775
53.165 10.901692
53.170 11.153359
53.175 10.674208
53.180 10.40967
53.185 10.122718
53.190 9.787476
53.195 10.026925
53.200 10.375076
53.205 10.264048
53.210 10.513948
53.215 10.693676
53.220 11.148933
53.225 11.15848
53.230 10.947392
53.235 10.677849
53.240 10.204868
53.245 10.247967
53.250 10.138974
53.255 9.799171
53.260 9.738004
53.265 9.857704
53.270 10.03698
53.275 10.238143
53.280 9.82908
53.285 9.661306
53.290 10.32183
53.295 10.515072
53.300 10.609324
53.305 10.731738
53.310 10.672906
53.315 10.830851
53.320 10.899988
53.325 10.719471
53.330 10.345456
53.335 10.635151
53.340 10.775402
53.345 11.175989
53.350 11.421765
53.355 11.352745
53.360 11.57756
53.365 11.58081
53.370 11.445364
53.375 10.968743
53.380 10.815353
53.385 10.43751
53.390 10.54944
53.395 10.442796
53.400 10.182347
53.405 9.831362
53.410 9.756219
53.415 9.697723
53.420 9.890849
53.425 10.008962
53.430 9.861095
53.435 10.173334
53.440 10.631478
53.445 10.932626
53.450 10.72314
53.455 10.356043
53.460 10.591277
53.465 10.846896
53.470 10.875201
53.475 10.488155
53.480 10.491533
53.485 11.052645
53.490 11.076769
53.495 10.897028
53.500 10.874849
53.505 10.967586
53.510 11.177663
53.515 11.261316
53.520 11.202349
53.525 11.473302
53.530 11.913813
53.535 12.116591
53.540 12.287496
53.545 12.045197
53.550 11.732653
53.555 11.390262
53.560 11.138382
53.565 10.987292
53.570 10.95512
53.575 10.634861
53.580 10.799385
53.585 11.536611
53.590 11.724484
53.595 11.785204
53.600 11.953421
53.605 12.001724
53.610 12.358563
53.615 12.620044
53.620 12.363489
53.625 12.764347
53.630 12.339023
53.635 11.722249
53.640 11.471304
53.645 11.261906
53.650 11.039372
53.655 10.606447
53.660 10.026769
53.665 10.076528
53.670 10.385008
53.675 10.521242
53.680 10.176915
53.685 10.387861
53.690 10.978718
53.695 11.076092
53.700 10.661805
53.705 10.560909
53.710 10.450283
53.715 10.319689
53.720 10.366992
53.725 10.083405
53.730 10.303544
53.735 10.312607
53.740 10.35498
53.745 10.467356
53.750 10.418063
53.755 10.05807
53.760 10.359509
53.765 10.66916
53.770 10.874388
53.775 11.368871
53.780 11.680807
53.785 11.872984
53.790 12.125611
53.795 12.056042
53.800 12.093552
53.805 11.941389
53.810 11.618419
53.815 11.593718
53.820 11.855109
53.825 11.924564
53.830 11.350947
53.835 11.346268
53.840 10.914224
53.845 10.752396
53.850 10.425392
53.855 10.432689
53.860 10.188302
53.865 10.36959
53.870 10.605226
53.875 11.053578
53.880 11.449937
53.885 11.688905
53.890 11.540939
53.895 12.036171
53.900 12.132848
53.905 11.974986
53.910 11.784173
53.915 11.663021
53.920 11.802392
53.925 11.901284
53.930 11.41504
53.935 11.694902
53.940 11.740078
53.945 11.76898
53.950 11.729679
53.955 11.467401
53.960 11.89185
53.965 12.118687
53.970 11.796519
53.975 11.810517
53.980 11.59333
53.985 11.347587
53.990 11.155587
53.995 10.913344
54.000 10.904997
54.005 10.786736
54.010 10.566839
54.015 10.768098
54.020 11.135695
54.025 10.949796
54.030 10.777715
54.035 10.732941
54.040 11.195543
54.045 11.129069
54.050 10.886074
54.055 10.418016
54.060 10.900924
54.065 11.27232
54.070 11.205957
54.075 11.176775
54.080 11.594772
54.085 12.38274
54.090 12.752697
54.095 12.610126
54.100 11.950314
54.105 11.982611
54.110 11.738958
54.115 11.792595
54.120 11.443136
54.125 11.693679
54.130 12.04768
54.135 12.592302
54.140 12.734067
54.145 13.543681
54.150 13.339795
54.155 12.87716
54.160 12.216026
54.165 12.395941
54.170 13.158522
54.175 12.725055
54.180 11.891603
54.185 11.43016
54.190 11.480639
54.195 11.524251
54.200 11.123896
54.205 10.314145
54.210 10.535695
54.215 10.631126
54.220 10.976615
54.225 10.896436
54.230 11.127405
54.235 11.030717
54.240 11.252352
54.245 11.120338
54.250 11.612958
54.255 12.002774
54.260 12.265483
54.265 12.226118
54.270 12.275639
54.275 12.624388
54.280 12.873425
54.285 12.677061
54.290 13.27298
54.295 13.372379
54.300 13.511307
54.305 13.197984
54.310 12.941865
54.315 12.58878
54.320 12.494843
54.325 12.500971
54.330 12.781938
54.335 12.299178
54.340 12.723398
54.345 13.061319
54.350 13.284725
54.355 13.325919
54.360 12.601472
54.365 12.315391
54.370 12.282109
54.375 12.317182
54.380 12.335919
54.385 12.297907
54.390 12.09042
54.395 12.442407
54.400 12.464663
54.405 12.51879
54.410 12.458956
54.415 12.493072
54.420 12.462725
54.425 12.694137
54.430 12.889394
54.435 13.12507
54.440 13.878299
54.445 14.188459
54.450 13.975932
54.455 13.707331
54.460 13.263091
54.465 13.298422
54.470 12.954388
54.475 12.12839
54.480 11.707477
54.485 11.832476
54.490 11.876695
54.495 12.016005
54.500 11.850423
54.505 12.050426
54.510 12.152656
54.515 12.168862
54.520 12.056085
54.525 11.935678
54.530 11.953678
54.535 11.685709
54.540 11.644212
54.545 12.09393
54.550 12.515293
54.555 12.470483
54.560 12.707452
54.565 12.826351
54.570 13.073921
54.575 12.916426
54.580 12.689128
54.585 13.086952
54.590 13.010842
54.595 12.374027
54.600 11.951436
54.605 11.964123
54.610 12.129208
54.615 11.890242
54.620 11.380422
54.625 11.691926
54.630 12.368797
54.635 12.386715
54.640 12.323996
54.645 12.173446
54.650 12.226873
54.655 12.436863
54.660 11.825336
54.665 11.724563
54.670 12.039457
54.675 12.036979
54.680 11.925507
54.685 11.378005
54.690 11.256556
54.695 11.461809
54.700 11.137611
54.705 11.077016
54.710 11.059252
54.715 11.575623
54.720 11.680637
54.725 12.010705
54.730 11.761996
54.735 11.81432
54.740 12.027515
54.745 12.026519
54.750 11.927524
54.755 11.830903
54.760 11.642743
54.765 11.80244
54.770 12.058442
54.775 11.986047
54.780 11.746028
54.785 12.04764
54.790 12.758014
54.795 13.165021
54.800 13.204918
54.805 12.789957
54.810 12.888165
54.815 12.549995
54.820 12.126012
54.825 12.270147
54.830 12.100276
54.835 12.109333
54.840 11.993185
54.845 11.761314
54.850 12.234297
54.855 12.308202
54.860 12.087814
54.865 12.531225
54.870 13.180534
54.875 13.429549
54.880 13.414773
54.885 12.822383
54.890 12.067097
54.895 12.220968
54.900 11.574599
54.905 11.193996
54.910 11.265089
54.915 11.049654
54.920 11.503283
54.925 11.744123
54.930 11.706861
54.935 12.057316
54.940 12.079482
54.945 12.150936
54.950 13.244148
54.955 13.277242
54.960 13.183055
54.965 13.287611
54.970 13.29302
54.975 13.422632
54.980 13.125845
54.985 12.597079
54.990 12.902481
54.995 13.098873
55.000 12.738204
55.005 12.241013
55.010 12.0004
55.015 11.878115
55.020 11.908424
55.025 11.550857
55.030 11.013796
55.035 11.185269
55.040 11.607132
55.045 12.03427
55.050 12.776056
55.055 13.15748
55.060 13.357801
55.065 13.566077
55.070 13.34256
55.075 13.254047
55.080 13.11235
55.085 12.030167
55.090 11.694864
55.095 11.647264
55.100 11.482295
55.105 11.967238
55.110 12.090733
55.115 11.685255
55.120 11.946412
55.125 12.598966
55.130 12.772431
55.135 13.284279
55.140 13.566786
55.145 13.914517
55.150 14.160191
55.155 14.001663
55.160 13.571966
55.165 13.179373
55.170 12.548187
55.175 12.005499
55.180 11.729618
55.185 11.881948
55.190 11.9564
55.195 12.279041
55.200 12.966907
55.205 13.332186
55.210 13.598389
55.215 13.632449
55.220 14.11736
55.225 13.996803
55.230 13.90503
55.235 13.930891
55.240 13.640167
55.245 13.957005
55.250 14.191682
55.255 13.99387
55.260 14.626948
55.265 14.647589
55.270 14.382678
55.275 14.383756
55.280 13.898388
55.285 13.848202
55.290 13.663344
55.295 13.148698
55.300 12.69396
55.305 12.753147
55.310 12.941556
55.315 12.999222
55.320 13.030034
55.325 12.780537
55.330 12.24593
55.335 12.424591
55.340 12.293953
55.345 11.797694
55.350 11.813185
55.355 11.529582
55.360 12.173888
55.365 12.269814
55.370 11.886599
55.375 11.315806
55.380 11.451492
55.385 11.421741
55.390 11.30799
55.395 11.148739
55.400 11.509328
55.405 11.943826
55.410 12.43293
55.415 12.361638
55.420 12.878722
55.425 12.852749
55.430 12.576883
55.435 12.413056
55.440 12.587498
55.445 12.8051
55.450 12.618534
55.455 12.699165
55.460 12.998556
55.465 13.051428
55.470 13.08282
55.475 13.705076
55.480 13.895621
55.485 14.226287
55.490 14.192245
55.495 14.431263
55.500 14.948205
55.505 14.864004
55.510 13.958143
55.515 13.654057
55.520 13.596277
55.525 13.825094
55.530 13.107833
55.535 12.798593
55.540 12.435179
55.545 12.66131
55.550 12.640526
55.555 12.625598
55.560 12.473763
55.565 12.920031
55.570 13.226357
55.575 13.932218
55.580 14.085682
55.585 13.650681
55.590 12.934501
55.595 13.178935
55.600 13.746576
55.605 13.645157
55.610 13.328608
55.615 12.994178
55.620 13.113738
55.625 13.33002
55.630 13.2567
55.635 12.632077
55.640 12.762462
55.645 12.63873
55.650 13.12325
55.655 13.978354
55.660 13.992722
55.665 13.290498
55.670 13.359463
55.675 13.124454
55.680 13.309772
55.685 12.726826
55.690 12.774745
55.695 13.301466
55.700 13.817637
55.705 13.886259
55.710 13.886569
55.715 13.828891
55.720 13.918854
55.725 13.663646
55.730 13.495316
55.735 13.095645
55.740 12.780466
55.745 13.120872
55.750 13.369697
55.755 13.619143
55.760 13.364393
55.765 13.3602
55.770 13.713996
55.775 14.104387
55.780 14.005013
55.785 13.927278
55.790 13.236048
55.795 13.159316
55.800 12.806739
55.805 12.891066
55.810 12.896154
55.815 12.836479
55.820 12.586263
55.825 12.931047
55.830 12.87301
55.835 12.930184
55.840 13.092154
55.845 13.535841
55.850 13.814368
55.855 14.220153
55.860 14.188367
55.865 14.35749
55.870 14.073037
55.875 13.758318
55.880 13.620313
55.885 13.916044
55.890 13.901733
55.895 13.715465
55.900 13.578842
55.905 14.081268
55.910 13.946969
55.915 13.47191
55.920 13.714695
55.925 13.887525
55.930 14.073205
55.935 14.620408
55.940 14.294045
55.945 14.915201
55.950 14.954559
55.955 14.457579
55.960 14.517525
55.965 14.682252
55.970 14.291852
55.975 14.391996
55.980 13.789759
55.985 13.342435
55.990 12.988409
55.995 13.352049
56.000 13.617371
56.005 13.783502
56.010 13.850272
56.015 13.652568
56.020 14.009539
56.025 13.867374
56.030 13.094492
56.035 12.738583
56.040 12.577914
56.045 12.849992
56.050 13.592084
56.055 13.471503
56.060 13.676387
56.065 13.501305
56.070 13.269962
56.075 13.295796
56.080 13.198644
56.085 13.171608
56.090 13.682245
56.095 13.826552
56.100 14.03572
56.105 14.108281
56.110 13.787863
56.115 13.511461
56.120 13.112338
56.125 13.193504
56.130 13.361507
56.135 13.595414
56.140 14.089977
56.145 14.610986
56.150 14.254576
56.155 13.800698
56.160 13.536881
56.165 13.207376
56.170 13.263704
56.175 12.866444
56.180 12.706754
56.185 12.642485
56.190 12.555308
56.195 12.444521
56.200 12.410358
56.205 12.351094
56.210 12.393792
56.215 12.308117
56.220 12.685626
56.225 12.984738
56.230 13.423885
56.235 13.609512
56.240 13.374633
56.245 14.273981
56.250 14.5669
56.255 14.58821
56.260 14.903696
56.265 14.707191
56.270 14.909694
56.275 14.851958
56.280 14.066377
56.285 14.052854
56.290 14.38172
56.295 14.234231
56.300 14.520826
56.305 14.646199
56.310 14.232469
56.315 14.054614
56.320 13.923012
56.325 14.064922
56.330 14.069372
56.335 13.750863
56.340 14.373488
56.345 14.66083
56.350 14.363885
56.355 14.287481
56.360 13.836436
56.365 14.23658
56.370 13.986341
56.375 13.306043
56.380 13.515297
56.385 13.917835
56.390 13.742293
56.395 13.669757
56.400 14.037659
56.405 14.410407
56.410 14.395312
56.415 14.240941
56.420 14.802958
56.425 15.235953
56.430 15.250497
56.435 14.207747
56.440 13.749227
56.445 13.934783
56.450 13.674845
56.455 13.37791
56.460 13.431702
56.465 13.512914
56.470 13.599927
56.475 13.794105
56.480 13.736746
56.485 13.852684
56.490 13.885482
56.495 13.774322
56.500 13.377896
56.505 13.300462
56.510 13.212308
56.515 12.960921
56.520 13.478257
56.525 13.476468
56.530 14.125152
56.535 14.721428
56.540 14.854511
56.545 14.840886
56.550 15.034922
56.555 14.957548
56.560 14.852394
56.565 14.139776
56.570 14.192211
56.575 14.298949
56.580 14.225865
56.585 14.583426
56.590 14.592081
56.595 14.881001
56.600 14.694868
56.605 14.376849
56.610 14.47281
56.615 14.288585
56.620 13.732532
56.625 13.272893
56.630 13.219851
56.635 13.55947
56.640 13.685871
56.645 13.546599
56.650 13.385777
56.655 13.473789
56.660 14.027044
56.665 14.116836
56.670 14.232431
56.675 14.4235
56.680 14.360896
56.685 14.79842
56.690 15.016032
56.695 14.644949
56.700 14.642837
56.705 14.699103
56.710 14.4016
56.715 14.918071
56.720 15.128954
56.725 15.547228
56.730 15.490471
56.735 14.685659
56.740 14.718007
56.745 14.968341
56.750 14.660592
56.755 13.835696
56.760 13.022697
56.765 13.274788
56.770 13.646019
56.775 13.348326
56.780 13.263714
56.785 13.307516
56.790 13.750972
56.795 13.95806
56.800 14.152443
56.805 14.746531
56.810 14.613124
56.815 14.460024
56.820 14.371099
56.825 13.968705
56.830 13.975148
56.835 13.700776
56.840 13.739661
56.845 14.402203
56.850 14.339405
56.855 14.457952
56.860 14.436114
56.865 14.338791
56.870 14.230123
56.875 14.016687
56.880 14.318861
56.885 14.777753
56.890 14.635405
56.895 14.789403
56.900 14.444457
56.905 13.938378
56.910 13.67096
56.915 13.282962
56.920 13.156187
56.925 13.686617
56.930 13.938609
56.935 14.023654
56.940 14.798694
56.945 15.162628
56.950 15.171621
56.955 15.269017
56.960 15.172671
56.965 15.096718
56.970 15.358679
56.975 15.151372
56.980 14.701678
56.985 14.415744
56.990 14.553407
56.995 14.436884
57.000 14.555161
57.005 14.415297
57.010 14.81901
57.015 15.769356
57.020 15.785566
57.025 15.573627
57.030 15.60289
57.035 15.420091
57.040 15.373748
57.045 14.642922
57.050 13.846059
57.055 13.987756
57.060 14.133531
57.065 14.011547
57.070 13.534082
57.075 13.661839
57.080 13.962923
57.085 14.133413
57.090 14.384094
57.095 14.1783
57.100 14.426552
57.105 14.881927
57.110 14.634089
57.115 14.543179
57.120 14.790339
57.125 14.259793
57.130 14.201225
57.135 14.496373
57.140 14.785769
57.145 15.008293
57.150 14.793291
57.155 14.464625
57.160 14.987969
57.165 15.043671
57.170 14.777585
57.175 15.376223
57.180 15.337432
57.185 15.414006
57.190 15.429554
57.195 15.216498
57.200 15.188301
57.205 15.061787
57.210 14.563757
57.215 14.533571
57.220 15.01747
57.225 15.023705
57.230 14.455695
57.235 14.302279
57.240 14.113241
57.245 13.724736
57.250 13.301875
57.255 12.955448
57.260 13.11237
57.265 13.457609
57.270 13.662365
57.275 13.169884
57.280 13.477173
57.285 14.498803
57.290 15.005974
57.295 14.973837
57.300 15.312559
57.305 15.570518
57.310 16.492594
57.315 16.931425
57.320 16.5082
57.325 16.757685
57.330 17.046938
57.335 16.651808
57.340 16.203217
57.345 15.457545
57.350 15.017984
57.355 15.197708
57.360 14.712745
57.365 14.576123
57.370 14.660882
57.375 15.372531
57.380 15.959215
57.385 15.9997
57.390 16.241661
57.395 16.448067
57.400 16.392977
57.405 16.883226
57.410 16.311035
57.415 15.676147
57.420 14.859423
57.425 14.128695
57.430 13.880751
57.435 13.948547
57.440 13.996708
57.445 14.196385
57.450 14.452238
57.455 14.63059
57.460 14.642719
57.465 15.11308
57.470 15.186794
57.475 14.938989
57.480 14.917988
57.485 15.082153
57.490 15.071952
57.495 15.508578
57.500 14.967289
57.505 14.695235
57.510 15.015396
57.515 14.781083
57.520 14.410437
57.525 14.444227
57.530 14.195414
57.535 14.024175
57.540 13.723235
57.545 13.762133
57.550 14.214195
57.555 15.178638
57.560 15.722301
57.565 15.878528
57.570 16.353636
57.575 16.546881
57.580 16.130074
57.585 16.434732
57.590 16.141943
57.595 15.501443
57.600 15.308025
57.605 15.55993
57.610 15.646524
57.615 15.175915
57.620 14.676435
57.625 15.025822
57.630 15.447271
57.635 15.679708
57.640 15.755827
57.645 15.490575
57.650 15.845502
57.655 15.945122
57.660 15.206347
57.665 14.753745
57.670 14.474867
57.675 13.892687
57.680 14.319142
57.685 14.336865
57.690 14.487082
57.695 15.255672
57.700 15.739841
57.705 16.104858
57.710 16.614483
57.715 16.651264
57.720 17.282597
57.725 17.453691
57.730 16.974556
57.735 16.412764
57.740 16.172501
57.745 15.971883
57.750 16.367493
57.755 16.093491
57.760 16.498587
57.765 16.91017
57.770 17.082987
57.775 17.031094
57.780 17.151175
57.785 16.311327
57.790 16.090298
57.795 15.301096
57.800 15.323341
57.805 15.800944
57.810 15.882471
57.815 15.542433
57.820 15.241805
57.825 15.229042
57.830 15.46666
57.835 15.294812
57.840 15.357618
57.845 15.520995
57.850 15.707706
57.855 16.003016
57.860 16.139463
57.865 16.303926
57.870 16.268599
57.875 16.522648
57.880 16.551424
57.885 16.671556
57.890 16.944494
57.895 17.153826
57.900 16.57078
57.905 16.333082
57.910 15.623914
57.915 15.25648
57.920 15.527958
57.925 15.356506
57.930 15.092507
57.935 15.106377
57.940 15.081322
57.945 15.277729
57.950 15.453389
57.955 15.01571
57.960 14.582976
57.965 14.495038
57.970 14.576211
57.975 14.653053
57.980 14.454676
57.985 14.571121
57.990 14.721498
57.995 14.64051
58.000 14.476236
58.005 14.558672
58.010 14.193152
58.015 13.79429
58.020 13.5439
58.025 13.942208
58.030 14.378991
58.035 14.665643
58.040 14.79793
58.045 14.756311
58.050 14.620245
58.055 14.653388
58.060 14.351725
58.065 14.203212
58.070 14.376486
58.075 14.260561
58.080 14.274862
58.085 14.799981
58.090 15.07485
58.095 15.242358
58.100 15.535243
58.105 15.233802
58.110 15.750938
58.115 16.616251
58.120 16.444283
58.125 16.504316
58.130 16.353935
58.135 16.441193
58.140 16.976923
58.145 17.250559
58.150 17.289257
58.155 17.397314
58.160 16.743656
58.165 16.189184
58.170 16.115522
58.175 15.701975
58.180 15.461539
58.185 15.117555
58.190 15.239637
58.195 15.467772
58.200 15.699047
58.205 15.353392
58.210 15.084123
58.215 14.955885
58.220 15.131268
58.225 15.07285
58.230 15.078223
58.235 15.287877
58.240 15.479702
58.245 15.859089
58.250 15.52271
58.255 15.476428
58.260 15.519501
58.265 15.420952
58.270 15.29629
58.275 14.766368
58.280 14.805543
58.285 15.016728
58.290 14.353785
58.295 13.972389
58.300 13.883568
58.305 14.296416
58.310 14.741776
58.315 14.415954
58.320 14.110684
58.325 14.372802
58.330 14.715979
58.335 15.099573
58.340 15.112131
58.345 14.852328
58.350 15.465271
58.355 16.307341
58.360 17.128414
58.365 17.050262
58.370 17.178795
58.375 16.735092
58.380 16.90596
58.385 16.636755
58.390 16.146185
58.395 16.200045
58.400 16.418444
58.405 16.622822
58.410 17.226969
58.415 17.182627
58.420 17.555376
58.425 17.799026
58.430 17.430695
58.435 17.053318
58.440 16.928932
58.445 16.446762
58.450 16.242645
58.455 16.203085
58.460 16.409286
58.465 16.145336
58.470 16.232594
58.475 15.990155
58.480 16.110342
58.485 16.753019
58.490 16.7516
58.495 17.084066
58.500 16.959154
58.505 17.020849
58.510 17.144688
58.515 17.637814
58.520 17.015676
58.525 16.441666
58.530 16.045326
58.535 16.095798
58.540 15.681663
58.545 15.424161
58.550 15.412789
58.555 15.290545
58.560 15.373565
58.565 15.30128
58.570 16.27738
58.575 16.823257
58.580 17.177372
58.585 16.636587
58.590 17.090513
58.595 16.953415
58.600 16.82778
58.605 16.129484
58.610 15.986852
58.615 15.980647
58.620 16.066473
58.625 16.598444
58.630 16.783205
58.635 16.558184
58.640 16.79723
58.645 16.920069
58.650 16.945881
58.655 16.499632
58.660 16.258553
58.665 16.70756
58.670 17.477613
58.675 17.314871
58.680 17.340727
58.685 17.791689
58.690 17.734011
58.695 17.578831
58.700 17.65596
58.705 17.157827
58.710 17.423079
58.715 17.652119
58.720 17.615879
58.725 18.219788
58.730 18.067604
58.735 17.568472
58.740 17.560745
58.745 18.034452
58.750 17.933065
58.755 17.286819
58.760 16.439117
58.765 15.890638
58.770 16.021624
58.775 15.559882
58.780 14.763877
58.785 15.016994
58.790 15.292703
58.795 15.372282
58.800 15.86384
58.805 15.999279
58.810 16.828423
58.815 16.987276
58.820 17.044859
58.825 17.84197
58.830 18.117226
58.835 17.484545
58.840 17.015263
58.845 16.45973
58.850 16.721542
58.855 16.235277
58.860 15.637938
58.865 15.903682
58.870 16.399752
58.875 16.681854
58.880 16.511507
58.885 16.32921
58.890 16.254507
58.895 15.883294
58.900 15.436201
58.905 15.050961
58.910 15.418237
58.915 15.351395
58.920 14.822411
58.925 14.953048
58.930 15.545707
58.935 15.851315
58.940 15.768389
58.945 15.443341
58.950 15.837961
58.955 15.96854
58.960 15.681049
58.965 15.311912
58.970 15.84882
58.975 16.165272
58.980 15.955761
58.985 15.21114
58.990 15.176547
58.995 16.29929
59.000 16.897406
59.005 16.945269
59.010 17.080708
59.015 17.575853
59.020 18.232365
59.025 18.274321
59.030 17.826149
59.035 17.469856
59.040 17.841377
59.045 18.222973
59.050 18.1919
59.055 18.090254
59.060 18.566231
59.065 18.461161
59.070 18.589685
59.075 17.438515
59.080 16.828184
59.085 16.862749
59.090 16.759592
59.095 16.954407
59.100 17.028131
59.105 16.915745
59.110 17.531412
59.115 18.152527
59.120 18.029018
59.125 17.880793
59.130 17.483425
59.135 17.403681
59.140 17.923611
59.145 18.212687
59.150 17.945314
59.155 18.370491
59.160 18.876055
59.165 19.120491
59.170 18.938169
59.175 18.039637
59.180 17.452187
59.185 17.332125
59.190 17.334747
59.195 17.370794
59.200 17.333113
59.205 17.434824
59.210 18.174168
59.215 18.417725
59.220 18.60393
59.225 18.610443
59.230 18.763
59.235 18.303694
59.240 17.937817
59.245 17.568214
59.250 17.395063
59.255 17.084871
59.260 16.925373
59.265 16.504377
59.270 16.86994
59.275 16.956841
59.280 16.709232
59.285 16.646955
59.290 16.808716
59.295 16.647499
59.300 16.71603
59.305 16.606333
59.310 16.766813
59.315 17.140434
59.320 17.551588
59.325 18.038134
59.330 18.499607
59.335 18.488173
59.340 18.07925
59.345 17.911798
59.350 18.104876
59.355 18.15214
59.360 17.786619
59.365 17.441572
59.370 17.779358
59.375 18.415518
59.380 18.615488
59.385 18.388803
59.390 18.154303
59.395 18.179539
59.400 18.20281
59.405 18.320072
59.410 18.344481
59.415 18.29509
59.420 18.196014
59.425 17.970837
59.430 17.998772
59.435 17.992117
59.440 18.4224
59.445 18.647346
59.450 18.36573
59.455 18.299921
59.460 18.843496
59.465 19.017179
59.470 18.301004
59.475 18.08379
59.480 18.0888
59.485 18.478981
59.490 18.027615
59.495 17.299162
59.500 16.681211
59.505 16.763506
59.510 16.349129
59.515 16.285202
59.520 16.279823
59.525 16.467859
59.530 16.617506
59.535 16.247461
59.540 16.464472
59.545 16.577454
59.550 16.536348
59.555 16.653078
59.560 16.60376
59.565 16.836691
59.570 17.561029
59.575 17.430573
59.580 17.386002
59.585 17.015215
59.590 16.959465
59.595 17.164148
59.600 17.363083
59.605 17.583622
59.610 18.114712
59.615 18.581188
59.620 18.623598
59.625 19.079327
59.630 19.147827
59.635 19.071629
59.640 19.911682
59.645 19.820023
59.650 19.008787
59.655 19.097443
59.660 19.106501
59.665 19.066065
59.670 18.989653
59.675 17.861635
59.680 17.892105
59.685 18.559849
59.690 18.618273
59.695 18.849861
59.700 19.559723
59.705 19.748892
59.710 19.713556
59.715 20.103477
59.720 20.402769
59.725 20.198675
59.730 19.983732
59.735 19.624739
59.740 19.409729
59.745 20.253052
59.750 20.464596
59.755 20.803669
59.760 20.64711
59.765 20.528189
59.770 20.727423
59.775 20.711195
59.780 20.082954
59.785 20.073334
59.790 19.342257
59.795 19.96158
59.800 19.951786
59.805 19.540785
59.810 19.503441
59.815 19.374285
59.820 18.492937
59.825 19.125551
59.830 19.226101
59.835 19.733242
59.840 20.084982
59.845 20.294773
59.850 20.362959
59.855 20.531824
59.860 19.973553
59.865 20.027475
59.870 20.121357
59.875 20.577608
59.880 20.786503
59.885 20.944027
59.890 21.196877
59.895 21.217209
59.900 21.089609
59.905 20.82729
59.910 20.351225
59.915 20.453321
59.920 20.426512
59.925 20.535963
59.930 21.088379
59.935 21.643145
59.940 22.094397
59.945 22.794598
59.950 22.949707
59.955 22.835558
59.960 23.007202
59.965 22.355381
59.970 21.937843
59.975 22.090984
59.980 21.789507
59.985 21.517935
59.990 21.587181
59.995 20.77965
60.000 20.961735
60.005 20.999985
60.010 20.731003
60.015 21.138569
60.020 21.629021
60.025 21.603651
60.030 21.986164
60.035 21.90234
60.040 22.302902
60.045 23.223711
60.050 23.148808
60.055 23.143307
60.060 23.515518
60.065 24.167753
60.070 24.041521
60.075 23.957466
60.080 23.679926
60.085 23.113604
60.090 23.286182
60.095 23.138868
60.100 22.444733
60.105 22.30209
60.110 21.71669
60.115 21.684671
60.120 22.525274
60.125 22.202738
60.130 22.406321
60.135 23.231163
60.140 23.828875
60.145 24.171555
60.150 24.109837
60.155 23.576731
60.160 23.753611
60.165 23.191923
60.170 22.764927
60.175 22.183189
60.180 21.732136
60.185 21.702906
60.190 22.134912
60.195 21.855883
60.200 21.96195
60.205 22.156315
60.210 22.633783
60.215 23.415169
60.220 23.544451
60.225 23.371937
60.230 23.389112
60.235 23.339125
60.240 23.524105
60.245 22.996859
60.250 22.360878
60.255 22.016617
60.260 21.920324
60.265 21.754818
60.270 21.522217
60.275 21.180109
60.280 21.431955
60.285 21.094463
60.290 21.228148
60.295 21.151129
60.300 21.305069
60.305 21.382023
60.310 21.306486
60.315 21.575048
60.320 22.14443
60.325 22.101088
60.330 22.520821
60.335 22.983953
60.340 23.472616
60.345 23.832151
60.350 23.82073
60.355 23.739214
60.360 23.539255
60.365 23.72613
60.370 24.16815
60.375 24.282877
60.380 24.545433
60.385 24.648874
60.390 24.919701
60.395 25.563414
60.400 25.213678
60.405 24.545792
60.410 24.053408
60.415 23.5448
60.420 23.217678
60.425 23.053383
60.430 22.362799
60.435 22.23921
60.440 22.806452
60.445 23.137886
60.450 22.836613
60.455 22.470154
60.460 22.323906
60.465 23.151907
60.470 23.399702
60.475 23.066099
60.480 22.833794
60.485 22.992195
60.490 23.566046
60.495 23.93928
60.500 23.414499
60.505 23.455767
60.510 23.432547
60.515 23.342052
60.520 23.572474
60.525 23.658194
60.530 23.102589
60.535 22.507847
60.540 22.062784
60.545 21.885263
60.550 21.978485
60.555 21.455458
60.560 21.107685
60.565 21.712177
60.570 22.06435
60.575 21.606688
60.580 21.397614
60.585 21.174509
60.590 21.100147
60.595 20.911314
60.600 20.278913
60.605 20.139711
60.610 20.766777
60.615 21.214212
60.620 21.46361
60.625 21.952198
60.630 22.133158
60.635 21.762152
60.640 21.614922
60.645 21.723185
60.650 21.399914
60.655 21.362413
60.660 21.439308
60.665 21.755697
60.670 22.08029
60.675 22.063129
60.680 21.93725
60.685 22.114126
60.690 21.760344
60.695 21.244814
60.700 21.000927
60.705 21.275549
60.710 21.048174
60.715 21.050741
60.720 21.092381
60.725 20.800983
60.730 20.921484
60.735 20.974356
60.740 21.040854
60.745 21.360933
60.750 21.140566
60.755 20.469757
60.760 20.518744
60.765 20.721846
60.770 20.874245
60.775 20.799595
60.780 19.994492
60.785 19.138077
60.790 19.203516
60.795 19.32239
60.800 18.891827
60.805 18.502966
60.810 18.516083
60.815 19.409748
60.820 19.578375
60.825 19.679346
60.830 19.457436
60.835 19.368858
60.840 19.118746
60.845 18.598984
60.850 18.246391
60.855 19.656322
60.860 20.184057
60.865 20.434643
60.870 20.123718
60.875 20.492659
60.880 20.715307
60.885 20.491627
60.890 19.437702
60.895 19.605778
60.900 19.574072
60.905 20.039101
60.910 20.15958
60.915 20.20331
60.920 20.411037
60.925 20.352728
60.930 19.71545
60.935 19.360939
60.940 19.554407
60.945 19.486248
60.950 19.449146
60.955 19.931097
60.960 20.336042
60.965 21.250614
60.970 21.650551
60.975 21.569881
60.980 21.45915
60.985 21.160357
60.990 20.583244
60.995 19.843115
61.000 19.190798
61.005 18.690199
61.010 18.205351
61.015 18.469379
61.020 18.497845
61.025 18.291149
61.030 18.71311
61.035 18.442455
61.040 18.529255
61.045 18.684816
61.050 18.413277
61.055 18.694534
61.060 19.154804
61.065 19.050892
61.070 19.080257
61.075 19.154295
61.080 19.427975
61.085 19.528566
61.090 19.121662
61.095 18.659174
61.100 18.810757
61.105 18.885439
61.110 18.767153
61.115 18.589424
61.120 18.450621
61.125 18.423222
61.130 18.149618
61.135 17.753513
61.140 18.109787
61.145 17.965345
61.150 17.912207
61.155 18.623783
61.160 18.919514
61.165 19.264755
61.170 19.54866
61.175 19.56525
61.180 20.289854
61.185 20.543161
61.190 20.148981
61.195 20.141335
61.200 20.404243
61.205 20.109735
61.210 20.061081
61.215 19.244043
61.220 19.249151
61.225 19.566891
61.230 19.430174
61.235 19.077061
61.240 19.187675
61.245 18.866995
61.250 18.286264
61.255 17.340191
61.260 16.989571
61.265 16.809992
61.270 16.440117
61.275 16.096041
61.280 16.027996
61.285 16.675711
61.290 17.590651
61.295 18.026543
61.300 18.991995
61.305 19.653469
61.310 20.223103
61.315 20.037867
61.320 19.966618
61.325 19.134539
61.330 18.368484
61.335 17.451015
61.340 17.308693
61.345 16.94153
61.350 16.629477
61.355 16.242128
61.360 16.157066
61.365 15.998009
61.370 16.116083
61.375 15.833495
61.380 16.039852
61.385 16.37813
61.390 16.520645
61.395 16.561405
61.400 17.289253
61.405 17.365917
61.410 17.144062
61.415 16.822248
61.420 17.215317
61.425 17.339441
61.430 17.251442
61.435 16.828228
61.440 16.71517
61.445 17.136871
61.450 17.458223
61.455 17.838757
61.460 18.423204
61.465 19.054291
61.470 19.714766
61.475 19.888605
61.480 20.02907
61.485 19.675079
61.490 19.184111
61.495 18.560369
61.500 18.216719
61.505 17.982349
61.510 18.110615
61.515 18.360613
61.520 18.257143
61.525 18.015427
61.530 18.394474
61.535 18.353745
61.540 18.164114
61.545 17.984732
61.550 18.00404
61.555 18.143835
61.560 18.043989
61.565 17.984026
61.570 18.387066
61.575 18.482718
61.580 19.052263
61.585 18.612192
61.590 18.69388
61.595 18.414324
61.600 17.843082
61.605 17.402264
61.610 17.23653
61.615 17.032175
61.620 16.696869
61.625 17.196253
61.630 18.115849
61.635 18.368198
61.640 18.468527
61.645 18.423042
61.650 17.778797
61.655 18.102289
61.660 17.626013
61.665 17.278385
61.670 17.025267
61.675 17.032457
61.680 17.124166
61.685 18.174553
61.690 18.571125
61.695 18.291773
61.700 17.894228
61.705 18.37352
61.710 18.292912
61.715 18.055294
61.720 17.616201
61.725 17.268305
61.730 17.625246
61.735 17.890015
61.740 17.715508
61.745 17.156475
61.750 17.161379
61.755 16.763929
61.760 16.9258
61.765 17.643375
61.770 17.842573
61.775 18.001179
61.780 18.496622
61.785 18.286928
61.790 18.412462
61.795 18.278894
61.800 18.254854
61.805 18.15134
61.810 18.113724
61.815 18.120247
61.820 18.181025
61.825 18.378292
61.830 19.039057
61.835 18.678806
61.840 19.018824
61.845 19.156656
61.850 18.893099
61.855 18.768211
61.860 18.694122
61.865 17.649273
61.870 17.472189
61.875 17.26088
61.880 17.31675
61.885 17.54224
61.890 17.371675
61.895 16.996479
61.900 17.099245
61.905 16.911919
61.910 16.932764
61.915 16.711676
61.920 16.968096
61.925 16.848061
61.930 16.747454
61.935 16.710699
61.940 16.704529
61.945 16.739418
61.950 16.754417
61.955 16.739565
61.960 16.97632
61.965 16.923361
61.970 17.899933
61.975 18.168144
61.980 17.698023
61.985 17.253632
61.990 16.724968
61.995 17.303345
62.000 17.460068
62.005 16.841244
62.010 17.000856
62.015 17.402691
62.020 17.614374
62.025 17.772429
62.030 17.228291
62.035 17.21212
62.040 17.068306
62.045 16.996243
62.050 17.542807
62.055 17.802567
62.060 17.67532
62.065 18.371414
62.070 18.47319
62.075 18.18557
62.080 17.575966
62.085 17.086851
62.090 17.432062
62.095 17.821436
62.100 16.718264
62.105 16.666071
62.110 17.163736
62.115 17.441965
62.120 17.725609
62.125 17.906765
62.130 18.755928
62.135 19.621161
62.140 19.316
62.145 18.939016
62.150 18.764734
62.155 18.85301
62.160 18.856617
62.165 18.251493
62.170 18.675701
62.175 18.977762
62.180 19.685457
62.185 19.973597
62.190 19.699427
62.195 19.462849
62.200 19.136381
62.205 18.389549
62.210 18.328228
62.215 17.314955
62.220 16.786621
62.225 16.248796
62.230 15.974692
62.235 16.014854
62.240 15.972707
62.245 16.110044
62.250 16.97064
62.255 17.503098
62.260 17.68758
62.265 17.557949
62.270 17.386656
62.275 17.539053
62.280 17.185966
62.285 16.28615
62.290 16.283834
62.295 16.754763
62.300 17.040518
62.305 16.950008
62.310 16.899654
62.315 17.216253
62.320 18.137514
62.325 18.386343
62.330 18.137886
62.335 17.636679
62.340 17.598013
62.345 17.878529
62.350 17.792061
62.355 17.462133
62.360 17.085623
62.365 17.018305
62.370 17.592506
62.375 18.193928
62.380 18.062122
62.385 18.363644
62.390 18.049433
62.395 17.999853
62.400 18.159159
62.405 18.478436
62.410 18.465199
62.415 18.561554
62.420 18.577929
62.425 18.894848
62.430 18.752188
62.435 18.190826
62.440 18.021284
62.445 17.806255
62.450 17.951923
62.455 17.615841
62.460 18.27663
62.465 18.985594
62.470 19.004957
62.475 19.041279
62.480 19.068687
62.485 18.738724
62.490 18.644497
62.495 17.689241
62.500 17.053797
62.505 17.130211
62.510 16.832726
62.515 16.669952
62.520 16.279486
62.525 16.078527
62.530 16.117199
62.535 16.37862
62.540 16.734684
62.545 16.789747
62.550 16.511684
62.555 16.867664
62.560 17.109179
62.565 17.269711
62.570 17.663099
62.575 17.304596
62.580 17.719173
62.585 18.58147
62.590 18.761909
62.595 19.134901
62.600 19.138809
62.605 18.824114
62.610 19.189987
62.615 19.364761
62.620 18.781168
62.625 18.705986
62.630 18.733601
62.635 18.558327
62.640 18.384375
62.645 18.004866
62.650 18.036547
62.655 18.405005
62.660 18.683956
62.665 19.137417
62.670 19.750751
62.675 20.163647
62.680 19.888128
62.685 19.632046
62.690 20.003599
62.695 19.440557
62.700 18.554598
62.705 18.164925
62.710 18.747242
62.715 19.31967
62.720 19.514614
62.725 19.413668
62.730 20.054432
62.735 20.3699
62.740 20.134094
62.745 19.480555
62.750 19.327335
62.755 19.557713
62.760 19.203926
62.765 19.140327
62.770 19.38743
62.775 19.486576
62.780 19.584576
62.785 19.424217
62.790 19.359915
62.795 19.495834
62.800 19.38538
62.805 19.314611
62.810 19.796057
62.815 19.867081
62.820 19.890162
62.825 19.942514
62.830 20.107944
62.835 20.040415
62.840 20.177958
62.845 19.386822
62.850 19.187138
62.855 19.246653
62.860 18.617943
62.865 18.042351
62.870 17.838894
62.875 17.335779
62.880 17.41383
62.885 17.196409
62.890 16.820923
62.895 16.776711
62.900 16.553949
62.905 16.336786
62.910 16.581991
62.915 16.959677
62.920 17.000694
62.925 16.537113
62.930 16.998436
62.935 17.350632
62.940 17.341753
62.945 17.16396
62.950 16.719368
62.955 16.94153
62.960 17.187181
62.965 17.109335
62.970 18.302387
62.975 19.070738
62.980 19.282619
62.985 19.225754
62.990 19.582882
62.995 20.352442
63.000 20.099974
63.005 19.003338
63.010 18.199785
63.015 18.169722
63.020 18.331451
63.025 18.129354
63.030 17.929174
63.035 18.087112
63.040 18.195065
63.045 18.715614
63.050 18.43784
63.055 18.415493
63.060 18.706776
63.065 18.607666
63.070 18.583807
63.075 18.812859
63.080 18.802719
63.085 18.994907
63.090 18.716759
63.095 18.631439
63.100 18.501675
63.105 17.890965
63.110 17.409391
63.115 16.831179
63.120 16.760004
63.125 17.039795
63.130 16.478071
63.135 16.245916
63.140 16.478165
63.145 16.155285
63.150 16.287321
63.155 16.249422
63.160 16.479107
63.165 17.129198
63.170 17.406059
63.175 17.788586
63.180 18.188297
63.185 18.764965
63.190 18.793026
63.195 18.880915
63.200 18.605339
63.205 18.590147
63.210 18.489578
63.215 18.795416
63.220 18.367525
63.225 18.441717
63.230 18.137627
63.235 18.00396
63.240 17.801313
63.245 17.741125
63.250 17.275589
63.255 17.575165
63.260 17.965118
63.265 18.074173
63.270 18.668285
63.275 18.852692
63.280 18.988119
63.285 19.049408
63.290 19.307384
63.295 19.127327
63.300 18.774261
63.305 18.569481
63.310 19.247782
63.315 19.405407
63.320 19.670277
63.325 19.950563
63.330 19.880468
63.335 19.775282
63.340 19.046545
63.345 18.667614
63.350 18.099518
63.355 18.024036
63.360 18.076336
63.365 18.267757
63.370 18.426636
63.375 18.933283
63.380 19.099625
63.385 20.120773
63.390 20.011332
63.395 19.175447
63.400 18.936842
63.405 18.771488
63.410 18.873095
63.415 18.647818
63.420 18.969456
63.425 18.963547
63.430 19.399815
63.435 19.342201
63.440 19.187603
63.445 18.969763
63.450 19.318333
63.455 19.105118
63.460 19.133575
63.465 18.913658
63.470 19.492416
63.475 20.169104
63.480 19.9928
63.485 19.150843
63.490 19.173286
63.495 19.221071
63.500 19.40312
63.505 19.521675
63.510 19.52529
63.515 19.807436
63.520 20.563858
63.525 20.02096
63.530 19.831518
63.535 20.234686
63.540 20.111614
63.545 19.846132
63.550 20.070917
63.555 19.559696
63.560 19.863192
63.565 19.346571
63.570 18.36005
63.575 18.159891
63.580 18.054237
63.585 17.571074
63.590 17.19005
63.595 17.008631
63.600 17.262373
63.605 17.745701
63.610 17.169397
63.615 16.864599
63.620 17.187571
63.625 17.616716
63.630 18.061686
63.635 18.125998
63.640 17.871286
63.645 18.520443
63.650 18.935827
63.655 18.837599
63.660 18.786274
63.665 19.026377
63.670 18.498056
63.675 18.297907
63.680 18.670918
63.685 18.761372
63.690 18.688009
63.695 18.563231
63.700 18.491257
63.705 19.510805
63.710 20.181664
63.715 20.421856
63.720 20.44857
63.725 20.563486
63.730 20.970396
63.735 20.989723
63.740 20.55496
63.745 20.218
63.750 19.86717
63.755 19.73855
63.760 19.772657
63.765 19.510931
63.770 19.348637
63.775 19.275978
63.780 19.35037
63.785 19.418629
63.790 19.472799
63.795 19.076773
63.800 18.639252
63.805 18.340105
63.810 18.502714
63.815 18.202173
63.820 17.676966
63.825 17.075888
63.830 17.281786
63.835 17.740227
63.840 18.466391
63.845 18.658461
63.850 18.69071
63.855 19.270435
63.860 20.069836
63.865 20.025484
63.870 19.802015
63.875 19.74127
63.880 20.180103
63.885 20.113697
63.890 19.841965
63.895 19.871162
63.900 19.600502
63.905 19.865631
63.910 19.944515
63.915 19.541647
63.920 19.936735
63.925 19.538677
63.930 19.12693
63.935 19.255308
63.940 18.756565
63.945 18.519051
63.950 18.752851
63.955 18.511398
63.960 18.875708
63.965 19.248322
63.970 19.869955
63.975 19.95742
63.980 20.413013
63.985 20.44348
63.990 20.662893
63.995 21.120567
64.000 21.202698
64.005 20.982298
64.010 21.397018
64.015 21.161726
64.020 21.499924
64.025 21.525789
64.030 21.364496
64.035 21.030241
64.040 21.09374
64.045 21.391329
64.050 20.882549
64.055 20.083153
64.060 19.759937
64.065 19.50499
64.070 19.360907
64.075 19.297739
64.080 18.647266
64.085 19.110182
64.090 19.511993
64.095 19.647776
64.100 19.679792
64.105 19.988543
64.110 19.724483
64.115 19.895416
64.120 19.461559
64.125 19.395386
64.130 19.15683
64.135 19.043409
64.140 18.896414
64.145 19.336163
64.150 19.103634
64.155 19.226261
64.160 18.864296
64.165 18.517092
64.170 18.581284
64.175 18.061014
64.180 17.194553
64.185 17.080881
64.190 17.127455
64.195 17.554291
64.200 18.049267
64.205 17.35191
64.210 17.557144
64.215 18.263927
64.220 18.438759
64.225 19.187906
64.230 19.579729
64.235 19.852451
64.240 20.524599
64.245 20.419653
64.250 20.241165
64.255 20.232157
64.260 19.293987
64.265 18.551548
64.270 18.11454
64.275 18.160278
64.280 18.608034
64.285 18.811417
64.290 18.734446
64.295 18.801266
64.300 19.229748
64.305 19.730347
64.310 19.619442
64.315 20.090189
64.320 20.194796
64.325 20.577517
64.330 20.032169
64.335 19.823709
64.340 19.773996
64.345 19.973585
64.350 19.608307
64.355 19.31542
64.360 18.711809
64.365 18.871899
64.370 19.109631
64.375 19.133087
64.380 19.79911
64.385 19.982788
64.390 20.006365
64.395 20.432255
64.400 21.227743
64.405 21.375906
64.410 21.196394
64.415 20.57799
64.420 20.774673
64.425 21.177315
64.430 20.44725
64.435 20.070507
64.440 19.490797
64.445 19.126455
64.450 19.29517
64.455 19.39703
64.460 19.440201
64.465 20.037928
64.470 20.278332
64.475 20.315937
64.480 20.623573
64.485 20.694475
64.490 20.424208
64.495 20.563591
64.500 20.661722
64.505 20.704443
64.510 20.93182
64.515 21.036064
64.520 20.859913
64.525 20.535719
64.530 20.377953
64.535 20.363605
64.540 20.307384
64.545 20.586281
64.550 20.403547
64.555 20.590179
64.560 20.666418
64.565 20.653866
64.570 20.191555
64.575 19.739719
64.580 19.73436
64.585 20.031031
64.590 19.676167
64.595 19.085295
64.600 18.85358
64.605 18.950796
64.610 18.883266
64.615 18.400429
64.620 18.329296
64.625 18.467785
64.630 19.209703
64.635 19.557623
64.640 19.104033
64.645 19.020533
64.650 18.888243
64.655 18.164059
64.660 18.028688
64.665 17.544258
64.670 17.769918
64.675 18.723801
64.680 18.919031
64.685 19.031677
64.690 19.077391
64.695 18.987505
64.700 18.882111
64.705 18.185204
64.710 18.114361
64.715 18.272329
64.720 18.762634
64.725 19.466774
64.730 19.557642
64.735 19.791651
64.740 19.875608
64.745 20.210142
64.750 19.835657
64.755 19.634604
64.760 19.612053
64.765 20.049931
64.770 20.531103
64.775 21.081976
64.780 21.381058
64.785 21.55304
64.790 21.505285
64.795 21.399069
64.800 21.206553
64.805 21.260929
64.810 20.855122
64.815 20.31242
64.820 20.376583
64.825 20.323713
64.830 20.641151
64.835 20.377865
64.840 20.062679
64.845 20.373043
64.850 20.259583
64.855 20.914234
64.860 20.93376
64.865 20.955753
64.870 21.237253
64.875 20.75243
64.880 19.916573
64.885 19.817999
64.890 18.844755
64.895 18.60463
64.900 18.319492
64.905 18.460358
64.910 18.934881
64.915 19.459368
64.920 19.718519
64.925 20.397926
64.930 20.465876
64.935 20.812893
64.940 21.096424
64.945 21.8281
64.950 22.173016
64.955 22.202267
64.960 22.576128
64.965 22.116131
64.970 21.700541
64.975 21.528152
64.980 21.106169
64.985 20.789064
64.990 21.485752
64.995 21.40695
65.000 21.884159
65.005 22.647854
65.010 23.072474
65.015 23.268967
65.020 24.07774
65.025 24.306961
65.030 24.822676
65.035 24.592037
65.040 23.986506
65.045 23.965351
65.050 24.037766
65.055 23.557486
65.060 23.244984
65.065 23.304892
65.070 23.88232
65.075 24.649252
65.080 24.608866
65.085 24.838955
65.090 25.652792
65.095 24.630037
65.100 24.240396
65.105 23.668835
65.110 22.820305
65.115 22.540995
65.120 22.609034
65.125 22.19862
65.130 23.093412
65.135 22.872746
65.140 22.777967
65.145 23.184217
65.150 23.717152
65.155 24.171537
65.160 24.212084
65.165 24.111958
65.170 24.983055
65.175 24.990545
65.180 24.893387
65.185 24.549877
65.190 23.671072
65.195 23.772913
65.200 23.689194
65.205 23.861853
65.210 23.904799
65.215 23.953152
65.220 24.295994
65.225 23.716366
65.230 23.306458
65.235 23.576084
65.240 23.513138
65.245 23.662994
65.250 23.820641
65.255 23.876543
65.260 23.900297
65.265 23.604086
65.270 23.142551
65.275 23.311028
65.280 23.7187
65.285 23.295494
65.290 22.857248
65.295 23.157526
65.300 23.202177
65.305 23.190914
65.310 22.88143
65.315 22.720245
65.320 22.765369
65.325 22.815424
65.330 23.146553
65.335 24.087317
65.340 24.63978
65.345 24.584448
65.350 24.497484
65.355 24.660841
65.360 25.152458
65.365 24.992655
65.370 23.965046
65.375 24.106916
65.380 24.769463
65.385 25.160162
65.390 25.209984
65.395 25.799883
65.400 25.917618
65.405 26.597479
65.410 26.594477
65.415 26.070263
65.420 25.786047
65.425 25.664911
65.430 25.604565
65.435 25.705791
65.440 25.735685
65.445 25.72122
65.450 25.98805
65.455 25.89661
65.460 26.185728
65.465 26.214483
65.470 26.25112
65.475 25.735918
65.480 25.488581
65.485 25.439699
65.490 25.929436
65.495 26.107578
65.500 25.923317
65.505 26.594879
65.510 27.441977
65.515 28.449656
65.520 28.935324
65.525 28.326033
65.530 28.506887
65.535 28.992701
65.540 28.540798
65.545 28.98562
65.550 29.086523
65.555 29.018703
65.560 29.694393
65.565 29.277336
65.570 29.236252
65.575 29.226204
65.580 28.871984
65.585 28.447048
65.590 28.58983
65.595 28.753168
65.600 28.679266
65.605 29.031059
65.610 29.39176
65.615 29.441206
65.620 29.933546
65.625 30.535145
65.630 30.186348
65.635 30.440729
65.640 30.207962
65.645 31.056257
65.650 31.792902
65.655 31.940022
65.660 31.730028
65.665 32.283001
65.670 33.38607
65.675 34.076504
65.680 34.281933
65.685 34.707611
65.690 35.329746
65.695 35.714783
65.700 35.783787
65.705 34.99313
65.710 34.892937
65.715 35.204266
65.720 34.969059
65.725 34.622654
65.730 34.286812
65.735 35.15884
65.740 35.995811
65.745 36.103207
65.750 35.355793
65.755 35.234394
65.760 35.30431
65.765 36.506203
65.770 36.320633
65.775 35.923397
65.780 36.440491
65.785 37.404053
65.790 38.56987
65.795 39.044552
65.800 37.78698
65.805 37.821671
65.810 38.024227
65.815 38.274658
65.820 37.736095
65.825 36.964302
65.830 37.457684
65.835 38.813717
65.840 39.94408
65.845 40.110233
65.850 39.599171
65.855 39.83675
65.860 40.088001
65.865 40.247372
65.870 39.926033
65.875 39.762653
65.880 39.919632
65.885 40.017746
65.890 40.491703
65.895 40.939835
65.900 40.98484
65.905 40.100178
65.910 39.411701
65.915 38.69632
65.920 38.645462
65.925 39.101501
65.930 38.09201
65.935 37.996399
65.940 38.522881
65.945 38.466293
65.950 39.23885
65.955 39.487843
65.960 39.775005
65.965 40.404408
65.970 39.986095
65.975 39.734097
65.980 40.071598
65.985 40.088551
65.990 40.109936
65.995 39.396362
66.000 39.484249
66.005 40.173172
66.010 40.338188
66.015 39.713585
66.020 39.263176
66.025 39.200069
66.030 38.376896
66.035 37.785191
66.040 36.961109
66.045 37.145798
66.050 37.736984
66.055 37.273472
66.060 37.236771
66.065 37.927143
66.070 38.304882
66.075 38.911476
66.080 39.21896
66.085 39.07888
66.090 38.745911
66.095 37.568176
66.100 37.217888
66.105 36.819035
66.110 36.725117
66.115 36.018097
66.120 35.716991
66.125 36.318169
66.130 37.351109
66.135 38.084808
66.140 38.405865
66.145 38.113834
66.150 37.922813
66.155 38.572269
66.160 38.669743
66.165 38.19688
66.170 37.277588
66.175 36.374199
66.180 36.100281
66.185 36.294575
66.190 35.964722
66.195 35.84026
66.200 34.977226
66.205 36.049797
66.210 36.86808
66.215 36.787613
66.220 36.083595
66.225 35.34819
66.230 35.595459
66.235 36.774769
66.240 35.503899
66.245 34.228172
66.250 34.615204
66.255 34.660755
66.260 34.72253
66.265 34.592609
66.270 33.743591
66.275 34.29446
66.280 35.071228
66.285 35.053104
66.290 35.682213
66.295 34.993423
66.300 34.685989
66.305 34.683197
66.310 34.093781
66.315 33.365074
66.320 32.662838
66.325 32.521515
66.330 33.049698
66.335 32.766144
66.340 32.723423
66.345 33.488121
66.350 33.788422
66.355 34.129887
66.360 34.127628
66.365 34.28426
66.370 33.718563
66.375 32.756252
66.380 32.146595
66.385 31.225386
66.390 30.692278
66.395 30.129347
66.400 30.160223
66.405 30.846048
66.410 30.896259
66.415 30.954956
66.420 32.170715
66.425 32.430897
66.430 32.36623
66.435 32.684696
66.440 32.293381
66.445 31.995996
66.450 32.110626
66.455 31.501657
66.460 30.603275
66.465 30.400118
66.470 29.904985
66.475 29.926537
66.480 30.019922
66.485 29.848749
66.490 29.522484
66.495 29.814075
66.500 29.122946
66.505 28.847881
66.510 28.047047
66.515 27.701618
66.520 27.191067
66.525 27.644817
66.530 28.054865
66.535 28.468809
66.540 28.429159
66.545 28.797108
66.550 28.737423
66.555 28.939445
66.560 28.709774
66.565 28.454958
66.570 28.333542
66.575 28.251291
66.580 27.692249
66.585 26.84215
66.590 26.25474
66.595 26.364241
66.600 26.65885
66.605 26.987659
66.610 27.330492
66.615 27.669014
66.620 27.850796
66.625 28.4039
66.630 27.696585
66.635 27.062557
66.640 27.009041
66.645 26.790371
66.650 26.642832
66.655 26.683998
66.660 26.402803
66.665 26.506741
66.670 26.000748
66.675 25.466301
66.680 25.776466
66.685 25.765188
66.690 25.06274
66.695 24.477921
66.700 24.589802
66.705 25.309357
66.710 26.032337
66.715 25.585587
66.720 26.182354
66.725 26.68605
66.730 26.195896
66.735 25.813421
66.740 26.242229
66.745 26.192129
66.750 26.086271
66.755 25.916258
66.760 26.951141
66.765 27.613569
66.770 27.29855
66.775 26.260233
66.780 26.291994
66.785 26.254833
66.790 25.250841
66.795 23.761549
66.800 23.687845
66.805 23.608541
66.810 23.465784
66.815 23.137875
66.820 23.669312
66.825 23.392712
66.830 23.342379
66.835 23.261929
66.840 23.134867
66.845 23.167461
66.850 23.185284
66.855 22.479719
66.860 23.095922
66.865 23.760525
66.870 23.681952
66.875 24.311878
66.880 24.556578
66.885 24.407051
66.890 24.498034
66.895 25.275455
66.900 25.656046
66.905 25.691221
66.910 25.36673
66.915 25.536629
66.920 26.011433
66.925 26.159813
66.930 26.175526
66.935 25.655619
66.940 25.496712
66.945 25.477818
66.950 25.156569
66.955 24.790941
66.960 24.904621
66.965 24.996311
66.970 25.153484
66.975 25.145178
66.980 24.584204
66.985 23.372229
66.990 22.820585
66.995 21.999983
67.000 21.66176
67.005 22.126186
67.010 22.167345
67.015 22.367075
67.020 23.067734
67.025 23.213375
67.030 23.719505
67.035 23.535168
67.040 23.412598
67.045 23.64274
67.050 24.233196
67.055 24.38262
67.060 24.680351
67.065 24.188101
67.070 23.515646
67.075 23.177177
67.080 23.721189
67.085 24.094463
67.090 24.449675
67.095 24.597017
67.100 24.671988
67.105 24.979111
67.110 24.727406
67.115 24.91921
67.120 24.231792
67.125 23.286179
67.130 22.561884
67.135 22.310633
67.140 22.594975
67.145 22.659611
67.150 21.838331
67.155 22.317688
67.160 22.544094
67.165 23.495394
67.170 23.353458
67.175 23.00325
67.180 23.143585
67.185 23.378258
67.190 23.284575
67.195 23.658546
67.200 23.478304
67.205 23.552454
67.210 23.717237
67.215 23.400661
67.220 23.08098
67.225 22.813622
67.230 22.929298
67.235 22.415871
67.240 22.727535
67.245 22.268785
67.250 22.409967
67.255 22.352003
67.260 22.361416
67.265 22.124382
67.270 22.805668
67.275 23.228062
67.280 23.656137
67.285 24.246447
67.290 24.646969
67.295 24.632105
67.300 24.290367
67.305 23.899401
67.310 23.100554
67.315 22.744951
67.320 22.197861
67.325 21.905912
67.330 21.891747
67.335 21.750696
67.340 21.755587
67.345 21.689583
67.350 21.291451
67.355 21.181698
67.360 21.274414
67.365 21.398626
67.370 21.716391
67.375 21.838949
67.380 22.514622
67.385 22.920286
67.390 22.645441
67.395 22.631495
67.400 22.406315
67.405 22.436983
67.410 22.620157
67.415 22.359734
67.420 22.72613
67.425 23.402718
67.430 23.513523
67.435 23.302725
67.440 22.68231
67.445 22.207056
67.450 21.910763
67.455 20.982496
67.460 20.317556
67.465 20.604202
67.470 20.506918
67.475 20.617424
67.480 20.32155
67.485 20.664104
67.490 21.448416
67.495 22.272734
67.500 22.420414
67.505 22.471529
67.510 22.827509
67.515 23.244181
67.520 23.061983
67.525 22.98851
67.530 22.162859
67.535 22.147203
67.540 22.067287
67.545 22.44175
67.550 22.996923
67.555 23.227577
67.560 23.096571
67.565 23.024244
67.570 23.317141
67.575 23.379896
67.580 23.020182
67.585 22.465563
67.590 22.809452
67.595 22.751753
67.600 22.611832
67.605 22.11433
67.610 22.329218
67.615 22.283731
67.620 22.73798
67.625 21.862396
67.630 21.823078
67.635 22.144083
67.640 22.614754
67.645 23.064438
67.650 23.066032
67.655 22.688198
67.660 23.205017
67.665 24.036806
67.670 23.938725
67.675 23.455156
67.680 23.029799
67.685 23.064409
67.690 22.683451
67.695 22.824955
67.700 22.618835
67.705 22.561386
67.710 22.214375
67.715 22.099253
67.720 22.055986
67.725 22.585201
67.730 22.390144
67.735 22.782892
67.740 23.164427
67.745 23.11994
67.750 22.875645
67.755 23.070042
67.760 23.170229
67.765 22.740051
67.770 22.154018
67.775 21.913956
67.780 22.444607
67.785 22.211935
67.790 22.229883
67.795 21.85981
67.800 22.048721
67.805 22.031879
67.810 22.422712
67.815 22.897806
67.820 22.978348
67.825 22.142843
67.830 22.139256
67.835 22.018076
67.840 22.286707
67.845 21.56189
67.850 21.115036
67.855 21.419178
67.860 21.727455
67.865 21.573692
67.870 21.545948
67.875 21.043112
67.880 21.06167
67.885 21.039927
67.890 21.412073
67.895 21.341125
67.900 21.006617
67.905 20.605337
67.910 20.594034
67.915 20.764212
67.920 20.509892
67.925 19.855902
67.930 20.040489
67.935 20.867746
67.940 21.5947
67.945 22.079803
67.950 22.097673
67.955 22.273485
67.960 22.643507
67.965 22.976254
67.970 22.763454
67.975 22.362404
67.980 22.330015
67.985 22.368011
67.990 22.481417
67.995 22.202997
68.000 21.781145
68.005 21.636669
68.010 21.590137
68.015 21.786226
68.020 22.48522
68.025 22.509041
68.030 22.253263
68.035 22.260775
68.040 21.791584
68.045 21.711437
68.050 21.329185
68.055 20.649687
68.060 20.749174
68.065 21.546637
68.070 21.8374
68.075 21.849031
68.080 22.118465
68.085 22.41588
68.090 22.147226
68.095 22.187601
68.100 22.467806
68.105 22.821341
68.110 23.626751
68.115 23.847069
68.120 24.247456
68.125 24.409458
68.130 24.756952
68.135 24.759552
68.140 24.480078
68.145 24.004162
68.150 23.667356
68.155 23.520851
68.160 23.685537
68.165 23.197815
68.170 22.587626
68.175 22.494595
68.180 22.84672
68.185 22.278543
68.190 22.51762
68.195 22.478354
68.200 22.5301
68.205 22.655514
68.210 22.262983
68.215 22.141241
68.220 22.132524
68.225 21.794682
68.230 21.668905
68.235 21.533619
68.240 21.711143
68.245 21.753723
68.250 21.857796
68.255 21.887751
68.260 21.351011
68.265 21.732399
68.270 22.306519
68.275 21.873476
68.280 21.428696
68.285 21.256804
68.290 21.044491
68.295 21.61133
68.300 21.184151
68.305 20.982002
68.310 21.5721
68.315 21.965172
68.320 22.328085
68.325 22.206285
68.330 21.593157
68.335 21.543476
68.340 21.40222
68.345 21.089287
68.350 20.975157
68.355 20.750668
68.360 21.253418
68.365 21.65638
68.370 22.04521
68.375 22.115385
68.380 22.349222
68.385 22.18561
68.390 21.966946
68.395 22.209915
68.400 21.579821
68.405 21.669243
68.410 21.758324
68.415 22.263269
68.420 22.837257
68.425 22.87944
68.430 22.845333
68.435 22.757555
68.440 22.178734
68.445 22.283209
68.450 21.634674
68.455 22.040697
68.460 22.144226
68.465 22.165871
68.470 22.402758
68.475 22.939238
68.480 22.77367
68.485 21.983189
68.490 21.435362
68.495 21.750721
68.500 21.634365
68.505 21.40119
68.510 20.76766
68.515 21.364637
68.520 22.681465
68.525 22.260454
68.530 22.008999
68.535 22.587002
68.540 23.248648
68.545 23.602367
68.550 23.119432
68.555 22.665358
68.560 23.237104
68.565 22.830404
68.570 21.786898
68.575 21.327005
68.580 20.873434
68.585 20.511236
68.590 20.581303
68.595 20.185875
68.600 20.695766
68.605 21.306429
68.610 21.822071
68.615 22.181265
68.620 22.649218
68.625 22.276142
68.630 22.196337
68.635 21.720858
68.640 21.569313
68.645 21.077526
68.650 21.433907
68.655 20.90436
68.660 21.094812
68.665 21.384319
68.670 21.935349
68.675 22.058542
68.680 21.966324
68.685 21.655424
68.690 22.320309
68.695 22.683727
68.700 22.841188
68.705 22.935026
68.710 22.985958
68.715 23.224468
68.720 23.548149
68.725 23.494871
68.730 23.146645
68.735 23.203953
68.740 22.745094
68.745 23.139431
68.750 22.955828
68.755 22.920509
68.760 22.557882
68.765 22.407158
68.770 22.315208
68.775 22.932333
68.780 23.475723
68.785 23.804914
68.790 23.575457
68.795 24.3689
68.800 24.075623
68.805 23.649813
68.810 22.909706
68.815 21.989906
68.820 21.669825
68.825 21.390751
68.830 21.751902
68.835 22.702549
68.840 22.988585
68.845 22.951523
68.850 23.092026
68.855 23.708418
68.860 24.22854
68.865 23.825644
68.870 23.72147
68.875 23.841854
68.880 24.047522
68.885 23.76195
68.890 23.284042
68.895 23.261839
68.900 23.554728
68.905 23.453455
68.910 23.086527
68.915 23.623081
68.920 24.341505
68.925 24.437256
68.930 24.444239
68.935 24.149036
68.940 24.385489
68.945 24.503162
68.950 24.966784
68.955 24.742373
68.960 25.026958
68.965 24.91202
68.970 25.144796
68.975 25.795794
68.980 25.586691
68.985 24.87553
68.990 24.763937
68.995 24.363625
69.000 23.879528
69.005 23.223368
69.010 22.635941
69.015 22.936571
69.020 23.046251
69.025 23.370604
69.030 24.222073
69.035 24.396139
69.040 24.629082
69.045 24.959528
69.050 25.242744
69.055 25.108477
69.060 25.022001
69.065 24.499834
69.070 24.357714
69.075 24.414398
69.080 24.584766
69.085 24.793341
69.090 26.028063
69.095 25.799381
69.100 26.247944
69.105 26.909149
69.110 27.048792
69.115 26.810537
69.120 26.408827
69.125 25.855192
69.130 25.948973
69.135 26.430021
69.140 26.824636
69.145 26.390787
69.150 26.511187
69.155 26.948101
69.160 27.155558
69.165 27.352982
69.170 27.297302
69.175 26.945456
69.180 27.305046
69.185 27.032907
69.190 26.332361
69.195 26.444662
69.200 26.513287
69.205 26.458578
69.210 26.564301
69.215 26.745399
69.220 26.531715
69.225 26.07691
69.230 25.823696
69.235 25.632233
69.240 26.68339
69.245 27.151485
69.250 26.916117
69.255 27.262466
69.260 27.549715
69.265 27.807396
69.270 27.492697
69.275 27.253803
69.280 27.402966
69.285 27.649414
69.290 28.465168
69.295 29.063868
69.300 29.229086
69.305 29.831549
69.310 29.851
69.315 30.578232
69.320 30.81424
69.325 30.316063
69.330 30.080967
69.335 29.524778
69.340 29.346642
69.345 29.644976
69.350 29.706028
69.355 29.908684
69.360 29.866526
69.365 30.626871
69.370 30.500561
69.375 30.125879
69.380 29.02121
69.385 28.572847
69.390 28.814795
69.395 28.790596
69.400 28.731169
69.405 28.962132
69.410 29.195744
69.415 30.317406
69.420 30.314186
69.425 30.991419
69.430 31.305101
69.435 31.675213
69.440 31.972588
69.445 31.991398
69.450 31.863396
69.455 31.981483
69.460 31.459484
69.465 30.95351
69.470 30.566696
69.475 30.23168
69.480 29.872669
69.485 28.50145
69.490 28.279179
69.495 28.947001
69.500 28.292095
69.505 27.957527
69.510 28.074053
69.515 29.284531
69.520 30.230831
69.525 29.69729
69.530 29.50905
69.535 30.330647
69.540 30.922195
69.545 31.430752
69.550 31.090038
69.555 30.87175
69.560 30.701088
69.565 30.425186
69.570 30.478567
69.575 30.65126
69.580 30.103777
69.585 29.298658
69.590 28.348444
69.595 28.328697
69.600 28.378422
69.605 27.61076
69.610 26.906664
69.615 27.193153
69.620 27.851467
69.625 28.85985
69.630 29.322178
69.635 29.36068
69.640 29.220133
69.645 29.049253
69.650 29.205818
69.655 29.47998
69.660 29.581396
69.665 30.07021
69.670 30.66888
69.675 30.90789
69.680 30.781097
69.685 30.625198
69.690 30.56892
69.695 30.313437
69.700 30.420382
69.705 30.496767
69.710 30.177752
69.715 29.733116
69.720 29.465612
69.725 28.998861
69.730 28.175341
69.735 27.173176
69.740 27.079741
69.745 27.250229
69.750 27.239796
69.755 26.548323
69.760 26.723753
69.765 27.070265
69.770 26.034945
69.775 26.055185
69.780 26.594259
69.785 26.789412
69.790 26.878788
69.795 26.915094
69.800 27.180611
69.805 27.32947
69.810 26.937311
69.815 26.425339
69.820 26.593019
69.825 26.887508
69.830 27.044216
69.835 28.006733
69.840 28.033611
69.845 27.540636
69.850 27.504879
69.855 27.581987
69.860 27.381306
69.865 26.74057
69.870 26.290747
69.875 26.196672
69.880 26.277781
69.885 26.205534
69.890 26.098778
69.895 25.441998
69.900 24.707293
69.905 23.664896
69.910 23.333046
69.915 22.674358
69.920 22.098949
69.925 21.381266
69.930 21.318342
69.935 21.656338
69.940 21.994757
69.945 22.314583
69.950 22.375402
69.955 22.84894
69.960 22.934195
69.965 22.54174
69.970 22.223665
69.975 22.156733
69.980 22.07806
69.985 22.2721
69.990 21.957777
69.995 22.432419
70.000 22.398355
70.005 22.076838
70.010 21.886189
70.015 22.018749
70.020 21.697784
70.025 21.737617
70.030 22.139168
70.035 22.238647
70.040 21.920414
70.045 21.815723
70.050 21.64155
70.055 21.659935
70.060 21.289171
70.065 20.336136
70.070 20.743307
70.075 21.18927
70.080 21.825521
70.085 21.904013
70.090 22.287012
70.095 22.573116
70.100 23.247425
70.105 23.232323
70.110 22.945152
70.115 22.35183
70.120 22.334248
70.125 22.374842
70.130 22.357903
70.135 22.529236
70.140 22.673912
70.145 22.781116
70.150 23.197189
70.155 22.997147
70.160 23.000889
70.165 22.817158
70.170 22.154531
70.175 21.996483
70.180 21.887222
70.185 21.668341
70.190 22.363323
70.195 21.872749
70.200 21.01461
70.205 20.926994
70.210 20.951193
70.215 20.718885
70.220 20.668259
70.225 20.056185
70.230 20.342192
70.235 20.555662
70.240 20.507633
70.245 20.422049
70.250 20.794086
70.255 21.043053
70.260 21.095842
70.265 21.143852
70.270 21.251938
70.275 21.434729
70.280 21.550598
70.285 21.302511
70.290 21.27458
70.295 21.477823
70.300 21.153254
70.305 21.169241
70.310 21.361013
70.315 21.573816
70.320 20.792713
70.325 20.434322
70.330 20.777714
70.335 21.36165
70.340 21.217403
70.345 20.340048
70.350 20.44956
70.355 20.907827
70.360 20.50329
70.365 20.289417
70.370 20.204182
70.375 19.949694
70.380 20.001162
70.385 19.716309
70.390 19.853952
70.395 19.906204
70.400 19.787766
70.405 19.509127
70.410 20.291084
70.415 20.31004
70.420 20.533159
70.425 20.66473
70.430 21.072025
70.435 21.407391
70.440 22.03665
70.445 21.164581
70.450 21.117632
70.455 20.715487
70.460 20.343836
70.465 19.694691
70.470 19.631468
70.475 19.220675
70.480 19.446079
70.485 19.475172
70.490 19.612169
70.495 19.317364
70.500 19.394842
70.505 19.285549
70.510 19.812864
70.515 20.239122
70.520 20.622292
70.525 20.998943
70.530 21.466841
70.535 21.996893
70.540 21.77375
70.545 21.673262
70.550 21.642527
70.555 21.138708
70.560 20.603281
70.565 19.992382
70.570 19.257177
70.575 19.104584
70.580 18.924217
70.585 19.025808
70.590 19.0212
70.595 19.506071
70.600 20.053286
70.605 20.383595
70.610 20.69171
70.615 20.548008
70.620 20.400148
70.625 20.734335
70.630 20.59243
70.635 20.329294
70.640 20.189222
70.645 19.484701
70.650 19.255835
70.655 19.272015
70.660 18.912912
70.665 18.489761
70.670 18.706356
70.675 18.885178
70.680 19.754364
70.685 20.363594
70.690 19.970728
70.695 20.206518
70.700 20.601162
70.705 21.174334
70.710 21.607489
70.715 20.994087
70.720 20.808033
70.725 20.987761
70.730 20.882126
70.735 20.215574
70.740 19.710583
70.745 18.949627
70.750 19.28582
70.755 19.116833
70.760 19.084326
70.765 19.025463
70.770 19.479805
70.775 19.413214
70.780 19.458122
70.785 19.1147
70.790 19.144531
70.795 19.68009
70.800 19.858049
70.805 19.492075
70.810 19.408354
70.815 19.774574
70.820 19.859026
70.825 19.876987
70.830 19.587057
70.835 19.022341
70.840 19.1668
70.845 19.608452
70.850 19.822302
70.855 19.920212
70.860 19.558012
70.865 19.58041
70.870 19.770803
70.875 19.889023
70.880 19.461931
70.885 19.262922
70.890 19.684486
70.895 19.703367
70.900 19.508593
70.905 18.667793
70.910 18.007429
70.915 18.565407
70.920 18.795881
70.925 19.009005
70.930 18.968718
70.935 19.339537
70.940 20.626961
70.945 21.113983
70.950 21.009306
70.955 20.500757
70.960 19.905081
70.965 20.566673
70.970 20.587826
70.975 20.246967
70.980 19.933996
70.985 19.070303
70.990 18.908487
70.995 18.819622
71.000 18.125734
71.005 18.083059
71.010 18.353355
71.015 18.462837
71.020 18.699854
71.025 19.293388
71.030 19.363449
71.035 19.270458
71.040 19.334984
71.045 19.210665
71.050 19.503275
71.055 19.751595
71.060 19.943499
71.065 20.420788
71.070 20.324932
71.075 19.714417
71.080 19.811174
71.085 19.7752
71.090 19.401848
71.095 18.869473
71.100 19.481516
71.105 19.954651
71.110 19.860052
71.115 19.018875
71.120 19.423359
71.125 19.644035
71.130 19.491224
71.135 18.610071
71.140 18.581377
71.145 19.131105
71.150 19.271971
71.155 18.566902
71.160 18.404417
71.165 18.807533
71.170 18.927277
71.175 18.964542
71.180 19.354849
71.185 19.502428
71.190 19.958429
71.195 20.143267
71.200 19.211824
71.205 19.428686
71.210 19.236124
71.215 18.904659
71.220 18.931162
71.225 18.775187
71.230 19.501215
71.235 20.93322
71.240 20.898163
71.245 21.267115
71.250 21.840363
71.255 22.60465
71.260 22.829479
71.265 22.493317
71.270 22.046646
71.275 22.239985
71.280 22.071903
71.285 21.333912
71.290 20.515141
71.295 19.987871
71.300 18.933455
71.305 18.621954
71.310 18.605009
71.315 18.685347
71.320 18.993258
71.325 19.210754
71.330 19.921713
71.335 20.983883
71.340 21.013966
71.345 20.39715
71.350 20.329668
71.355 20.189104
71.360 19.831964
71.365 19.416969
71.370 18.73156
71.375 19.348419
71.380 19.793266
71.385 19.629553
71.390 19.399275
71.395 19.408306
71.400 19.28113
71.405 19.384121
71.410 19.024843
71.415 19.087927
71.420 18.992867
71.425 18.900438
71.430 19.078442
71.435 19.46278
71.440 19.642902
71.445 19.774761
71.450 20.101919
71.455 20.766447
71.460 20.894831
71.465 20.621323
71.470 20.632711
71.475 20.772722
71.480 20.443069
71.485 20.136763
71.490 20.169127
71.495 20.042959
71.500 19.318108
71.505 18.451939
71.510 18.533606
71.515 18.766567
71.520 18.078959
71.525 17.511795
71.530 18.045799
71.535 19.043242
71.540 19.379665
71.545 19.385155
71.550 19.526226
71.555 19.657972
71.560 20.156933
71.565 19.543306
71.570 19.252504
71.575 19.164438
71.580 18.535606
71.585 19.090437
71.590 20.113277
71.595 19.983513
71.600 20.0166
71.605 19.667458
71.610 19.796053
71.615 20.043396
71.620 19.657753
71.625 19.321882
71.630 19.717844
71.635 19.889677
71.640 20.585747
71.645 20.327044
71.650 20.572094
71.655 20.461002
71.660 19.798033
71.665 19.870176
71.670 20.331169
71.675 19.969013
71.680 19.690119
71.685 19.214479
71.690 19.210846
71.695 19.639793
71.700 19.741417
71.705 19.651163
71.710 20.262089
71.715 20.020216
71.720 19.752722
71.725 19.191999
71.730 18.301086
71.735 17.970325
71.740 18.040695
71.745 17.688013
71.750 18.305964
71.755 18.463179
71.760 18.962255
71.765 19.350462
71.770 19.399347
71.775 19.42313
71.780 19.65159
71.785 19.52149
71.790 19.184769
71.795 19.16642
71.800 19.617325
71.805 19.739328
71.810 19.32781
71.815 19.360119
71.820 19.391722
71.825 19.779839
71.830 20.197836
71.835 19.261967
71.840 18.885126
71.845 19.17795
71.850 19.694021
71.855 20.092922
71.860 20.046724
71.865 19.862768
71.870 19.894018
71.875 19.886602
71.880 19.39938
71.885 19.349062
71.890 19.184832
71.895 18.913967
71.900 18.463591
71.905 18.922813
71.910 19.51527
71.915 20.10055
71.920 19.745007
71.925 19.68009
71.930 20.154539
71.935 20.923866
71.940 21.038475
71.945 20.965363
71.950 20.425022
71.955 20.418379
71.960 20.165106
71.965 19.971922
71.970 19.477175
71.975 19.04797
71.980 18.679739
71.985 19.21316
71.990 19.7995
71.995 20.358643
72.000 20.262798
72.005 20.821537
72.010 20.445982
72.015 20.448597
72.020 19.809267
72.025 19.06362
72.030 18.857069
72.035 18.867237
72.040 18.062029
72.045 18.024618
72.050 18.206898
72.055 18.10173
72.060 17.949293
72.065 18.226423
72.070 18.399345
72.075 19.224018
72.080 19.266891
72.085 18.869116
72.090 19.22822
72.095 19.318342
72.100 18.621986
72.105 18.785408
72.110 18.230013
72.115 18.155426
72.120 18.667366
72.125 18.459108
72.130 18.135799
72.135 18.602072
72.140 18.008106
72.145 18.160156
72.150 18.250416
72.155 18.391212
72.160 19.297453
72.165 19.865332
72.170 20.006479
72.175 19.978506
72.180 19.292423
72.185 18.984894
72.190 18.420118
72.195 17.965586
72.200 17.451027
72.205 17.366234
72.210 17.170265
72.215 17.674173
72.220 17.539446
72.225 17.655497
72.230 18.265816
72.235 18.33201
72.240 18.530445
72.245 19.216438
72.250 19.325991
72.255 19.242228
72.260 18.699829
72.265 18.040464
72.270 18.185356
72.275 18.056929
72.280 18.082956
72.285 17.981277
72.290 18.154993
72.295 18.180401
72.300 18.342989
72.305 18.120632
72.310 17.681469
72.315 17.615129
72.320 17.922365
72.325 17.757675
72.330 17.735676
72.335 17.570705
72.340 18.2619
72.345 18.868731
72.350 18.322178
72.355 18.143944
72.360 18.230072
72.365 18.384462
72.370 18.384918
72.375 17.895872
72.380 17.852858
72.385 18.369398
72.390 18.360346
72.395 18.743267
72.400 18.990671
72.405 18.705511
72.410 18.190775
72.415 18.04574
72.420 17.928837
72.425 17.993341
72.430 17.544987
72.435 17.408205
72.440 17.405025
72.445 17.643204
72.450 17.497549
72.455 17.6486
72.460 17.141951
72.465 17.242014
72.470 17.073277
72.475 17.123585
72.480 17.068972
72.485 16.724508
72.490 16.668169
72.495 16.704983
72.500 16.980993
72.505 17.169859
72.510 17.008318
72.515 17.062243
72.520 17.543209
72.525 17.374569
72.530 17.571283
72.535 17.091082
72.540 17.853878
72.545 18.005903
72.550 18.10549
72.555 18.070557
72.560 18.200655
72.565 18.160536
72.570 18.265738
72.575 17.791351
72.580 17.811731
72.585 18.020094
72.590 18.141403
72.595 18.45137
72.600 18.467743
72.605 18.745825
72.610 18.344721
72.615 18.163227
72.620 18.59436
72.625 18.752728
72.630 18.664345
72.635 18.622711
72.640 18.455273
72.645 18.70459
72.650 18.177683
72.655 17.917236
72.660 18.090254
72.665 17.700714
72.670 18.106804
72.675 18.493605
72.680 18.638556
72.685 18.693008
72.690 18.548252
72.695 18.573936
72.700 18.537567
72.705 18.104063
72.710 17.83448
72.715 17.994793
72.720 18.038679
72.725 17.85008
72.730 17.712072
72.735 17.441826
72.740 17.323864
72.745 17.330912
72.750 17.064455
72.755 15.986555
72.760 15.428779
72.765 15.789894
72.770 16.478598
72.775 16.242537
72.780 16.05809
72.785 16.187284
72.790 16.976088
72.795 17.497456
72.800 17.827297
72.805 17.435707
72.810 17.303146
72.815 17.427662
72.820 17.840979
72.825 17.454956
72.830 17.143963
72.835 16.471878
72.840 16.660007
72.845 16.799543
72.850 16.874002
72.855 17.187822
72.860 17.187723
72.865 17.143141
72.870 17.269957
72.875 17.163734
72.880 16.810505
72.885 17.027178
72.890 16.78702
72.895 16.686939
72.900 16.062132
72.905 16.350683
72.910 16.640856
72.915 16.548443
72.920 15.983636
72.925 16.199371
72.930 16.998287
72.935 17.475359
72.940 17.111111
72.945 17.208502
72.950 17.422989
72.955 17.654217
72.960 18.256708
72.965 18.092781
72.970 17.820078
72.975 18.432289
72.980 18.457565
72.985 18.256746
72.990 18.294764
72.995 18.4174
73.000 18.23102
