!@!!GADDS PLOTSO FILE: Chi integration type
!@!!Title/SampleName: map-13d
!@!!Comment: ?
!@!!User: Bruker Instrument Administrator
!@!!Site: University of Illinois Chicago
!@!!Frame: map-13d_01_000.gfrm
!@!!Wavelengths    1.54184   1.54056   1.54439
!@!!Frame angles: 2Theta: 63.000 Omega: 50.000 Phi: 0.000 Chi: 90.000
!@!!Integration range: 2Theta: 53.000 to 73.000  Gamma: -105.000 to -75.000
!@!!Integration method: bin normalized
!@!N
!@!SS
!@!M
!@!L 0.0 0.0 0.0 0.0
!@!XDegrees
!@!YCounts
53.000 9.714153
53.005 10.091417
53.010 10.348736
53.015 10.620288
53.020 10.379383
53.025 10.647842
53.030 10.46443
53.035 10.131321
53.040 9.971162
53.045 9.907497
53.050 9.945365
53.055 9.971559
53.060 10.141651
53.065 10.297005
53.070 10.588163
53.075 10.492523
53.080 10.049021
53.085 9.960946
53.090 9.675305
53.095 9.306098
53.100 8.934447
53.105 9.217485
53.110 9.461835
53.115 9.324245
53.120 9.406312
53.125 9.921461
53.130 10.152665
53.135 10.620352
53.140 11.007964
53.145 11.154974
53.150 11.319997
53.155 11.146202
53.160 11.121206
53.165 10.833155
53.170 9.921773
53.175 9.308591
53.180 9.324787
53.185 9.456936
53.190 9.231488
53.195 9.024999
53.200 9.196796
53.205 9.45677
53.210 9.59763
53.215 9.612508
53.220 9.264851
53.225 9.434422
53.230 9.363148
53.235 9.096831
53.240 9.111861
53.245 8.978805
53.250 8.890576
53.255 9.389785
53.260 9.469356
53.265 9.913442
53.270 10.33854
53.275 10.328244
53.280 10.408875
53.285 10.331326
53.290 10.412253
53.295 10.436974
53.300 10.314018
53.305 9.744783
53.310 9.625029
53.315 9.715512
53.320 9.594003
53.325 9.612346
53.330 9.461354
53.335 9.599845
53.340 9.784898
53.345 9.778557
53.350 10.10804
53.355 10.02259
53.360 10.181835
53.365 10.502622
53.370 10.922571
53.375 11.28206
53.380 10.951283
53.385 10.952271
53.390 11.00553
53.395 10.588188
53.400 10.152613
53.405 9.577838
53.410 9.770765
53.415 10.242579
53.420 10.062642
53.425 10.348025
53.430 10.729123
53.435 11.100918
53.440 11.376053
53.445 11.290763
53.450 11.355906
53.455 11.851061
53.460 11.798532
53.465 11.476521
53.470 11.206229
53.475 10.809703
53.480 10.600692
53.485 10.289073
53.490 9.732319
53.495 9.569998
53.500 9.780069
53.505 9.732895
53.510 9.957503
53.515 9.853011
53.520 9.630652
53.525 9.669285
53.530 9.887293
53.535 9.984358
53.540 9.665112
53.545 9.724705
53.550 10.424056
53.555 10.37012
53.560 9.944498
53.565 9.827542
53.570 9.632843
53.575 10.250804
53.580 10.027761
53.585 9.612363
53.590 10.063751
53.595 10.123322
53.600 10.17135
53.605 10.259661
53.610 10.173592
53.615 10.279794
53.620 10.239632
53.625 10.015767
53.630 10.304873
53.635 10.290294
53.640 10.201345
53.645 9.999405
53.650 9.99531
53.655 10.039347
53.660 10.403063
53.665 10.386831
53.670 10.647351
53.675 10.939898
53.680 10.839342
53.685 10.876334
53.690 11.071604
53.695 11.534635
53.700 11.953754
53.705 11.969437
53.710 11.950701
53.715 11.929988
53.720 12.057591
53.725 11.966206
53.730 11.4289
53.735 10.712019
53.740 10.209214
53.745 10.227962
53.750 10.355433
53.755 10.226698
53.760 10.213732
53.765 10.370918
53.770 10.612129
53.775 10.706333
53.780 10.840934
53.785 10.532829
53.790 10.685749
53.795 10.784937
53.800 11.484997
53.805 11.606557
53.810 11.679904
53.815 11.694352
53.820 11.76469
53.825 11.508869
53.830 10.506223
53.835 10.199826
53.840 9.853088
53.845 9.833907
53.850 9.635517
53.855 9.688493
53.860 9.832143
53.865 9.538352
53.870 9.284714
53.875 9.405295
53.880 9.604589
53.885 10.02063
53.890 10.170055
53.895 10.487623
53.900 10.970836
53.905 10.989304
53.910 10.984969
53.915 10.900916
53.920 10.538153
53.925 10.5287
53.930 10.254974
53.935 10.414452
53.940 10.555719
53.945 10.145293
53.950 10.190941
53.955 10.404945
53.960 10.51735
53.965 10.83017
53.970 11.380893
53.975 11.623668
53.980 12.074261
53.985 11.649708
53.990 11.314255
53.995 10.811633
54.000 10.609715
54.005 10.566186
54.010 10.48932
54.015 10.77805
54.020 11.480329
54.025 11.541466
54.030 11.81214
54.035 11.857698
54.040 11.905063
54.045 11.976915
54.050 11.273856
54.055 11.06391
54.060 11.219614
54.065 11.182325
54.070 10.93282
54.075 10.797606
54.080 11.390091
54.085 11.947084
54.090 11.263821
54.095 10.783912
54.100 10.27205
54.105 10.463571
54.110 10.529986
54.115 9.687729
54.120 9.468245
54.125 10.396958
54.130 11.09445
54.135 11.668278
54.140 11.243162
54.145 10.649196
54.150 10.49386
54.155 10.188308
54.160 10.391939
54.165 10.246823
54.170 10.050832
54.175 10.394863
54.180 10.7128
54.185 11.060657
54.190 11.063539
54.195 11.011767
54.200 11.453876
54.205 11.694813
54.210 11.439362
54.215 11.313092
54.220 11.159873
54.225 10.854331
54.230 10.941629
54.235 10.522977
54.240 10.171809
54.245 10.286836
54.250 10.654765
54.255 10.767625
54.260 10.687591
54.265 10.716385
54.270 11.038145
54.275 11.399017
54.280 11.881466
54.285 12.066337
54.290 12.262341
54.295 12.484335
54.300 12.32463
54.305 12.172295
54.310 12.259173
54.315 11.608401
54.320 11.437347
54.325 11.466347
54.330 11.282164
54.335 11.021149
54.340 11.104026
54.345 11.227436
54.350 11.658371
54.355 11.199274
54.360 11.031676
54.365 10.690306
54.370 10.571491
54.375 10.19628
54.380 9.857533
54.385 9.934043
54.390 10.449095
54.395 10.515813
54.400 10.844115
54.405 10.889031
54.410 11.125514
54.415 11.0724
54.420 10.652863
54.425 10.443439
54.430 10.304826
54.435 10.274922
54.440 10.360394
54.445 10.392266
54.450 10.833698
54.455 11.063311
54.460 11.41686
54.465 11.743138
54.470 11.943594
54.475 12.151837
54.480 12.051744
54.485 11.779446
54.490 11.694312
54.495 11.548568
54.500 11.260726
54.505 10.848058
54.510 11.088189
54.515 10.902766
54.520 10.850569
54.525 11.151143
54.530 11.467261
54.535 11.444125
54.540 11.481212
54.545 11.432368
54.550 12.156217
54.555 12.284285
54.560 11.745563
54.565 11.491517
54.570 11.739525
54.575 11.479541
54.580 11.29989
54.585 10.858087
54.590 10.755899
54.595 10.698106
54.600 10.47899
54.605 10.524319
54.610 10.986079
54.615 11.121937
54.620 11.195226
54.625 11.434178
54.630 11.442678
54.635 11.372713
54.640 11.354581
54.645 11.080758
54.650 10.712422
54.655 10.478245
54.660 10.413715
54.665 10.137034
54.670 9.739113
54.675 9.889331
54.680 10.147881
54.685 10.825077
54.690 10.693448
54.695 10.194951
54.700 10.513731
54.705 10.226115
54.710 9.764187
54.715 9.534733
54.720 9.390485
54.725 9.975428
54.730 10.42491
54.735 10.750721
54.740 11.541802
54.745 11.651541
54.750 11.315983
54.755 11.477942
54.760 11.556203
54.765 11.658668
54.770 11.938291
54.775 11.791471
54.780 11.786771
54.785 11.839507
54.790 11.68092
54.795 11.922815
54.800 11.717181
54.805 11.793065
54.810 11.861616
54.815 11.511356
54.820 11.229239
54.825 11.278615
54.830 10.783241
54.835 11.202179
54.840 10.608762
54.845 10.438643
54.850 11.084695
54.855 11.090146
54.860 11.62361
54.865 11.61978
54.870 11.805281
54.875 12.436862
54.880 12.73956
54.885 12.701229
54.890 12.633659
54.895 12.045598
54.900 11.955062
54.905 11.170881
54.910 10.703512
54.915 10.777905
54.920 10.914616
54.925 10.787497
54.930 10.496698
54.935 10.622499
54.940 10.576863
54.945 10.467363
54.950 9.50352
54.955 9.079496
54.960 9.649567
54.965 9.581878
54.970 9.755289
54.975 10.295088
54.980 11.000387
54.985 12.228236
54.990 13.11673
54.995 13.369271
55.000 13.641664
55.005 13.318096
55.010 13.10746
55.015 13.014998
55.020 12.142041
55.025 11.607968
55.030 11.299156
55.035 11.318423
55.040 11.269033
55.045 11.237949
55.050 11.324631
55.055 11.629937
55.060 11.443912
55.065 11.377367
55.070 11.945836
55.075 12.314305
55.080 12.24371
55.085 12.387239
55.090 11.943748
55.095 11.949163
55.100 11.931297
55.105 11.817752
55.110 11.841431
55.115 11.827403
55.120 11.298549
55.125 11.697539
55.130 11.752064
55.135 11.534073
55.140 11.601251
55.145 12.149536
55.150 12.332225
55.155 12.598862
55.160 12.328371
55.165 12.52073
55.170 12.570016
55.175 12.146852
55.180 11.844677
55.185 12.268581
55.190 12.856648
55.195 13.096349
55.200 13.371192
55.205 13.18317
55.210 12.793167
55.215 12.38499
55.220 11.990421
55.225 11.628775
55.230 10.821609
55.235 10.668509
55.240 11.270535
55.245 11.679379
55.250 11.77
55.255 11.699082
55.260 12.430435
55.265 13.111613
55.270 12.941496
55.275 12.743808
55.280 12.633807
55.285 12.349728
55.290 11.972371
55.295 11.656708
55.300 11.511574
55.305 11.469361
55.310 11.498418
55.315 11.686194
55.320 11.901504
55.325 12.497857
55.330 12.695624
55.335 12.636378
55.340 12.422935
55.345 12.446804
55.350 12.347943
55.355 12.723876
55.360 12.522519
55.365 12.027227
55.370 12.309174
55.375 12.620438
55.380 12.497713
55.385 12.365459
55.390 11.910295
55.395 11.810258
55.400 11.922117
55.405 11.869552
55.410 11.922378
55.415 11.800372
55.420 11.685729
55.425 11.300666
55.430 10.958143
55.435 11.202281
55.440 11.123564
55.445 11.075809
55.450 10.888825
55.455 11.036938
55.460 11.928614
55.465 12.812591
55.470 13.069786
55.475 12.861863
55.480 12.755594
55.485 13.098874
55.490 13.051969
55.495 12.969078
55.500 12.373896
55.505 12.059447
55.510 12.174355
55.515 12.568909
55.520 12.885671
55.525 12.912421
55.530 12.402582
55.535 12.398952
55.540 12.444805
55.545 12.364028
55.550 12.062511
55.555 11.945906
55.560 11.969993
55.565 12.044215
55.570 12.304054
55.575 12.590405
55.580 12.421242
55.585 12.519365
55.590 12.219835
55.595 12.467013
55.600 12.67725
55.605 12.420739
55.610 12.718791
55.615 12.690242
55.620 12.494502
55.625 12.960711
55.630 12.646693
55.635 12.170834
55.640 12.273274
55.645 12.205421
55.650 12.252544
55.655 12.182071
55.660 12.154433
55.665 12.220724
55.670 12.608893
55.675 12.280465
55.680 11.62415
55.685 11.51511
55.690 11.474669
55.695 10.874861
55.700 10.540457
55.705 10.380072
55.710 10.391589
55.715 10.836806
55.720 11.147738
55.725 11.415333
55.730 11.79496
55.735 12.388263
55.740 12.498699
55.745 12.478601
55.750 12.711177
55.755 12.516545
55.760 12.098724
55.765 11.94989
55.770 11.190598
55.775 11.201856
55.780 11.956124
55.785 11.97334
55.790 12.280992
55.795 12.329174
55.800 11.820943
55.805 12.144961
55.810 12.460716
55.815 12.155372
55.820 12.233241
55.825 12.418117
55.830 12.908274
55.835 13.660801
55.840 13.591458
55.845 13.890164
55.850 13.874599
55.855 13.331909
55.860 12.761614
55.865 12.327036
55.870 12.615378
55.875 12.963518
55.880 12.480694
55.885 12.86133
55.890 13.148065
55.895 13.626143
55.900 13.989941
55.905 14.101173
55.910 14.00749
55.915 13.953149
55.920 13.745275
55.925 13.803912
55.930 13.452657
55.935 13.285618
55.940 12.886347
55.945 12.935301
55.950 13.13656
55.955 13.2622
55.960 12.608162
55.965 12.886555
55.970 12.767968
55.975 12.061613
55.980 11.929315
55.985 11.678098
55.990 11.612295
55.995 11.968308
56.000 12.213857
56.005 12.835605
56.010 13.042773
56.015 12.581441
56.020 12.685719
56.025 12.929759
56.030 13.218818
56.035 13.030646
56.040 12.744533
56.045 13.071859
56.050 12.896735
56.055 12.32434
56.060 12.010811
56.065 11.747673
56.070 11.623834
56.075 11.66538
56.080 11.711104
56.085 11.675542
56.090 11.839956
56.095 12.453293
56.100 12.533751
56.105 12.422801
56.110 12.716541
56.115 12.964465
56.120 12.971863
56.125 13.071282
56.130 12.749079
56.135 13.090478
56.140 13.42105
56.145 12.30344
56.150 12.205903
56.155 12.636998
56.160 12.503698
56.165 12.21421
56.170 12.288175
56.175 11.843225
56.180 12.865428
56.185 13.506735
56.190 13.484519
56.195 13.676429
56.200 14.15
56.205 13.825219
56.210 14.310456
56.215 14.006357
56.220 13.50407
56.225 13.201556
56.230 12.957325
56.235 12.906676
56.240 13.303799
56.245 13.93469
56.250 14.517363
56.255 14.947868
56.260 15.546163
56.265 15.681959
56.270 15.297913
56.275 14.77673
56.280 13.847389
56.285 13.317674
56.290 13.288372
56.295 12.984562
56.300 12.986693
56.305 13.042738
56.310 13.111237
56.315 13.25025
56.320 12.751153
56.325 13.044071
56.330 13.249522
56.335 13.260825
56.340 13.337716
56.345 13.21489
56.350 12.957535
56.355 13.012046
56.360 12.220842
56.365 12.27842
56.370 12.746924
56.375 13.25067
56.380 13.76518
56.385 14.153419
56.390 14.418244
56.395 14.502378
56.400 14.191099
56.405 13.757778
56.410 13.652645
56.415 13.968172
56.420 14.039184
56.425 13.962594
56.430 14.145454
56.435 14.461249
56.440 14.524078
56.445 13.992432
56.450 13.398377
56.455 13.283514
56.460 13.531754
56.465 13.066167
56.470 12.620319
56.475 12.293416
56.480 12.341916
56.485 12.299351
56.490 12.756483
56.495 12.797125
56.500 13.252494
56.505 13.34868
56.510 13.34558
56.515 13.138121
56.520 13.305524
56.525 12.619965
56.530 12.422141
56.535 12.354939
56.540 12.764836
56.545 12.977603
56.550 13.156586
56.555 13.205626
56.560 13.481174
56.565 13.175365
56.570 12.68218
56.575 11.83532
56.580 11.666353
56.585 11.677637
56.590 11.71371
56.595 11.814675
56.600 12.038763
56.605 12.574667
56.610 12.969254
56.615 13.459356
56.620 13.514245
56.625 13.903897
56.630 14.223606
56.635 14.458762
56.640 14.3461
56.645 14.578318
56.650 14.283916
56.655 14.332677
56.660 14.289027
56.665 14.777363
56.670 14.991629
56.675 15.587943
56.680 15.622466
56.685 15.449445
56.690 15.229293
56.695 14.288064
56.700 14.136289
56.705 14.4942
56.710 14.451429
56.715 14.400516
56.720 14.649961
56.725 14.813359
56.730 14.767647
56.735 14.160799
56.740 13.787039
56.745 13.605901
56.750 13.595664
56.755 13.739785
56.760 13.990791
56.765 14.299002
56.770 14.570551
56.775 14.27561
56.780 14.204428
56.785 14.197043
56.790 13.688138
56.795 13.579541
56.800 14.020931
56.805 14.033295
56.810 14.37344
56.815 14.44174
56.820 14.470312
56.825 14.591258
56.830 14.36836
56.835 14.012185
56.840 13.788803
56.845 13.835361
56.850 13.960935
56.855 14.028831
56.860 13.935566
56.865 14.269095
56.870 14.549689
56.875 14.028221
56.880 13.331225
56.885 13.138054
56.890 13.128709
56.895 13.36504
56.900 13.179786
56.905 13.561128
56.910 14.208446
56.915 14.300295
56.920 14.411914
56.925 14.895833
56.930 15.035125
56.935 15.370323
56.940 15.047267
56.945 15.039215
56.950 15.335005
56.955 15.15867
56.960 14.645706
56.965 14.185785
56.970 13.854387
56.975 14.247355
56.980 13.98395
56.985 14.238605
56.990 14.613213
56.995 15.388095
57.000 15.697207
57.005 15.572084
57.010 15.58691
57.015 15.763752
57.020 15.33333
57.025 14.800673
57.030 13.893074
57.035 13.696403
57.040 13.540724
57.045 13.747252
57.050 14.387085
57.055 14.95373
57.060 15.073212
57.065 14.975033
57.070 14.673824
57.075 14.87686
57.080 14.493534
57.085 13.979074
57.090 13.472524
57.095 13.338026
57.100 14.09498
57.105 14.59511
57.110 14.604482
57.115 14.671883
57.120 14.8916
57.125 15.351525
57.130 15.730566
57.135 15.470171
57.140 15.164409
57.145 14.732289
57.150 13.885448
57.155 13.622238
57.160 13.310641
57.165 13.09016
57.170 13.372909
57.175 13.623678
57.180 13.843637
57.185 14.591636
57.190 14.834403
57.195 14.881059
57.200 15.03502
57.205 15.167556
57.210 15.650738
57.215 15.434419
57.220 14.946874
57.225 14.64299
57.230 14.605394
57.235 14.820011
57.240 14.895003
57.245 14.576429
57.250 14.749145
57.255 15.087758
57.260 15.148734
57.265 15.402444
57.270 15.510365
57.275 15.04048
57.280 15.357002
57.285 15.305346
57.290 15.441313
57.295 15.708209
57.300 15.687141
57.305 15.762612
57.310 15.605251
57.315 15.517558
57.320 15.933753
57.325 16.340963
57.330 16.684048
57.335 16.82494
57.340 16.594999
57.345 16.668047
57.350 16.728346
57.355 16.574345
57.360 16.524567
57.365 16.565882
57.370 16.576962
57.375 17.024328
57.380 17.392256
57.385 17.295391
57.390 17.029436
57.395 16.850142
57.400 16.441847
57.405 15.89664
57.410 15.292102
57.415 14.892627
57.420 14.597859
57.425 14.328279
57.430 14.31935
57.435 14.75811
57.440 15.390215
57.445 15.443061
57.450 15.669065
57.455 16.006523
57.460 16.144012
57.465 16.005795
57.470 15.945989
57.475 15.84748
57.480 15.982705
57.485 16.131586
57.490 16.195349
57.495 16.517017
57.500 17.081921
57.505 16.76082
57.510 16.428659
57.515 16.253006
57.520 15.927021
57.525 15.885311
57.530 15.201377
57.535 14.35168
57.540 14.364677
57.545 14.746165
57.550 15.19178
57.555 15.194437
57.560 15.236502
57.565 15.718466
57.570 15.928115
57.575 15.87903
57.580 15.56229
57.585 15.288262
57.590 15.461404
57.595 15.443019
57.600 15.985937
57.605 15.824286
57.610 15.826476
57.615 15.907097
57.620 16.093277
57.625 16.438839
57.630 16.146635
57.635 15.697746
57.640 16.045326
57.645 16.492178
57.650 16.526318
57.655 16.130529
57.660 15.705511
57.665 15.369518
57.670 15.02418
57.675 15.014302
57.680 14.36471
57.685 14.067913
57.690 13.908187
57.695 14.066422
57.700 14.457479
57.705 14.267131
57.710 14.051117
57.715 14.201547
57.720 14.291786
57.725 14.622094
57.730 14.581953
57.735 14.242859
57.740 14.448115
57.745 14.42999
57.750 14.725564
57.755 14.848213
57.760 14.700039
57.765 14.153147
57.770 14.462811
57.775 15.013162
57.780 15.223613
57.785 15.453084
57.790 15.801245
57.795 16.281908
57.800 16.903107
57.805 17.204012
57.810 16.951876
57.815 16.676535
57.820 15.957969
57.825 15.320802
57.830 15.160449
57.835 14.919261
57.840 14.364419
57.845 14.154102
57.850 14.387165
57.855 15.417808
57.860 15.930302
57.865 16.373699
57.870 16.87224
57.875 17.315371
57.880 17.540779
57.885 17.155954
57.890 16.705971
57.895 16.574326
57.900 16.243095
57.905 16.091753
57.910 15.041747
57.915 15.483695
57.920 16.103138
57.925 16.529463
57.930 16.611998
57.935 16.741518
57.940 16.476561
57.945 16.432501
57.950 15.99319
57.955 15.273911
57.960 14.933729
57.965 14.549161
57.970 14.103149
57.975 14.785532
57.980 15.592503
57.985 15.699391
57.990 15.770413
57.995 15.765852
58.000 16.20878
58.005 16.410139
58.010 16.169365
58.015 16.203709
58.020 15.816418
58.025 15.898788
58.030 15.825872
58.035 15.29168
58.040 14.797726
58.045 14.686893
58.050 14.51857
58.055 15.042444
58.060 15.433068
58.065 15.962468
58.070 16.680639
58.075 18.443794
58.080 18.532406
58.085 18.274588
58.090 18.301649
58.095 18.048786
58.100 17.805424
58.105 17.4189
58.110 16.601879
58.115 16.636547
58.120 17.324329
58.125 17.239357
58.130 17.268654
58.135 17.291103
58.140 17.35076
58.145 17.578279
58.150 17.26523
58.155 17.230974
58.160 17.225763
58.165 17.913092
58.170 18.354275
58.175 18.424772
58.180 18.458241
58.185 19.679543
58.190 19.861546
58.195 19.967024
58.200 19.511961
58.205 20.103706
58.210 20.909304
58.215 20.983521
58.220 20.483561
58.225 20.577391
58.230 20.752478
58.235 20.790022
58.240 19.992626
58.245 19.411106
58.250 18.640366
58.255 18.302219
58.260 18.630592
58.265 18.527641
58.270 18.890696
58.275 18.995441
58.280 19.439503
58.285 20.301447
58.290 20.041925
58.295 19.969679
58.300 20.38064
58.305 20.631723
58.310 21.156952
58.315 21.523487
58.320 21.693419
58.325 21.972639
58.330 21.773697
58.335 21.784912
58.340 21.878763
58.345 21.555655
58.350 21.890291
58.355 22.353371
58.360 22.916761
58.365 23.094614
58.370 22.982162
58.375 22.628149
58.380 22.206627
58.385 22.378721
58.390 21.956251
58.395 21.602018
58.400 21.921761
58.405 21.62973
58.410 21.480146
58.415 21.703981
58.420 21.515823
58.425 22.22197
58.430 22.453129
58.435 22.346542
58.440 23.253782
58.445 24.311316
58.450 24.568743
58.455 24.471807
58.460 24.290318
58.465 24.869577
58.470 24.922287
58.475 24.229641
58.480 23.973368
58.485 24.430067
58.490 24.246443
58.495 23.92115
58.500 23.515923
58.505 22.980268
58.510 23.147726
58.515 22.940805
58.520 22.493706
58.525 22.482611
58.530 22.443087
58.535 22.861206
58.540 23.869577
58.545 24.157713
58.550 24.189354
58.555 24.097996
58.560 24.32111
58.565 24.630625
58.570 24.193968
58.575 23.664684
58.580 23.256001
58.585 23.128508
58.590 23.463772
58.595 23.525927
58.600 23.901865
58.605 24.27804
58.610 24.521391
58.615 24.687845
58.620 24.318928
58.625 23.954973
58.630 24.025221
58.635 23.894112
58.640 23.491228
58.645 23.504414
58.650 24.016476
58.655 24.492407
58.660 25.147392
58.665 25.018375
58.670 25.008467
58.675 24.792303
58.680 24.422222
58.685 23.681293
58.690 23.702671
58.695 23.796591
58.700 23.94239
58.705 23.148285
58.710 22.835815
58.715 23.055609
58.720 22.965385
58.725 22.815327
58.730 22.079018
58.735 22.066648
58.740 23.104261
58.745 23.832663
58.750 23.353411
58.755 23.551666
58.760 23.630156
58.765 23.273506
58.770 23.056612
58.775 22.483973
58.780 22.280128
58.785 22.353781
58.790 21.531313
58.795 20.959827
58.800 21.167318
58.805 20.783321
58.810 20.411676
58.815 20.185469
58.820 20.40152
58.825 21.30806
58.830 21.397137
58.835 20.68681
58.840 20.872946
58.845 20.944408
58.850 21.381819
58.855 21.082314
58.860 20.854103
58.865 20.970392
58.870 21.658953
58.875 22.103432
58.880 22.269743
58.885 22.345495
58.890 22.769646
58.895 23.233049
58.900 23.740492
58.905 23.25828
58.910 22.710686
58.915 22.284403
58.920 22.13559
58.925 21.96821
58.930 21.601042
58.935 21.348549
58.940 21.831085
58.945 22.075588
58.950 22.103123
58.955 21.44305
58.960 21.48584
58.965 20.902201
58.970 20.554548
58.975 19.925005
58.980 19.540859
58.985 19.581938
58.990 19.660473
58.995 19.585854
59.000 20.139368
59.005 19.789688
59.010 20.340292
59.015 20.549578
59.020 20.588575
59.025 20.361927
59.030 19.887699
59.035 19.480606
59.040 20.22839
59.045 20.092731
59.050 20.271233
59.055 20.376892
59.060 20.720621
59.065 20.724581
59.070 20.337933
59.075 20.029905
59.080 20.110498
59.085 19.628679
59.090 19.547792
59.095 19.588583
59.100 20.22718
59.105 20.25701
59.110 19.875439
59.115 19.667423
59.120 19.211838
59.125 18.969555
59.130 18.838499
59.135 18.737587
59.140 19.184172
59.145 19.554623
59.150 19.236092
59.155 20.267218
59.160 20.485579
59.165 21.32461
59.170 21.683342
59.175 22.083258
59.180 21.600155
59.185 21.734058
59.190 21.201057
59.195 20.632257
59.200 19.702244
59.205 19.379513
59.210 19.035854
59.215 19.314693
59.220 19.25934
59.225 19.583652
59.230 20.062738
59.235 20.11372
59.240 19.796698
59.245 19.033684
59.250 18.293343
59.255 18.174986
59.260 18.029936
59.265 17.446962
59.270 17.251982
59.275 17.200415
59.280 17.583765
59.285 17.74572
59.290 17.994503
59.295 18.027534
59.300 18.422451
59.305 18.546591
59.310 18.394281
59.315 18.443199
59.320 19.231333
59.325 19.518305
59.330 19.066011
59.335 18.901518
59.340 19.05064
59.345 19.558828
59.350 20.092506
59.355 19.825533
59.360 19.036615
59.365 18.981112
59.370 19.474854
59.375 19.468925
59.380 19.176495
59.385 18.697374
59.390 18.835913
59.395 19.2202
59.400 19.305893
59.405 18.771584
59.410 18.942356
59.415 19.305237
59.420 19.432869
59.425 18.87463
59.430 18.751181
59.435 18.737885
59.440 19.1637
59.445 19.294207
59.450 19.349634
59.455 19.457058
59.460 19.564203
59.465 19.229752
59.470 19.404345
59.475 19.068317
59.480 18.592913
59.485 17.962906
59.490 18.177668
59.495 19.026819
59.500 19.533718
59.505 19.649647
59.510 19.472145
59.515 19.731644
59.520 20.140629
59.525 19.396132
59.530 19.090023
59.535 18.737677
59.540 18.683552
59.545 18.909267
59.550 18.75757
59.555 18.446609
59.560 18.157822
59.565 18.158756
59.570 17.963093
59.575 18.010416
59.580 18.221848
59.585 17.973135
59.590 18.208143
59.595 18.841806
59.600 18.803787
59.605 18.971254
59.610 18.401665
59.615 17.730751
59.620 17.809664
59.625 18.080635
59.630 18.350225
59.635 18.989912
59.640 19.304241
59.645 20.179276
59.650 21.011391
59.655 20.721725
59.660 20.299124
59.665 19.889278
59.670 19.150408
59.675 19.074707
59.680 18.57159
59.685 18.3514
59.690 18.734333
59.695 18.985451
59.700 19.162739
59.705 18.898006
59.710 18.661972
59.715 18.74682
59.720 18.72423
59.725 18.326073
59.730 17.993099
59.735 17.933355
59.740 18.183395
59.745 17.935377
59.750 17.516504
59.755 17.667757
59.760 17.769104
59.765 17.652929
59.770 17.589705
59.775 17.354548
59.780 17.535173
59.785 17.61562
59.790 17.288942
59.795 17.570234
59.800 17.454903
59.805 17.727676
59.810 17.874901
59.815 17.895903
59.820 17.926769
59.825 18.121651
59.830 18.143124
59.835 18.069427
59.840 17.793394
59.845 18.059181
59.850 17.897572
59.855 17.627264
59.860 16.979179
59.865 16.659843
59.870 16.596344
59.875 16.559351
59.880 16.704254
59.885 16.449263
59.890 17.094934
59.895 17.369101
59.900 17.403248
59.905 17.586172
59.910 17.724455
59.915 17.334885
59.920 17.09367
59.925 16.784826
59.930 17.046856
59.935 17.341133
59.940 17.09337
59.945 16.056391
59.950 15.688217
59.955 16.46446
59.960 16.25918
59.965 16.224358
59.970 16.287231
59.975 16.136335
59.980 16.856789
59.985 17.265202
59.990 16.996834
59.995 17.434772
60.000 17.319408
60.005 17.689625
60.010 18.053926
60.015 18.093945
60.020 18.304943
60.025 18.758677
60.030 19.011711
60.035 19.003685
60.040 18.79899
60.045 18.938435
60.050 18.88768
60.055 18.568575
60.060 17.781775
60.065 17.353666
60.070 17.215237
60.075 16.414595
60.080 16.217867
60.085 17.092167
60.090 17.935286
60.095 18.263126
60.100 18.000355
60.105 18.416523
60.110 19.136438
60.115 18.591915
60.120 17.654587
60.125 16.755098
60.130 16.484045
60.135 16.935829
60.140 16.669348
60.145 16.918699
60.150 17.656811
60.155 17.973337
60.160 18.366629
60.165 19.029621
60.170 19.138985
60.175 19.348194
60.180 19.222052
60.185 19.485163
60.190 19.505274
60.195 18.810326
60.200 17.826372
60.205 17.366848
60.210 17.688852
60.215 17.48167
60.220 16.505032
60.225 16.158199
60.230 16.518774
60.235 17.072184
60.240 17.113853
60.245 16.628651
60.250 16.468054
60.255 16.676861
60.260 16.446194
60.265 16.580153
60.270 16.457745
60.275 16.403254
60.280 16.195744
60.285 16.530941
60.290 16.298122
60.295 16.151964
60.300 15.880215
60.305 16.012266
60.310 15.851776
60.315 16.172848
60.320 16.238367
60.325 16.381989
60.330 16.873272
60.335 17.17639
60.340 17.349396
60.345 17.677483
60.350 17.5103
60.355 17.435789
60.360 17.453875
60.365 17.338783
60.370 16.950331
60.375 16.316366
60.380 15.978022
60.385 16.228502
60.390 16.534086
60.395 16.795004
60.400 16.498569
60.405 16.693897
60.410 16.891264
60.415 17.056993
60.420 16.834763
60.425 16.269667
60.430 16.170805
60.435 16.411003
60.440 16.35531
60.445 16.576342
60.450 16.565987
60.455 16.61622
60.460 17.076523
60.465 17.201729
60.470 17.738668
60.475 18.191536
60.480 18.153702
60.485 18.327944
60.490 18.5469
60.495 18.399929
60.500 18.360582
60.505 18.225595
60.510 18.340092
60.515 18.27021
60.520 17.775965
60.525 17.537254
60.530 16.828918
60.535 16.602619
60.540 16.182648
60.545 15.274278
60.550 15.282283
60.555 15.260353
60.560 15.284262
60.565 16.32317
60.570 16.719917
60.575 16.773041
60.580 17.381353
60.585 17.286819
60.590 17.907324
60.595 18.337057
60.600 17.746944
60.605 17.300886
60.610 17.046223
60.615 17.072187
60.620 17.447828
60.625 16.727036
60.630 15.969983
60.635 15.764123
60.640 16.212299
60.645 16.340326
60.650 16.248116
60.655 16.347246
60.660 16.578432
60.665 16.531357
60.670 16.46843
60.675 16.226879
60.680 15.790994
60.685 14.889366
60.690 13.980788
60.695 14.15152
60.700 14.541627
60.705 14.802683
60.710 14.9192
60.715 15.095116
60.720 15.670506
60.725 16.236708
60.730 16.235523
60.735 15.937401
60.740 16.235054
60.745 16.468216
60.750 16.936565
60.755 17.044092
60.760 17.065203
60.765 17.173561
60.770 17.179033
60.775 16.843657
60.780 16.836058
60.785 16.340769
60.790 15.93459
60.795 16.077145
60.800 16.599857
60.805 16.814692
60.810 16.549871
60.815 16.101282
60.820 16.095024
60.825 16.453892
60.830 15.723566
60.835 14.929166
60.840 15.186947
60.845 15.862393
60.850 16.651041
60.855 17.041595
60.860 17.071615
60.865 17.495537
60.870 17.717884
60.875 17.4909
60.880 17.043087
60.885 17.0711
60.890 17.215105
60.895 16.955566
60.900 16.997711
60.905 16.490208
60.910 16.154327
60.915 15.98653
60.920 15.682461
60.925 15.60146
60.930 15.810892
60.935 15.911505
60.940 16.116858
60.945 15.879295
60.950 16.068176
60.955 15.992314
60.960 15.91191
60.965 15.910124
60.970 15.803986
60.975 16.134424
60.980 16.476061
60.985 16.497232
60.990 16.829344
60.995 16.922302
61.000 17.184286
61.005 16.834909
61.010 16.813126
61.015 17.158213
61.020 16.893192
61.025 16.92923
61.030 16.909523
61.035 16.273987
61.040 16.390133
61.045 16.185225
61.050 15.952887
61.055 16.352001
61.060 15.821745
61.065 15.958676
61.070 16.823076
61.075 17.49935
61.080 17.658291
61.085 17.47167
61.090 16.816301
61.095 16.485806
61.100 16.329359
61.105 15.630475
61.110 15.070709
61.115 15.334283
61.120 15.401931
61.125 15.771891
61.130 16.338667
61.135 16.160269
61.140 16.850832
61.145 17.145937
61.150 16.917074
61.155 16.709911
61.160 16.190033
61.165 16.061132
61.170 16.130114
61.175 15.795762
61.180 15.651657
61.185 15.857198
61.190 16.385519
61.195 16.780153
61.200 17.346004
61.205 17.545439
61.210 17.576487
61.215 17.653294
61.220 17.497337
61.225 17.720505
61.230 17.634233
61.235 17.049408
61.240 16.71496
61.245 16.526073
61.250 16.55615
61.255 16.62875
61.260 16.559416
61.265 16.813715
61.270 16.805868
61.275 17.330275
61.280 17.834742
61.285 18.040182
61.290 18.033228
61.295 18.186947
61.300 18.530947
61.305 19.218317
61.310 18.872711
61.315 18.592913
61.320 18.938112
61.325 19.249207
61.330 18.63736
61.335 17.959681
61.340 17.889477
61.345 17.881319
61.350 17.391922
61.355 17.347279
61.360 17.551153
61.365 18.1576
61.370 18.464951
61.375 17.743654
61.380 17.632923
61.385 17.528162
61.390 16.653767
61.395 15.558817
61.400 15.09536
61.405 14.992629
61.410 15.243347
61.415 15.28739
61.420 15.129977
61.425 15.284565
61.430 15.36316
61.435 15.1154
61.440 14.82257
61.445 14.71258
61.450 14.756119
61.455 15.114086
61.460 15.15835
61.465 15.857876
61.470 16.736748
61.475 17.146646
61.480 17.886747
61.485 18.196056
61.490 17.964565
61.495 17.86146
61.500 16.926027
61.505 16.717798
61.510 16.298433
61.515 15.808971
61.520 15.951172
61.525 16.090242
61.530 16.739666
61.535 17.398993
61.540 16.980383
61.545 17.407053
61.550 17.861755
61.555 17.922695
61.560 17.98241
61.565 18.044758
61.570 18.300379
61.575 18.76008
61.580 18.73609
61.585 18.312532
61.590 18.257042
61.595 17.935534
61.600 17.277647
61.605 17.208338
61.610 17.490995
61.615 17.174217
61.620 16.663013
61.625 16.760595
61.630 16.561071
61.635 17.085327
61.640 17.38792
61.645 17.629225
61.650 17.976507
61.655 18.357376
61.660 18.350101
61.665 18.617403
61.670 18.018332
61.675 17.59392
61.680 17.133278
61.685 16.93317
61.690 16.85412
61.695 17.202215
61.700 17.74412
61.705 17.899769
61.710 17.463058
61.715 17.564413
61.720 17.63092
61.725 17.542936
61.730 17.151287
61.735 16.782887
61.740 17.219538
61.745 17.882439
61.750 17.790565
61.755 18.124134
61.760 18.468506
61.765 18.54771
61.770 18.900743
61.775 18.997574
61.780 18.539955
61.785 18.124117
61.790 17.790249
61.795 17.824696
61.800 18.233221
61.805 17.852108
61.810 17.621349
61.815 17.818687
61.820 18.195131
61.825 18.394026
61.830 17.978424
61.835 17.699286
61.840 17.596117
61.845 17.323149
61.850 17.200075
61.855 17.317171
61.860 17.30249
61.865 17.444746
61.870 17.087614
61.875 17.520828
61.880 17.787992
61.885 18.320065
61.890 18.413668
61.895 17.843428
61.900 17.799931
61.905 17.412458
61.910 17.219833
61.915 17.280615
61.920 17.305729
61.925 17.4079
61.930 17.221535
61.935 17.22751
61.940 17.549915
61.945 17.631849
61.950 17.655558
61.955 17.483521
61.960 17.011551
61.965 16.863605
61.970 16.992472
61.975 17.386251
61.980 17.030811
61.985 16.525896
61.990 16.563154
61.995 17.120609
62.000 17.983883
62.005 17.896393
62.010 17.7927
62.015 17.794323
62.020 17.670336
62.025 17.162498
62.030 16.55603
62.035 15.967794
62.040 15.486217
62.045 15.028971
62.050 15.225821
62.055 15.306726
62.060 15.188983
62.065 15.399554
62.070 15.967826
62.075 16.899824
62.080 17.423016
62.085 17.425201
62.090 17.272097
62.095 17.629866
62.100 17.885088
62.105 17.466288
62.110 17.346672
62.115 17.575506
62.120 17.555847
62.125 17.85877
62.130 17.887775
62.135 17.525331
62.140 17.737747
62.145 17.593767
62.150 17.023882
62.155 16.590277
62.160 16.952114
62.165 17.331264
62.170 18.330471
62.175 18.742001
62.180 18.821358
62.185 18.929953
62.190 18.916441
62.195 18.489126
62.200 17.93264
62.205 17.233488
62.210 16.763273
62.215 16.124098
62.220 16.866377
62.225 17.112143
62.230 17.035347
62.235 17.090805
62.240 17.290186
62.245 17.435684
62.250 17.770594
62.255 17.095472
62.260 17.009697
62.265 16.679136
62.270 16.370584
62.275 15.880507
62.280 15.634792
62.285 15.548349
62.290 15.31218
62.295 15.33952
62.300 15.713269
62.305 16.069984
62.310 16.930952
62.315 16.516981
62.320 16.501183
62.325 17.011782
62.330 17.091312
62.335 17.004631
62.340 16.669338
62.345 16.022497
62.350 16.170729
62.355 16.511297
62.360 16.32966
62.365 16.802227
62.370 17.080872
62.375 17.191891
62.380 17.370089
62.385 17.483513
62.390 17.527674
62.395 17.553389
62.400 16.828552
62.405 16.682535
62.410 16.951572
62.415 17.112692
62.420 17.008022
62.425 17.239916
62.430 17.801577
62.435 18.409325
62.440 18.257605
62.445 18.475163
62.450 18.784758
62.455 18.653776
62.460 18.328588
62.465 17.751274
62.470 17.97723
62.475 18.685892
62.480 18.748617
62.485 18.254179
62.490 18.347422
62.495 18.649527
62.500 18.871286
62.505 18.509245
62.510 17.682215
62.515 16.69945
62.520 16.386656
62.525 16.183826
62.530 15.86572
62.535 16.019615
62.540 15.652205
62.545 15.417078
62.550 15.591394
62.555 16.265472
62.560 16.656973
62.565 16.719521
62.570 16.445408
62.575 16.422539
62.580 16.476831
62.585 16.502907
62.590 15.877964
62.595 15.897511
62.600 15.924438
62.605 15.650624
62.610 15.775258
62.615 15.59674
62.620 15.459076
62.625 15.650144
62.630 15.49318
62.635 15.566963
62.640 16.396181
62.645 16.634365
62.650 16.861906
62.655 16.611679
62.660 16.388922
62.665 16.285795
62.670 16.21908
62.675 16.032167
62.680 15.95093
62.685 16.009451
62.690 17.129356
62.695 17.99366
62.700 18.539255
62.705 18.568468
62.710 19.396423
62.715 19.41173
62.720 19.810976
62.725 19.426212
62.730 19.197424
62.735 18.785683
62.740 19.227386
62.745 18.978107
62.750 19.317835
62.755 19.30308
62.760 20.133965
62.765 20.704487
62.770 20.612749
62.775 19.621456
62.780 19.338285
62.785 19.315876
62.790 19.291061
62.795 18.841501
62.800 18.294016
62.805 18.629393
62.810 18.847849
62.815 18.907326
62.820 19.122938
62.825 18.936708
62.830 18.881132
62.835 18.283148
62.840 17.829357
62.845 18.084305
62.850 17.856113
62.855 17.166428
62.860 17.263313
62.865 16.644485
62.870 16.932804
62.875 17.178556
62.880 16.753164
62.885 16.376274
62.890 16.400576
62.895 16.016439
62.900 16.264692
62.905 16.004536
62.910 15.663859
62.915 15.377372
62.920 15.289813
62.925 15.438115
62.930 15.392734
62.935 15.825555
62.940 16.191294
62.945 16.13092
62.950 16.265619
62.955 16.603271
62.960 16.826416
62.965 16.806549
62.970 15.870691
62.975 15.464437
62.980 15.469264
62.985 15.816042
62.990 15.714305
62.995 15.779743
63.000 16.948629
63.005 17.421021
63.010 17.469858
63.015 17.80088
63.020 18.005013
63.025 18.398109
63.030 18.238255
63.035 17.333574
63.040 16.962349
63.045 17.158598
63.050 17.140759
63.055 17.549982
63.060 17.536396
63.065 17.696228
63.070 17.659611
63.075 18.318018
63.080 18.96023
63.085 19.479559
63.090 19.034029
63.095 19.077398
63.100 19.18293
63.105 19.411657
63.110 19.586279
63.115 19.525156
63.120 18.8379
63.125 18.611254
63.130 18.121918
63.135 17.969646
63.140 18.036196
63.145 17.74349
63.150 17.39583
63.155 17.525928
63.160 18.349743
63.165 19.047354
63.170 19.139809
63.175 19.372921
63.180 20.137829
63.185 20.622883
63.190 20.744488
63.195 20.32596
63.200 20.016325
63.205 19.824493
63.210 19.43648
63.215 18.777617
63.220 18.441664
63.225 17.795773
63.230 17.585426
63.235 17.422636
63.240 17.642815
63.245 18.032635
63.250 17.469727
63.255 17.864477
63.260 18.992439
63.265 19.465734
63.270 19.476191
63.275 19.764223
63.280 20.00913
63.285 20.66897
63.290 20.20055
63.295 19.478952
63.300 19.169891
63.305 18.87042
63.310 18.472401
63.315 18.452055
63.320 18.325647
63.325 18.029722
63.330 17.815727
63.335 17.344666
63.340 17.593287
63.345 17.601957
63.350 17.32889
63.355 17.380697
63.360 17.13201
63.365 17.267374
63.370 17.827919
63.375 18.040459
63.380 18.283184
63.385 18.769648
63.390 19.008879
63.395 19.808268
63.400 19.727224
63.405 19.719275
63.410 19.576969
63.415 19.441235
63.420 19.620672
63.425 19.606808
63.430 19.54682
63.435 19.80687
63.440 19.28606
63.445 18.806213
63.450 18.749794
63.455 18.516239
63.460 18.590631
63.465 18.224939
63.470 18.093075
63.475 18.525623
63.480 19.248997
63.485 18.958061
63.490 18.713261
63.495 18.373255
63.500 18.44096
63.505 18.642042
63.510 18.548544
63.515 17.78927
63.520 17.483103
63.525 17.204535
63.530 17.73107
63.535 17.684498
63.540 17.608347
63.545 17.877069
63.550 18.213566
63.555 18.806759
63.560 19.032999
63.565 18.77631
63.570 18.540857
63.575 18.437212
63.580 18.349812
63.585 17.95186
63.590 17.852753
63.595 17.879326
63.600 18.020254
63.605 18.631775
63.610 19.033552
63.615 19.157385
63.620 20.066498
63.625 19.863773
63.630 19.321474
63.635 19.417576
63.640 19.40715
63.645 19.028284
63.650 18.719131
63.655 18.059561
63.660 18.251249
63.665 18.908646
63.670 19.183943
63.675 19.079851
63.680 19.309677
63.685 20.106712
63.690 20.974863
63.695 21.502541
63.700 20.675598
63.705 20.428082
63.710 19.893341
63.715 20.041803
63.720 19.830458
63.725 19.153103
63.730 19.160229
63.735 19.496885
63.740 19.733318
63.745 20.970825
63.750 20.805706
63.755 20.763403
63.760 21.683344
63.765 22.478277
63.770 22.468834
63.775 21.880222
63.780 21.167343
63.785 20.935745
63.790 20.648819
63.795 19.857262
63.800 19.28064
63.805 19.930567
63.810 19.936106
63.815 19.901035
63.820 19.905622
63.825 19.853027
63.830 20.282675
63.835 21.240559
63.840 21.265484
63.845 21.862715
63.850 22.209986
63.855 22.894772
63.860 23.284967
63.865 23.170345
63.870 22.284615
63.875 22.794239
63.880 23.018591
63.885 23.185066
63.890 23.146643
63.895 23.230129
63.900 23.497971
63.905 23.690138
63.910 23.64185
63.915 23.257513
63.920 23.387039
63.925 23.440947
63.930 23.569555
63.935 24.180355
63.940 24.720772
63.945 24.869974
63.950 25.946377
63.955 25.697756
63.960 25.834967
63.965 25.801197
63.970 25.222935
63.975 25.200718
63.980 25.63014
63.985 25.325716
63.990 25.858154
63.995 26.625628
64.000 27.339603
64.005 28.217539
64.010 28.857553
64.015 29.63278
64.020 30.880905
64.025 31.060337
64.030 30.353783
64.035 29.677252
64.040 28.909445
64.045 28.033304
64.050 27.441706
64.055 27.183832
64.060 26.815786
64.065 26.964914
64.070 27.968319
64.075 28.403215
64.080 27.586319
64.085 27.249807
64.090 26.389475
64.095 26.401062
64.100 26.557568
64.105 25.567135
64.110 25.3477
64.115 26.084381
64.120 26.265995
64.125 26.535124
64.130 26.75877
64.135 27.021051
64.140 27.7533
64.145 27.811808
64.150 27.41156
64.155 26.517271
64.160 26.521133
64.165 26.31601
64.170 26.005972
64.175 25.482546
64.180 25.546267
64.185 26.093882
64.190 27.335602
64.195 27.503565
64.200 27.744183
64.205 27.95047
64.210 28.567945
64.215 29.292698
64.220 28.775887
64.225 28.350138
64.230 27.769579
64.235 26.719687
64.240 26.086065
64.245 25.86586
64.250 25.279453
64.255 25.720587
64.260 26.019009
64.265 25.852558
64.270 26.283154
64.275 26.258739
64.280 26.068745
64.285 25.874506
64.290 25.38537
64.295 25.053921
64.300 25.677719
64.305 25.66984
64.310 26.127411
64.315 26.435421
64.320 26.509205
64.325 26.968796
64.330 26.881117
64.335 26.421118
64.340 26.501703
64.345 26.518242
64.350 26.631781
64.355 27.017931
64.360 26.766476
64.365 27.158642
64.370 27.330669
64.375 27.1973
64.380 27.288324
64.385 26.76491
64.390 26.788801
64.395 26.944679
64.400 27.128389
64.405 27.654682
64.410 27.647007
64.415 26.642855
64.420 26.709019
64.425 26.537121
64.430 26.619633
64.435 26.093294
64.440 25.835907
64.445 26.025023
64.450 26.150043
64.455 25.339333
64.460 24.497955
64.465 24.02313
64.470 24.439739
64.475 24.147869
64.480 24.571421
64.485 25.163601
64.490 25.981403
64.495 26.662188
64.500 26.814135
64.505 26.426004
64.510 26.513823
64.515 26.020969
64.520 25.567623
64.525 25.26367
64.530 24.754025
64.535 24.089869
64.540 23.523705
64.545 23.260519
64.550 23.332218
64.555 23.520685
64.560 23.341377
64.565 23.352217
64.570 23.926735
64.575 24.261349
64.580 24.091002
64.585 23.388744
64.590 23.074503
64.595 23.956861
64.600 24.090286
64.605 23.712423
64.610 23.860071
64.615 24.514591
64.620 25.822701
64.625 25.988504
64.630 25.677109
64.635 25.218712
64.640 25.144753
64.645 25.163754
64.650 24.320215
64.655 23.912563
64.660 23.622469
64.665 23.174351
64.670 23.363441
64.675 23.777346
64.680 24.081797
64.685 24.189842
64.690 24.109236
64.695 23.596466
64.700 23.431637
64.705 23.324253
64.710 23.597706
64.715 23.494181
64.720 23.022013
64.725 22.649788
64.730 23.50947
64.735 23.521517
64.740 23.679331
64.745 23.234747
64.750 22.077698
64.755 22.063272
64.760 21.544771
64.765 21.675903
64.770 21.898308
64.775 21.125837
64.780 21.041811
64.785 22.058775
64.790 22.494703
64.795 23.116884
64.800 23.011208
64.805 23.789459
64.810 24.039274
64.815 24.211052
64.820 24.754505
64.825 24.822538
64.830 24.559771
64.835 24.548473
64.840 23.983778
64.845 24.266579
64.850 24.377317
64.855 23.833599
64.860 24.530073
64.865 24.838858
64.870 24.24457
64.875 24.015381
64.880 24.092564
64.885 23.950052
64.890 23.539806
64.895 22.828888
64.900 22.80369
64.905 22.541561
64.910 22.93298
64.915 23.150227
64.920 23.205536
64.925 23.522842
64.930 23.725519
64.935 24.017382
64.940 24.635559
64.945 24.40243
64.950 23.615412
64.955 23.254999
64.960 23.129829
64.965 23.234802
64.970 22.738899
64.975 22.025803
64.980 21.757965
64.985 22.125669
64.990 22.596512
64.995 22.597263
65.000 22.395258
65.005 22.790934
65.010 23.258635
65.015 23.47965
65.020 24.896803
65.025 25.594231
65.030 26.122429
65.035 25.799746
65.040 25.439318
65.045 25.679861
65.050 25.647461
65.055 23.746902
65.060 22.856249
65.065 22.205042
65.070 22.641893
65.075 22.308266
65.080 21.931925
65.085 22.567917
65.090 23.082067
65.095 23.110115
65.100 23.093796
65.105 23.443857
65.110 23.987837
65.115 24.069197
65.120 24.043892
65.125 24.40773
65.130 24.803967
65.135 24.383694
65.140 23.764458
65.145 24.239202
65.150 24.587921
65.155 24.78075
65.160 24.046841
65.165 23.931503
65.170 24.699755
65.175 25.174294
65.180 25.217655
65.185 24.873497
65.190 24.324091
65.195 24.059734
65.200 24.852402
65.205 24.872946
65.210 24.660093
65.215 24.719528
65.220 24.852983
65.225 25.015064
65.230 24.831669
65.235 23.292669
65.240 22.931307
65.245 22.304327
65.250 21.847202
65.255 21.697613
65.260 21.992804
65.265 22.350416
65.270 22.868732
65.275 23.228918
65.280 23.348555
65.285 23.595417
65.290 24.165989
65.295 24.030102
65.300 23.687023
65.305 23.623087
65.310 23.5931
65.315 23.629784
65.320 23.58511
65.325 23.04981
65.330 22.965649
65.335 22.553051
65.340 22.162188
65.345 21.863197
65.350 21.657373
65.355 21.146221
65.360 21.156641
65.365 21.333172
65.370 22.106718
65.375 22.169111
65.380 22.549479
65.385 22.955009
65.390 23.184408
65.395 23.115807
65.400 23.270586
65.405 23.1761
65.410 23.311115
65.415 23.181234
65.420 23.410208
65.425 23.462446
65.430 23.338448
65.435 22.897612
65.440 22.178053
65.445 22.288265
65.450 22.276445
65.455 21.733997
65.460 21.728977
65.465 22.406801
65.470 22.114222
65.475 22.006218
65.480 21.346535
65.485 21.1126
65.490 22.048765
65.495 22.220934
65.500 21.474545
65.505 22.733528
65.510 23.606018
65.515 23.716824
65.520 23.472353
65.525 22.613733
65.530 22.652466
65.535 23.416309
65.540 23.544403
65.545 24.133537
65.550 24.672962
65.555 25.083694
65.560 25.371799
65.565 24.69335
65.570 24.242109
65.575 24.122162
65.580 23.843592
65.585 23.844839
65.590 24.14996
65.595 24.284124
65.600 24.651735
65.605 24.520702
65.610 24.517342
65.615 24.893602
65.620 25.096956
65.625 24.645279
65.630 24.981298
65.635 25.064909
65.640 25.225668
65.645 25.4419
65.650 24.887308
65.655 24.601511
65.660 25.288431
65.665 25.743999
65.670 25.947216
65.675 26.001474
65.680 26.054428
65.685 25.521452
65.690 25.817575
65.695 25.403034
65.700 25.104021
65.705 25.243668
65.710 25.145658
65.715 24.745955
65.720 25.740376
65.725 26.207418
65.730 26.41342
65.735 26.436911
65.740 26.243881
65.745 26.727451
65.750 26.579063
65.755 26.422724
65.760 25.610577
65.765 25.18836
65.770 25.240549
65.775 25.139017
65.780 25.401663
65.785 25.630987
65.790 25.564781
65.795 26.222454
65.800 27.117828
65.805 28.146599
65.810 29.069918
65.815 28.857738
65.820 29.232656
65.825 29.356808
65.830 30.159454
65.835 29.642151
65.840 28.849426
65.845 28.521185
65.850 29.27001
65.855 29.852816
65.860 30.801388
65.865 30.562168
65.870 30.140522
65.875 30.398546
65.880 30.973017
65.885 30.827564
65.890 31.137167
65.895 30.738266
65.900 31.205097
65.905 32.397614
65.910 32.871105
65.915 32.338821
65.920 32.418648
65.925 32.202805
65.930 31.935421
65.935 31.911325
65.940 31.704849
65.945 31.156124
65.950 31.228865
65.955 31.573427
65.960 31.757305
65.965 32.828766
65.970 33.613968
65.975 33.89949
65.980 35.327965
65.985 35.835827
65.990 35.78643
65.995 36.064438
66.000 36.028164
66.005 36.322975
66.010 37.275787
66.015 37.517529
66.020 38.097412
66.025 38.749729
66.030 39.205029
66.035 39.931313
66.040 40.550335
66.045 40.711811
66.050 40.804531
66.055 41.063274
66.060 41.447876
66.065 41.978493
66.070 41.142414
66.075 39.884605
66.080 39.252457
66.085 38.400967
66.090 38.039391
66.095 37.85479
66.100 37.849682
66.105 38.657413
66.110 39.260777
66.115 39.216187
66.120 39.737633
66.125 39.969353
66.130 39.595531
66.135 39.349865
66.140 39.496555
66.145 39.922768
66.150 40.524548
66.155 40.512123
66.160 40.398788
66.165 41.191669
66.170 41.732967
66.175 41.612263
66.180 41.977917
66.185 42.364822
66.190 42.728428
66.195 42.345787
66.200 42.208427
66.205 41.260628
66.210 41.437237
66.215 41.128201
66.220 40.77478
66.225 40.440254
66.230 40.177567
66.235 40.03685
66.240 40.388634
66.245 40.069386
66.250 39.808804
66.255 40.077667
66.260 41.332321
66.265 41.772465
66.270 42.431248
66.275 42.600838
66.280 43.094242
66.285 43.701736
66.290 43.324657
66.295 42.805996
66.300 42.831581
66.305 41.767437
66.310 41.431847
66.315 40.437935
66.320 39.405128
66.325 38.508759
66.330 38.014969
66.335 38.183064
66.340 38.581787
66.345 38.405106
66.350 38.952709
66.355 39.352055
66.360 39.468231
66.365 38.753998
66.370 38.030334
66.375 37.545563
66.380 37.721375
66.385 37.406483
66.390 36.851109
66.395 36.978825
66.400 37.458828
66.405 37.266624
66.410 36.831295
66.415 36.198872
66.420 35.417793
66.425 35.216366
66.430 34.973408
66.435 34.260345
66.440 34.385517
66.445 33.915031
66.450 33.108501
66.455 33.297802
66.460 32.470982
66.465 31.492899
66.470 31.130249
66.475 30.345568
66.480 30.429737
66.485 30.246668
66.490 29.748743
66.495 29.598627
66.500 29.677912
66.505 29.503632
66.510 29.132448
66.515 28.092581
66.520 27.373678
66.525 27.688084
66.530 27.959566
66.535 28.106329
66.540 28.02779
66.545 28.629763
66.550 29.001177
66.555 28.711063
66.560 28.397211
66.565 28.065607
66.570 27.66917
66.575 27.128454
66.580 26.010193
66.585 24.980616
66.590 25.115795
66.595 25.257673
66.600 24.959858
66.605 25.232021
66.610 25.108803
66.615 24.720438
66.620 24.672056
66.625 23.99242
66.630 23.994091
66.635 24.243912
66.640 24.563177
66.645 24.57408
66.650 24.546425
66.655 24.367573
66.660 23.99958
66.665 22.973349
66.670 22.469019
66.675 22.051229
66.680 22.129374
66.685 22.485682
66.690 22.850796
66.695 23.325562
66.700 23.63722
66.705 23.41436
66.710 22.782429
66.715 22.831429
66.720 22.704739
66.725 22.536093
66.730 22.286808
66.735 22.342043
66.740 22.184788
66.745 22.439621
66.750 22.213846
66.755 22.254768
66.760 22.527258
66.765 22.361879
66.770 22.263599
66.775 22.59889
66.780 22.146179
66.785 22.507236
66.790 21.855177
66.795 21.220974
66.800 20.701065
66.805 20.39566
66.810 20.48292
66.815 20.704166
66.820 20.561075
66.825 20.504601
66.830 20.922171
66.835 20.602407
66.840 20.564581
66.845 20.208517
66.850 20.237803
66.855 19.992695
66.860 20.131971
66.865 20.134945
66.870 20.616875
66.875 21.113998
66.880 20.668077
66.885 20.116896
66.890 20.384537
66.895 20.214787
66.900 20.399834
66.905 20.496912
66.910 20.018169
66.915 20.548662
66.920 21.137348
66.925 20.934521
66.930 21.395678
66.935 21.280107
66.940 20.968847
66.945 20.947624
66.950 20.226133
66.955 19.540371
66.960 19.133177
66.965 18.060469
66.970 17.912827
66.975 18.134876
66.980 18.358923
66.985 18.598135
66.990 18.674429
66.995 19.073055
67.000 19.867659
67.005 20.229149
67.010 20.032795
67.015 19.853767
67.020 19.883696
67.025 20.462326
67.030 19.91478
67.035 19.712746
67.040 19.341362
67.045 19.319613
67.050 19.655224
67.055 20.004576
67.060 19.604752
67.065 19.932022
67.070 19.75025
67.075 19.677837
67.080 19.881472
67.085 19.597776
67.090 19.391758
67.095 19.443478
67.100 18.920366
67.105 19.126905
67.110 18.976685
67.115 18.525103
67.120 19.348301
67.125 19.520409
67.130 20.037994
67.135 20.762533
67.140 21.126806
67.145 21.318405
67.150 21.370672
67.155 21.192848
67.160 21.087971
67.165 20.958736
67.170 20.81171
67.175 20.222095
67.180 19.959354
67.185 19.940357
67.190 19.527504
67.195 19.164412
67.200 18.915852
67.205 18.537762
67.210 18.489904
67.215 18.929373
67.220 19.005808
67.225 18.990255
67.230 19.189194
67.235 19.040247
67.240 19.274807
67.245 19.729959
67.250 19.185062
67.255 19.016634
67.260 18.912016
67.265 19.565094
67.270 19.995413
67.275 20.503262
67.280 20.688591
67.285 20.563383
67.290 20.434296
67.295 20.616695
67.300 20.01181
67.305 19.963507
67.310 19.513044
67.315 19.719633
67.320 20.665678
67.325 20.778833
67.330 20.786774
67.335 21.05888
67.340 21.453672
67.345 21.201241
67.350 21.099062
67.355 20.571697
67.360 20.51684
67.365 20.318012
67.370 20.135509
67.375 20.340172
67.380 20.319397
67.385 19.918148
67.390 20.247324
67.395 20.190954
67.400 20.219032
67.405 19.775305
67.410 19.332811
67.415 19.545956
67.420 19.941031
67.425 19.747774
67.430 19.661106
67.435 19.588699
67.440 19.504892
67.445 19.488688
67.450 19.358145
67.455 19.149841
67.460 18.836418
67.465 19.104765
67.470 19.287426
67.475 18.809319
67.480 18.640419
67.485 18.480028
67.490 18.53928
67.495 18.829552
67.500 18.814629
67.505 18.883375
67.510 19.225046
67.515 18.979088
67.520 18.913177
67.525 19.247885
67.530 19.383198
67.535 18.782492
67.540 18.926727
67.545 18.987734
67.550 19.391848
67.555 19.696939
67.560 20.110838
67.565 20.749454
67.570 21.197649
67.575 21.215738
67.580 21.205729
67.585 20.84095
67.590 20.487263
67.595 19.315842
67.600 18.548294
67.605 18.505291
67.610 18.376951
67.615 18.319752
67.620 18.417042
67.625 18.449966
67.630 19.236708
67.635 19.799337
67.640 19.75713
67.645 20.216696
67.650 20.424076
67.655 20.501389
67.660 20.43162
67.665 20.112747
67.670 19.671192
67.675 19.497898
67.680 19.131901
67.685 18.896311
67.690 18.777994
67.695 18.924253
67.700 19.211624
67.705 19.634682
67.710 20.402433
67.715 20.435381
67.720 20.627234
67.725 21.259895
67.730 20.977697
67.735 21.255957
67.740 20.533663
67.745 19.806667
67.750 19.723499
67.755 19.743389
67.760 19.567919
67.765 19.460703
67.770 18.87812
67.775 19.214632
67.780 19.105591
67.785 18.66711
67.790 18.373943
67.795 18.448982
67.800 18.809246
67.805 19.318377
67.810 19.221283
67.815 19.405519
67.820 19.682804
67.825 19.463661
67.830 18.858236
67.835 18.665449
67.840 18.348404
67.845 18.290257
67.850 18.399839
67.855 18.978308
67.860 19.03648
67.865 18.997898
67.870 19.158897
67.875 19.43277
67.880 19.36973
67.885 19.121042
67.890 19.143089
67.895 19.915388
67.900 20.409582
67.905 20.014973
67.910 20.060757
67.915 19.891489
67.920 20.393152
67.925 19.71088
67.930 18.954651
67.935 18.492594
67.940 18.614498
67.945 18.520588
67.950 18.456312
67.955 18.037909
67.960 18.690767
67.965 18.730066
67.970 19.30056
67.975 19.29982
67.980 19.64793
67.985 19.958233
67.990 20.162735
67.995 19.89809
68.000 19.80887
68.005 19.337673
68.010 18.918869
68.015 18.551073
68.020 18.876469
68.025 19.011919
68.030 18.983364
68.035 19.062662
68.040 19.192015
68.045 19.488842
68.050 19.583279
68.055 19.217293
68.060 19.175074
68.065 19.575485
68.070 19.626314
68.075 19.44759
68.080 19.539488
68.085 19.735949
68.090 19.821573
68.095 19.552464
68.100 19.310614
68.105 19.65984
68.110 20.299498
68.115 20.491297
68.120 20.539913
68.125 20.265499
68.130 20.250889
68.135 20.142605
68.140 20.158133
68.145 19.908897
68.150 19.632401
68.155 19.693226
68.160 20.064146
68.165 20.295298
68.170 20.660307
68.175 20.332056
68.180 20.578297
68.185 20.767515
68.190 20.659605
68.195 20.713169
68.200 20.553455
68.205 19.93317
68.210 20.208168
68.215 19.687077
68.220 19.958199
68.225 20.08474
68.230 20.57143
68.235 21.343658
68.240 21.678116
68.245 21.235882
68.250 21.522631
68.255 20.87719
68.260 20.886999
68.265 20.314156
68.270 19.987579
68.275 19.956839
68.280 19.58931
68.285 19.215269
68.290 19.108913
68.295 18.945166
68.300 19.245506
68.305 19.622097
68.310 19.54248
68.315 19.090841
68.320 18.963064
68.325 18.81707
68.330 18.756985
68.335 18.473202
68.340 18.031704
68.345 18.389465
68.350 18.924248
68.355 19.754053
68.360 20.489153
68.365 20.321529
68.370 20.561737
68.375 20.623098
68.380 20.801294
68.385 21.321888
68.390 21.18829
68.395 21.916569
68.400 22.145563
68.405 21.493917
68.410 21.403843
68.415 20.886446
68.420 20.040842
68.425 19.511845
68.430 19.196537
68.435 19.271744
68.440 19.776381
68.445 19.892241
68.450 20.569586
68.455 21.004177
68.460 20.862621
68.465 20.515154
68.470 20.050035
68.475 19.917719
68.480 20.643534
68.485 20.536049
68.490 20.434387
68.495 20.357224
68.500 20.335485
68.505 21.18766
68.510 20.574066
68.515 19.742062
68.520 19.060446
68.525 19.058437
68.530 19.258677
68.535 18.801952
68.540 18.384449
68.545 18.459875
68.550 18.806211
68.555 19.667601
68.560 20.479532
68.565 20.63365
68.570 20.628012
68.575 21.023624
68.580 20.940168
68.585 20.827774
68.590 20.459249
68.595 19.784695
68.600 20.156967
68.605 20.439493
68.610 20.885435
68.615 20.939571
68.620 20.385813
68.625 20.330807
68.630 19.836826
68.635 19.678766
68.640 19.396755
68.645 19.062101
68.650 19.519827
68.655 20.092333
68.660 20.335823
68.665 20.430582
68.670 19.883917
68.675 19.797195
68.680 19.460577
68.685 19.368635
68.690 19.130474
68.695 19.339441
68.700 19.663357
68.705 19.817673
68.710 19.743931
68.715 20.051384
68.720 19.89065
68.725 20.522507
68.730 20.156527
68.735 20.462803
68.740 20.608107
68.745 20.935572
68.750 21.235558
68.755 21.739395
68.760 21.421888
68.765 21.992273
68.770 21.949558
68.775 21.966322
68.780 22.047678
68.785 21.888191
68.790 21.740314
68.795 21.467152
68.800 21.00363
68.805 20.927567
68.810 20.823263
68.815 20.212118
68.820 19.952013
68.825 20.141272
68.830 21.496891
68.835 22.240938
68.840 22.736063
68.845 22.89872
68.850 23.01927
68.855 23.19792
68.860 22.72172
68.865 22.103004
68.870 21.531628
68.875 21.388384
68.880 22.045776
68.885 22.605814
68.890 22.89946
68.895 23.557487
68.900 23.915848
68.905 24.427671
68.910 24.894808
68.915 24.777725
68.920 24.416042
68.925 24.440767
68.930 23.762756
68.935 23.830891
68.940 23.705267
68.945 22.986061
68.950 22.645494
68.955 23.625046
68.960 23.692999
68.965 24.592289
68.970 24.884296
68.975 25.043564
68.980 25.219154
68.985 25.735962
68.990 25.419195
68.995 25.768402
69.000 25.027185
69.005 24.856798
69.010 25.388496
69.015 25.549128
69.020 25.516447
69.025 25.666731
69.030 25.398411
69.035 25.733107
69.040 25.793947
69.045 26.308655
69.050 26.123674
69.055 26.011461
69.060 25.66869
69.065 25.949371
69.070 26.350767
69.075 26.833015
69.080 26.848183
69.085 27.503017
69.090 27.748613
69.095 27.890963
69.100 28.287083
69.105 30.059351
69.110 30.447248
69.115 30.183352
69.120 30.195707
69.125 30.471416
69.130 30.670671
69.135 29.961866
69.140 28.341005
69.145 27.881298
69.150 28.00515
69.155 28.201889
69.160 27.74374
69.165 27.735626
69.170 28.153875
69.175 29.115103
69.180 29.072685
69.185 29.319807
69.190 29.437529
69.195 30.190159
69.200 30.324286
69.205 30.311174
69.210 30.170507
69.215 31.067816
69.220 31.756641
69.225 31.546047
69.230 31.72217
69.235 32.115135
69.240 32.08791
69.245 32.569939
69.250 32.739754
69.255 32.854038
69.260 33.61245
69.265 34.038727
69.270 34.81448
69.275 35.450169
69.280 34.974438
69.285 34.866165
69.290 34.531303
69.295 34.104488
69.300 33.74971
69.305 33.167046
69.310 32.821316
69.315 32.705387
69.320 32.46801
69.325 32.571453
69.330 32.992775
69.335 33.068684
69.340 32.826035
69.345 33.223911
69.350 33.211685
69.355 32.991295
69.360 33.169067
69.365 32.867569
69.370 32.626129
69.375 32.499535
69.380 32.982098
69.385 34.10704
69.390 34.751507
69.395 34.66399
69.400 35.2472
69.405 35.629803
69.410 35.965172
69.415 35.671158
69.420 34.846859
69.425 35.239292
69.430 35.854782
69.435 35.388023
69.440 35.275211
69.445 35.803226
69.450 36.80769
69.455 36.988762
69.460 36.364491
69.465 36.165607
69.470 36.192879
69.475 36.231762
69.480 36.013916
69.485 34.251015
69.490 34.391174
69.495 34.502026
69.500 33.638412
69.505 33.628765
69.510 33.582829
69.515 33.990635
69.520 34.455574
69.525 33.934307
69.530 33.653233
69.535 33.775257
69.540 33.572422
69.545 33.314693
69.550 32.961212
69.555 32.565258
69.560 32.511887
69.565 32.236759
69.570 32.32056
69.575 32.974827
69.580 32.893486
69.585 32.199566
69.590 32.467014
69.595 32.794827
69.600 32.559368
69.605 32.193718
69.610 31.304438
69.615 31.783651
69.620 32.481297
69.625 32.329292
69.630 32.234585
69.635 31.712173
69.640 32.423489
69.645 31.875763
69.650 31.31876
69.655 31.511717
69.660 31.199957
69.665 31.537344
69.670 32.142521
69.675 32.223461
69.680 32.41716
69.685 32.268433
69.690 31.001186
69.695 31.181902
69.700 30.76157
69.705 30.256744
69.710 29.578026
69.715 28.873442
69.720 28.643663
69.725 29.037481
69.730 28.945711
69.735 28.696886
69.740 28.835016
69.745 28.88582
69.750 28.770544
69.755 28.579475
69.760 28.633951
69.765 28.346947
69.770 28.563931
69.775 28.856045
69.780 28.961784
69.785 29.095888
69.790 28.498579
69.795 27.567719
69.800 27.669029
69.805 27.412907
69.810 27.008059
69.815 27.634367
69.820 27.416784
69.825 27.532829
69.830 27.36133
69.835 27.165806
69.840 27.069073
69.845 26.648777
69.850 26.556101
69.855 26.931065
69.860 26.837709
69.865 26.615902
69.870 26.386652
69.875 25.198465
69.880 25.000486
69.885 24.698002
69.890 24.829666
69.895 24.873669
69.900 24.736814
69.905 23.681139
69.910 23.763794
69.915 23.687813
69.920 22.688408
69.925 21.973625
69.930 22.612888
69.935 23.372952
69.940 24.367855
69.945 23.882341
69.950 23.492046
69.955 23.686769
69.960 23.504175
69.965 21.874247
69.970 20.650606
69.975 20.672739
69.980 21.684008
69.985 21.362537
69.990 21.414099
69.995 21.213615
70.000 20.98922
70.005 21.068283
70.010 20.7645
70.015 20.304823
70.020 20.537544
70.025 20.20257
70.030 20.322325
70.035 20.280193
70.040 19.28837
70.045 18.890087
70.050 19.18317
70.055 19.447023
70.060 19.524958
70.065 20.163647
70.070 20.855345
70.075 21.760309
70.080 22.194704
70.085 22.488956
70.090 22.450243
70.095 22.429504
70.100 21.897449
70.105 22.038841
70.110 21.67289
70.115 21.689022
70.120 21.737154
70.125 22.141657
70.130 23.010305
70.135 22.787432
70.140 23.169659
70.145 23.524431
70.150 23.418503
70.155 23.141731
70.160 22.145845
70.165 21.235844
70.170 21.233475
70.175 20.621384
70.180 20.063866
70.185 19.396397
70.190 19.144152
70.195 19.636286
70.200 19.928329
70.205 19.944372
70.210 19.893183
70.215 20.383413
70.220 20.062757
70.225 19.84062
70.230 19.185034
70.235 19.034306
70.240 18.382891
70.245 18.114948
70.250 18.162487
70.255 18.531729
70.260 18.760605
70.265 19.368193
70.270 19.580383
70.275 20.201622
70.280 20.281879
70.285 20.419147
70.290 19.951958
70.295 19.549704
70.300 19.145227
70.305 18.447954
70.310 18.143667
70.315 18.098772
70.320 18.569052
70.325 18.97962
70.330 19.160402
70.335 19.203438
70.340 19.359749
70.345 18.805523
70.350 18.117737
70.355 17.584007
70.360 17.43181
70.365 17.10442
70.370 17.021082
70.375 17.194323
70.380 17.245821
70.385 17.496021
70.390 17.583466
70.395 17.832006
70.400 18.086855
70.405 18.015627
70.410 18.530403
70.415 18.216944
70.420 18.282166
70.425 18.445459
70.430 18.296894
70.435 19.057899
70.440 18.868507
70.445 18.665335
70.450 19.252384
70.455 18.729862
70.460 18.711212
70.465 18.583328
70.470 18.372452
70.475 18.543026
70.480 18.148531
70.485 17.752148
70.490 18.446777
70.495 18.835062
70.500 19.209421
70.505 19.455732
70.510 19.901251
70.515 21.099813
70.520 21.648624
70.525 21.373281
70.530 20.773918
70.535 19.746523
70.540 19.408577
70.545 19.296497
70.550 19.122719
70.555 19.123745
70.560 18.506386
70.565 18.363234
70.570 18.593332
70.575 19.448639
70.580 19.311817
70.585 18.76823
70.590 18.521141
70.595 18.981195
70.600 19.159193
70.605 18.478025
70.610 17.9347
70.615 17.895287
70.620 18.382328
70.625 18.305359
70.630 18.254976
70.635 18.037485
70.640 18.142233
70.645 18.158331
70.650 18.3004
70.655 18.534994
70.660 18.903158
70.665 19.387327
70.670 20.073523
70.675 19.903088
70.680 19.552134
70.685 18.991245
70.690 18.797617
70.695 18.510597
70.700 18.237717
70.705 18.174082
70.710 17.734751
70.715 17.690533
70.720 17.522594
70.725 17.651751
70.730 17.829897
70.735 18.088793
70.740 18.275427
70.745 18.41538
70.750 18.721777
70.755 18.959396
70.760 18.693422
70.765 18.855087
70.770 18.460724
70.775 18.912333
70.780 18.889116
70.785 18.720469
70.790 19.124256
70.795 19.650852
70.800 19.716291
70.805 19.189554
70.810 19.048843
70.815 19.340378
70.820 19.919451
70.825 20.258541
70.830 19.665844
70.835 19.799131
70.840 20.319759
70.845 20.03175
70.850 20.145878
70.855 19.589554
70.860 18.387136
70.865 18.14374
70.870 18.070885
70.875 18.286221
70.880 18.612783
70.885 18.217791
70.890 17.826326
70.895 18.043306
70.900 18.371544
70.905 18.046276
70.910 18.09079
70.915 18.376156
70.920 17.820084
70.925 18.103058
70.930 18.273277
70.935 18.172468
70.940 18.302551
70.945 18.574636
70.950 18.993021
70.955 19.717403
70.960 19.934458
70.965 20.164015
70.970 20.221996
70.975 20.536386
70.980 19.488434
70.985 19.172817
70.990 18.67259
70.995 18.383432
71.000 18.819178
71.005 18.606264
71.010 18.036692
71.015 18.577187
71.020 19.306749
71.025 20.11455
71.030 19.866873
71.035 19.703238
71.040 20.01779
71.045 20.346964
71.050 20.174103
71.055 19.423641
71.060 20.222771
71.065 20.308435
71.070 20.411253
71.075 19.997852
71.080 19.434143
71.085 19.142773
71.090 19.285978
71.095 18.385502
71.100 17.638266
71.105 17.064697
71.110 17.248545
71.115 17.718046
71.120 17.714113
71.125 17.86368
71.130 17.716742
71.135 18.103657
71.140 18.645512
71.145 18.819258
71.150 18.650414
71.155 18.316582
71.160 18.247589
71.165 18.925072
71.170 19.707878
71.175 19.43115
71.180 19.820326
71.185 20.432402
71.190 20.378038
71.195 20.303173
71.200 19.997278
71.205 19.688391
71.210 19.750126
71.215 18.803587
71.220 18.781794
71.225 18.773794
71.230 18.911612
71.235 19.656448
71.240 19.1814
71.245 19.066061
71.250 19.406334
71.255 19.025284
71.260 18.88797
71.265 18.719236
71.270 18.215778
71.275 18.377155
71.280 18.2768
71.285 18.560987
71.290 18.712099
71.295 19.156029
71.300 18.823957
71.305 18.341127
71.310 18.482752
71.315 18.437874
71.320 17.805679
71.325 17.592396
71.330 17.534781
71.335 17.561787
71.340 17.677757
71.345 18.071096
71.350 18.140627
71.355 18.292198
71.360 18.627743
71.365 18.303772
71.370 18.586891
71.375 18.946795
71.380 18.765736
71.385 18.583982
71.390 18.095539
71.395 17.86586
71.400 18.493223
71.405 18.27434
71.410 17.682903
71.415 17.597351
71.420 17.985792
71.425 18.828581
71.430 19.154953
71.435 19.000383
71.440 19.187716
71.445 20.05937
71.450 20.052214
71.455 19.64241
71.460 19.476974
71.465 19.176504
71.470 19.121553
71.475 18.796412
71.480 18.50909
71.485 18.977901
71.490 18.882521
71.495 18.815805
71.500 18.516493
71.505 18.334427
71.510 18.02133
71.515 17.900322
71.520 17.894613
71.525 17.791101
71.530 18.012363
71.535 18.136856
71.540 18.983032
71.545 19.542385
71.550 19.62945
71.555 19.647371
71.560 19.552364
71.565 19.368645
71.570 20.018278
71.575 19.056688
71.580 19.132637
71.585 18.949121
71.590 18.948387
71.595 18.673941
71.600 18.588186
71.605 17.413212
71.610 17.231184
71.615 16.980183
71.620 17.158682
71.625 17.472561
71.630 18.136423
71.635 18.19903
71.640 18.836319
71.645 19.847429
71.650 19.567343
71.655 19.611504
71.660 19.632435
71.665 19.428976
71.670 19.339148
71.675 18.749039
71.680 17.79409
71.685 17.500813
71.690 17.205296
71.695 17.664097
71.700 17.799664
71.705 17.84078
71.710 18.290413
71.715 18.50267
71.720 18.421618
71.725 18.324465
71.730 17.753325
71.735 17.523808
71.740 17.619297
71.745 17.114332
71.750 17.305473
71.755 17.130928
71.760 17.003201
71.765 17.126223
71.770 17.008265
71.775 17.257957
71.780 17.70785
71.785 17.740685
71.790 17.928797
71.795 17.948648
71.800 18.037436
71.805 17.801771
71.810 17.643826
71.815 17.260303
71.820 17.946817
71.825 17.83077
71.830 17.902319
71.835 17.768265
71.840 18.404078
71.845 18.833492
71.850 19.399891
71.855 19.449606
71.860 19.045753
71.865 19.055275
71.870 19.120039
71.875 19.220364
71.880 19.011625
71.885 18.680626
71.890 18.636581
71.895 18.954399
71.900 18.887247
71.905 18.684065
71.910 18.802032
71.915 18.226963
71.920 18.328682
71.925 18.736076
71.930 19.49851
71.935 19.170912
71.940 18.973219
71.945 19.340565
71.950 19.99579
71.955 19.699505
71.960 19.339281
71.965 19.418558
71.970 20.066469
71.975 19.88324
71.980 19.382183
71.985 19.385269
71.990 19.841473
71.995 19.953236
72.000 19.382368
72.005 19.462967
72.010 19.218908
72.015 18.898798
72.020 18.55118
72.025 18.164869
72.030 18.330418
72.035 18.937588
72.040 19.124613
72.045 19.358715
72.050 19.343657
72.055 19.328772
72.060 18.57987
72.065 17.997868
72.070 17.328806
72.075 16.953457
72.080 17.334637
72.085 17.719646
72.090 17.795002
72.095 18.115957
72.100 18.155359
72.105 18.378565
72.110 18.180246
72.115 17.471561
72.120 18.141222
72.125 18.29785
72.130 18.010675
72.135 18.133381
72.140 17.491236
72.145 18.434927
72.150 18.450607
72.155 17.544479
72.160 17.797073
72.165 18.221416
72.170 18.697454
72.175 19.124956
72.180 18.529617
72.185 18.335939
72.190 17.971979
72.195 18.037941
72.200 17.493252
72.205 17.524675
72.210 17.339239
72.215 16.386536
72.220 16.267117
72.225 16.289568
72.230 16.608225
72.235 16.786249
72.240 16.844549
72.245 17.120422
72.250 17.591011
72.255 17.966496
72.260 18.501812
72.265 18.398336
72.270 18.221811
72.275 18.400658
72.280 18.358837
72.285 18.258011
72.290 18.329659
72.295 17.371023
72.300 17.057894
72.305 17.050917
72.310 17.100019
72.315 17.946489
72.320 18.007126
72.325 18.252705
72.330 18.669722
72.335 18.779747
72.340 18.839998
72.345 18.688692
72.350 18.579794
72.355 19.600857
72.360 19.852425
72.365 20.116543
72.370 20.309891
72.375 20.412985
72.380 20.316994
72.385 19.879879
72.390 18.889603
72.395 18.81292
72.400 18.801189
72.405 18.405212
72.410 18.272625
72.415 18.109507
72.420 17.53377
72.425 17.399826
72.430 17.193352
72.435 16.911224
72.440 16.964567
72.445 17.051813
72.450 17.531013
72.455 17.99441
72.460 18.034653
72.465 18.563778
72.470 18.626854
72.475 18.388313
72.480 17.97061
72.485 16.813248
72.490 16.70377
72.495 16.563622
72.500 16.395601
72.505 16.299932
72.510 16.285242
72.515 16.605726
72.520 17.376877
72.525 17.278227
72.530 16.737156
72.535 16.299341
72.540 16.394217
72.545 16.693644
72.550 17.292568
72.555 17.493959
72.560 17.922298
72.565 18.164179
72.570 18.389059
72.575 18.507315
72.580 18.164486
72.585 17.748981
72.590 17.004822
72.595 17.110954
72.600 17.689445
72.605 17.699411
72.610 17.397926
72.615 17.367188
72.620 17.607864
72.625 18.183477
72.630 17.675009
72.635 17.082081
72.640 16.721373
72.645 16.776415
72.650 16.772976
72.655 16.703707
72.660 16.602715
72.665 16.51
72.670 16.850006
72.675 17.458231
72.680 17.354912
72.685 17.187218
72.690 16.916988
72.695 17.021891
72.700 16.926109
72.705 16.904821
72.710 16.990582
72.715 16.925684
72.720 17.434855
72.725 17.273943
72.730 17.646769
72.735 17.909475
72.740 18.248709
72.745 18.261766
72.750 18.046476
72.755 18.122988
72.760 18.324955
72.765 18.596354
72.770 18.308598
72.775 18.318024
72.780 18.90778
72.785 18.735582
72.790 17.978003
72.795 17.727938
72.800 17.708881
72.805 17.199976
72.810 17.202288
72.815 17.038624
72.820 16.983568
72.825 16.891478
72.830 16.697247
72.835 17.200039
72.840 17.58255
72.845 17.002357
72.850 16.843641
72.855 17.590799
72.860 17.615856
72.865 17.474092
72.870 17.021139
72.875 16.998497
72.880 16.955984
72.885 16.725477
72.890 16.328331
72.895 16.835955
72.900 16.719803
72.905 16.726068
72.910 16.259777
72.915 16.841999
72.920 17.28507
72.925 17.773636
72.930 17.725069
72.935 17.694777
72.940 18.447163
72.945 18.224218
72.950 17.671976
72.955 17.572123
72.960 17.474617
72.965 18.063202
72.970 18.352331
72.975 18.067633
72.980 18.388102
72.985 18.506052
72.990 17.965963
72.995 18.176111
73.000 17.930433
