!@!!GADDS PLOTSO FILE: Chi integration type
!@!!Title/SampleName: map-c2
!@!!Comment: ?
!@!!User: Bruker Instrument Administrator
!@!!Site: University of Illinois Chicago
!@!!Frame: map-c2_01_000.gfrm
!@!!Wavelengths    1.54184   1.54056   1.54439
!@!!Frame angles: 2Theta: 63.000 Omega: 50.000 Phi: 0.000 Chi: 90.000
!@!!Integration range: 2Theta: 53.000 to 73.000  Gamma: -105.000 to -75.000
!@!!Integration method: bin normalized
!@!N
!@!SS
!@!M
!@!L 0.0 0.0 0.0 0.0
!@!XDegrees
!@!YCounts
53.000 6.969148
53.005 7.119918
53.010 7.164136
53.015 7.343444
53.020 7.543658
53.025 7.441577
53.030 7.570232
53.035 7.265034
53.040 7.471794
53.045 7.286184
53.050 7.118325
53.055 7.126484
53.060 7.017568
53.065 7.048917
53.070 6.894176
53.075 6.755336
53.080 6.79177
53.085 7.039772
53.090 7.043203
53.095 7.10517
53.100 7.236856
53.105 7.239428
53.110 7.2966
53.115 7.434931
53.120 7.602323
53.125 7.543972
53.130 7.960514
53.135 7.881823
53.140 7.959042
53.145 8.378193
53.150 8.628372
53.155 8.769554
53.160 8.644262
53.165 8.186368
53.170 8.353786
53.175 8.445459
53.180 8.039256
53.185 7.465265
53.190 7.288226
53.195 7.444884
53.200 7.615405
53.205 7.511003
53.210 7.590331
53.215 7.914322
53.220 8.145502
53.225 8.087213
53.230 7.978799
53.235 8.013838
53.240 7.933382
53.245 7.491119
53.250 7.015942
53.255 6.968247
53.260 6.797458
53.265 6.516324
53.270 6.462892
53.275 6.399654
53.280 6.334637
53.285 6.305753
53.290 6.331662
53.295 6.594651
53.300 6.955377
53.305 7.521345
53.310 7.329288
53.315 7.561293
53.320 7.842731
53.325 8.114979
53.330 7.874372
53.335 7.181578
53.340 6.88626
53.345 7.24781
53.350 7.082639
53.355 6.87719
53.360 6.729365
53.365 6.804991
53.370 6.960894
53.375 7.388875
53.380 7.796326
53.385 7.908566
53.390 8.022387
53.395 8.308321
53.400 8.311823
53.405 8.254539
53.410 7.895774
53.415 7.848176
53.420 7.745225
53.425 7.59932
53.430 7.548019
53.435 7.608915
53.440 7.412619
53.445 7.765262
53.450 8.166772
53.455 8.361938
53.460 8.749233
53.465 8.560063
53.470 8.953707
53.475 8.841451
53.480 8.735462
53.485 8.803565
53.490 8.875002
53.495 8.552279
53.500 8.318752
53.505 7.833083
53.510 7.556067
53.515 7.406418
53.520 6.58248
53.525 6.788542
53.530 7.128654
53.535 7.778861
53.540 7.946893
53.545 8.568472
53.550 8.741982
53.555 9.110327
53.560 9.066546
53.565 8.684385
53.570 8.611523
53.575 8.580754
53.580 8.235958
53.585 8.51694
53.590 8.84551
53.595 8.453386
53.600 8.337028
53.605 8.14581
53.610 8.366007
53.615 8.31205
53.620 7.881211
53.625 7.206612
53.630 7.758102
53.635 7.756914
53.640 7.765066
53.645 7.342614
53.650 7.203612
53.655 7.414927
53.660 7.493281
53.665 7.159045
53.670 7.268691
53.675 7.261329
53.680 7.292735
53.685 7.359895
53.690 6.968143
53.695 7.108052
53.700 6.946443
53.705 7.211927
53.710 7.49021
53.715 7.466443
53.720 7.858523
53.725 8.253051
53.730 8.708941
53.735 9.016604
53.740 8.92637
53.745 9.018518
53.750 8.880789
53.755 8.408098
53.760 8.015229
53.765 7.663955
53.770 7.498179
53.775 7.648108
53.780 7.897766
53.785 8.130798
53.790 8.32947
53.795 8.53656
53.800 8.469523
53.805 8.242219
53.810 7.970752
53.815 7.721939
53.820 7.605968
53.825 7.83656
53.830 7.4078
53.835 7.526195
53.840 7.788652
53.845 7.793479
53.850 8.290742
53.855 8.263919
53.860 8.203778
53.865 8.602652
53.870 8.788064
53.875 8.982086
53.880 8.993972
53.885 8.759727
53.890 8.757376
53.895 9.312927
53.900 9.384166
53.905 9.520697
53.910 9.197024
53.915 9.019914
53.920 8.921469
53.925 8.612156
53.930 8.475828
53.935 8.329372
53.940 8.324567
53.945 8.439886
53.950 8.687302
53.955 8.637158
53.960 8.531617
53.965 8.204026
53.970 8.324059
53.975 8.434044
53.980 8.388803
53.985 8.152846
53.990 8.046761
53.995 8.588728
54.000 8.471073
54.005 7.940616
54.010 7.58765
54.015 7.690976
54.020 8.025899
54.025 8.344439
54.030 8.068109
54.035 7.818018
54.040 8.416185
54.045 8.643106
54.050 8.664497
54.055 8.756688
54.060 8.661747
54.065 8.572146
54.070 8.377073
54.075 7.98718
54.080 8.000092
54.085 7.807098
54.090 7.953833
54.095 8.047233
54.100 8.595519
54.105 9.159677
54.110 8.613633
54.115 8.581168
54.120 8.646842
54.125 8.387553
54.130 8.091805
54.135 8.135545
54.140 8.401897
54.145 9.108686
54.150 8.920315
54.155 8.871265
54.160 9.213154
54.165 9.37653
54.170 9.143001
54.175 8.772467
54.180 8.757229
54.185 8.825968
54.190 8.907528
54.195 8.974553
54.200 9.284716
54.205 9.402527
54.210 9.308051
54.215 8.994907
54.220 9.284641
54.225 9.092416
54.230 8.734514
54.235 8.652192
54.240 8.451204
54.245 8.63295
54.250 9.067306
54.255 9.212879
54.260 9.315363
54.265 9.517472
54.270 10.107895
54.275 10.283813
54.280 10.530812
54.285 10.142663
54.290 9.957956
54.295 9.888343
54.300 10.158353
54.305 9.856748
54.310 9.560168
54.315 9.503071
54.320 9.360013
54.325 9.143582
54.330 9.030679
54.335 8.506571
54.340 8.370127
54.345 8.502134
54.350 8.404083
54.355 8.592661
54.360 8.775938
54.365 8.769306
54.370 8.993977
54.375 9.512153
54.380 9.339689
54.385 8.873393
54.390 8.875077
54.395 9.367624
54.400 9.533981
54.405 9.466955
54.410 9.116387
54.415 9.128193
54.420 9.432215
54.425 9.212155
54.430 8.691812
54.435 8.771192
54.440 8.476395
54.445 8.872535
54.450 9.359737
54.455 9.212263
54.460 9.095054
54.465 9.572729
54.470 9.494981
54.475 9.837397
54.480 9.613147
54.485 9.32467
54.490 9.630016
54.495 9.68714
54.500 9.533957
54.505 9.152265
54.510 8.750606
54.515 8.879272
54.520 8.901843
54.525 9.11163
54.530 8.913145
54.535 8.645676
54.540 8.941271
54.545 8.699762
54.550 8.814353
54.555 9.028684
54.560 8.638187
54.565 8.86121
54.570 9.361545
54.575 10.155456
54.580 10.50964
54.585 10.654249
54.590 10.724315
54.595 10.981239
54.600 10.755162
54.605 10.426567
54.610 9.813564
54.615 9.376846
54.620 9.351399
54.625 9.268645
54.630 9.047756
54.635 9.038514
54.640 9.027653
54.645 9.371087
54.650 9.418778
54.655 9.254086
54.660 8.981897
54.665 9.342546
54.670 9.521841
54.675 9.551211
54.680 9.672499
54.685 10.07683
54.690 10.136872
54.695 10.6212
54.700 10.653478
54.705 10.353449
54.710 9.993701
54.715 9.722985
54.720 9.607653
54.725 9.572444
54.730 9.404985
54.735 9.174861
54.740 9.462676
54.745 10.034248
54.750 9.975478
54.755 9.964986
54.760 9.883926
54.765 9.756846
54.770 9.814713
54.775 9.638642
54.780 9.168581
54.785 9.376338
54.790 9.453683
54.795 9.636744
54.800 9.470734
54.805 9.513424
54.810 9.613558
54.815 10.134492
54.820 10.465138
54.825 10.657743
54.830 10.642463
54.835 10.811482
54.840 10.87578
54.845 10.634098
54.850 10.678885
54.855 10.502529
54.860 10.587645
54.865 10.82493
54.870 10.538446
54.875 10.521571
54.880 10.523706
54.885 10.227328
54.890 10.042504
54.895 9.692605
54.900 9.800159
54.905 9.929062
54.910 9.810103
54.915 9.946517
54.920 9.495117
54.925 9.077139
54.930 8.863902
54.935 8.424459
54.940 8.416346
54.945 8.356384
54.950 8.39139
54.955 9.027152
54.960 9.430849
54.965 9.574763
54.970 9.923027
54.975 9.996033
54.980 10.261573
54.985 10.122842
54.990 9.725462
54.995 9.990975
55.000 9.952527
55.005 9.750238
55.010 9.976141
55.015 9.766369
55.020 9.867562
55.025 9.736697
55.030 9.669604
55.035 9.711461
55.040 9.671766
55.045 9.487597
55.050 9.284398
55.055 9.319695
55.060 9.668821
55.065 9.745074
55.070 9.900012
55.075 9.995132
55.080 10.161395
55.085 9.906164
55.090 9.46238
55.095 9.352276
55.100 9.025356
55.105 9.039448
55.110 9.084426
55.115 9.242311
55.120 9.733033
55.125 10.048354
55.130 9.91333
55.135 10.214614
55.140 10.620862
55.145 10.405081
55.150 10.375249
55.155 10.247218
55.160 10.356926
55.165 10.717918
55.170 10.371846
55.175 10.137464
55.180 10.22848
55.185 10.182056
55.190 10.443322
55.195 10.291702
55.200 9.920694
55.205 9.972906
55.210 9.767704
55.215 9.581405
55.220 9.199132
55.225 8.821477
55.230 8.771883
55.235 8.815183
55.240 8.957202
55.245 9.254189
55.250 9.540139
55.255 10.010686
55.260 9.88404
55.265 9.950693
55.270 9.664262
55.275 9.298652
55.280 9.21459
55.285 9.1197
55.290 9.032853
55.295 9.196937
55.300 9.324815
55.305 9.381118
55.310 9.051225
55.315 8.733315
55.320 8.923755
55.325 9.052307
55.330 8.666482
55.335 8.596194
55.340 8.819473
55.345 9.576822
55.350 9.562026
55.355 9.528216
55.360 9.45313
55.365 9.86553
55.370 10.067979
55.375 10.22647
55.380 9.994466
55.385 10.250503
55.390 10.356144
55.395 10.477931
55.400 10.313672
55.405 10.498377
55.410 10.526885
55.415 10.41728
55.420 10.534017
55.425 10.394216
55.430 10.201253
55.435 10.410298
55.440 10.515217
55.445 10.139981
55.450 10.26588
55.455 10.038582
55.460 10.352218
55.465 10.596996
55.470 10.120367
55.475 9.946685
55.480 10.22891
55.485 10.139201
55.490 10.088886
55.495 9.88189
55.500 10.462586
55.505 10.889538
55.510 10.689784
55.515 10.438187
55.520 10.416592
55.525 10.407
55.530 10.133526
55.535 9.63604
55.540 9.711191
55.545 9.849813
55.550 10.058092
55.555 10.072248
55.560 10.311692
55.565 10.380072
55.570 10.199926
55.575 10.448105
55.580 10.449817
55.585 10.198919
55.590 10.351304
55.595 10.317863
55.600 10.651938
55.605 10.372958
55.610 10.006375
55.615 9.995046
55.620 10.517632
55.625 10.581478
55.630 10.599555
55.635 10.341592
55.640 10.457944
55.645 10.720318
55.650 10.782475
55.655 10.613069
55.660 10.357676
55.665 10.158617
55.670 10.158216
55.675 10.170615
55.680 9.864164
55.685 9.95651
55.690 9.983326
55.695 10.270786
55.700 9.967614
55.705 9.448304
55.710 9.376579
55.715 9.927827
55.720 10.073479
55.725 9.865053
55.730 9.604689
55.735 9.771289
55.740 10.008695
55.745 10.003492
55.750 9.728591
55.755 9.217052
55.760 9.385124
55.765 9.866562
55.770 10.51005
55.775 10.873436
55.780 10.994047
55.785 11.133108
55.790 11.125802
55.795 11.1162
55.800 10.960823
55.805 10.808242
55.810 10.839184
55.815 11.067456
55.820 11.373023
55.825 11.821176
55.830 12.145513
55.835 12.545917
55.840 12.658176
55.845 12.450211
55.850 12.208789
55.855 11.650066
55.860 11.28653
55.865 10.968048
55.870 10.152568
55.875 10.168217
55.880 10.288967
55.885 10.3265
55.890 10.759431
55.895 11.255843
55.900 11.326684
55.905 11.648436
55.910 11.458881
55.915 11.538701
55.920 11.423589
55.925 11.14915
55.930 10.646551
55.935 10.511106
55.940 10.591486
55.945 11.102315
55.950 11.207725
55.955 11.423109
55.960 11.633452
55.965 11.925467
55.970 12.387561
55.975 12.399131
55.980 11.847085
55.985 11.421648
55.990 11.102379
55.995 11.019119
56.000 10.7431
56.005 10.16455
56.010 10.008456
56.015 9.646576
56.020 10.130663
56.025 10.388817
56.030 10.683575
56.035 11.174932
56.040 11.796948
56.045 12.071705
56.050 12.156486
56.055 12.388214
56.060 11.688412
56.065 11.142914
56.070 10.674644
56.075 10.126622
56.080 10.413774
56.085 10.429363
56.090 9.87333
56.095 10.191389
56.100 10.045079
56.105 10.065005
56.110 10.534906
56.115 10.088265
56.120 9.876919
56.125 10.324083
56.130 10.963885
56.135 11.183357
56.140 11.31389
56.145 11.212467
56.150 11.221775
56.155 11.321644
56.160 10.846535
56.165 10.380342
56.170 10.498447
56.175 10.58681
56.180 10.808909
56.185 10.827514
56.190 11.049685
56.195 11.84549
56.200 12.285805
56.205 12.35697
56.210 12.15757
56.215 12.095283
56.220 12.13905
56.225 11.993399
56.230 11.562343
56.235 10.924643
56.240 10.804867
56.245 10.614335
56.250 10.679982
56.255 11.314938
56.260 11.646603
56.265 11.838159
56.270 11.79609
56.275 11.66671
56.280 11.524612
56.285 10.920021
56.290 10.277724
56.295 9.672143
56.300 9.421524
56.305 9.969818
56.310 10.002683
56.315 10.266437
56.320 10.677947
56.325 11.264178
56.330 11.435455
56.335 11.37417
56.340 11.226246
56.345 11.270247
56.350 11.525943
56.355 11.867048
56.360 11.563214
56.365 11.904765
56.370 11.743153
56.375 11.831459
56.380 11.736646
56.385 11.593588
56.390 11.105742
56.395 10.722331
56.400 10.46069
56.405 10.229415
56.410 10.157136
56.415 10.414619
56.420 9.719618
56.425 10.12445
56.430 10.607764
56.435 10.810115
56.440 11.3073
56.445 11.437322
56.450 11.351192
56.455 11.870391
56.460 11.990418
56.465 11.615225
56.470 11.542709
56.475 10.829121
56.480 10.319574
56.485 10.089079
56.490 9.47505
56.495 9.199416
56.500 8.854568
56.505 9.453097
56.510 10.26065
56.515 10.982199
56.520 11.455688
56.525 11.867424
56.530 12.194558
56.535 12.237413
56.540 12.042936
56.545 12.13413
56.550 12.239638
56.555 11.763398
56.560 11.29614
56.565 11.222758
56.570 11.356765
56.575 11.712401
56.580 11.281979
56.585 11.03159
56.590 11.617154
56.595 12.379535
56.600 12.239527
56.605 11.637817
56.610 10.807316
56.615 10.56692
56.620 10.388188
56.625 10.201757
56.630 9.930636
56.635 10.073367
56.640 10.805614
56.645 11.166306
56.650 11.478805
56.655 12.320953
56.660 12.347947
56.665 12.494373
56.670 12.426103
56.675 12.177139
56.680 12.341141
56.685 12.155406
56.690 11.472777
56.695 11.352164
56.700 11.338244
56.705 11.505171
56.710 11.65068
56.715 11.61829
56.720 12.211776
56.725 12.253264
56.730 11.971411
56.735 11.626937
56.740 11.87264
56.745 11.654996
56.750 11.694187
56.755 11.293521
56.760 11.130804
56.765 11.481169
56.770 11.670611
56.775 11.202219
56.780 11.277693
56.785 11.596086
56.790 11.840789
56.795 12.254287
56.800 12.305275
56.805 12.362866
56.810 12.710704
56.815 12.902731
56.820 12.293249
56.825 11.846272
56.830 12.102414
56.835 12.439075
56.840 12.309242
56.845 12.391378
56.850 12.292686
56.855 12.679149
56.860 13.205589
56.865 13.121566
56.870 12.983968
56.875 12.944544
56.880 12.486337
56.885 12.199869
56.890 11.867561
56.895 11.479993
56.900 11.304131
56.905 11.470057
56.910 11.593559
56.915 12.21988
56.920 12.480938
56.925 12.504661
56.930 12.46274
56.935 12.095893
56.940 12.117614
56.945 12.039188
56.950 11.797497
56.955 11.679081
56.960 11.522921
56.965 11.347898
56.970 11.036143
56.975 11.149336
56.980 11.131557
56.985 11.427099
56.990 12.141636
56.995 12.257897
57.000 12.473273
57.005 12.662971
57.010 12.420158
57.015 12.576692
57.020 12.494157
57.025 11.935777
57.030 11.922091
57.035 12.234959
57.040 12.425518
57.045 12.295507
57.050 11.785007
57.055 11.328013
57.060 11.5461
57.065 11.920739
57.070 11.893216
57.075 11.911934
57.080 11.955252
57.085 12.158964
57.090 12.350855
57.095 12.751576
57.100 12.355206
57.105 11.984321
57.110 11.69995
57.115 11.618694
57.120 11.368742
57.125 11.388352
57.130 10.73114
57.135 10.934047
57.140 11.297339
57.145 12.175138
57.150 12.568731
57.155 12.905421
57.160 13.117018
57.165 13.42801
57.170 13.598657
57.175 13.489354
57.180 13.022563
57.185 12.749264
57.190 12.930752
57.195 12.82493
57.200 12.735804
57.205 12.751766
57.210 12.100515
57.215 11.421478
57.220 11.199495
57.225 10.616742
57.230 10.814561
57.235 10.859361
57.240 10.807721
57.245 11.553008
57.250 12.186557
57.255 12.632689
57.260 12.61445
57.265 12.320807
57.270 12.835265
57.275 12.905188
57.280 12.887095
57.285 12.946219
57.290 12.961127
57.295 13.071464
57.300 13.084087
57.305 12.859179
57.310 12.830192
57.315 12.743353
57.320 12.782064
57.325 13.022923
57.330 13.053623
57.335 12.900545
57.340 13.377946
57.345 13.400517
57.350 12.843118
57.355 12.374193
57.360 12.306284
57.365 12.293306
57.370 12.079307
57.375 11.335495
57.380 11.211588
57.385 12.00235
57.390 11.859462
57.395 12.239591
57.400 12.787075
57.405 12.907874
57.410 13.595835
57.415 13.373189
57.420 13.314301
57.425 13.703429
57.430 13.348512
57.435 13.20062
57.440 13.558831
57.445 13.554372
57.450 13.873767
57.455 13.526247
57.460 12.938074
57.465 12.930442
57.470 12.9593
57.475 12.402699
57.480 12.263163
57.485 11.890181
57.490 11.79016
57.495 11.935096
57.500 11.356958
57.505 11.374274
57.510 11.945912
57.515 12.5569
57.520 12.736525
57.525 13.020857
57.530 13.213923
57.535 13.314094
57.540 12.823983
57.545 12.086094
57.550 11.61912
57.555 12.081671
57.560 12.605568
57.565 13.320794
57.570 14.033544
57.575 14.163139
57.580 14.532707
57.585 14.777974
57.590 14.600469
57.595 14.174847
57.600 13.51116
57.605 12.772583
57.610 12.691568
57.615 12.458835
57.620 12.172722
57.625 11.879867
57.630 11.97467
57.635 12.107204
57.640 12.407599
57.645 12.307933
57.650 12.51052
57.655 13.052535
57.660 13.490469
57.665 13.268514
57.670 12.886258
57.675 12.941872
57.680 13.115327
57.685 12.983287
57.690 12.998443
57.695 13.291382
57.700 13.066301
57.705 12.776087
57.710 12.671948
57.715 12.685714
57.720 12.680042
57.725 12.291572
57.730 12.244913
57.735 13.010628
57.740 13.575333
57.745 13.574599
57.750 13.48202
57.755 13.186769
57.760 13.075928
57.765 12.634011
57.770 12.094154
57.775 12.323524
57.780 12.63866
57.785 12.838328
57.790 13.211614
57.795 13.752254
57.800 13.813642
57.805 13.833345
57.810 13.556601
57.815 13.486766
57.820 13.992412
57.825 14.016317
57.830 13.740215
57.835 13.846155
57.840 14.268847
57.845 14.259436
57.850 14.327617
57.855 13.836737
57.860 13.414181
57.865 13.185096
57.870 12.932072
57.875 13.241446
57.880 13.646482
57.885 13.535905
57.890 13.528239
57.895 13.548263
57.900 14.328382
57.905 14.806321
57.910 14.304651
57.915 14.240344
57.920 14.835487
57.925 15.310502
57.930 15.236066
57.935 14.690583
57.940 14.714701
57.945 14.976516
57.950 14.770468
57.955 14.674149
57.960 14.613121
57.965 14.910491
57.970 15.214816
57.975 15.289723
57.980 15.581741
57.985 15.932051
57.990 15.762253
57.995 15.470075
58.000 15.165749
58.005 14.434014
58.010 14.326191
58.015 13.841011
58.020 13.207122
58.025 13.296887
58.030 13.44
58.035 13.713396
58.040 13.745897
58.045 13.239946
58.050 12.975116
58.055 12.969199
58.060 12.972188
58.065 13.083101
58.070 13.69416
58.075 14.51582
58.080 15.103312
58.085 15.252792
58.090 15.141945
58.095 14.90821
58.100 15.287601
58.105 14.608257
58.110 14.305055
58.115 14.359604
58.120 15.169475
58.125 16.111975
58.130 16.701752
58.135 17.061098
58.140 17.690897
58.145 17.634512
58.150 17.394312
58.155 17.041845
58.160 16.665314
58.165 16.190014
58.170 15.189695
58.175 14.742627
58.180 14.404631
58.185 14.174792
58.190 13.645129
58.195 13.364592
58.200 13.301467
58.205 13.407454
58.210 13.26259
58.215 13.920514
58.220 14.454052
58.225 14.164723
58.230 14.29386
58.235 14.468906
58.240 15.237909
58.245 15.429814
58.250 15.64314
58.255 15.750793
58.260 16.299061
58.265 15.648236
58.270 14.988078
58.275 14.83263
58.280 14.612683
58.285 14.491508
58.290 14.941765
58.295 15.271396
58.300 16.233435
58.305 16.757809
58.310 16.865841
58.315 17.146275
58.320 16.643545
58.325 16.19603
58.330 16.371727
58.335 15.918707
58.340 15.696946
58.345 15.509641
58.350 15.900109
58.355 16.522938
58.360 16.540949
58.365 16.581465
58.370 16.77025
58.375 16.837257
58.380 16.71155
58.385 16.844784
58.390 17.413313
58.395 18.286665
58.400 18.207441
58.405 18.669159
58.410 19.111893
58.415 19.469601
58.420 19.242868
58.425 18.798428
58.430 18.598946
58.435 18.654062
58.440 18.284164
58.445 18.335938
58.450 19.116322
58.455 19.668711
58.460 20.010214
58.465 20.279692
58.470 21.089409
58.475 21.667019
58.480 21.113701
58.485 20.519424
58.490 20.902439
58.495 21.608635
58.500 21.739204
58.505 21.231228
58.510 21.82077
58.515 22.855289
58.520 23.6376
58.525 23.433971
58.530 22.763294
58.535 22.787861
58.540 23.620935
58.545 24.006413
58.550 24.353237
58.555 24.559387
58.560 25.066256
58.565 26.253134
58.570 27.257751
58.575 27.730944
58.580 27.721441
58.585 28.17148
58.590 28.218723
58.595 28.901024
58.600 29.79418
58.605 29.639139
58.610 29.834274
58.615 29.762516
58.620 29.250854
58.625 29.957069
58.630 30.22633
58.635 30.197893
58.640 30.630524
58.645 30.893032
58.650 31.339645
58.655 32.188232
58.660 33.071854
58.665 33.730103
58.670 34.555939
58.675 34.922501
58.680 34.996819
58.685 35.330883
58.690 35.080074
58.695 34.955032
58.700 34.474148
58.705 33.057785
58.710 32.891651
58.715 33.4048
58.720 33.63168
58.725 34.308102
58.730 34.020142
58.735 34.249199
58.740 34.613029
58.745 34.612999
58.750 34.453918
58.755 34.173935
58.760 33.399967
58.765 33.258747
58.770 32.568348
58.775 32.877865
58.780 33.163635
58.785 32.449078
58.790 32.230354
58.795 32.481625
58.800 31.413342
58.805 31.326635
58.810 30.919359
58.815 29.751019
58.820 28.930309
58.825 28.594057
58.830 28.055031
58.835 28.40296
58.840 27.940756
58.845 27.37314
58.850 27.216166
58.855 27.097841
58.860 26.716618
58.865 26.009747
58.870 24.77553
58.875 24.264116
58.880 24.149055
58.885 24.033783
58.890 23.522165
58.895 22.88586
58.900 22.679926
58.905 22.304302
58.910 22.005798
58.915 21.546423
58.920 21.157467
58.925 21.496769
58.930 21.660131
58.935 21.417276
58.940 20.912125
58.945 21.023262
58.950 20.548058
58.955 20.648428
58.960 20.350105
58.965 19.743622
58.970 19.711052
58.975 19.605423
58.980 19.52392
58.985 19.252813
58.990 18.380461
58.995 17.921127
59.000 17.581068
59.005 17.411032
59.010 17.712765
59.015 17.201082
59.020 16.983826
59.025 17.006176
59.030 17.165058
59.035 17.45928
59.040 17.557442
59.045 16.890862
59.050 16.86697
59.055 17.069008
59.060 17.045019
59.065 17.265055
59.070 17.024351
59.075 16.764421
59.080 16.979187
59.085 16.752316
59.090 16.777575
59.095 15.727345
59.100 15.36871
59.105 14.920512
59.110 14.685819
59.115 14.72192
59.120 14.426536
59.125 14.614979
59.130 15.140262
59.135 15.142432
59.140 15.367122
59.145 14.867429
59.150 14.834668
59.155 15.15226
59.160 14.910646
59.165 14.60628
59.170 14.789844
59.175 15.233453
59.180 15.683862
59.185 15.581582
59.190 15.67415
59.195 15.713405
59.200 15.695547
59.205 15.334278
59.210 15.135676
59.215 14.980089
59.220 14.652582
59.225 14.582652
59.230 14.659007
59.235 14.991461
59.240 15.02102
59.245 14.851337
59.250 15.034227
59.255 14.632568
59.260 13.963234
59.265 14.085526
59.270 13.912468
59.275 14.225113
59.280 14.175074
59.285 13.76242
59.290 13.919622
59.295 14.65783
59.300 14.343768
59.305 14.064002
59.310 14.273656
59.315 14.117906
59.320 13.689718
59.325 14.035067
59.330 13.426951
59.335 13.696714
59.340 13.821601
59.345 13.278104
59.350 13.595819
59.355 13.809137
59.360 13.927251
59.365 14.607967
59.370 15.026577
59.375 14.975651
59.380 14.921749
59.385 15.041121
59.390 15.649238
59.395 15.680572
59.400 15.272776
59.405 14.937737
59.410 15.162273
59.415 15.373474
59.420 15.038609
59.425 14.823702
59.430 15.015331
59.435 15.335188
59.440 15.485623
59.445 15.975569
59.450 16.084261
59.455 16.39909
59.460 16.162554
59.465 15.697662
59.470 15.188636
59.475 15.410541
59.480 15.427669
59.485 15.229319
59.490 14.85847
59.495 14.300317
59.500 14.577848
59.505 14.862567
59.510 13.801112
59.515 13.346365
59.520 13.368672
59.525 13.063902
59.530 12.666478
59.535 12.150721
59.540 11.779616
59.545 12.212962
59.550 12.129286
59.555 11.894198
59.560 12.431691
59.565 13.144792
59.570 12.992761
59.575 13.328542
59.580 13.731606
59.585 14.279133
59.590 14.506741
59.595 14.78758
59.600 15.033851
59.605 15.609489
59.610 15.96248
59.615 15.680187
59.620 15.34401
59.625 15.120102
59.630 15.139868
59.635 15.083788
59.640 14.793378
59.645 14.329591
59.650 14.027229
59.655 13.993189
59.660 13.838658
59.665 13.53688
59.670 13.597204
59.675 13.546273
59.680 13.397221
59.685 13.39469
59.690 13.897973
59.695 14.11701
59.700 14.397977
59.705 14.538211
59.710 14.923353
59.715 15.238447
59.720 15.40006
59.725 15.012877
59.730 15.17784
59.735 15.026408
59.740 14.980865
59.745 14.698993
59.750 15.058795
59.755 14.88081
59.760 14.761914
59.765 14.870852
59.770 14.207415
59.775 14.752464
59.780 14.724664
59.785 14.461687
59.790 14.546
59.795 14.584907
59.800 14.631147
59.805 14.614867
59.810 13.705736
59.815 14.044495
59.820 13.7898
59.825 13.669165
59.830 13.638103
59.835 13.522886
59.840 13.740053
59.845 14.031264
59.850 13.39704
59.855 13.721617
59.860 14.040253
59.865 14.218963
59.870 14.191661
59.875 14.284953
59.880 14.373972
59.885 14.547672
59.890 14.382013
59.895 14.534352
59.900 14.615644
59.905 14.656746
59.910 14.834095
59.915 14.738057
59.920 14.642057
59.925 14.434066
59.930 14.039129
59.935 14.125848
59.940 14.117292
59.945 13.851216
59.950 13.593637
59.955 13.734401
59.960 14.101412
59.965 14.176221
59.970 13.994499
59.975 13.999543
59.980 13.650286
59.985 13.55351
59.990 13.384201
59.995 13.393111
60.000 13.555868
60.005 13.698708
60.010 14.081709
60.015 14.667955
60.020 14.904837
60.025 15.214321
60.030 15.151456
60.035 15.376904
60.040 14.995708
60.045 15.018157
60.050 15.24172
60.055 15.324903
60.060 14.734541
60.065 14.493493
60.070 14.096108
60.075 14.53837
60.080 13.977425
60.085 13.556401
60.090 14.157855
60.095 15.165617
60.100 15.454878
60.105 15.482045
60.110 15.150639
60.115 15.13658
60.120 15.323359
60.125 15.047242
60.130 14.723809
60.135 14.682745
60.140 15.074157
60.145 15.517532
60.150 15.703919
60.155 15.683589
60.160 15.639362
60.165 15.483426
60.170 15.323944
60.175 14.747538
60.180 14.004081
60.185 13.93889
60.190 13.810237
60.195 13.636633
60.200 13.374384
60.205 13.48299
60.210 13.764795
60.215 13.996739
60.220 14.166178
60.225 13.676037
60.230 13.13815
60.235 13.222033
60.240 12.929581
60.245 12.798997
60.250 13.099516
60.255 12.603729
60.260 13.240519
60.265 13.454996
60.270 13.803086
60.275 13.719066
60.280 13.492988
60.285 13.463058
60.290 13.628476
60.295 13.311523
60.300 13.249185
60.305 13.086767
60.310 12.736765
60.315 12.683374
60.320 12.581556
60.325 12.941389
60.330 12.750976
60.335 13.278429
60.340 13.476682
60.345 13.794051
60.350 13.567939
60.355 13.672487
60.360 13.162958
60.365 13.236845
60.370 13.112678
60.375 13.191791
60.380 13.405839
60.385 13.746241
60.390 13.750843
60.395 14.308016
60.400 14.254905
60.405 14.088126
60.410 14.253757
60.415 14.654876
60.420 14.871585
60.425 14.92892
60.430 15.122897
60.435 15.013895
60.440 14.838011
60.445 14.877122
60.450 14.531372
60.455 14.259668
60.460 13.667194
60.465 13.164063
60.470 13.426353
60.475 13.488002
60.480 13.283132
60.485 13.523647
60.490 13.822274
60.495 14.384582
60.500 14.870557
60.505 14.658209
60.510 14.137192
60.515 14.358856
60.520 14.116418
60.525 14.219565
60.530 14.640162
60.535 14.453216
60.540 14.790279
60.545 15.249701
60.550 15.091441
60.555 15.136683
60.560 15.122122
60.565 14.77795
60.570 15.345084
60.575 15.133126
60.580 14.447638
60.585 14.468885
60.590 14.537817
60.595 14.76285
60.600 15.165384
60.605 15.206597
60.610 16.014671
60.615 17.309649
60.620 17.792522
60.625 17.639835
60.630 17.306269
60.635 16.743114
60.640 16.000235
60.645 15.474956
60.650 14.782159
60.655 14.281515
60.660 14.365685
60.665 14.022704
60.670 13.91673
60.675 14.118728
60.680 13.800899
60.685 13.936347
60.690 14.056656
60.695 14.290121
60.700 14.434557
60.705 14.892954
60.710 15.15027
60.715 15.277326
60.720 15.163654
60.725 14.654614
60.730 14.190165
60.735 14.339776
60.740 14.327558
60.745 13.980911
60.750 13.721177
60.755 14.106774
60.760 14.574666
60.765 15.157381
60.770 14.888857
60.775 14.381712
60.780 14.747785
60.785 14.548573
60.790 14.27183
60.795 13.83668
60.800 13.097632
60.805 13.225367
60.810 13.474292
60.815 13.241657
60.820 13.497266
60.825 13.670244
60.830 14.031061
60.835 14.215079
60.840 13.938027
60.845 14.201995
60.850 14.821928
60.855 15.363287
60.860 15.285136
60.865 14.957144
60.870 15.065091
60.875 15.295825
60.880 15.54876
60.885 15.479272
60.890 15.119178
60.895 14.521191
60.900 14.664777
60.905 14.638143
60.910 14.450761
60.915 13.528887
60.920 12.833687
60.925 12.954935
60.930 13.345015
60.935 13.771965
60.940 14.142462
60.945 14.326052
60.950 14.44476
60.955 14.82429
60.960 14.752992
60.965 14.813312
60.970 14.830283
60.975 14.912323
60.980 14.589488
60.985 14.099915
60.990 14.279671
60.995 14.478879
61.000 14.860579
61.005 14.954923
61.010 14.655786
61.015 15.00236
61.020 15.3665
61.025 15.145262
61.030 14.675222
61.035 14.021162
61.040 13.893347
61.045 13.987467
61.050 13.733661
61.055 13.355828
61.060 13.491883
61.065 13.866588
61.070 14.137624
61.075 13.629234
61.080 13.534162
61.085 13.997855
61.090 14.89718
61.095 14.355915
61.100 14.431142
61.105 14.945351
61.110 15.274705
61.115 15.154299
61.120 14.980434
61.125 14.315186
61.130 14.584594
61.135 14.1844
61.140 13.714123
61.145 13.501534
61.150 13.734158
61.155 14.2206
61.160 14.858792
61.165 15.2157
61.170 15.02958
61.175 14.891334
61.180 15.314196
61.185 15.550657
61.190 14.970743
61.195 14.808314
61.200 15.005396
61.205 15.39535
61.210 15.547369
61.215 14.988697
61.220 14.59206
61.225 15.026458
61.230 14.958257
61.235 14.387772
61.240 14.578694
61.245 14.611964
61.250 15.004478
61.255 15.018558
61.260 14.933487
61.265 15.410108
61.270 15.960366
61.275 16.21719
61.280 16.710146
61.285 17.298216
61.290 17.763395
61.295 17.792917
61.300 17.158415
61.305 16.814714
61.310 16.33893
61.315 15.858318
61.320 15.433514
61.325 14.855309
61.330 14.770679
61.335 14.841779
61.340 14.314625
61.345 14.287917
61.350 14.342222
61.355 14.2411
61.360 14.549756
61.365 14.618222
61.370 14.623088
61.375 15.017762
61.380 15.291032
61.385 15.228723
61.390 15.505178
61.395 15.236119
61.400 15.101589
61.405 15.640758
61.410 15.514547
61.415 15.321457
61.420 15.190086
61.425 15.177821
61.430 15.341763
61.435 15.542419
61.440 15.622384
61.445 15.762167
61.450 15.858367
61.455 15.887823
61.460 15.382876
61.465 15.404264
61.470 15.405572
61.475 15.359579
61.480 15.65748
61.485 15.774879
61.490 15.578255
61.495 16.057554
61.500 16.249083
61.505 16.377613
61.510 16.746101
61.515 16.333679
61.520 15.714954
61.525 15.836825
61.530 15.742948
61.535 15.888859
61.540 15.816738
61.545 15.318089
61.550 15.438163
61.555 15.137511
61.560 15.033553
61.565 14.665788
61.570 14.520293
61.575 14.727941
61.580 14.695068
61.585 15.186211
61.590 15.896948
61.595 15.877341
61.600 15.656802
61.605 15.23069
61.610 14.915788
61.615 14.892296
61.620 14.375508
61.625 14.180888
61.630 14.158198
61.635 14.380264
61.640 13.936868
61.645 13.38882
61.650 13.220359
61.655 12.836066
61.660 13.780313
61.665 14.601178
61.670 14.746689
61.675 14.969642
61.680 15.137174
61.685 15.431382
61.690 15.697251
61.695 14.92527
61.700 14.712413
61.705 14.740889
61.710 14.951221
61.715 14.900047
61.720 15.099357
61.725 14.87305
61.730 14.632857
61.735 14.559715
61.740 14.112781
61.745 14.065778
61.750 14.185914
61.755 13.893701
61.760 14.422585
61.765 14.160253
61.770 14.200974
61.775 14.557519
61.780 14.434736
61.785 14.45469
61.790 14.62917
61.795 14.782177
61.800 15.124568
61.805 14.778746
61.810 15.075175
61.815 15.287268
61.820 15.370435
61.825 15.173244
61.830 14.336078
61.835 14.49575
61.840 14.882424
61.845 14.496467
61.850 14.397874
61.855 14.637724
61.860 15.099551
61.865 15.698029
61.870 15.96443
61.875 16.572592
61.880 17.245972
61.885 17.406111
61.890 17.006178
61.895 16.981224
61.900 17.524321
61.905 17.137825
61.910 16.740503
61.915 16.660511
61.920 16.347065
61.925 16.823139
61.930 16.751507
61.935 16.420765
61.940 17.19702
61.945 17.153563
61.950 16.932137
61.955 17.499897
61.960 16.669132
61.965 15.903277
61.970 15.60874
61.975 14.964176
61.980 14.455442
61.985 14.166664
61.990 13.71525
61.995 14.259774
62.000 15.047411
62.005 15.223521
62.010 15.800212
62.015 15.776402
62.020 15.560397
62.025 15.027296
62.030 15.602433
62.035 15.655679
62.040 14.931805
62.045 14.363648
62.050 14.363811
62.055 14.738825
62.060 15.175732
62.065 14.389247
62.070 14.351426
62.075 14.664975
62.080 14.864874
62.085 15.512862
62.090 15.598433
62.095 15.432892
62.100 15.624283
62.105 15.562561
62.110 15.932246
62.115 15.591154
62.120 15.320165
62.125 15.304796
62.130 15.817065
62.135 15.895385
62.140 15.811664
62.145 15.669227
62.150 15.946095
62.155 16.532171
62.160 17.349276
62.165 17.725031
62.170 17.987127
62.175 17.700426
62.180 17.132751
62.185 16.731684
62.190 15.977386
62.195 15.063565
62.200 14.343529
62.205 14.5941
62.210 15.405596
62.215 15.712159
62.220 15.556619
62.225 15.772805
62.230 15.833768
62.235 15.432116
62.240 14.729151
62.245 14.012508
62.250 14.634192
62.255 15.129849
62.260 15.213144
62.265 15.195091
62.270 15.356903
62.275 15.363587
62.280 15.309056
62.285 14.844357
62.290 14.814013
62.295 14.910673
62.300 15.042878
62.305 15.02543
62.310 15.019076
62.315 15.394734
62.320 15.617532
62.325 15.077619
62.330 14.544736
62.335 14.578465
62.340 15.009035
62.345 15.181474
62.350 15.15284
62.355 14.871679
62.360 15.187978
62.365 15.564434
62.370 15.754088
62.375 15.653378
62.380 15.559748
62.385 15.376722
62.390 15.149494
62.395 15.673831
62.400 15.792994
62.405 15.618268
62.410 16.071756
62.415 16.461557
62.420 16.279423
62.425 16.347504
62.430 15.671697
62.435 15.683047
62.440 15.870227
62.445 15.743665
62.450 15.852066
62.455 16.055313
62.460 16.170872
62.465 16.749458
62.470 16.562956
62.475 16.869377
62.480 16.539499
62.485 15.845789
62.490 15.96325
62.495 16.408808
62.500 16.126661
62.505 16.282429
62.510 15.78027
62.515 15.801966
62.520 16.187191
62.525 16.443707
62.530 16.432878
62.535 16.170139
62.540 16.323238
62.545 16.586639
62.550 16.50942
62.555 16.479763
62.560 16.382484
62.565 16.152037
62.570 15.994696
62.575 15.586458
62.580 15.601506
62.585 15.30951
62.590 15.209106
62.595 14.945288
62.600 14.956508
62.605 15.084589
62.610 14.667983
62.615 14.815296
62.620 14.979585
62.625 14.664083
62.630 14.713172
62.635 14.810945
62.640 15.158897
62.645 15.762991
62.650 16.092594
62.655 16.956118
62.660 17.691284
62.665 17.782383
62.670 17.698389
62.675 17.184679
62.680 16.657764
62.685 16.184975
62.690 15.782339
62.695 15.317565
62.700 15.090841
62.705 15.117008
62.710 15.463402
62.715 15.483307
62.720 15.374617
62.725 15.142301
62.730 15.411491
62.735 15.970609
62.740 15.872287
62.745 15.987693
62.750 15.78308
62.755 15.770617
62.760 15.945493
62.765 15.799226
62.770 15.768279
62.775 15.952787
62.780 15.994081
62.785 16.423437
62.790 16.123747
62.795 15.654449
62.800 15.347709
62.805 14.883129
62.810 14.381633
62.815 13.786458
62.820 13.466702
62.825 13.813828
62.830 14.088884
62.835 14.17232
62.840 14.356068
62.845 14.435879
62.850 14.646152
62.855 14.528009
62.860 14.323818
62.865 14.831792
62.870 14.985592
62.875 14.669073
62.880 14.923462
62.885 15.390612
62.890 15.267828
62.895 15.396767
62.900 15.033751
62.905 15.35414
62.910 15.705818
62.915 15.909773
62.920 15.887046
62.925 16.410954
62.930 16.003565
62.935 15.622537
62.940 15.060061
62.945 15.231976
62.950 14.788802
62.955 14.34479
62.960 14.510647
62.965 14.834644
62.970 15.522049
62.975 16.464273
62.980 16.369675
62.985 16.401167
62.990 17.045864
62.995 17.327658
63.000 18.051258
63.005 18.143421
63.010 17.707546
63.015 17.704748
63.020 18.042486
63.025 17.500074
63.030 16.959095
63.035 16.483843
63.040 16.137951
63.045 16.399801
63.050 16.869066
63.055 17.376453
63.060 17.640158
63.065 17.483095
63.070 17.229733
63.075 16.949593
63.080 17.260162
63.085 17.04744
63.090 16.376987
63.095 16.112259
63.100 16.221191
63.105 16.206247
63.110 16.307066
63.115 16.636005
63.120 16.993153
63.125 17.074486
63.130 17.245527
63.135 17.733454
63.140 17.938583
63.145 18.278778
63.150 17.540691
63.155 17.227186
63.160 17.077263
63.165 16.912428
63.170 16.812956
63.175 17.03775
63.180 16.110411
63.185 16.028862
63.190 15.656699
63.195 15.625117
63.200 15.708816
63.205 15.284534
63.210 15.448556
63.215 16.372435
63.220 16.807341
63.225 17.31809
63.230 17.654509
63.235 18.017942
63.240 18.124416
63.245 17.48954
63.250 17.009007
63.255 16.832218
63.260 16.669882
63.265 16.669767
63.270 16.936453
63.275 17.450556
63.280 17.77487
63.285 17.822922
63.290 17.549284
63.295 17.311306
63.300 17.19352
63.305 16.57546
63.310 16.608204
63.315 16.351025
63.320 16.096296
63.325 16.397457
63.330 16.9284
63.335 16.954981
63.340 17.038435
63.345 16.625443
63.350 16.879919
63.355 17.040661
63.360 16.282171
63.365 15.904686
63.370 15.701751
63.375 15.494699
63.380 15.477817
63.385 15.286674
63.390 15.261919
63.395 15.697655
63.400 16.159546
63.405 16.409327
63.410 16.780439
63.415 17.163017
63.420 17.185972
63.425 17.007664
63.430 16.952358
63.435 16.478987
63.440 16.351543
63.445 16.094872
63.450 15.584356
63.455 15.717553
63.460 15.490947
63.465 14.76545
63.470 15.171249
63.475 15.608264
63.480 15.742867
63.485 15.753923
63.490 15.984903
63.495 16.561455
63.500 17.047888
63.505 16.504204
63.510 16.070532
63.515 16.312531
63.520 16.775213
63.525 16.39698
63.530 16.099485
63.535 16.015556
63.540 16.23037
63.545 16.09289
63.550 15.715921
63.555 15.736317
63.560 16.118567
63.565 16.438803
63.570 16.680122
63.575 16.37463
63.580 16.481728
63.585 16.584574
63.590 16.003521
63.595 16.019672
63.600 15.651081
63.605 15.545153
63.610 15.701874
63.615 15.804618
63.620 15.791709
63.625 16.097986
63.630 16.42271
63.635 16.438211
63.640 16.826174
63.645 17.32303
63.650 17.399319
63.655 17.029644
63.660 17.176613
63.665 17.469727
63.670 18.169029
63.675 18.072229
63.680 17.599249
63.685 17.555672
63.690 18.346569
63.695 18.243813
63.700 18.033398
63.705 17.584925
63.710 17.535912
63.715 18.084417
63.720 18.03446
63.725 17.415249
63.730 17.502573
63.735 17.616371
63.740 17.852858
63.745 17.983404
63.750 17.34367
63.755 17.087936
63.760 16.835165
63.765 16.290953
63.770 15.636495
63.775 14.770761
63.780 14.62002
63.785 15.103099
63.790 15.313162
63.795 15.819437
63.800 15.942879
63.805 16.552767
63.810 16.992359
63.815 16.927671
63.820 16.78598
63.825 16.949514
63.830 17.260546
63.835 17.813612
63.840 18.041525
63.845 18.109463
63.850 17.860674
63.855 18.071421
63.860 17.883997
63.865 17.633821
63.870 16.936283
63.875 16.630053
63.880 17.03174
63.885 17.848948
63.890 17.982203
63.895 18.388729
63.900 18.010527
63.905 18.541864
63.910 19.14073
63.915 19.108713
63.920 18.36768
63.925 17.892853
63.930 17.84012
63.935 18.433672
63.940 17.866035
63.945 17.254402
63.950 17.423143
63.955 17.807056
63.960 18.536018
63.965 18.496529
63.970 18.489159
63.975 18.338247
63.980 18.340464
63.985 18.116659
63.990 17.787033
63.995 17.627831
64.000 17.956446
64.005 17.834982
64.010 18.069719
64.015 18.260212
64.020 19.025105
64.025 19.185738
64.030 19.423096
64.035 19.389187
64.040 19.6458
64.045 20.181595
64.050 20.370445
64.055 20.194975
64.060 20.229752
64.065 19.654146
64.070 19.546902
64.075 19.761036
64.080 19.850262
64.085 20.011877
64.090 20.240126
64.095 20.739246
64.100 21.346142
64.105 21.567636
64.110 21.616566
64.115 22.258091
64.120 23.168266
64.125 23.054049
64.130 23.214167
64.135 23.502661
64.140 23.971649
64.145 23.978411
64.150 23.362539
64.155 23.40192
64.160 23.26804
64.165 23.090248
64.170 23.884907
64.175 24.046804
64.180 24.525541
64.185 24.96324
64.190 25.564352
64.195 26.400955
64.200 27.569178
64.205 27.329815
64.210 27.612337
64.215 27.569122
64.220 27.738951
64.225 27.903618
64.230 28.856882
64.235 28.140518
64.240 28.647362
64.245 28.97917
64.250 29.139555
64.255 30.214016
64.260 31.376831
64.265 31.516026
64.270 32.428864
64.275 32.761082
64.280 33.898052
64.285 35.238441
64.290 36.156532
64.295 36.58511
64.300 37.537163
64.305 38.028404
64.310 37.948452
64.315 37.169342
64.320 37.017361
64.325 37.74435
64.330 38.391464
64.335 38.695118
64.340 39.573444
64.345 41.154835
64.350 42.751335
64.355 43.542828
64.360 43.857105
64.365 43.942703
64.370 44.492779
64.375 44.668377
64.380 44.776955
64.385 44.89135
64.390 44.697754
64.395 44.706917
64.400 44.726505
64.405 45.645306
64.410 46.573872
64.415 46.649544
64.420 46.348515
64.425 46.348339
64.430 47.298306
64.435 47.910469
64.440 47.898643
64.445 47.450199
64.450 47.679276
64.455 48.797676
64.460 49.41782
64.465 49.482716
64.470 49.282181
64.475 49.179672
64.480 49.272865
64.485 49.661671
64.490 49.29081
64.495 49.062027
64.500 48.884415
64.505 47.963589
64.510 47.11998
64.515 47.10294
64.520 46.40979
64.525 46.147873
64.530 46.310783
64.535 45.650871
64.540 45.757534
64.545 45.827976
64.550 45.822758
64.555 45.148407
64.560 44.268963
64.565 43.447357
64.570 42.564491
64.575 41.564644
64.580 40.646912
64.585 39.610012
64.590 39.608509
64.595 39.342873
64.600 38.667519
64.605 38.377094
64.610 38.593658
64.615 38.773243
64.620 38.387733
64.625 37.3214
64.630 36.608719
64.635 36.209591
64.640 35.46888
64.645 34.338135
64.650 33.947292
64.655 33.521408
64.660 32.823456
64.665 32.443691
64.670 32.938519
64.675 32.594852
64.680 32.121185
64.685 31.223936
64.690 31.152124
64.695 31.134836
64.700 31.109234
64.705 30.062799
64.710 29.927248
64.715 29.877333
64.720 29.417688
64.725 29.21273
64.730 29.080034
64.735 28.519115
64.740 27.853706
64.745 27.285881
64.750 27.137321
64.755 27.573973
64.760 27.284651
64.765 26.665701
64.770 26.603802
64.775 26.21941
64.780 25.349785
64.785 24.670868
64.790 24.445713
64.795 24.026787
64.800 24.46699
64.805 24.240746
64.810 24.042311
64.815 23.951399
64.820 23.149836
64.825 22.807753
64.830 23.061785
64.835 22.716232
64.840 22.745392
64.845 22.894329
64.850 22.504509
64.855 23.383711
64.860 23.176931
64.865 22.679287
64.870 22.368105
64.875 22.25036
64.880 22.423708
64.885 23.06485
64.890 22.76486
64.895 22.606272
64.900 22.786835
64.905 22.99979
64.910 23.088593
64.915 23.25242
64.920 22.512918
64.925 22.224569
64.930 22.164217
64.935 21.853693
64.940 21.878687
64.945 21.807734
64.950 21.305752
64.955 21.804285
64.960 22.606865
64.965 23.21895
64.970 24.22817
64.975 24.747984
64.980 25.637032
64.985 26.281916
64.990 26.344128
64.995 26.759251
65.000 26.93466
65.005 27.068916
65.010 27.391001
65.015 26.947981
65.020 28.263159
65.025 28.40884
65.030 28.508718
65.035 29.002146
65.040 28.610794
65.045 29.033808
65.050 29.894224
65.055 29.681265
65.060 30.937786
65.065 31.610497
65.070 32.082394
65.075 32.739315
65.080 32.798546
65.085 33.098774
65.090 34.117226
65.095 34.237537
65.100 33.899437
65.105 34.346607
65.110 35.07267
65.115 36.281273
65.120 36.580788
65.125 36.074066
65.130 35.702385
65.135 36.131374
65.140 35.860542
65.145 34.775318
65.150 33.932247
65.155 34.261837
65.160 35.102413
65.165 35.747112
65.170 35.667713
65.175 36.193356
65.180 36.441154
65.185 36.701515
65.190 36.635212
65.195 36.731785
65.200 36.580151
65.205 36.833214
65.210 36.717274
65.215 37.021709
65.220 36.421501
65.225 36.237289
65.230 36.762001
65.235 37.151878
65.240 37.185577
65.245 38.067848
65.250 38.660091
65.255 39.425907
65.260 38.810394
65.265 38.186871
65.270 38.617939
65.275 38.618382
65.280 37.762585
65.285 37.086193
65.290 36.605267
65.295 36.619434
65.300 36.530991
65.305 36.116791
65.310 36.685253
65.315 37.132885
65.320 37.221611
65.325 37.242985
65.330 38.048466
65.335 38.205692
65.340 38.112511
65.345 37.847
65.350 37.874668
65.355 38.216999
65.360 38.653931
65.365 38.498325
65.370 39.018288
65.375 39.425217
65.380 38.971272
65.385 39.020489
65.390 39.285503
65.395 39.359261
65.400 39.626774
65.405 39.091591
65.410 39.309181
65.415 40.408932
65.420 41.513931
65.425 41.144333
65.430 41.116203
65.435 40.896217
65.440 41.534031
65.445 41.106312
65.450 40.047821
65.455 39.823116
65.460 40.339787
65.465 40.135475
65.470 39.867741
65.475 38.832527
65.480 38.043751
65.485 37.455727
65.490 36.676693
65.495 36.004807
65.500 35.723988
65.505 35.739922
65.510 35.586876
65.515 36.057457
65.520 36.107918
65.525 36.132015
65.530 36.547359
65.535 37.090599
65.540 37.009014
65.545 37.980816
65.550 37.900448
65.555 37.945011
65.560 37.650097
65.565 36.813362
65.570 36.229588
65.575 36.305706
65.580 36.222931
65.585 36.978283
65.590 37.403881
65.595 37.122494
65.600 37.123089
65.605 37.140636
65.610 36.546219
65.615 34.922516
65.620 34.363735
65.625 33.256145
65.630 33.474747
65.635 33.201656
65.640 32.907013
65.645 32.966976
65.650 33.289463
65.655 33.188972
65.660 33.85511
65.665 34.267876
65.670 33.963089
65.675 33.415649
65.680 33.31073
65.685 33.039444
65.690 32.692574
65.695 32.326477
65.700 32.081264
65.705 32.725784
65.710 33.138569
65.715 32.816673
65.720 33.261013
65.725 32.647976
65.730 32.254345
65.735 32.188637
65.740 31.487883
65.745 30.456192
65.750 29.251373
65.755 27.984316
65.760 27.972113
65.765 27.349302
65.770 26.656301
65.775 26.626984
65.780 26.871029
65.785 26.987875
65.790 26.593887
65.795 25.924448
65.800 25.938677
65.805 26.1294
65.810 25.842405
65.815 25.637472
65.820 25.680609
65.825 25.744503
65.830 26.053432
65.835 25.819101
65.840 26.215464
65.845 27.007425
65.850 27.281979
65.855 27.378681
65.860 27.258043
65.865 26.380966
65.870 26.245693
65.875 25.703888
65.880 25.503729
65.885 25.308472
65.890 24.833046
65.895 24.4188
65.900 24.320049
65.905 23.860826
65.910 23.405958
65.915 22.726524
65.920 22.38798
65.925 22.756767
65.930 22.808771
65.935 22.853535
65.940 22.244656
65.945 21.879126
65.950 21.578287
65.955 21.314846
65.960 20.496193
65.965 20.49802
65.970 20.923241
65.975 20.979811
65.980 21.344387
65.985 21.139977
65.990 21.364937
65.995 20.880272
66.000 20.202196
66.005 19.973263
66.010 20.208473
66.015 19.804125
66.020 19.808418
66.025 19.806301
66.030 20.116663
66.035 20.108524
66.040 19.554272
66.045 20.001423
66.050 20.735746
66.055 20.634436
66.060 19.881207
66.065 20.18154
66.070 20.699467
66.075 20.794538
66.080 20.100636
66.085 19.34729
66.090 19.414404
66.095 19.345215
66.100 19.199459
66.105 19.165932
66.110 18.82937
66.115 18.611549
66.120 18.793472
66.125 18.931124
66.130 19.116804
66.135 19.322178
66.140 19.209249
66.145 19.561966
66.150 20.210466
66.155 19.982262
66.160 19.661713
66.165 19.269913
66.170 18.77121
66.175 18.217094
66.180 18.284916
66.185 18.346045
66.190 18.224424
66.195 18.067677
66.200 17.908815
66.205 17.752075
66.210 17.916531
66.215 17.286007
66.220 16.712273
66.225 16.280069
66.230 16.273468
66.235 16.36729
66.240 16.481062
66.245 16.489477
66.250 16.554501
66.255 16.715071
66.260 17.538132
66.265 17.915955
66.270 18.263277
66.275 18.128244
66.280 18.031815
66.285 18.091536
66.290 17.607994
66.295 17.125605
66.300 16.766459
66.305 17.016794
66.310 16.924475
66.315 16.851538
66.320 16.597977
66.325 16.593937
66.330 16.390142
66.335 16.332714
66.340 16.167894
66.345 16.24155
66.350 15.922668
66.355 15.931196
66.360 16.209797
66.365 16.42631
66.370 16.110817
66.375 16.004038
66.380 16.161877
66.385 16.411295
66.390 16.33316
66.395 16.685835
66.400 17.278025
66.405 18.001411
66.410 18.120668
66.415 17.986019
66.420 18.678623
66.425 19.015219
66.430 18.744576
66.435 18.585991
66.440 18.415171
66.445 18.122862
66.450 18.770388
66.455 18.398174
66.460 17.975666
66.465 18.011459
66.470 17.972095
66.475 18.234922
66.480 18.744671
66.485 18.304686
66.490 18.105129
66.495 18.231771
66.500 17.970379
66.505 17.779528
66.510 17.502266
66.515 17.430433
66.520 17.546589
66.525 18.082233
66.530 18.167467
66.535 17.757524
66.540 17.795589
66.545 17.891851
66.550 18.306496
66.555 18.518274
66.560 18.190763
66.565 18.148031
66.570 18.905155
66.575 18.934889
66.580 19.247484
66.585 19.251299
66.590 18.967798
66.595 19.302454
66.600 19.668472
66.605 20.246912
66.610 20.384542
66.615 20.296564
66.620 20.03533
66.625 19.987366
66.630 19.947832
66.635 19.613867
66.640 18.854584
66.645 19.096478
66.650 18.985632
66.655 19.174294
66.660 19.005507
66.665 18.645107
66.670 18.314098
66.675 17.572855
66.680 17.216753
66.685 16.822748
66.690 16.430429
66.695 16.551193
66.700 16.746601
66.705 17.585838
66.710 18.063885
66.715 17.920502
66.720 18.199118
66.725 18.432512
66.730 18.25976
66.735 17.798964
66.740 17.267879
66.745 17.317579
66.750 17.210133
66.755 16.385244
66.760 15.916752
66.765 16.369089
66.770 16.7903
66.775 16.523624
66.780 16.247313
66.785 15.875077
66.790 16.259806
66.795 17.23699
66.800 17.639099
66.805 17.932394
66.810 18.31357
66.815 18.196465
66.820 18.76475
66.825 19.057264
66.830 18.431211
66.835 17.7397
66.840 17.588182
66.845 17.703995
66.850 18.375891
66.855 18.30921
66.860 17.819044
66.865 17.809296
66.870 18.221598
66.875 17.683767
66.880 17.443472
66.885 17.546551
66.890 17.694155
66.895 18.320366
66.900 17.988344
66.905 17.465271
66.910 17.95085
66.915 17.925545
66.920 17.323698
66.925 17.499699
66.930 17.203777
66.935 17.380192
66.940 18.336218
66.945 18.480913
66.950 18.893276
66.955 18.628468
66.960 18.625679
66.965 18.717566
66.970 18.237936
66.975 17.857988
66.980 17.669783
66.985 17.498816
66.990 17.731197
66.995 17.778667
67.000 17.950867
67.005 17.855566
67.010 17.988289
67.015 18.215586
67.020 17.9856
67.025 18.118731
67.030 17.42186
67.035 17.508251
67.040 18.150293
67.045 18.382341
67.050 18.422503
67.055 18.670044
67.060 18.872587
67.065 19.13509
67.070 18.362122
67.075 17.586109
67.080 17.386189
67.085 17.741282
67.090 17.859936
67.095 18.042418
67.100 18.404587
67.105 19.233788
67.110 19.369347
67.115 19.135649
67.120 18.831272
67.125 18.917929
67.130 18.792437
67.135 18.701965
67.140 18.023577
67.145 18.308874
67.150 18.392479
67.155 18.853113
67.160 18.786301
67.165 18.419353
67.170 18.393387
67.175 18.44972
67.180 18.519207
67.185 18.609838
67.190 18.492672
67.195 18.262659
67.200 18.649849
67.205 19.206215
67.210 19.474751
67.215 19.593685
67.220 19.083555
67.225 18.579292
67.230 18.673389
67.235 17.952097
67.240 17.54812
67.245 17.221626
67.250 17.101671
67.255 17.708269
67.260 18.164103
67.265 18.665051
67.270 19.315825
67.275 19.60541
67.280 19.471231
67.285 19.085667
67.290 18.39616
67.295 17.723621
67.300 17.31333
67.305 17.207474
67.310 17.125576
67.315 17.111198
67.320 17.213852
67.325 17.579865
67.330 17.72526
67.335 18.393486
67.340 18.472677
67.345 18.403948
67.350 19.074907
67.355 19.04109
67.360 18.939899
67.365 19.249802
67.370 18.96641
67.375 18.842182
67.380 18.886633
67.385 18.6285
67.390 18.69132
67.395 18.896082
67.400 18.858587
67.405 19.059137
67.410 19.630089
67.415 19.83914
67.420 20.019648
67.425 19.893646
67.430 19.479635
67.435 19.595367
67.440 19.169031
67.445 18.187634
67.450 17.945457
67.455 17.489361
67.460 17.528938
67.465 17.526831
67.470 17.127317
67.475 16.992435
67.480 17.41251
67.485 16.781487
67.490 16.428461
67.495 16.469048
67.500 16.189896
67.505 16.197533
67.510 16.154106
67.515 15.734224
67.520 16.039835
67.525 16.194128
67.530 16.326908
67.535 16.589781
67.540 16.497435
67.545 16.835276
67.550 17.492537
67.555 17.837914
67.560 17.493563
67.565 17.263844
67.570 17.089407
67.575 17.540981
67.580 17.520203
67.585 17.390049
67.590 17.309435
67.595 17.510714
67.600 17.784601
67.605 17.949574
67.610 17.879581
67.615 18.021595
67.620 18.625668
67.625 19.387991
67.630 20.058756
67.635 19.873861
67.640 19.443865
67.645 18.567673
67.650 18.025309
67.655 17.827839
67.660 17.513559
67.665 17.299898
67.670 17.806948
67.675 18.454132
67.680 18.867434
67.685 18.778067
67.690 18.270761
67.695 18.074442
67.700 17.931162
67.705 17.501141
67.710 17.240141
67.715 17.523924
67.720 17.781603
67.725 17.419018
67.730 17.136112
67.735 16.759172
67.740 16.788404
67.745 16.582241
67.750 16.420996
67.755 16.100164
67.760 16.539879
67.765 16.352478
67.770 16.383776
67.775 16.192736
67.780 16.034632
67.785 16.445728
67.790 16.476713
67.795 16.593252
67.800 16.916132
67.805 17.570543
67.810 18.099712
67.815 18.593706
67.820 18.498785
67.825 18.476233
67.830 19.05662
67.835 19.459929
67.840 19.130821
67.845 19.222034
67.850 19.337893
67.855 19.106567
67.860 19.132687
67.865 18.542339
67.870 18.705162
67.875 19.141747
67.880 19.290026
67.885 19.087854
67.890 19.374361
67.895 19.456697
67.900 19.444757
67.905 19.272573
67.910 18.867441
67.915 18.342934
67.920 17.957069
67.925 17.887745
67.930 18.279734
67.935 18.903101
67.940 18.988735
67.945 18.861712
67.950 18.978594
67.955 19.375067
67.960 19.167831
67.965 19.407219
67.970 19.309122
67.975 18.801092
67.980 19.203285
67.985 19.489738
67.990 19.34766
67.995 19.307901
68.000 19.17655
68.005 19.493391
68.010 19.896406
68.015 19.997414
68.020 20.310431
68.025 20.456421
68.030 21.004942
68.035 20.691872
68.040 20.058937
68.045 19.46858
68.050 18.949875
68.055 19.088661
68.060 19.61968
68.065 18.594908
68.070 19.046318
68.075 18.917511
68.080 19.234793
68.085 19.325201
68.090 19.07069
68.095 18.746683
68.100 19.243464
68.105 19.278067
68.110 19.63335
68.115 19.73698
68.120 19.136015
68.125 18.561932
68.130 18.458288
68.135 18.277206
68.140 17.697962
68.145 17.902267
68.150 18.28101
68.155 18.361259
68.160 18.609564
68.165 18.706573
68.170 18.896189
68.175 19.112104
68.180 18.513235
68.185 18.567778
68.190 19.225967
68.195 19.796747
68.200 19.579416
68.205 19.45257
68.210 19.567717
68.215 19.835724
68.220 19.893236
68.225 20.168352
68.230 20.478506
68.235 21.017937
68.240 21.014095
68.245 21.651291
68.250 21.486639
68.255 21.502695
68.260 22.065012
68.265 22.332191
68.270 22.437996
68.275 22.403643
68.280 22.394495
68.285 23.244709
68.290 23.329069
68.295 23.094326
68.300 22.866468
68.305 23.779099
68.310 24.743855
68.315 24.637604
68.320 24.860588
68.325 24.734167
68.330 24.859482
68.335 25.011045
68.340 24.873243
68.345 25.124737
68.350 26.329363
68.355 26.084835
68.360 26.537672
68.365 26.932516
68.370 27.264585
68.375 27.505049
68.380 27.65731
68.385 28.023973
68.390 29.117239
68.395 29.49251
68.400 29.718225
68.405 29.540119
68.410 29.334789
68.415 29.551538
68.420 29.641335
68.425 30.044907
68.430 29.408844
68.435 28.903635
68.440 28.646667
68.445 28.185326
68.450 28.460234
68.455 28.862909
68.460 28.172806
68.465 29.544947
68.470 31.13611
68.475 31.878672
68.480 32.293823
68.485 32.002209
68.490 32.280762
68.495 32.609898
68.500 31.930813
68.505 31.819283
68.510 32.085052
68.515 32.247536
68.520 33.084167
68.525 33.38739
68.530 33.347298
68.535 33.57143
68.540 33.021873
68.545 33.174961
68.550 33.385418
68.555 32.970032
68.560 33.221832
68.565 33.365807
68.570 33.84325
68.575 33.93745
68.580 33.682129
68.585 34.343842
68.590 34.99559
68.595 34.29768
68.600 34.962833
68.605 35.189053
68.610 35.978279
68.615 36.501907
68.620 36.285141
68.625 36.312958
68.630 36.55286
68.635 36.841442
68.640 36.791191
68.645 36.76252
68.650 37.18644
68.655 36.879639
68.660 37.080082
68.665 36.997993
68.670 36.490658
68.675 36.557716
68.680 35.656063
68.685 35.237839
68.690 34.647541
68.695 33.94532
68.700 34.203918
68.705 33.89526
68.710 33.47617
68.715 33.203613
68.720 32.785179
68.725 32.347439
68.730 32.63813
68.735 32.490292
68.740 33.213543
68.745 33.20145
68.750 33.678989
68.755 34.029522
68.760 35.218258
68.765 35.934944
68.770 35.433617
68.775 34.541706
68.780 34.939182
68.785 34.87207
68.790 34.634235
68.795 33.816578
68.800 33.07534
68.805 33.058372
68.810 32.802437
68.815 32.874561
68.820 33.36026
68.825 33.440498
68.830 32.950436
68.835 33.49968
68.840 33.351212
68.845 33.034512
68.850 33.314079
68.855 32.203682
68.860 32.29562
68.865 33.036358
68.870 33.09848
68.875 33.059311
68.880 32.679558
68.885 31.869318
68.890 32.018574
68.895 31.843916
68.900 31.033398
68.905 30.142035
68.910 30.542818
68.915 31.372194
68.920 31.702541
68.925 31.82402
68.930 31.736111
68.935 30.981297
68.940 30.530821
68.945 30.155775
68.950 29.640398
68.955 28.58721
68.960 28.065676
68.965 27.529547
68.970 27.341959
68.975 27.569786
68.980 27.559404
68.985 27.244854
68.990 27.72772
68.995 27.14764
69.000 27.05369
69.005 26.59552
69.010 26.028202
69.015 24.987267
69.020 24.868563
69.025 24.555313
69.030 24.187918
69.035 24.276096
69.040 24.663355
69.045 24.934082
69.050 25.007545
69.055 24.704659
69.060 25.085743
69.065 25.605124
69.070 25.20822
69.075 25.499815
69.080 24.812088
69.085 24.903751
69.090 25.207039
69.095 24.816093
69.100 25.102234
69.105 25.684439
69.110 25.868298
69.115 25.724884
69.120 25.459965
69.125 25.15341
69.130 25.058718
69.135 24.782267
69.140 24.256474
69.145 23.140825
69.150 23.060221
69.155 22.748226
69.160 22.180523
69.165 21.818008
69.170 21.401447
69.175 20.97077
69.180 21.440601
69.185 21.278572
69.190 21.239077
69.195 20.621199
69.200 20.424826
69.205 20.408875
69.210 19.68009
69.215 19.552853
69.220 19.450949
69.225 19.499218
69.230 19.736254
69.235 19.552095
69.240 20.30389
69.245 20.477579
69.250 20.530827
69.255 21.004967
69.260 21.094324
69.265 20.939491
69.270 20.684885
69.275 19.998079
69.280 19.724382
69.285 19.371645
69.290 19.668774
69.295 19.357962
69.300 19.026459
69.305 18.844746
69.310 19.002295
69.315 19.398918
69.320 19.080976
69.325 18.578447
69.330 19.115662
69.335 20.075481
69.340 19.577225
69.345 19.066586
69.350 18.753128
69.355 18.989464
69.360 18.797575
69.365 18.376251
69.370 18.511518
69.375 19.049892
69.380 19.278578
69.385 19.396265
69.390 18.865246
69.395 18.814878
69.400 18.905352
69.405 18.56609
69.410 18.302631
69.415 18.558271
69.420 18.894398
69.425 19.464895
69.430 19.803139
69.435 19.623457
69.440 19.441593
69.445 19.368565
69.450 19.170525
69.455 18.865477
69.460 18.380074
69.465 17.94508
69.470 17.914984
69.475 18.109034
69.480 18.692553
69.485 18.026644
69.490 17.93128
69.495 18.272617
69.500 18.473324
69.505 18.768879
69.510 18.40505
69.515 18.078972
69.520 18.142668
69.525 17.971844
69.530 18.240011
69.535 18.272116
69.540 17.355862
69.545 17.748421
69.550 17.639351
69.555 17.481188
69.560 17.18681
69.565 16.8654
69.570 17.419195
69.575 18.07513
69.580 17.464226
69.585 17.519251
69.590 18.102451
69.595 18.151983
69.600 18.33914
69.605 17.784401
69.610 17.438606
69.615 17.580442
69.620 17.979
69.625 17.5462
69.630 17.891239
69.635 17.91733
69.640 18.242863
69.645 18.811056
69.650 19.082684
69.655 19.21242
69.660 19.313217
69.665 19.107193
69.670 18.722311
69.675 18.290756
69.680 18.126291
69.685 17.948174
69.690 17.676926
69.695 17.691769
69.700 17.68186
69.705 18.138578
69.710 18.335882
69.715 18.710651
69.720 18.614973
69.725 18.492977
69.730 18.061821
69.735 17.84778
69.740 17.202179
69.745 17.169676
69.750 17.135412
69.755 17.29311
69.760 17.556658
69.765 18.131865
69.770 18.431677
69.775 19.100107
69.780 19.712015
69.785 19.313379
69.790 19.35689
69.795 19.173958
69.800 18.934919
69.805 18.911242
69.810 18.485802
69.815 17.68446
69.820 17.852854
69.825 17.653225
69.830 17.933399
69.835 18.279049
69.840 18.304564
69.845 18.957701
69.850 19.489359
69.855 19.4545
69.860 19.573042
69.865 20.259304
69.870 20.237419
69.875 20.376572
69.880 19.632906
69.885 19.150547
69.890 19.040937
69.895 19.143669
69.900 18.38623
69.905 17.807955
69.910 17.675871
69.915 18.110903
69.920 18.902542
69.925 19.12183
69.930 18.475704
69.935 18.44702
69.940 18.248474
69.945 18.044998
69.950 17.052675
69.955 16.50934
69.960 16.461891
69.965 16.154739
69.970 16.163105
69.975 16.700022
69.980 16.474842
69.985 16.819025
69.990 16.723026
69.995 16.47928
70.000 16.80864
70.005 16.780363
70.010 16.342102
70.015 16.490339
70.020 16.923851
70.025 17.066826
70.030 17.170979
70.035 17.28299
70.040 17.347015
70.045 17.396507
70.050 16.633488
70.055 16.244057
70.060 16.685892
70.065 17.037979
70.070 16.826017
70.075 16.795137
70.080 17.402399
70.085 17.789953
70.090 17.246805
70.095 16.720322
70.100 16.84094
70.105 16.92845
70.110 16.4396
70.115 16.933195
70.120 17.158361
70.125 17.51932
70.130 17.821867
70.135 17.123409
70.140 17.362991
70.145 17.466045
70.150 16.777287
70.155 16.689461
70.160 17.074934
70.165 17.072395
70.170 17.029894
70.175 16.801725
70.180 17.189907
70.185 16.96871
70.190 16.770243
70.195 16.458643
70.200 16.755478
70.205 17.04475
70.210 16.713198
70.215 16.97576
70.220 17.258638
70.225 17.303484
70.230 17.183847
70.235 17.209082
70.240 17.354715
70.245 17.893557
70.250 18.267845
70.255 18.428423
70.260 18.61796
70.265 18.846458
70.270 18.635963
70.275 18.729389
70.280 18.609352
70.285 17.967052
70.290 17.619734
70.295 17.071629
70.300 17.083673
70.305 16.504995
70.310 16.29582
70.315 16.073141
70.320 16.432461
70.325 16.656546
70.330 16.855652
70.335 16.927782
70.340 17.352871
70.345 17.199575
70.350 17.417866
70.355 17.768074
70.360 18.384764
70.365 18.518499
70.370 18.478416
70.375 18.538712
70.380 18.888065
70.385 18.570951
70.390 18.43943
70.395 18.139288
70.400 18.193253
70.405 18.630665
70.410 18.087851
70.415 17.662806
70.420 17.488489
70.425 17.581167
70.430 17.720312
70.435 17.465176
70.440 17.331238
70.445 17.486017
70.450 17.01738
70.455 16.63714
70.460 16.121218
70.465 16.315096
70.470 16.566988
70.475 17.064213
70.480 17.55871
70.485 18.31908
70.490 18.662975
70.495 18.331781
70.500 17.744184
70.505 17.583197
70.510 16.978909
70.515 17.062975
70.520 16.700428
70.525 16.886951
70.530 17.207571
70.535 16.63266
70.540 16.945534
70.545 17.290245
70.550 17.22002
70.555 17.445881
70.560 17.38759
70.565 17.712236
70.570 18.143625
70.575 17.335852
70.580 17.217649
70.585 16.957594
70.590 16.830957
70.595 16.837851
70.600 16.791998
70.605 16.725447
70.610 17.269102
70.615 17.244024
70.620 17.190088
70.625 16.891485
70.630 17.355999
70.635 17.927603
70.640 18.061993
70.645 17.310337
70.650 17.494682
70.655 18.035854
70.660 18.023056
70.665 17.549988
70.670 17.077841
70.675 17.546139
70.680 17.941658
70.685 17.622749
70.690 17.820766
70.695 18.361942
70.700 18.05332
70.705 17.890259
70.710 17.806074
70.715 17.853989
70.720 18.247635
70.725 17.731991
70.730 17.95319
70.735 18.598713
70.740 19.18755
70.745 19.103613
70.750 18.944193
70.755 19.059412
70.760 18.661974
70.765 18.305182
70.770 17.782433
70.775 17.530062
70.780 17.685886
70.785 17.084145
70.790 17.105204
70.795 17.36376
70.800 17.334446
70.805 17.006746
70.810 16.976099
70.815 16.951712
70.820 17.200714
70.825 17.50849
70.830 17.643627
70.835 17.52
70.840 17.654907
70.845 17.232065
70.850 17.617441
70.855 17.283508
70.860 16.61108
70.865 16.512398
70.870 16.050444
70.875 16.276562
70.880 16.392784
70.885 16.148193
70.890 15.951632
70.895 15.918093
70.900 15.895503
70.905 16.182814
70.910 15.803686
70.915 15.936337
70.920 15.614211
70.925 16.227821
70.930 16.002298
70.935 15.931597
70.940 16.159733
70.945 16.127607
70.950 16.468611
70.955 17.081963
70.960 16.688335
70.965 16.625593
70.970 17.143356
70.975 17.153824
70.980 17.122669
70.985 17.023386
70.990 16.274296
70.995 16.73567
71.000 16.934841
71.005 16.939613
71.010 16.51963
71.015 16.591766
71.020 16.526369
71.025 17.059067
71.030 16.605055
71.035 16.697227
71.040 16.823093
71.045 17.637272
71.050 17.083178
71.055 16.398077
71.060 16.769299
71.065 17.297823
71.070 17.184109
71.075 16.662743
71.080 16.44318
71.085 17.08865
71.090 17.472389
71.095 16.767225
71.100 16.412897
71.105 15.923251
71.110 16.150331
71.115 15.704708
71.120 15.496319
71.125 15.637015
71.130 16.348331
71.135 17.225067
71.140 17.731276
71.145 17.692932
71.150 18.222754
71.155 18.170952
71.160 18.022987
71.165 17.948393
71.170 17.734215
71.175 17.531321
71.180 17.798796
71.185 17.550186
71.190 17.819098
71.195 17.200842
71.200 17.069296
71.205 17.159908
71.210 17.320465
71.215 17.139505
71.220 17.165426
71.225 17.34479
71.230 17.725468
71.235 17.805304
71.240 17.341663
71.245 17.365114
71.250 17.601107
71.255 17.663687
71.260 17.410467
71.265 17.245277
71.270 16.900005
71.275 16.958614
71.280 16.85471
71.285 17.103497
71.290 17.323296
71.295 17.438454
71.300 17.29232
71.305 17.250435
71.310 17.554926
71.315 17.474678
71.320 16.71814
71.325 16.775412
71.330 17.436422
71.335 17.807919
71.340 18.047186
71.345 17.940241
71.350 17.748638
71.355 18.091471
71.360 18.033051
71.365 17.609732
71.370 17.559258
71.375 17.657267
71.380 17.755535
71.385 17.939444
71.390 17.762211
71.395 17.789642
71.400 17.910995
71.405 17.998291
71.410 17.576056
71.415 17.450575
71.420 17.136932
71.425 16.542782
71.430 16.270571
71.435 15.621177
71.440 15.552692
71.445 15.43994
71.450 15.865163
71.455 16.459146
71.460 16.814953
71.465 17.151915
71.470 17.241402
71.475 17.126726
71.480 17.278246
71.485 17.040726
71.490 17.102133
71.495 17.12109
71.500 17.236984
71.505 17.804728
71.510 17.943651
71.515 18.158028
71.520 18.072252
71.525 17.991879
71.530 17.389013
71.535 17.575155
71.540 17.386335
71.545 17.803082
71.550 17.299473
71.555 16.992821
71.560 17.509993
71.565 17.727215
71.570 17.929827
71.575 17.927372
71.580 17.256111
71.585 17.512712
71.590 17.659611
71.595 18.190195
71.600 18.506836
71.605 18.035698
71.610 18.184053
71.615 18.025925
71.620 18.046261
71.625 17.913246
71.630 17.723501
71.635 17.231077
71.640 17.400221
71.645 17.393301
71.650 17.593143
71.655 17.299433
71.660 17.075079
71.665 16.841232
71.670 17.288588
71.675 17.760798
71.680 18.037737
71.685 17.820091
71.690 17.819298
71.695 17.649567
71.700 17.301977
71.705 16.662497
71.710 16.376314
71.715 16.458313
71.720 16.703733
71.725 16.508148
71.730 16.739687
71.735 16.653671
71.740 16.593485
71.745 16.872803
71.750 17.291513
71.755 17.607502
71.760 17.982693
71.765 18.00564
71.770 18.047831
71.775 18.130075
71.780 17.914339
71.785 17.705294
71.790 17.227732
71.795 17.423483
71.800 17.328423
71.805 17.339434
71.810 17.479748
71.815 18.056284
71.820 19.096977
71.825 19.16049
71.830 18.546087
71.835 18.570621
71.840 18.71768
71.845 18.084892
71.850 17.193342
71.855 16.329109
71.860 16.081408
71.865 16.134775
71.870 15.957899
71.875 16.584713
71.880 16.938278
71.885 17.265287
71.890 17.367584
71.895 17.433207
71.900 17.68055
71.905 17.659349
71.910 17.381502
71.915 17.299322
71.920 16.697077
71.925 16.346708
71.930 16.681255
71.935 16.96669
71.940 16.779655
71.945 16.383999
71.950 16.297768
71.955 16.667105
71.960 17.15786
71.965 17.098886
71.970 17.22242
71.975 17.032717
71.980 17.484388
71.985 18.335928
71.990 18.139723
71.995 17.84033
72.000 17.624741
72.005 17.30496
72.010 17.468777
72.015 16.399696
72.020 16.406425
72.025 16.679039
72.030 17.152815
72.035 17.353264
72.040 17.118231
72.045 17.550323
72.050 17.229591
72.055 17.075802
72.060 17.286432
72.065 16.968767
72.070 17.215828
72.075 17.270288
72.080 17.115517
72.085 17.426016
72.090 16.574158
72.095 16.559404
72.100 16.424873
72.105 16.346226
72.110 16.134201
72.115 17.055302
72.120 17.111763
72.125 17.931784
72.130 18.083099
72.135 18.104994
72.140 18.345211
72.145 18.0383
72.150 17.205286
72.155 16.632351
72.160 16.123774
72.165 16.021454
72.170 16.317793
72.175 16.46925
72.180 17.288982
72.185 17.587223
72.190 17.335808
72.195 17.477156
72.200 17.591591
72.205 17.406294
72.210 16.750753
72.215 15.677393
72.220 16.428112
72.225 16.509777
72.230 16.244019
72.235 15.913002
72.240 16.349566
72.245 17.063801
72.250 17.186638
72.255 16.775208
72.260 16.4046
72.265 16.176559
72.270 15.905628
72.275 15.491383
72.280 15.447018
72.285 16.077347
72.290 15.844507
72.295 16.072823
72.300 16.282652
72.305 16.587019
72.310 16.586985
72.315 16.709585
72.320 16.09017
72.325 16.576405
72.330 17.196571
72.335 17.757803
72.340 17.430782
72.345 17.591299
72.350 17.79266
72.355 18.649817
72.360 18.55654
72.365 18.21669
72.370 17.783319
72.375 18.386114
72.380 17.976095
72.385 18.120548
72.390 17.834522
72.395 17.239761
72.400 17.249411
72.405 17.418041
72.410 17.206654
72.415 17.006176
72.420 15.996787
72.425 15.999418
72.430 16.347971
72.435 16.170006
72.440 15.959926
72.445 15.89684
72.450 15.921484
72.455 16.440992
72.460 16.219776
72.465 15.61083
72.470 15.404002
72.475 15.824758
72.480 15.759591
72.485 15.636371
72.490 15.610777
72.495 16.15287
72.500 16.670422
72.505 16.805477
72.510 16.507477
72.515 16.896774
72.520 17.409786
72.525 17.239895
72.530 17.210625
72.535 17.236597
72.540 17.446903
72.545 17.684614
72.550 17.797459
72.555 17.15263
72.560 16.674837
72.565 16.59734
72.570 16.158434
72.575 15.978544
72.580 15.767122
72.585 15.537282
72.590 15.976839
72.595 16.144278
72.600 16.279537
72.605 16.417662
72.610 16.277779
72.615 16.416933
72.620 17.156391
72.625 17.612177
72.630 17.54677
72.635 17.393955
72.640 17.640543
72.645 17.610687
72.650 17.504303
72.655 16.943598
72.660 17.476151
72.665 17.636295
72.670 17.93516
72.675 17.846231
72.680 17.91749
72.685 17.998146
72.690 17.828537
72.695 17.645601
72.700 17.373976
72.705 17.196951
72.710 17.154203
72.715 16.81217
72.720 16.518423
72.725 16.846981
72.730 17.374033
72.735 17.246054
72.740 17.486019
72.745 17.525314
72.750 17.607161
72.755 17.49189
72.760 16.995605
72.765 16.377882
72.770 16.404783
72.775 16.294355
72.780 15.682332
72.785 16.022152
72.790 15.418901
72.795 15.021691
72.800 15.659881
72.805 15.40227
72.810 15.386357
72.815 15.862709
72.820 15.880873
72.825 16.450851
72.830 16.586706
72.835 16.217178
72.840 16.367334
72.845 16.423155
72.850 16.029951
72.855 16.034233
72.860 16.03413
72.865 15.614297
72.870 15.607642
72.875 15.806063
72.880 15.62222
72.885 15.775452
72.890 15.869174
72.895 15.810768
72.900 16.316946
72.905 16.24481
72.910 16.604956
72.915 17.323832
72.920 17.556841
72.925 17.441181
72.930 17.730059
72.935 16.990816
72.940 16.509403
72.945 15.77984
72.950 15.386826
72.955 15.025816
72.960 15.088312
72.965 14.804556
72.970 15.621225
72.975 16.272905
72.980 16.659014
72.985 16.834295
72.990 17.191637
72.995 16.678492
73.000 16.729122
