!@!!GADDS PLOTSO FILE: Chi integration type
!@!!Title/SampleName: map-129
!@!!Comment: ?
!@!!User: Bruker Instrument Administrator
!@!!Site: University of Illinois Chicago
!@!!Frame: map-129_01_000.gfrm
!@!!Wavelengths    1.54184   1.54056   1.54439
!@!!Frame angles: 2Theta: 63.000 Omega: 50.000 Phi: 0.000 Chi: 90.000
!@!!Integration range: 2Theta: 53.000 to 73.000  Gamma: -105.000 to -75.000
!@!!Integration method: bin normalized
!@!N
!@!SS
!@!M
!@!L 0.0 0.0 0.0 0.0
!@!XDegrees
!@!YCounts
53.000 5.067943
53.005 5.074655
53.010 5.254664
53.015 5.549421
53.020 5.834317
53.025 5.411823
53.030 5.276688
53.035 5.157268
53.040 5.2055
53.045 5.293592
53.050 5.302016
53.055 5.205181
53.060 5.16223
53.065 5.147098
53.070 5.593524
53.075 6.045105
53.080 5.942904
53.085 5.582869
53.090 5.736758
53.095 5.984873
53.100 5.893641
53.105 5.516581
53.110 4.9428
53.115 4.781947
53.120 4.75314
53.125 4.616634
53.130 4.704663
53.135 4.799801
53.140 4.753941
53.145 4.927575
53.150 4.835152
53.155 5.028969
53.160 5.488845
53.165 5.689042
53.170 5.804025
53.175 5.990786
53.180 6.269248
53.185 6.507689
53.190 6.501412
53.195 6.35414
53.200 6.017531
53.205 6.050434
53.210 6.086675
53.215 6.015422
53.220 6.052238
53.225 6.014573
53.230 5.886219
53.235 5.973599
53.240 5.854242
53.245 5.54236
53.250 5.306258
53.255 4.997025
53.260 5.048745
53.265 5.143668
53.270 5.428828
53.275 5.61639
53.280 5.910019
53.285 6.378813
53.290 6.298491
53.295 6.297371
53.300 6.449302
53.305 6.277598
53.310 5.928206
53.315 5.774741
53.320 5.773837
53.325 5.848827
53.330 5.895908
53.335 5.490819
53.340 5.619986
53.345 5.77997
53.350 5.750562
53.355 5.441871
53.360 5.456498
53.365 5.496746
53.370 5.450018
53.375 5.441066
53.380 5.401235
53.385 5.557861
53.390 5.840935
53.395 5.526168
53.400 5.209918
53.405 5.36936
53.410 5.472229
53.415 5.280348
53.420 5.175998
53.425 5.107314
53.430 5.123985
53.435 5.502237
53.440 5.456938
53.445 5.34945
53.450 5.62188
53.455 5.498697
53.460 5.474405
53.465 5.695167
53.470 5.38566
53.475 5.231917
53.480 5.277247
53.485 5.27033
53.490 5.550538
53.495 5.683097
53.500 5.887619
53.505 5.905822
53.510 6.119394
53.515 6.279583
53.520 5.949875
53.525 5.682111
53.530 5.22961
53.535 5.050514
53.540 4.982664
53.545 5.010638
53.550 4.825863
53.555 4.865459
53.560 5.214656
53.565 5.388721
53.570 5.427006
53.575 5.419213
53.580 5.481942
53.585 5.733522
53.590 5.70526
53.595 5.620149
53.600 5.594403
53.605 6.04924
53.610 6.21568
53.615 5.736067
53.620 5.382297
53.625 5.261247
53.630 5.084223
53.635 5.274315
53.640 4.785609
53.645 5.063179
53.650 5.287035
53.655 5.719859
53.660 6.23061
53.665 6.303706
53.670 6.197441
53.675 6.287451
53.680 6.353157
53.685 6.379136
53.690 5.686333
53.695 5.18863
53.700 5.021325
53.705 4.805301
53.710 4.584196
53.715 4.503129
53.720 4.526209
53.725 4.679009
53.730 4.919416
53.735 5.135529
53.740 5.241346
53.745 5.376043
53.750 5.444911
53.755 5.677527
53.760 5.639264
53.765 5.728696
53.770 5.644735
53.775 5.623314
53.780 5.27153
53.785 4.880341
53.790 5.216932
53.795 5.365114
53.800 4.984386
53.805 5.168911
53.810 5.130762
53.815 5.430395
53.820 5.923635
53.825 6.183249
53.830 6.614856
53.835 6.992782
53.840 6.894616
53.845 6.920111
53.850 6.68727
53.855 6.102125
53.860 5.741275
53.865 5.452943
53.870 5.336161
53.875 5.351779
53.880 5.473869
53.885 5.879508
53.890 6.016085
53.895 5.786275
53.900 5.627585
53.905 5.824423
53.910 5.59454
53.915 5.251325
53.920 4.901554
53.925 4.656337
53.930 4.647498
53.935 4.539351
53.940 4.502151
53.945 4.451548
53.950 4.559617
53.955 4.745568
53.960 4.798172
53.965 4.765929
53.970 4.614041
53.975 4.782339
53.980 4.809846
53.985 4.617455
53.990 4.844587
53.995 5.353883
54.000 5.623864
54.005 5.641982
54.010 5.790378
54.015 6.201361
54.020 6.478655
54.025 6.204663
54.030 6.170312
54.035 6.186418
54.040 6.289164
54.045 6.033392
54.050 5.945271
54.055 5.810696
54.060 5.762434
54.065 5.64685
54.070 5.632189
54.075 5.733147
54.080 6.006752
54.085 6.156695
54.090 6.376143
54.095 6.046612
54.100 6.053507
54.105 6.017714
54.110 6.111669
54.115 5.983349
54.120 5.912398
54.125 5.772152
54.130 5.825089
54.135 5.799004
54.140 5.835457
54.145 5.489263
54.150 5.336563
54.155 5.446393
54.160 5.68801
54.165 5.930929
54.170 5.895956
54.175 5.867609
54.180 5.899967
54.185 5.775179
54.190 5.776488
54.195 5.535282
54.200 5.221319
54.205 4.861872
54.210 4.876233
54.215 4.944705
54.220 4.733762
54.225 4.58192
54.230 4.754893
54.235 4.981351
54.240 5.134882
54.245 5.160784
54.250 5.385133
54.255 5.653631
54.260 5.915807
54.265 5.99322
54.270 6.121894
54.275 6.009055
54.280 5.612226
54.285 5.705045
54.290 5.525387
54.295 5.263638
54.300 5.427126
54.305 5.903108
54.310 6.467944
54.315 6.860286
54.320 6.974665
54.325 6.992667
54.330 7.082902
54.335 6.826349
54.340 6.326249
54.345 6.085654
54.350 5.557352
54.355 5.364089
54.360 5.481786
54.365 5.314747
54.370 5.436053
54.375 5.272707
54.380 5.213208
54.385 5.226757
54.390 5.371934
54.395 5.406871
54.400 5.383083
54.405 5.260643
54.410 5.430707
54.415 5.447124
54.420 5.620493
54.425 5.369591
54.430 5.245987
54.435 5.377911
54.440 5.286233
54.445 5.381337
54.450 5.628129
54.455 5.396479
54.460 5.664127
54.465 5.737364
54.470 5.912676
54.475 6.06376
54.480 5.812833
54.485 5.683876
54.490 5.681787
54.495 5.57189
54.500 5.46584
54.505 5.609029
54.510 5.39156
54.515 5.507361
54.520 5.330651
54.525 5.390449
54.530 5.417229
54.535 5.33204
54.540 5.100376
54.545 5.223403
54.550 5.487195
54.555 5.264689
54.560 5.170703
54.565 5.091284
54.570 5.218539
54.575 5.207438
54.580 5.021034
54.585 4.832792
54.590 4.927075
54.595 4.933411
54.600 4.882983
54.605 4.818367
54.610 5.207615
54.615 5.445486
54.620 5.586432
54.625 5.566826
54.630 5.654062
54.635 5.784781
54.640 5.420313
54.645 5.241942
54.650 5.289871
54.655 5.389378
54.660 5.70927
54.665 5.795338
54.670 5.906056
54.675 6.093874
54.680 5.788982
54.685 5.784178
54.690 5.725937
54.695 5.801797
54.700 5.558856
54.705 5.612606
54.710 5.729368
54.715 5.709591
54.720 5.843709
54.725 6.007615
54.730 5.865144
54.735 5.592238
54.740 5.193161
54.745 5.21812
54.750 5.40129
54.755 5.4328
54.760 5.666027
54.765 6.401062
54.770 6.914492
54.775 7.258665
54.780 7.262437
54.785 6.943262
54.790 6.85289
54.795 6.372467
54.800 5.676347
54.805 5.490332
54.810 5.103469
54.815 4.66198
54.820 4.915402
54.825 4.739718
54.830 4.76316
54.835 5.041641
54.840 5.080183
54.845 5.219771
54.850 5.276357
54.855 5.122169
54.860 5.005816
54.865 5.05531
54.870 5.32234
54.875 5.734873
54.880 5.884546
54.885 5.890204
54.890 6.005287
54.895 6.092771
54.900 6.119442
54.905 5.990067
54.910 5.722012
54.915 5.833746
54.920 5.970292
54.925 5.73583
54.930 5.726469
54.935 5.468836
54.940 5.430092
54.945 5.758203
54.950 5.923034
54.955 6.032645
54.960 5.895141
54.965 5.880634
54.970 5.842317
54.975 5.787362
54.980 5.509363
54.985 5.1617
54.990 5.343491
54.995 5.584024
55.000 5.816924
55.005 5.835188
55.010 5.74525
55.015 5.680258
55.020 5.767718
55.025 5.833216
55.030 5.529663
55.035 5.397936
55.040 5.309885
55.045 5.606957
55.050 5.877513
55.055 5.585964
55.060 5.803197
55.065 6.216618
55.070 6.098239
55.075 6.125899
55.080 5.899669
55.085 5.614931
55.090 5.472144
55.095 5.444662
55.100 5.4751
55.105 5.779626
55.110 5.741842
55.115 5.745879
55.120 6.168973
55.125 6.174334
55.130 5.848996
55.135 5.696409
55.140 5.758463
55.145 6.052873
55.150 6.003512
55.155 6.27318
55.160 6.434332
55.165 6.487748
55.170 6.729954
55.175 6.541193
55.180 6.30055
55.185 6.671576
55.190 6.786836
55.195 6.76984
55.200 6.588609
55.205 6.554604
55.210 7.086962
55.215 7.092744
55.220 6.710216
55.225 6.025461
55.230 6.00932
55.235 6.254775
55.240 6.005175
55.245 5.813854
55.250 5.762067
55.255 6.024953
55.260 6.314655
55.265 6.039542
55.270 6.055994
55.275 6.033104
55.280 5.850381
55.285 5.798523
55.290 5.852585
55.295 5.786154
55.300 5.840387
55.305 5.653578
55.310 5.490515
55.315 5.384006
55.320 5.561724
55.325 5.269812
55.330 5.478302
55.335 5.502423
55.340 5.650632
55.345 5.755922
55.350 5.902552
55.355 6.061985
55.360 6.236498
55.365 5.987552
55.370 5.891724
55.375 6.000681
55.380 6.185263
55.385 6.098468
55.390 5.689575
55.395 5.718896
55.400 5.986325
55.405 6.043885
55.410 5.732441
55.415 5.588052
55.420 5.585505
55.425 5.806072
55.430 6.28098
55.435 6.727283
55.440 6.884375
55.445 7.233496
55.450 7.319209
55.455 7.282802
55.460 7.266228
55.465 6.867335
55.470 6.440284
55.475 6.164333
55.480 6.114027
55.485 6.019839
55.490 5.86324
55.495 5.446888
55.500 5.379785
55.505 5.538876
55.510 5.469078
55.515 5.67729
55.520 5.961243
55.525 5.915981
55.530 5.698915
55.535 5.588603
55.540 5.761665
55.545 5.847215
55.550 5.687063
55.555 5.667801
55.560 5.788377
55.565 6.213117
55.570 6.07888
55.575 5.936556
55.580 5.881842
55.585 5.958062
55.590 5.854199
55.595 5.769442
55.600 5.669038
55.605 5.83955
55.610 5.98118
55.615 5.941819
55.620 5.896556
55.625 5.910397
55.630 5.861194
55.635 6.068126
55.640 6.118933
55.645 6.162497
55.650 6.247246
55.655 6.356849
55.660 6.29259
55.665 6.461833
55.670 6.132689
55.675 5.71397
55.680 5.588299
55.685 5.461998
55.690 5.570784
55.695 5.760166
55.700 5.783189
55.705 5.705931
55.710 5.5367
55.715 5.37033
55.720 5.106193
55.725 4.744827
55.730 4.912969
55.735 5.053673
55.740 5.360996
55.745 5.975217
55.750 6.379909
55.755 6.687056
55.760 6.591624
55.765 6.202693
55.770 6.153447
55.775 6.187253
55.780 6.239316
55.785 6.249468
55.790 6.42245
55.795 6.692117
55.800 6.771418
55.805 6.568025
55.810 6.53782
55.815 6.360678
55.820 6.457863
55.825 6.284614
55.830 6.251864
55.835 6.651828
55.840 6.804523
55.845 6.609804
55.850 6.715092
55.855 6.45602
55.860 6.243774
55.865 6.238902
55.870 6.372459
55.875 6.880813
55.880 6.935651
55.885 6.631721
55.890 6.397933
55.895 6.629284
55.900 6.644707
55.905 6.077059
55.910 5.657465
55.915 5.472955
55.920 5.716355
55.925 6.124993
55.930 6.103804
55.935 6.517289
55.940 6.901816
55.945 7.270887
55.950 7.441665
55.955 7.231746
55.960 7.049506
55.965 7.00446
55.970 6.643847
55.975 6.135988
55.980 5.602444
55.985 5.516086
55.990 5.405445
55.995 5.459002
56.000 5.402898
56.005 5.626529
56.010 5.692675
56.015 6.02455
56.020 6.353094
56.025 6.552007
56.030 6.488441
56.035 6.294434
56.040 5.924107
56.045 6.009513
56.050 5.691278
56.055 5.503709
56.060 5.429424
56.065 5.160994
56.070 5.265772
56.075 5.534719
56.080 5.614753
56.085 5.924669
56.090 5.998448
56.095 6.070399
56.100 6.048588
56.105 6.198591
56.110 6.293023
56.115 6.521125
56.120 6.376911
56.125 6.439916
56.130 6.393684
56.135 6.670649
56.140 6.955129
56.145 6.901947
56.150 6.811674
56.155 6.931279
56.160 6.795012
56.165 6.932372
56.170 6.88521
56.175 6.486309
56.180 6.665314
56.185 6.547821
56.190 6.316344
56.195 6.353301
56.200 6.253398
56.205 6.239108
56.210 6.424689
56.215 6.537135
56.220 6.535496
56.225 6.693983
56.230 6.678725
56.235 7.037739
56.240 7.098827
56.245 6.850842
56.250 6.916409
56.255 7.020246
56.260 6.855266
56.265 6.682906
56.270 6.617525
56.275 6.819969
56.280 6.924178
56.285 6.759784
56.290 6.825381
56.295 7.029053
56.300 6.772102
56.305 6.211721
56.310 5.825159
56.315 5.731036
56.320 5.641317
56.325 5.330926
56.330 5.248254
56.335 5.678248
56.340 5.881845
56.345 5.74558
56.350 5.613779
56.355 6.065606
56.360 6.545858
56.365 6.993681
56.370 7.498806
56.375 7.482097
56.380 7.649688
56.385 7.776571
56.390 7.113903
56.395 6.930129
56.400 6.510308
56.405 6.127546
56.410 6.419345
56.415 6.299369
56.420 6.470259
56.425 7.145018
56.430 7.196725
56.435 7.301345
56.440 7.386292
56.445 6.972135
56.450 7.001601
56.455 6.848788
56.460 6.57429
56.465 6.291816
56.470 5.913321
56.475 5.956243
56.480 6.313832
56.485 6.331798
56.490 6.620866
56.495 6.64695
56.500 6.915148
56.505 6.735593
56.510 6.593224
56.515 6.395538
56.520 6.471982
56.525 6.498352
56.530 6.463568
56.535 6.343347
56.540 6.372261
56.545 6.445697
56.550 6.418294
56.555 6.19142
56.560 5.907873
56.565 5.798308
56.570 5.682416
56.575 5.872447
56.580 5.836751
56.585 5.782113
56.590 5.555076
56.595 5.654799
56.600 5.71209
56.605 6.089555
56.610 6.024294
56.615 6.106034
56.620 6.332027
56.625 6.522287
56.630 6.614475
56.635 6.523931
56.640 6.173197
56.645 6.065489
56.650 5.85017
56.655 5.858412
56.660 5.884341
56.665 5.581681
56.670 5.779547
56.675 5.937646
56.680 6.076116
56.685 6.315938
56.690 6.259871
56.695 6.667078
56.700 6.622823
56.705 6.595391
56.710 6.665001
56.715 6.620028
56.720 6.457159
56.725 6.92727
56.730 6.881073
56.735 6.98887
56.740 7.328905
56.745 7.298057
56.750 7.631261
56.755 7.604677
56.760 7.43062
56.765 7.476338
56.770 7.851139
56.775 7.578256
56.780 7.408057
56.785 6.946136
56.790 6.90547
56.795 6.604912
56.800 6.624634
56.805 6.216382
56.810 6.345962
56.815 6.580502
56.820 6.982056
56.825 7.004908
56.830 7.089879
56.835 6.832947
56.840 7.018016
56.845 7.339611
56.850 7.07843
56.855 6.970939
56.860 7.052651
56.865 6.970311
56.870 6.984963
56.875 6.575491
56.880 6.071765
56.885 6.203777
56.890 6.008157
56.895 5.988069
56.900 6.033773
56.905 6.031617
56.910 6.063751
56.915 6.050823
56.920 6.011148
56.925 6.485094
56.930 6.655486
56.935 6.653639
56.940 7.032997
56.945 7.287044
56.950 7.484329
56.955 7.268405
56.960 6.976402
56.965 6.709488
56.970 6.828752
56.975 6.464252
56.980 6.201105
56.985 6.160414
56.990 6.536102
56.995 6.540385
57.000 6.579378
57.005 6.871206
57.010 6.972226
57.015 7.31392
57.020 7.266447
57.025 7.39631
57.030 7.425897
57.035 7.38338
57.040 7.319673
57.045 7.018884
57.050 7.176513
57.055 7.015343
57.060 6.666996
57.065 6.857751
57.070 6.815089
57.075 7.03072
57.080 7.153722
57.085 6.667829
57.090 6.432082
57.095 6.38019
57.100 6.672544
57.105 6.761993
57.110 6.494959
57.115 6.500699
57.120 6.828773
57.125 7.189176
57.130 7.187281
57.135 6.986675
57.140 6.699483
57.145 6.479428
57.150 6.525318
57.155 6.297204
57.160 6.390207
57.165 6.162305
57.170 6.046562
57.175 6.485175
57.180 7.237893
57.185 7.457546
57.190 7.615515
57.195 7.550169
57.200 7.602199
57.205 7.721187
57.210 7.559808
57.215 7.377832
57.220 7.562753
57.225 7.442771
57.230 7.596205
57.235 7.804644
57.240 7.736542
57.245 7.442398
57.250 6.936971
57.255 7.198472
57.260 7.28886
57.265 7.087252
57.270 6.996478
57.275 6.965591
57.280 7.346339
57.285 7.509439
57.290 7.070427
57.295 6.768008
57.300 6.530226
57.305 6.330118
57.310 6.515501
57.315 5.953776
57.320 5.657773
57.325 5.936138
57.330 6.34673
57.335 6.749979
57.340 7.026821
57.345 7.110787
57.350 7.993299
57.355 8.253038
57.360 8.24022
57.365 8.391542
57.370 8.107796
57.375 8.003917
57.380 8.046427
57.385 7.713629
57.390 8.184074
57.395 7.991275
57.400 7.895877
57.405 8.075908
57.410 8.048518
57.415 7.887607
57.420 7.755636
57.425 7.296589
57.430 7.216414
57.435 7.208747
57.440 7.040155
57.445 6.679833
57.450 6.840095
57.455 6.885038
57.460 7.088179
57.465 7.20917
57.470 7.202942
57.475 7.607488
57.480 7.81733
57.485 7.592049
57.490 7.367625
57.495 7.510126
57.500 7.555023
57.505 7.523678
57.510 7.254725
57.515 7.329285
57.520 7.477693
57.525 7.38026
57.530 7.136195
57.535 7.109982
57.540 7.345092
57.545 7.385324
57.550 7.455218
57.555 7.608712
57.560 7.853911
57.565 8.183873
57.570 8.100212
57.575 8.196712
57.580 7.992914
57.585 7.822263
57.590 7.282183
57.595 7.263494
57.600 7.284616
57.605 6.982265
57.610 6.548738
57.615 6.53865
57.620 6.622898
57.625 7.004251
57.630 6.484417
57.635 5.839484
57.640 5.770433
57.645 6.376739
57.650 6.600998
57.655 6.740744
57.660 7.191061
57.665 7.646215
57.670 8.221886
57.675 8.839519
57.680 9.209819
57.685 9.453357
57.690 9.025169
57.695 8.512208
57.700 8.175407
57.705 7.95829
57.710 7.413141
57.715 6.713871
57.720 6.650488
57.725 6.765159
57.730 7.022709
57.735 7.180717
57.740 7.308723
57.745 7.61405
57.750 7.690714
57.755 7.406712
57.760 7.22716
57.765 7.186696
57.770 7.148583
57.775 7.08152
57.780 6.803942
57.785 7.118202
57.790 7.202038
57.795 7.824859
57.800 7.843186
57.805 7.919296
57.810 8.156808
57.815 8.343222
57.820 8.319254
57.825 8.290359
57.830 8.365253
57.835 8.442049
57.840 8.555679
57.845 8.409158
57.850 8.074652
57.855 7.859149
57.860 7.748861
57.865 7.700899
57.870 7.732116
57.875 7.68725
57.880 7.393517
57.885 7.709081
57.890 7.842962
57.895 7.871984
57.900 7.825231
57.905 8.372876
57.910 8.75537
57.915 8.917922
57.920 8.952119
57.925 9.070339
57.930 9.314125
57.935 9.137614
57.940 8.781204
57.945 8.669724
57.950 8.627743
57.955 8.712852
57.960 8.546568
57.965 8.60309
57.970 8.700955
57.975 8.397285
57.980 8.470679
57.985 8.614563
57.990 8.254769
57.995 8.263932
58.000 8.124273
58.005 7.631584
58.010 8.041688
58.015 7.887727
58.020 7.750873
58.025 7.991589
58.030 8.314261
58.035 8.121796
58.040 8.165397
58.045 7.887065
58.050 7.74584
58.055 7.54417
58.060 7.094264
58.065 6.375222
58.070 6.295933
58.075 6.395048
58.080 6.29617
58.085 6.489585
58.090 6.768334
58.095 6.957788
58.100 7.458447
58.105 7.705355
58.110 7.923322
58.115 7.689497
58.120 7.704087
58.125 7.584312
58.130 7.788424
58.135 7.832695
58.140 7.870992
58.145 7.832432
58.150 7.947577
58.155 8.277408
58.160 8.361738
58.165 8.428208
58.170 8.457419
58.175 8.327652
58.180 8.12384
58.185 8.310329
58.190 8.065052
58.195 7.566748
58.200 7.658195
58.205 7.6732
58.210 8.075191
58.215 8.387569
58.220 8.132038
58.225 8.026649
58.230 8.314342
58.235 8.032478
58.240 8.412566
58.245 8.444092
58.250 8.6752
58.255 8.869358
58.260 9.056079
58.265 8.667898
58.270 8.398373
58.275 8.116727
58.280 7.690125
58.285 7.207355
58.290 7.08778
58.295 7.308269
58.300 7.844359
58.305 8.118048
58.310 7.769257
58.315 8.056603
58.320 8.222667
58.325 8.353112
58.330 8.195475
58.335 8.286051
58.340 8.577236
58.345 8.930575
58.350 8.978037
58.355 8.917034
58.360 8.817547
58.365 8.684292
58.370 8.658137
58.375 8.380295
58.380 8.078395
58.385 7.870257
58.390 8.200346
58.395 8.460362
58.400 8.37722
58.405 8.181829
58.410 8.055526
58.415 8.221932
58.420 8.94758
58.425 8.860314
58.430 8.927815
58.435 9.249463
58.440 9.436947
58.445 9.80972
58.450 9.860376
58.455 9.554459
58.460 10.086312
58.465 10.445081
58.470 10.71837
58.475 10.701076
58.480 10.760402
58.485 10.908945
58.490 11.119562
58.495 10.822064
58.500 10.593837
58.505 10.789394
58.510 11.080558
58.515 10.878687
58.520 10.739429
58.525 10.634741
58.530 10.887663
58.535 10.760165
58.540 10.592093
58.545 11.003733
58.550 11.430982
58.555 11.79972
58.560 12.121109
58.565 11.759246
58.570 11.590858
58.575 11.455726
58.580 11.887878
58.585 12.0681
58.590 12.325775
58.595 12.043749
58.600 12.716153
58.605 13.670444
58.610 14.089721
58.615 13.718308
58.620 13.594396
58.625 13.840899
58.630 14.903468
58.635 14.879126
58.640 14.819864
58.645 14.870947
58.650 14.713033
58.655 14.9078
58.660 15.028976
58.665 15.60806
58.670 15.707895
58.675 15.654039
58.680 15.733672
58.685 16.084087
58.690 16.321018
58.695 16.577482
58.700 16.396664
58.705 16.386475
58.710 16.367785
58.715 16.117128
58.720 15.795987
58.725 15.281342
58.730 14.699471
58.735 14.300762
58.740 15.090384
58.745 15.216073
58.750 15.178558
58.755 15.423607
58.760 15.439318
58.765 15.333243
58.770 15.653298
58.775 15.368328
58.780 15.450735
58.785 15.902288
58.790 15.968221
58.795 15.967094
58.800 15.453513
58.805 15.18198
58.810 15.005007
58.815 14.691492
58.820 14.788104
58.825 14.929287
58.830 14.74309
58.835 14.554136
58.840 13.791636
58.845 13.321592
58.850 12.995619
58.855 12.520829
58.860 12.617986
58.865 12.968352
58.870 12.77061
58.875 12.740711
58.880 12.711334
58.885 12.783801
58.890 12.474998
58.895 12.236123
58.900 11.675512
58.905 12.208428
58.910 12.105796
58.915 11.968555
58.920 11.742143
58.925 11.515101
58.930 11.318441
58.935 11.753754
58.940 12.132554
58.945 12.27321
58.950 12.193117
58.955 12.056069
58.960 12.149016
58.965 11.948709
58.970 11.145542
58.975 9.79284
58.980 9.863606
58.985 10.007608
58.990 9.695521
58.995 9.436254
59.000 9.146444
59.005 9.164742
59.010 9.543623
59.015 9.17811
59.020 8.861561
59.025 9.027354
59.030 9.032592
59.035 9.037457
59.040 9.464913
59.045 9.261825
59.050 8.833371
59.055 8.946563
59.060 9.054564
59.065 9.110299
59.070 9.424691
59.075 9.310284
59.080 9.520506
59.085 9.930649
59.090 9.647411
59.095 9.588287
59.100 9.524647
59.105 9.134031
59.110 8.804769
59.115 8.350003
59.120 8.068485
59.125 7.949101
59.130 7.90786
59.135 7.786366
59.140 7.672402
59.145 7.525217
59.150 7.509151
59.155 7.321022
59.160 7.275518
59.165 7.492689
59.170 7.50986
59.175 8.018914
59.180 8.415155
59.185 8.755939
59.190 8.861026
59.195 8.776975
59.200 8.258838
59.205 8.199066
59.210 7.984304
59.215 7.699303
59.220 7.464087
59.225 7.525332
59.230 7.642604
59.235 8.015392
59.240 7.827583
59.245 7.657514
59.250 7.656855
59.255 8.047813
59.260 8.345417
59.265 8.182454
59.270 7.885608
59.275 7.656106
59.280 7.777008
59.285 7.894692
59.290 7.627415
59.295 7.30329
59.300 7.489906
59.305 7.752534
59.310 7.981748
59.315 7.625552
59.320 7.715354
59.325 7.806006
59.330 8.010682
59.335 8.120792
59.340 8.242104
59.345 8.412655
59.350 8.660204
59.355 8.885765
59.360 8.672635
59.365 8.209455
59.370 7.630364
59.375 7.075204
59.380 6.65601
59.385 6.332613
59.390 6.305082
59.395 6.751929
59.400 6.848516
59.405 7.333407
59.410 7.875937
59.415 8.042721
59.420 8.37422
59.425 7.982759
59.430 7.677529
59.435 7.829669
59.440 7.747542
59.445 7.578297
59.450 7.735448
59.455 7.610351
59.460 7.941408
59.465 8.202435
59.470 8.222582
59.475 8.346396
59.480 8.540829
59.485 8.342003
59.490 8.372364
59.495 8.305751
59.500 8.135571
59.505 8.204861
59.510 8.007355
59.515 7.882018
59.520 8.019605
59.525 8.31272
59.530 8.081594
59.535 7.804788
59.540 7.595677
59.545 7.694633
59.550 7.811929
59.555 8.208687
59.560 8.21169
59.565 8.049895
59.570 8.105012
59.575 8.350363
59.580 8.216508
59.585 8.08294
59.590 7.600121
59.595 7.120602
59.600 7.159644
59.605 7.73437
59.610 7.8951
59.615 7.798705
59.620 7.284453
59.625 7.565143
59.630 8.123745
59.635 8.399514
59.640 8.099274
59.645 7.926813
59.650 8.142038
59.655 8.711513
59.660 8.636376
59.665 8.192777
59.670 7.66528
59.675 7.382031
59.680 7.544913
59.685 7.2488
59.690 6.860876
59.695 6.811752
59.700 7.626091
59.705 8.479499
59.710 8.338739
59.715 8.403227
59.720 8.893604
59.725 9.125498
59.730 9.087266
59.735 8.323185
59.740 8.514179
59.745 9.108948
59.750 8.886773
59.755 8.85922
59.760 8.631656
59.765 8.317
59.770 8.498157
59.775 7.858152
59.780 7.320105
59.785 7.41374
59.790 7.107901
59.795 7.330717
59.800 7.563756
59.805 7.794597
59.810 8.015081
59.815 8.212383
59.820 8.309986
59.825 8.231419
59.830 7.949615
59.835 7.732735
59.840 7.709139
59.845 8.087003
59.850 7.766588
59.855 7.506726
59.860 7.627251
59.865 8.111549
59.870 8.150591
59.875 7.951077
59.880 7.500018
59.885 7.750325
59.890 7.961328
59.895 8.072255
59.900 7.766417
59.905 7.787884
59.910 7.230103
59.915 7.370414
59.920 7.358554
59.925 7.335378
59.930 6.881538
59.935 6.843733
59.940 6.936081
59.945 7.582857
59.950 7.760939
59.955 8.113714
59.960 8.526941
59.965 9.083262
59.970 9.598231
59.975 9.808158
59.980 9.855568
59.985 9.714504
59.990 9.432794
59.995 9.241651
60.000 8.975164
60.005 8.775654
60.010 8.43067
60.015 8.23886
60.020 7.976828
60.025 7.921763
60.030 8.047349
60.035 8.146241
60.040 8.104126
60.045 8.349467
60.050 8.383658
60.055 8.66534
60.060 8.740522
60.065 8.472136
60.070 8.369562
60.075 8.344563
60.080 7.934094
60.085 8.189816
60.090 8.267341
60.095 8.028573
60.100 8.441205
60.105 8.522763
60.110 8.614628
60.115 8.62107
60.120 8.367842
60.125 8.566831
60.130 8.669119
60.135 8.46635
60.140 8.508089
60.145 8.388606
60.150 8.315663
60.155 8.127474
60.160 8.127801
60.165 8.092029
60.170 7.842224
60.175 7.684297
60.180 7.784338
60.185 8.143579
60.190 8.593434
60.195 8.129273
60.200 8.139959
60.205 8.358591
60.210 8.447386
60.215 8.504386
60.220 7.898003
60.225 7.755618
60.230 8.133837
60.235 8.318391
60.240 8.068192
60.245 7.727724
60.250 7.613613
60.255 7.751354
60.260 7.654157
60.265 7.802386
60.270 7.466467
60.275 7.369592
60.280 7.476868
60.285 7.611422
60.290 7.859529
60.295 7.254097
60.300 6.767365
60.305 7.028567
60.310 7.294172
60.315 7.227099
60.320 6.880005
60.325 6.386687
60.330 6.873551
60.335 6.92435
60.340 6.745101
60.345 6.75437
60.350 6.960816
60.355 7.135719
60.360 7.129256
60.365 7.196343
60.370 7.347197
60.375 7.440379
60.380 7.724648
60.385 7.408363
60.390 7.494001
60.395 8.148282
60.400 7.712533
60.405 7.728799
60.410 7.549163
60.415 7.486664
60.420 7.80392
60.425 7.955496
60.430 7.664181
60.435 8.11114
60.440 7.941402
60.445 7.96484
60.450 7.867421
60.455 7.824335
60.460 7.452266
60.465 7.692003
60.470 7.695302
60.475 8.006728
60.480 8.348284
60.485 8.537415
60.490 8.648713
60.495 8.815107
60.500 8.459958
60.505 8.198828
60.510 7.867938
60.515 7.57686
60.520 7.370449
60.525 7.445412
60.530 7.352607
60.535 7.162385
60.540 7.241107
60.545 7.331324
60.550 7.210493
60.555 7.040456
60.560 6.702648
60.565 6.48384
60.570 6.63211
60.575 6.43554
60.580 6.744909
60.585 6.983134
60.590 7.272977
60.595 7.764776
60.600 7.850904
60.605 8.069219
60.610 8.766542
60.615 8.638925
60.620 8.649098
60.625 8.66367
60.630 8.625889
60.635 9.039999
60.640 9.002892
60.645 8.487515
60.650 8.129137
60.655 7.858456
60.660 7.516002
60.665 7.303292
60.670 7.262794
60.675 6.869148
60.680 7.095944
60.685 7.287016
60.690 7.544025
60.695 7.700082
60.700 8.143106
60.705 8.242063
60.710 8.260265
60.715 8.301644
60.720 8.391854
60.725 8.403103
60.730 8.325725
60.735 7.95815
60.740 7.851058
60.745 7.772008
60.750 7.550643
60.755 7.20648
60.760 7.17741
60.765 7.343766
60.770 7.350441
60.775 7.357875
60.780 7.413959
60.785 7.659573
60.790 7.765688
60.795 7.878277
60.800 7.708682
60.805 7.835602
60.810 7.829698
60.815 7.961449
60.820 8.145172
60.825 8.321055
60.830 7.925107
60.835 7.959519
60.840 7.998086
60.845 8.235612
60.850 8.188836
60.855 8.040816
60.860 8.219651
60.865 8.570996
60.870 8.409545
60.875 8.247498
60.880 8.224656
60.885 7.94956
60.890 7.892185
60.895 7.840268
60.900 7.723688
60.905 7.956545
60.910 7.930048
60.915 7.965693
60.920 8.546389
60.925 8.582833
60.930 8.356921
60.935 8.279432
60.940 8.579711
60.945 8.373822
60.950 8.263833
60.955 8.678643
60.960 8.484849
60.965 8.86832
60.970 8.701045
60.975 8.147648
60.980 8.59975
60.985 8.602941
60.990 8.076359
60.995 8.087558
61.000 8.00198
61.005 8.499806
61.010 8.934819
61.015 8.898396
61.020 8.910969
61.025 8.917494
61.030 8.979988
61.035 8.990965
61.040 8.804937
61.045 8.939766
61.050 8.768358
61.055 8.865335
61.060 8.924073
61.065 9.173365
61.070 9.373429
61.075 9.131567
61.080 8.816317
61.085 9.028995
61.090 8.854652
61.095 8.390988
61.100 7.890562
61.105 7.817846
61.110 7.726468
61.115 7.751079
61.120 7.882591
61.125 8.05698
61.130 8.19384
61.135 8.574642
61.140 8.415144
61.145 8.635088
61.150 8.669677
61.155 8.563935
61.160 8.177629
61.165 8.325103
61.170 7.985627
61.175 7.98675
61.180 7.81382
61.185 7.851955
61.190 7.758075
61.195 8.060472
61.200 7.940915
61.205 8.330125
61.210 8.60579
61.215 8.605589
61.220 8.835482
61.225 9.126751
61.230 9.532738
61.235 9.510936
61.240 9.318243
61.245 9.403471
61.250 9.719442
61.255 9.154978
61.260 8.652991
61.265 8.030495
61.270 8.247097
61.275 8.292588
61.280 8.117513
61.285 7.919335
61.290 8.298426
61.295 8.976178
61.300 9.128217
61.305 9.193439
61.310 8.902644
61.315 8.472316
61.320 8.246157
61.325 7.596614
61.330 6.849457
61.335 7.439883
61.340 7.416028
61.345 7.436177
61.350 7.822818
61.355 8.306461
61.360 8.74814
61.365 9.06924
61.370 8.257424
61.375 8.105618
61.380 8.001771
61.385 7.65821
61.390 7.184689
61.395 7.144138
61.400 7.075619
61.405 7.080876
61.410 7.212909
61.415 7.495992
61.420 7.574594
61.425 7.709006
61.430 7.547103
61.435 7.583633
61.440 7.510633
61.445 7.151263
61.450 7.230309
61.455 7.051035
61.460 7.068995
61.465 7.121773
61.470 7.142702
61.475 7.704311
61.480 8.077709
61.485 8.179423
61.490 8.512656
61.495 8.411288
61.500 8.503183
61.505 8.574281
61.510 8.440327
61.515 8.595015
61.520 8.642649
61.525 9.104537
61.530 9.6245
61.535 9.627246
61.540 9.495907
61.545 9.41154
61.550 9.487956
61.555 9.366686
61.560 9.04573
61.565 8.785783
61.570 8.527079
61.575 8.609192
61.580 8.589405
61.585 7.983179
61.590 7.759146
61.595 7.319946
61.600 6.82245
61.605 6.912436
61.610 7.095316
61.615 7.653088
61.620 8.217198
61.625 8.662401
61.630 8.7487
61.635 8.994023
61.640 9.334236
61.645 9.111132
61.650 8.819859
61.655 8.739852
61.660 8.585629
61.665 8.741028
61.670 8.827473
61.675 8.606269
61.680 8.328671
61.685 7.845932
61.690 7.502675
61.695 7.361617
61.700 7.439224
61.705 7.236794
61.710 7.208845
61.715 7.628075
61.720 7.827115
61.725 8.125005
61.730 8.383862
61.735 8.56021
61.740 8.521011
61.745 8.650885
61.750 8.727922
61.755 8.57842
61.760 8.35603
61.765 8.161243
61.770 8.155457
61.775 7.976583
61.780 7.413993
61.785 7.270615
61.790 7.764532
61.795 7.896315
61.800 8.027398
61.805 8.003227
61.810 8.464948
61.815 8.917765
61.820 8.745498
61.825 8.606696
61.830 8.594282
61.835 8.576559
61.840 8.908103
61.845 9.239378
61.850 9.506108
61.855 9.61969
61.860 9.726374
61.865 10.142151
61.870 10.442264
61.875 10.434818
61.880 10.211781
61.885 10.049873
61.890 10.249237
61.895 10.210849
61.900 10.09638
61.905 9.878998
61.910 9.772367
61.915 9.666547
61.920 9.431192
61.925 9.288154
61.930 8.990195
61.935 8.626116
61.940 8.528278
61.945 8.567089
61.950 8.490983
61.955 8.689203
61.960 8.86474
61.965 8.930696
61.970 8.926975
61.975 9.140451
61.980 9.014355
61.985 9.040356
61.990 8.911858
61.995 8.942932
62.000 8.807433
62.005 8.579417
62.010 8.480649
62.015 8.526259
62.020 8.185099
62.025 8.024374
62.030 7.781812
62.035 8.167829
62.040 8.900284
62.045 8.651992
62.050 8.586732
62.055 8.888612
62.060 8.89464
62.065 9.309205
62.070 9.559896
62.075 8.966511
62.080 8.808946
62.085 8.637915
62.090 8.640095
62.095 8.851439
62.100 8.449162
62.105 7.770287
62.110 7.684122
62.115 7.772887
62.120 7.787963
62.125 7.746939
62.130 7.76855
62.135 8.234142
62.140 8.767796
62.145 8.863264
62.150 9.221877
62.155 9.34167
62.160 9.600833
62.165 9.668463
62.170 9.376154
62.175 9.727429
62.180 10.131108
62.185 10.095041
62.190 10.343059
62.195 10.213416
62.200 9.870022
62.205 9.254301
62.210 9.500568
62.215 9.326941
62.220 8.835542
62.225 8.50757
62.230 8.429275
62.235 8.76425
62.240 8.648765
62.245 8.013203
62.250 7.968455
62.255 8.168824
62.260 8.562784
62.265 8.496552
62.270 8.100265
62.275 8.590125
62.280 8.681197
62.285 8.563341
62.290 8.381994
62.295 8.273158
62.300 8.339773
62.305 8.619886
62.310 8.324574
62.315 8.599878
62.320 9.043285
62.325 9.241626
62.330 9.213053
62.335 9.219571
62.340 9.594881
62.345 9.541652
62.350 8.819887
62.355 8.436994
62.360 8.224582
62.365 8.202274
62.370 8.011825
62.375 7.70307
62.380 7.954116
62.385 8.488901
62.390 8.709981
62.395 8.557378
62.400 8.621988
62.405 9.009049
62.410 9.307203
62.415 8.920449
62.420 8.652488
62.425 8.910762
62.430 9.181176
62.435 8.909038
62.440 8.938003
62.445 9.064741
62.450 9.686839
62.455 10.00363
62.460 10.145524
62.465 10.328237
62.470 10.480952
62.475 10.394251
62.480 10.332644
62.485 9.874475
62.490 9.493029
62.495 9.175565
62.500 8.83902
62.505 8.477587
62.510 8.297051
62.515 7.832281
62.520 8.082513
62.525 8.200702
62.530 8.327663
62.535 8.342192
62.540 8.313273
62.545 8.056137
62.550 7.909811
62.555 7.764456
62.560 7.586854
62.565 7.929829
62.570 8.11523
62.575 8.431925
62.580 8.584701
62.585 8.520292
62.590 8.74553
62.595 8.931873
62.600 8.392991
62.605 8.123988
62.610 7.883602
62.615 7.997973
62.620 7.936745
62.625 7.956051
62.630 8.231469
62.635 8.476772
62.640 8.875034
62.645 8.351183
62.650 8.002886
62.655 8.086528
62.660 8.087234
62.665 7.882359
62.670 7.534397
62.675 7.535784
62.680 8.42633
62.685 8.82123
62.690 8.629223
62.695 8.429976
62.700 8.144618
62.705 8.14132
62.710 7.96491
62.715 7.894042
62.720 7.916625
62.725 8.283512
62.730 8.20962
62.735 8.82293
62.740 8.957986
62.745 9.134339
62.750 9.539061
62.755 9.661179
62.760 9.702563
62.765 10.080679
62.770 10.3418
62.775 10.385216
62.780 10.374261
62.785 10.065999
62.790 10.126329
62.795 10.398602
62.800 10.010702
62.805 9.522773
62.810 9.542148
62.815 9.391599
62.820 9.509357
62.825 9.896889
62.830 10.120881
62.835 9.904529
62.840 10.120982
62.845 10.031596
62.850 9.62181
62.855 9.141518
62.860 8.499812
62.865 8.038048
62.870 8.387771
62.875 8.09552
62.880 8.32184
62.885 8.564048
62.890 8.712275
62.895 9.217478
62.900 9.302223
62.905 9.226735
62.910 9.21592
62.915 9.617779
62.920 9.788735
62.925 9.945466
62.930 9.631777
62.935 9.409099
62.940 9.116523
62.945 9.050863
62.950 8.62379
62.955 8.795162
62.960 8.536777
62.965 8.469492
62.970 8.653608
62.975 8.952455
62.980 9.091281
62.985 9.391472
62.990 9.124765
62.995 9.109987
63.000 9.36335
63.005 9.512346
63.010 9.66553
63.015 9.533043
63.020 9.239796
63.025 9.414618
63.030 9.508039
63.035 9.265839
63.040 9.042749
63.045 8.859813
63.050 8.979639
63.055 8.87728
63.060 8.924155
63.065 9.184877
63.070 9.379551
63.075 9.591935
63.080 9.66187
63.085 9.274483
63.090 9.075837
63.095 8.552055
63.100 7.810676
63.105 7.483114
63.110 7.466126
63.115 7.437595
63.120 8.070463
63.125 8.491417
63.130 8.970074
63.135 9.28085
63.140 9.509803
63.145 9.293107
63.150 9.108039
63.155 8.797452
63.160 8.864606
63.165 8.775764
63.170 9.002728
63.175 9.089836
63.180 9.445971
63.185 9.809454
63.190 9.794585
63.195 9.515782
63.200 10.03099
63.205 10.222123
63.210 10.047665
63.215 10.012609
63.220 9.752417
63.225 9.862953
63.230 9.979165
63.235 9.656887
63.240 9.631673
63.245 9.569263
63.250 9.534801
63.255 9.573048
63.260 9.623405
63.265 9.570073
63.270 9.286897
63.275 9.564768
63.280 9.588072
63.285 9.415504
63.290 9.160721
63.295 9.128381
63.300 9.263239
63.305 9.601164
63.310 9.631179
63.315 9.947963
63.320 10.246129
63.325 10.691246
63.330 10.654405
63.335 10.412057
63.340 10.340519
63.345 10.045995
63.350 9.894107
63.355 9.644043
63.360 9.566566
63.365 9.534815
63.370 9.673282
63.375 9.450891
63.380 9.357574
63.385 9.841176
63.390 9.904166
63.395 9.871858
63.400 9.781709
63.405 9.469546
63.410 9.345663
63.415 9.169511
63.420 8.750283
63.425 8.485623
63.430 8.582274
63.435 8.484132
63.440 8.552396
63.445 8.651279
63.450 8.674628
63.455 8.736454
63.460 8.864639
63.465 8.595269
63.470 8.70836
63.475 9.144355
63.480 9.06545
63.485 9.343431
63.490 9.460409
63.495 9.536144
63.500 9.566072
63.505 9.489482
63.510 9.00379
63.515 9.127048
63.520 8.875517
63.525 8.811676
63.530 8.8557
63.535 9.32366
63.540 9.87312
63.545 10.394014
63.550 10.471375
63.555 10.530462
63.560 10.36855
63.565 10.223904
63.570 9.788377
63.575 9.430221
63.580 9.18052
63.585 9.161052
63.590 9.036242
63.595 9.046301
63.600 9.165745
63.605 9.607871
63.610 9.718981
63.615 9.92939
63.620 9.870487
63.625 10.093165
63.630 10.350842
63.635 10.56174
63.640 10.629176
63.645 10.8517
63.650 10.40851
63.655 10.450105
63.660 10.161588
63.665 9.944738
63.670 9.410364
63.675 8.626598
63.680 8.552922
63.685 8.895871
63.690 8.939306
63.695 9.32364
63.700 9.185894
63.705 9.358356
63.710 9.897606
63.715 9.718989
63.720 9.471877
63.725 9.128981
63.730 9.240417
63.735 9.717383
63.740 10.15836
63.745 9.872199
63.750 9.837412
63.755 9.840959
63.760 10.134287
63.765 10.086034
63.770 9.736072
63.775 9.542747
63.780 9.664921
63.785 9.925984
63.790 10.476388
63.795 10.46502
63.800 10.164844
63.805 10.485974
63.810 10.708216
63.815 10.944
63.820 10.871054
63.825 10.308442
63.830 10.332438
63.835 10.54688
63.840 10.563284
63.845 10.457935
63.850 10.12289
63.855 9.856202
63.860 9.815794
63.865 9.569991
63.870 9.680894
63.875 9.878106
63.880 9.72121
63.885 9.601365
63.890 9.918364
63.895 10.201585
63.900 10.571463
63.905 10.376323
63.910 9.957586
63.915 9.832828
63.920 10.149772
63.925 10.204036
63.930 10.015796
63.935 9.775229
63.940 9.460768
63.945 9.637449
63.950 9.883858
63.955 10.507714
63.960 10.98258
63.965 11.292665
63.970 11.145886
63.975 11.385561
63.980 11.555741
63.985 11.155865
63.990 10.622067
63.995 10.395433
64.000 10.19849
64.005 10.448328
64.010 10.734442
64.015 11.142074
64.020 11.630704
64.025 11.172949
64.030 11.20756
64.035 11.498338
64.040 11.521893
64.045 11.651424
64.050 11.319258
64.055 11.2516
64.060 11.544508
64.065 11.437663
64.070 11.549313
64.075 11.394598
64.080 11.070721
64.085 10.827624
64.090 10.847418
64.095 10.778734
64.100 11.027472
64.105 11.488034
64.110 12.17575
64.115 12.293586
64.120 12.693495
64.125 12.901999
64.130 13.076101
64.135 13.17826
64.140 13.158527
64.145 12.862877
64.150 13.106776
64.155 13.130208
64.160 13.089875
64.165 13.01799
64.170 12.630146
64.175 12.137609
64.180 12.318521
64.185 12.431807
64.190 12.494604
64.195 12.84479
64.200 13.147119
64.205 13.32091
64.210 13.934735
64.215 13.906132
64.220 14.40406
64.225 14.797022
64.230 15.166131
64.235 15.1773
64.240 15.196109
64.245 15.230549
64.250 15.728328
64.255 15.734556
64.260 15.013484
64.265 14.482139
64.270 14.789933
64.275 14.765113
64.280 14.808806
64.285 14.743394
64.290 15.151699
64.295 16.341951
64.300 16.935061
64.305 17.058144
64.310 17.522764
64.315 17.50458
64.320 17.765413
64.325 18.257458
64.330 19.266212
64.335 19.679766
64.340 20.188278
64.345 20.549088
64.350 21.13842
64.355 21.102951
64.360 21.154701
64.365 20.445759
64.370 20.253916
64.375 20.89188
64.380 21.662012
64.385 21.784458
64.390 22.000641
64.395 21.712698
64.400 21.873259
64.405 21.905773
64.410 21.448458
64.415 20.866882
64.420 20.603062
64.425 20.884932
64.430 21.259474
64.435 20.878628
64.440 21.130432
64.445 21.780226
64.450 22.147129
64.455 22.712959
64.460 23.166817
64.465 23.852699
64.470 24.488722
64.475 24.1455
64.480 23.73279
64.485 24.057259
64.490 23.905107
64.495 23.614092
64.500 23.292149
64.505 23.229544
64.510 23.567995
64.515 23.35314
64.520 22.852448
64.525 22.674652
64.530 22.108171
64.535 21.869497
64.540 22.469254
64.545 22.523737
64.550 22.359386
64.555 22.273514
64.560 21.973221
64.565 22.197245
64.570 21.712517
64.575 20.319609
64.580 20.218384
64.585 20.620258
64.590 21.034012
64.595 20.814903
64.600 19.9872
64.605 19.43716
64.610 19.394388
64.615 18.9517
64.620 18.476442
64.625 17.653021
64.630 17.789476
64.635 18.073427
64.640 18.841167
64.645 19.383995
64.650 18.887615
64.655 18.567413
64.660 18.526922
64.665 18.607935
64.670 18.4965
64.675 17.798145
64.680 17.355112
64.685 17.299467
64.690 17.369015
64.695 17.475882
64.700 17.313099
64.705 17.048803
64.710 17.173132
64.715 17.47057
64.720 17.610195
64.725 16.937813
64.730 16.582766
64.735 15.97141
64.740 15.678657
64.745 15.123315
64.750 14.729522
64.755 14.273922
64.760 14.254733
64.765 14.030359
64.770 14.271873
64.775 14.331726
64.780 14.103941
64.785 14.121732
64.790 14.478429
64.795 14.356665
64.800 14.070765
64.805 13.925974
64.810 14.146996
64.815 14.054431
64.820 13.572507
64.825 12.820442
64.830 13.152184
64.835 13.263021
64.840 12.787044
64.845 12.02707
64.850 11.782514
64.855 12.084618
64.860 12.513122
64.865 12.410254
64.870 12.786414
64.875 12.933931
64.880 12.779997
64.885 12.314495
64.890 11.989697
64.895 11.409063
64.900 10.879291
64.905 10.145056
64.910 9.707795
64.915 9.830138
64.920 10.214216
64.925 9.855417
64.930 9.678883
64.935 9.823726
64.940 10.241248
64.945 10.726941
64.950 11.326311
64.955 11.236251
64.960 11.302996
64.965 12.030599
64.970 12.437724
64.975 12.634198
64.980 12.68002
64.985 12.502682
64.990 12.956092
64.995 13.022565
65.000 12.938309
65.005 12.984831
65.010 13.012103
65.015 12.809301
65.020 13.341335
65.025 13.685308
65.030 14.501356
65.035 14.717047
65.040 14.907333
65.045 15.201379
65.050 15.862277
65.055 16.284843
65.060 17.01437
65.065 17.247566
65.070 17.496367
65.075 17.537867
65.080 17.533819
65.085 17.388653
65.090 16.784216
65.095 16.794424
65.100 17.004738
65.105 17.06986
65.110 16.93058
65.115 17.217476
65.120 17.808146
65.125 18.120098
65.130 17.911282
65.135 17.956234
65.140 18.17374
65.145 18.840979
65.150 19.338161
65.155 19.31583
65.160 19.228294
65.165 19.026789
65.170 18.878304
65.175 18.90284
65.180 18.876434
65.185 18.389294
65.190 18.11171
65.195 17.960192
65.200 18.263248
65.205 18.859249
65.210 18.853168
65.215 19.183628
65.220 19.422665
65.225 20.032173
65.230 20.901379
65.235 20.80232
65.240 20.557783
65.245 20.558474
65.250 20.148247
65.255 19.897352
65.260 19.506678
65.265 19.163471
65.270 19.947634
65.275 19.812885
65.280 19.729712
65.285 19.881945
65.290 19.681791
65.295 19.669109
65.300 19.895077
65.305 19.275686
65.310 18.810795
65.315 18.572636
65.320 18.458858
65.325 18.603817
65.330 18.597429
65.335 18.030882
65.340 18.473291
65.345 18.72068
65.350 18.59903
65.355 18.399958
65.360 18.276978
65.365 18.078358
65.370 18.167116
65.375 18.327963
65.380 18.546043
65.385 18.770784
65.390 19.086771
65.395 19.263691
65.400 19.207712
65.405 18.72925
65.410 17.979752
65.415 17.872229
65.420 17.580261
65.425 17.100817
65.430 16.849976
65.435 16.705807
65.440 16.917288
65.445 16.825045
65.450 17.011772
65.455 17.330513
65.460 17.224878
65.465 17.135201
65.470 16.70389
65.475 16.402174
65.480 16.413727
65.485 16.181293
65.490 16.249943
65.495 16.541224
65.500 16.591818
65.505 17.014881
65.510 17.464138
65.515 18.335443
65.520 18.289049
65.525 18.464087
65.530 18.336567
65.535 18.2019
65.540 17.919651
65.545 17.558817
65.550 16.984415
65.555 16.838717
65.560 16.212263
65.565 16.070425
65.570 16.245255
65.575 16.484577
65.580 16.490086
65.585 16.830118
65.590 16.784052
65.595 17.095137
65.600 17.460192
65.605 18.162317
65.610 18.636316
65.615 18.659914
65.620 18.66592
65.625 18.888002
65.630 18.914738
65.635 18.766428
65.640 18.218931
65.645 17.053455
65.650 16.787622
65.655 16.619839
65.660 16.245302
65.665 16.252588
65.670 16.029289
65.675 16.261364
65.680 16.82023
65.685 16.756924
65.690 16.94438
65.695 16.617022
65.700 16.158558
65.705 16.082018
65.710 15.940362
65.715 16.167669
65.720 15.691583
65.725 15.297597
65.730 15.265672
65.735 15.395152
65.740 15.744849
65.745 15.934694
65.750 15.96673
65.755 16.062401
65.760 16.283972
65.765 16.485477
65.770 16.803728
65.775 16.433346
65.780 16.169369
65.785 15.957971
65.790 15.058225
65.795 14.399142
65.800 14.408341
65.805 14.059315
65.810 13.862413
65.815 13.592448
65.820 13.695883
65.825 14.358735
65.830 15.010062
65.835 14.925869
65.840 14.955198
65.845 14.858788
65.850 14.894508
65.855 14.592496
65.860 14.303205
65.865 14.24173
65.870 13.995375
65.875 13.903646
65.880 13.68224
65.885 13.987811
65.890 14.066659
65.895 14.519549
65.900 14.53749
65.905 14.33856
65.910 13.908226
65.915 14.073376
65.920 14.314772
65.925 14.435797
65.930 14.280923
65.935 14.490782
65.940 14.858086
65.945 15.570268
65.950 15.867149
65.955 15.653418
65.960 15.913218
65.965 15.35196
65.970 15.044991
65.975 14.93918
65.980 14.306196
65.985 14.037693
65.990 13.834469
65.995 13.634738
66.000 13.934642
66.005 13.729302
66.010 13.824727
66.015 13.773474
66.020 13.480541
66.025 13.225999
66.030 12.986222
66.035 12.820446
66.040 13.463523
66.045 13.252889
66.050 13.266873
66.055 13.654947
66.060 13.950277
66.065 14.061967
66.070 13.636496
66.075 13.371852
66.080 13.420376
66.085 13.309988
66.090 12.99975
66.095 12.733554
66.100 12.799831
66.105 12.896369
66.110 12.418398
66.115 12.219336
66.120 12.178645
66.125 11.90845
66.130 11.482952
66.135 11.259514
66.140 11.416286
66.145 11.333665
66.150 11.425731
66.155 11.462238
66.160 11.963964
66.165 12.549778
66.170 12.133703
66.175 11.716036
66.180 12.069012
66.185 11.777711
66.190 11.732994
66.195 11.168818
66.200 10.599925
66.205 10.640705
66.210 10.942837
66.215 10.594993
66.220 10.840004
66.225 10.936435
66.230 11.119659
66.235 11.001864
66.240 10.584962
66.245 10.514843
66.250 10.968865
66.255 11.233962
66.260 11.258478
66.265 11.198927
66.270 11.544917
66.275 12.144567
66.280 11.942369
66.285 11.609025
66.290 10.955759
66.295 10.605785
66.300 10.131913
66.305 10.332906
66.310 10.636666
66.315 10.775624
66.320 10.840503
66.325 11.036448
66.330 11.102857
66.335 11.240047
66.340 10.434282
66.345 10.017012
66.350 9.963796
66.355 10.160144
66.360 10.521226
66.365 10.854486
66.370 11.056511
66.375 11.406677
66.380 11.073997
66.385 10.633948
66.390 10.223732
66.395 9.951342
66.400 10.032665
66.405 9.747026
66.410 9.595928
66.415 9.668417
66.420 9.936069
66.425 10.304626
66.430 10.527934
66.435 10.717184
66.440 11.300547
66.445 11.355256
66.450 11.393204
66.455 11.360075
66.460 11.265631
66.465 10.922267
66.470 10.803374
66.475 10.447241
66.480 10.76474
66.485 10.547822
66.490 10.315575
66.495 10.188303
66.500 10.08515
66.505 9.462586
66.510 9.497386
66.515 9.151882
66.520 9.4363
66.525 9.460415
66.530 9.940046
66.535 10.11665
66.540 10.361359
66.545 10.245827
66.550 10.452154
66.555 10.664784
66.560 10.595126
66.565 10.00687
66.570 9.859998
66.575 10.057252
66.580 10.141268
66.585 9.951518
66.590 10.103805
66.595 10.552649
66.600 10.98329
66.605 10.848466
66.610 10.42262
66.615 10.453526
66.620 10.841956
66.625 10.901255
66.630 10.430242
66.635 10.34472
66.640 11.026419
66.645 11.097795
66.650 10.617849
66.655 10.009301
66.660 10.135769
66.665 10.092963
66.670 9.664056
66.675 9.362655
66.680 9.732228
66.685 10.462208
66.690 10.718321
66.695 10.791825
66.700 11.083868
66.705 11.50773
66.710 11.38162
66.715 11.208066
66.720 11.219058
66.725 11.01803
66.730 11.158348
66.735 11.054873
66.740 10.877476
66.745 11.050209
66.750 10.93533
66.755 10.55174
66.760 10.36674
66.765 9.683842
66.770 9.454432
66.775 9.396192
66.780 8.926709
66.785 8.954385
66.790 9.282485
66.795 9.778063
66.800 10.210485
66.805 10.341163
66.810 10.08649
66.815 10.26715
66.820 10.217295
66.825 9.965938
66.830 9.774886
66.835 9.590279
66.840 9.761589
66.845 10.09663
66.850 10.738623
66.855 10.998418
66.860 11.101528
66.865 10.724524
66.870 10.645247
66.875 10.784563
66.880 11.068633
66.885 10.955957
66.890 11.177658
66.895 11.113863
66.900 11.764178
66.905 12.128138
66.910 12.122989
66.915 11.550255
66.920 11.412491
66.925 11.316417
66.930 11.235556
66.935 11.151062
66.940 11.603239
66.945 11.872033
66.950 12.088563
66.955 12.139869
66.960 12.107687
66.965 12.381051
66.970 12.281292
66.975 11.415501
66.980 11.346841
66.985 11.352862
66.990 11.240594
66.995 11.157929
67.000 10.988561
67.005 10.762516
67.010 11.264886
67.015 10.905411
67.020 10.521735
67.025 10.133292
67.030 10.410928
67.035 10.498384
67.040 10.468255
67.045 10.154307
67.050 9.948228
67.055 10.039791
67.060 9.986596
67.065 9.235122
67.070 9.114676
67.075 9.222928
67.080 9.507641
67.085 9.904909
67.090 10.049774
67.095 10.628298
67.100 11.354284
67.105 11.31381
67.110 10.98482
67.115 10.795134
67.120 11.025457
67.125 11.183859
67.130 10.919068
67.135 10.797445
67.140 10.892721
67.145 11.258106
67.150 11.186955
67.155 11.345934
67.160 11.1678
67.165 10.783006
67.170 10.27089
67.175 10.263871
67.180 9.943995
67.185 10.077837
67.190 10.096161
67.195 10.058105
67.200 10.115955
67.205 10.501289
67.210 10.204851
67.215 10.493914
67.220 10.641497
67.225 10.166805
67.230 10.331551
67.235 10.548332
67.240 10.510808
67.245 10.476588
67.250 10.103367
67.255 9.824708
67.260 10.365389
67.265 10.336295
67.270 10.036932
67.275 10.09339
67.280 10.013512
67.285 10.336087
67.290 9.910823
67.295 9.747231
67.300 9.962796
67.305 10.073263
67.310 9.93784
67.315 10.231213
67.320 10.253325
67.325 10.153194
67.330 9.801376
67.335 9.451814
67.340 9.464545
67.345 9.630868
67.350 10.023121
67.355 9.729568
67.360 9.970366
67.365 10.296738
67.370 10.625336
67.375 10.599041
67.380 10.335656
67.385 9.529702
67.390 9.974773
67.395 10.508325
67.400 10.429489
67.405 10.35834
67.410 10.442209
67.415 10.400869
67.420 10.753645
67.425 10.445192
67.430 10.122064
67.435 9.818109
67.440 10.079506
67.445 10.067251
67.450 10.272907
67.455 10.22922
67.460 10.328571
67.465 10.747479
67.470 11.228449
67.475 10.779798
67.480 10.774567
67.485 10.683804
67.490 10.863168
67.495 10.794551
67.500 10.391861
67.505 9.974184
67.510 10.064038
67.515 10.127866
67.520 9.865319
67.525 9.473011
67.530 9.312407
67.535 9.552124
67.540 9.428225
67.545 9.250784
67.550 9.303354
67.555 9.850993
67.560 10.325772
67.565 10.697834
67.570 11.023805
67.575 12.019841
67.580 12.480873
67.585 12.332047
67.590 11.82502
67.595 11.569226
67.600 11.246442
67.605 10.902409
67.610 10.340953
67.615 10.146783
67.620 10.518219
67.625 10.996406
67.630 11.470232
67.635 11.769378
67.640 11.834373
67.645 12.342385
67.650 12.587796
67.655 12.701376
67.660 12.446713
67.665 11.973475
67.670 11.929996
67.675 11.53098
67.680 10.930577
67.685 10.51545
67.690 9.762748
67.695 9.361045
67.700 9.453272
67.705 9.129664
67.710 9.213751
67.715 9.478855
67.720 9.446995
67.725 9.851931
67.730 10.08842
67.735 9.53554
67.740 9.680564
67.745 9.499209
67.750 9.453248
67.755 9.646073
67.760 9.139524
67.765 9.064201
67.770 9.213232
67.775 9.772402
67.780 10.017252
67.785 9.929645
67.790 9.512901
67.795 9.483834
67.800 9.381111
67.805 9.132398
67.810 8.503875
67.815 8.554107
67.820 8.412645
67.825 9.168213
67.830 9.334525
67.835 9.790567
67.840 9.824458
67.845 9.756046
67.850 9.958287
67.855 10.642544
67.860 10.554536
67.865 10.979886
67.870 11.306888
67.875 11.749484
67.880 11.966729
67.885 11.633702
67.890 11.223186
67.895 11.186843
67.900 11.281003
67.905 11.102739
67.910 11.018545
67.915 11.097958
67.920 10.908984
67.925 10.981645
67.930 10.966338
67.935 10.553155
67.940 10.370803
67.945 10.478708
67.950 10.720408
67.955 11.001763
67.960 11.212961
67.965 11.078933
67.970 11.392701
67.975 11.249314
67.980 10.967184
67.985 11.031994
67.990 10.802565
67.995 10.307704
68.000 10.706715
68.005 10.968972
68.010 11.025402
68.015 10.845861
68.020 10.672318
68.025 10.958661
68.030 11.006794
68.035 10.597092
68.040 10.395302
68.045 10.966835
68.050 11.139759
68.055 11.14395
68.060 11.240042
68.065 11.330653
68.070 11.754777
68.075 11.781463
68.080 11.754026
68.085 11.943299
68.090 11.668528
68.095 11.692228
68.100 12.04056
68.105 11.298809
68.110 11.259892
68.115 11.307203
68.120 11.05715
68.125 11.235579
68.130 11.295452
68.135 11.00307
68.140 11.59327
68.145 11.57823
68.150 11.377503
68.155 11.469166
68.160 11.29205
68.165 11.078715
68.170 11.337888
68.175 11.562526
68.180 11.718983
68.185 12.169013
68.190 12.772532
68.195 12.897428
68.200 12.656861
68.205 12.20457
68.210 12.00825
68.215 11.80586
68.220 12.089132
68.225 11.727076
68.230 11.727666
68.235 12.141436
68.240 12.154585
68.245 12.172083
68.250 12.359958
68.255 11.669807
68.260 12.269094
68.265 12.832547
68.270 13.081171
68.275 13.016167
68.280 13.416028
68.285 13.832236
68.290 13.594317
68.295 13.442483
68.300 12.972265
68.305 12.891186
68.310 13.736305
68.315 14.348879
68.320 14.015221
68.325 14.267018
68.330 14.142859
68.335 14.72117
68.340 15.00322
68.345 14.698255
68.350 14.219744
68.355 14.303685
68.360 14.461655
68.365 15.043298
68.370 15.530099
68.375 15.544458
68.380 16.201694
68.385 16.738525
68.390 17.31642
68.395 17.753696
68.400 17.325747
68.405 17.197149
68.410 17.291079
68.415 16.744373
68.420 16.222366
68.425 16.139389
68.430 16.035963
68.435 15.74412
68.440 15.632587
68.445 15.744614
68.450 16.062557
68.455 16.503145
68.460 16.764301
68.465 16.547894
68.470 16.519083
68.475 16.541222
68.480 16.463902
68.485 16.523497
68.490 17.301809
68.495 17.400846
68.500 18.049313
68.505 18.132509
68.510 17.829807
68.515 17.790157
68.520 17.490219
68.525 16.895559
68.530 16.681181
68.535 16.896191
68.540 17.632586
68.545 17.806181
68.550 17.762716
68.555 17.775595
68.560 18.591532
68.565 18.682192
68.570 18.023806
68.575 17.305845
68.580 17.886723
68.585 18.270845
68.590 17.943537
68.595 17.405216
68.600 17.406832
68.605 18.160147
68.610 18.595581
68.615 18.260807
68.620 18.16951
68.625 18.518
68.630 18.329079
68.635 17.927244
68.640 17.821323
68.645 17.411846
68.650 17.341654
68.655 17.568453
68.660 17.189455
68.665 17.344019
68.670 17.304218
68.675 17.557629
68.680 17.819157
68.685 18.203142
68.690 17.490719
68.695 16.970633
68.700 17.34675
68.705 17.893732
68.710 17.609936
68.715 17.643303
68.720 17.933008
68.725 19.319572
68.730 19.816816
68.735 19.964485
68.740 19.431171
68.745 19.306438
68.750 18.569328
68.755 17.824215
68.760 17.549093
68.765 17.728294
68.770 18.176287
68.775 18.392138
68.780 18.570724
68.785 18.824011
68.790 18.417482
68.795 17.957001
68.800 17.236496
68.805 17.007435
68.810 17.141615
68.815 16.533257
68.820 16.539688
68.825 16.970491
68.830 17.060928
68.835 17.688023
68.840 17.454031
68.845 17.495417
68.850 17.87178
68.855 17.528214
68.860 17.528545
68.865 16.835051
68.870 16.237591
68.875 15.634695
68.880 15.438567
68.885 15.597075
68.890 16.265509
68.895 15.326006
68.900 15.043883
68.905 15.007945
68.910 15.195962
68.915 15.575244
68.920 15.213855
68.925 14.881599
68.930 15.731237
68.935 16.366829
68.940 15.978547
68.945 15.348802
68.950 15.206215
68.955 15.528379
68.960 15.526226
68.965 14.900887
68.970 14.773921
68.975 14.840124
68.980 14.791661
68.985 14.61343
68.990 14.369681
68.995 14.447868
69.000 14.80463
69.005 14.639222
69.010 15.174926
69.015 16.20698
69.020 16.064644
69.025 15.836397
69.030 15.772241
69.035 16.331682
69.040 16.343386
69.045 16.182655
69.050 15.581487
69.055 15.564355
69.060 15.724132
69.065 15.822398
69.070 15.420481
69.075 15.348282
69.080 15.445212
69.085 15.459668
69.090 15.646221
69.095 15.49756
69.100 15.255582
69.105 15.008199
69.110 14.789822
69.115 14.647076
69.120 14.596771
69.125 14.361053
69.130 14.183741
69.135 14.209268
69.140 14.708628
69.145 14.628957
69.150 13.926516
69.155 14.126443
69.160 13.757897
69.165 13.61699
69.170 13.410798
69.175 12.926494
69.180 12.88034
69.185 13.030258
69.190 12.508253
69.195 13.058679
69.200 13.236745
69.205 13.266736
69.210 13.236478
69.215 13.460465
69.220 13.690804
69.225 14.061101
69.230 14.082324
69.235 13.803541
69.240 13.699614
69.245 14.30942
69.250 13.777864
69.255 13.553058
69.260 13.371808
69.265 13.210889
69.270 13.245658
69.275 13.19741
69.280 13.023705
69.285 13.167942
69.290 13.369332
69.295 13.393616
69.300 13.756781
69.305 14.033669
69.310 13.391343
69.315 13.003555
69.320 13.374992
69.325 13.109594
69.330 12.905312
69.335 12.086688
69.340 11.771397
69.345 11.773167
69.350 11.157183
69.355 10.545177
69.360 9.878153
69.365 9.6936
69.370 10.133806
69.375 10.315228
69.380 10.737118
69.385 11.077078
69.390 11.339675
69.395 11.847833
69.400 12.098333
69.405 12.075855
69.410 11.727769
69.415 11.393682
69.420 11.342213
69.425 11.327583
69.430 11.793367
69.435 11.285179
69.440 11.124428
69.445 12.041847
69.450 11.908416
69.455 11.811218
69.460 11.863135
69.465 11.623877
69.470 11.993569
69.475 11.958014
69.480 11.526303
69.485 11.698772
69.490 11.766848
69.495 11.417432
69.500 11.311692
69.505 11.477753
69.510 11.521817
69.515 11.51146
69.520 11.416849
69.525 11.286798
69.530 11.108783
69.535 10.460529
69.540 9.997812
69.545 9.790337
69.550 9.405123
69.555 9.736805
69.560 9.676179
69.565 10.101793
69.570 10.563533
69.575 10.801509
69.580 10.82609
69.585 10.805462
69.590 10.698368
69.595 10.849106
69.600 10.994271
69.605 11.318377
69.610 11.096827
69.615 11.007069
69.620 11.437148
69.625 11.250764
69.630 11.332031
69.635 11.210097
69.640 11.302765
69.645 11.71915
69.650 11.67299
69.655 11.898146
69.660 12.097135
69.665 11.835066
69.670 11.915106
69.675 11.720954
69.680 12.191646
69.685 12.827874
69.690 12.147787
69.695 12.276118
69.700 12.558283
69.705 12.280213
69.710 11.875262
69.715 11.376955
69.720 10.91616
69.725 11.326886
69.730 11.120178
69.735 11.12513
69.740 11.271628
69.745 11.468987
69.750 11.376287
69.755 11.281457
69.760 11.116219
69.765 11.341025
69.770 10.949994
69.775 10.460225
69.780 10.323254
69.785 10.242329
69.790 10.257465
69.795 10.419535
69.800 10.440955
69.805 10.416308
69.810 10.399431
69.815 10.534565
69.820 10.650572
69.825 10.986341
69.830 10.98014
69.835 10.882112
69.840 11.334899
69.845 11.80832
69.850 11.66574
69.855 11.656656
69.860 11.470993
69.865 11.129678
69.870 11.061344
69.875 10.989405
69.880 10.7454
69.885 10.791467
69.890 10.814994
69.895 10.26345
69.900 10.068487
69.905 9.608985
69.910 9.517112
69.915 9.781064
69.920 9.848823
69.925 9.858637
69.930 10.460506
69.935 10.722072
69.940 10.733495
69.945 10.655501
69.950 10.374752
69.955 10.288628
69.960 10.64719
69.965 10.670411
69.970 10.416605
69.975 10.577389
69.980 10.807594
69.985 11.086582
69.990 11.102372
69.995 10.825825
70.000 10.789965
70.005 10.66929
70.010 10.258911
70.015 10.202574
70.020 10.059234
70.025 9.888509
70.030 10.168109
70.035 10.427634
70.040 10.89477
70.045 11.275681
70.050 11.347549
70.055 11.588878
70.060 11.474917
70.065 11.347056
70.070 11.45936
70.075 11.356083
70.080 11.176493
70.085 10.956756
70.090 10.622547
70.095 10.398119
70.100 9.865999
70.105 9.92702
70.110 10.268587
70.115 10.440011
70.120 10.254667
70.125 10.268389
70.130 10.691465
70.135 10.558801
70.140 10.279456
70.145 10.038781
70.150 10.286071
70.155 10.207481
70.160 10.104673
70.165 10.043591
70.170 10.535551
70.175 10.430462
70.180 10.05467
70.185 10.02462
70.190 10.150756
70.195 10.345402
70.200 10.255002
70.205 10.820625
70.210 11.359359
70.215 11.802526
70.220 11.875146
70.225 12.012912
70.230 12.042328
70.235 11.941434
70.240 11.241214
70.245 11.42172
70.250 11.38097
70.255 11.31536
70.260 11.216272
70.265 11.49606
70.270 11.405312
70.275 11.52595
70.280 11.036463
70.285 11.068788
70.290 10.969831
70.295 10.547696
70.300 10.613977
70.305 10.626222
70.310 10.912475
70.315 10.982382
70.320 10.985249
70.325 11.379824
70.330 11.534457
70.335 11.453816
70.340 11.177048
70.345 10.675407
70.350 10.580536
70.355 10.071251
70.360 9.936792
70.365 9.798734
70.370 9.588595
70.375 9.819674
70.380 9.996091
70.385 10.116436
70.390 10.694997
70.395 11.064746
70.400 10.939433
70.405 11.213375
70.410 10.981021
70.415 11.0818
70.420 10.833028
70.425 10.578859
70.430 10.829371
70.435 10.770207
70.440 10.718863
70.445 10.858417
70.450 10.675509
70.455 11.120093
70.460 10.775507
70.465 10.424833
70.470 10.881127
70.475 10.868124
70.480 10.806991
70.485 10.767723
70.490 10.475441
70.495 10.779624
70.500 10.856348
70.505 10.652098
70.510 11.119485
70.515 11.360894
70.520 11.480361
70.525 11.874166
70.530 11.847539
70.535 12.06951
70.540 12.09376
70.545 11.593659
70.550 11.277381
70.555 10.763616
70.560 10.683304
70.565 10.748399
70.570 10.862593
70.575 11.107172
70.580 10.970147
70.585 10.697932
70.590 10.868317
70.595 10.374672
70.600 9.847434
70.605 9.83931
70.610 10.114841
70.615 10.728394
70.620 11.276774
70.625 11.122973
70.630 11.125683
70.635 11.20641
70.640 10.769135
70.645 10.896111
70.650 11.153063
70.655 11.572822
70.660 12.034371
70.665 12.031076
70.670 12.158027
70.675 11.915593
70.680 11.243402
70.685 10.95061
70.690 11.051513
70.695 11.250569
70.700 11.396987
70.705 11.38756
70.710 11.83385
70.715 11.91331
70.720 11.758095
70.725 11.725101
70.730 11.388626
70.735 11.238429
70.740 11.130104
70.745 10.706067
70.750 10.585187
70.755 10.870601
70.760 10.828713
70.765 10.689744
70.770 10.245247
70.775 10.332742
70.780 10.342612
70.785 10.305052
70.790 10.084202
70.795 10.167397
70.800 10.927042
70.805 10.99116
70.810 11.132825
70.815 11.673074
70.820 11.761728
70.825 11.614023
70.830 11.280956
70.835 10.778932
70.840 10.760484
70.845 10.749264
70.850 10.806359
70.855 10.662453
70.860 10.878798
70.865 11.582667
70.870 11.887092
70.875 11.638853
70.880 11.215083
70.885 11.066717
70.890 10.947043
70.895 10.64876
70.900 9.762088
70.905 9.797016
70.910 10.17182
70.915 10.422822
70.920 10.442141
70.925 10.326543
70.930 10.54956
70.935 10.993636
70.940 10.712904
70.945 10.492592
70.950 10.211418
70.955 10.184434
70.960 10.268144
70.965 9.842642
70.970 9.89625
70.975 10.008052
70.980 10.403722
70.985 10.706066
70.990 11.366978
70.995 11.644501
71.000 11.924084
71.005 12.145086
71.010 12.319917
71.015 12.180213
71.020 12.334472
71.025 11.705796
71.030 11.436473
71.035 11.402976
71.040 11.715522
71.045 11.918638
71.050 11.626987
71.055 11.203229
71.060 11.090425
71.065 10.707377
71.070 10.453713
71.075 9.842691
71.080 9.664827
71.085 9.645176
71.090 9.452158
71.095 9.275456
71.100 9.525146
71.105 9.629978
71.110 9.400189
71.115 9.85328
71.120 10.283946
71.125 10.345385
71.130 10.628953
71.135 10.553752
71.140 10.390491
71.145 10.646202
71.150 10.310879
71.155 10.040706
71.160 10.116249
71.165 9.807833
71.170 10.021022
71.175 10.555773
71.180 10.737864
71.185 10.903897
71.190 11.429582
71.195 12.014737
71.200 12.375474
71.205 12.440782
71.210 12.044472
71.215 11.952653
71.220 11.668264
71.225 11.075738
71.230 10.822744
71.235 10.868449
71.240 10.635244
71.245 10.325104
71.250 10.115098
71.255 10.467942
71.260 11.015609
71.265 10.895391
71.270 10.741659
71.275 10.742227
71.280 11.009156
71.285 10.892086
71.290 10.773749
71.295 10.470855
71.300 10.308331
71.305 10.055156
71.310 10.19147
71.315 10.788216
71.320 10.600187
71.325 10.541078
71.330 10.256315
71.335 10.40522
71.340 10.500649
71.345 9.685578
71.350 8.559125
71.355 8.581793
71.360 8.626445
71.365 8.670343
71.370 8.462776
71.375 8.720149
71.380 9.385508
71.385 9.933934
71.390 10.225419
71.395 9.729834
71.400 10.195438
71.405 10.366118
71.410 10.361637
71.415 10.349016
71.420 9.948774
71.425 9.70918
71.430 10.287743
71.435 10.614622
71.440 10.70243
71.445 10.537434
71.450 10.716273
71.455 10.506042
71.460 10.573606
71.465 10.358903
71.470 10.416167
71.475 10.537232
71.480 10.483498
71.485 10.442304
71.490 10.586373
71.495 10.38082
71.500 10.327901
71.505 9.714519
71.510 9.652445
71.515 9.944863
71.520 9.809129
71.525 10.167143
71.530 10.04993
71.535 10.180076
71.540 10.225077
71.545 10.411549
71.550 10.366068
71.555 10.577689
71.560 10.45229
71.565 10.467334
71.570 10.215414
71.575 10.441537
71.580 10.157109
71.585 10.457428
71.590 10.732934
71.595 11.098071
71.600 11.195403
71.605 11.306511
71.610 11.090095
71.615 10.719963
71.620 10.935838
71.625 10.632829
71.630 10.460815
71.635 10.473808
71.640 10.600556
71.645 10.994324
71.650 11.037161
71.655 10.738974
71.660 10.808764
71.665 10.798162
71.670 10.668055
71.675 10.614756
71.680 10.994133
71.685 11.235421
71.690 11.109021
71.695 10.994611
71.700 10.733507
71.705 10.9835
71.710 10.969146
71.715 10.594595
71.720 10.591221
71.725 10.502528
71.730 11.082087
71.735 11.403654
71.740 11.277215
71.745 11.583716
71.750 11.74564
71.755 11.712306
71.760 11.578002
71.765 11.19096
71.770 11.189983
71.775 10.799271
71.780 10.560051
71.785 10.547751
71.790 10.548726
71.795 10.579147
71.800 10.664648
71.805 11.050687
71.810 11.579441
71.815 11.406693
71.820 11.253104
71.825 11.60156
71.830 11.910461
71.835 11.814925
71.840 12.034813
71.845 11.938796
71.850 12.034287
71.855 12.198612
71.860 12.036153
71.865 12.180154
71.870 11.781041
71.875 11.427258
71.880 11.386978
71.885 11.637693
71.890 11.488856
71.895 11.180112
71.900 11.022272
71.905 11.029376
71.910 10.954759
71.915 10.782125
71.920 10.495674
71.925 10.511421
71.930 10.332344
71.935 10.3409
71.940 10.465357
71.945 10.591059
71.950 10.580666
71.955 10.410524
71.960 10.357785
71.965 10.680208
71.970 11.058447
71.975 11.150084
71.980 11.092895
71.985 11.153897
71.990 11.249769
71.995 10.865985
72.000 10.252885
72.005 10.310626
72.010 10.113621
72.015 10.368258
72.020 11.0138
72.025 11.422172
72.030 11.684912
72.035 11.302662
72.040 11.204782
72.045 11.107479
72.050 10.787122
72.055 10.025536
72.060 9.998045
72.065 9.936755
72.070 10.374091
72.075 10.183891
72.080 10.254868
72.085 10.077353
72.090 10.110798
72.095 9.924826
72.100 10.162949
72.105 9.921267
72.110 9.870065
72.115 10.121868
72.120 10.518278
72.125 10.477585
72.130 10.497376
72.135 10.448267
72.140 10.861677
72.145 10.957066
72.150 10.884121
72.155 10.325029
72.160 10.480324
72.165 10.551032
72.170 10.457741
72.175 9.976233
72.180 9.818788
72.185 9.968654
72.190 10.123428
72.195 10.488251
72.200 10.716345
72.205 10.814148
72.210 11.150371
72.215 11.003849
72.220 11.159462
72.225 10.932323
72.230 10.712335
72.235 10.576087
72.240 10.582746
72.245 10.350312
72.250 10.590862
72.255 10.698344
72.260 10.890821
72.265 10.681261
72.270 10.42698
72.275 10.652702
72.280 10.937221
72.285 10.741385
72.290 10.903799
72.295 11.147777
72.300 11.375627
72.305 11.671516
72.310 11.522765
72.315 11.235748
72.320 11.163752
72.325 11.107185
72.330 11.238566
72.335 11.558805
72.340 11.544314
72.345 11.446683
72.350 11.076828
72.355 10.725874
72.360 10.657869
72.365 10.275488
72.370 9.782632
72.375 9.757159
72.380 9.726085
72.385 10.829366
72.390 11.226623
72.395 11.132822
72.400 11.585031
72.405 11.664597
72.410 11.709355
72.415 11.28868
72.420 10.590702
72.425 10.252834
72.430 9.77766
72.435 9.295472
72.440 9.322913
72.445 9.626299
72.450 10.307672
72.455 10.912931
72.460 11.627532
72.465 11.865687
72.470 12.015789
72.475 11.806071
72.480 11.178175
72.485 10.929403
72.490 10.406361
72.495 9.783932
72.500 9.541464
72.505 9.418221
72.510 9.77965
72.515 10.030394
72.520 10.106802
72.525 10.299082
72.530 10.820847
72.535 11.49871
72.540 12.038606
72.545 12.135052
72.550 12.119116
72.555 11.603209
72.560 11.357068
72.565 10.978765
72.570 10.512705
72.575 9.852601
72.580 9.828237
72.585 9.725966
72.590 9.626851
72.595 9.83534
72.600 9.695204
72.605 9.84313
72.610 9.950115
72.615 9.447663
72.620 9.715883
72.625 9.73551
72.630 9.748039
72.635 10.142331
72.640 10.132906
72.645 9.96664
72.650 10.155837
72.655 10.058134
72.660 10.407017
72.665 10.353616
72.670 9.825534
72.675 9.525066
72.680 9.516286
72.685 9.472179
72.690 9.768151
72.695 9.696574
72.700 10.005509
72.705 10.684493
72.710 11.147596
72.715 10.946833
72.720 10.621213
72.725 10.497654
72.730 10.346686
72.735 10.208463
72.740 9.99582
72.745 9.990799
72.750 10.160295
72.755 10.675241
72.760 10.564623
72.765 10.540228
72.770 10.341218
72.775 9.985815
72.780 10.035699
72.785 9.913163
72.790 9.505501
72.795 9.71841
72.800 9.669552
72.805 9.661231
72.810 9.747065
72.815 9.823969
72.820 9.841939
72.825 9.598266
72.830 9.655951
72.835 9.795178
72.840 9.561543
72.845 9.748337
72.850 9.629426
72.855 9.816055
72.860 9.978312
72.865 9.58122
72.870 9.762841
72.875 10.198063
72.880 10.381078
72.885 10.443741
72.890 10.138195
72.895 10.294133
72.900 10.577829
72.905 10.305915
72.910 10.11687
72.915 9.934211
72.920 10.184285
72.925 10.177497
72.930 9.823053
72.935 9.520936
72.940 9.428156
72.945 9.60761
72.950 9.807112
72.955 9.455781
72.960 9.379932
72.965 9.362926
72.970 9.694384
72.975 10.151884
72.980 9.81641
72.985 9.21171
72.990 9.345119
72.995 9.216063
73.000 9.361053
