!@!!GADDS PLOTSO FILE: Chi integration type
!@!!Title/SampleName: map-fd
!@!!Comment: ?
!@!!User: Bruker Instrument Administrator
!@!!Site: University of Illinois Chicago
!@!!Frame: map-fd_01_000.gfrm
!@!!Wavelengths    1.54184   1.54056   1.54439
!@!!Frame angles: 2Theta: 63.000 Omega: 50.000 Phi: 0.000 Chi: 90.000
!@!!Integration range: 2Theta: 53.000 to 73.000  Gamma: -105.000 to -75.000
!@!!Integration method: bin normalized
!@!N
!@!SS
!@!M
!@!L 0.0 0.0 0.0 0.0
!@!XDegrees
!@!YCounts
53.000 5.064714
53.005 5.166066
53.010 4.997498
53.015 4.835234
53.020 4.944163
53.025 4.90762
53.030 4.944903
53.035 4.943434
53.040 4.772512
53.045 4.623102
53.050 5.013749
53.055 4.958884
53.060 4.986231
53.065 4.71592
53.070 4.447446
53.075 4.462198
53.080 4.85957
53.085 4.529978
53.090 4.199431
53.095 4.326344
53.100 4.910801
53.105 4.905018
53.110 4.791468
53.115 4.473508
53.120 4.71687
53.125 5.178045
53.130 4.790661
53.135 4.751252
53.140 5.172685
53.145 4.999733
53.150 5.044438
53.155 5.022186
53.160 4.850985
53.165 5.085514
53.170 4.687107
53.175 4.599971
53.180 4.576141
53.185 4.42833
53.190 4.424074
53.195 4.684552
53.200 4.904769
53.205 5.295995
53.210 5.414049
53.215 6.173503
53.220 6.519319
53.225 6.759981
53.230 6.696136
53.235 6.757452
53.240 7.35562
53.245 7.175919
53.250 6.653412
53.255 6.535151
53.260 6.204466
53.265 5.957281
53.270 5.261793
53.275 4.867329
53.280 5.222629
53.285 5.580434
53.290 5.872898
53.295 6.407332
53.300 6.7999
53.305 6.975493
53.310 7.023115
53.315 7.07985
53.320 7.029424
53.325 6.901519
53.330 6.70025
53.335 6.72075
53.340 6.568375
53.345 6.17619
53.350 5.913446
53.355 5.565969
53.360 5.535601
53.365 5.695693
53.370 5.824399
53.375 5.886275
53.380 6.098398
53.385 6.00197
53.390 5.968152
53.395 5.763654
53.400 5.651052
53.405 5.495423
53.410 5.297572
53.415 5.376782
53.420 5.586766
53.425 5.727923
53.430 5.589774
53.435 5.498463
53.440 5.732866
53.445 5.86969
53.450 6.038466
53.455 5.929259
53.460 6.023976
53.465 6.27533
53.470 6.16846
53.475 6.06881
53.480 6.004226
53.485 6.156341
53.490 5.821309
53.495 5.446335
53.500 5.355578
53.505 5.468977
53.510 5.907669
53.515 6.369655
53.520 6.568139
53.525 6.762683
53.530 6.884166
53.535 6.835029
53.540 6.672268
53.545 6.337292
53.550 5.646125
53.555 5.243923
53.560 5.296716
53.565 5.327266
53.570 5.262579
53.575 5.40397
53.580 5.609662
53.585 6.042135
53.590 6.055205
53.595 5.947906
53.600 6.038444
53.605 6.161124
53.610 6.126619
53.615 5.952743
53.620 6.089167
53.625 6.420056
53.630 6.6047
53.635 6.521495
53.640 6.442754
53.645 6.668517
53.650 6.638651
53.655 6.539857
53.660 6.201192
53.665 6.215719
53.670 6.523193
53.675 6.340095
53.680 5.997187
53.685 5.920838
53.690 6.396074
53.695 6.777864
53.700 6.816716
53.705 6.617878
53.710 6.570237
53.715 6.732749
53.720 6.703211
53.725 6.389522
53.730 6.480804
53.735 6.531075
53.740 6.576913
53.745 6.623777
53.750 6.830531
53.755 6.998018
53.760 6.984318
53.765 7.265183
53.770 7.345412
53.775 7.669229
53.780 7.691523
53.785 7.503942
53.790 7.029619
53.795 6.774691
53.800 6.32321
53.805 6.159733
53.810 5.878419
53.815 5.661672
53.820 5.651853
53.825 5.866293
53.830 5.782784
53.835 5.96875
53.840 6.456643
53.845 6.813831
53.850 7.053483
53.855 7.024261
53.860 6.960285
53.865 6.919785
53.870 6.81389
53.875 6.803754
53.880 7.155138
53.885 7.064425
53.890 7.17777
53.895 7.446415
53.900 7.583354
53.905 7.38516
53.910 7.061777
53.915 6.414307
53.920 6.349354
53.925 6.29186
53.930 6.047711
53.935 5.869597
53.940 5.903615
53.945 6.151452
53.950 6.487803
53.955 6.261085
53.960 6.147082
53.965 6.090213
53.970 6.006651
53.975 5.906008
53.980 5.83037
53.985 6.081639
53.990 6.207943
53.995 6.000023
54.000 6.040938
54.005 6.363423
54.010 7.017362
54.015 6.885883
54.020 6.840986
54.025 6.958581
54.030 7.306907
54.035 7.317456
54.040 7.158898
54.045 6.956789
54.050 6.950586
54.055 6.49315
54.060 6.64757
54.065 6.853333
54.070 7.220545
54.075 7.321712
54.080 7.444541
54.085 7.459099
54.090 8.010077
54.095 8.276001
54.100 7.798897
54.105 7.351534
54.110 6.779525
54.115 6.620928
54.120 6.634507
54.125 5.978335
54.130 6.216649
54.135 6.64487
54.140 6.747146
54.145 6.80762
54.150 6.595006
54.155 6.505389
54.160 6.551198
54.165 6.287263
54.170 6.207361
54.175 6.349054
54.180 6.581507
54.185 7.184132
54.190 7.440334
54.195 7.672659
54.200 7.713961
54.205 7.635607
54.210 7.331254
54.215 6.934899
54.220 6.577119
54.225 6.595925
54.230 6.705662
54.235 6.983697
54.240 7.086341
54.245 7.391583
54.250 7.660744
54.255 7.550746
54.260 7.355145
54.265 7.232476
54.270 7.071795
54.275 6.877282
54.280 6.693099
54.285 6.701546
54.290 6.883008
54.295 7.024453
54.300 6.807188
54.305 6.485074
54.310 6.887898
54.315 6.764881
54.320 6.810771
54.325 6.717227
54.330 6.901764
54.335 7.670952
54.340 8.194298
54.345 8.487637
54.350 8.646309
54.355 8.568957
54.360 8.478471
54.365 7.893126
54.370 7.171031
54.375 6.7728
54.380 6.247526
54.385 5.999151
54.390 5.666304
54.395 5.477
54.400 5.354921
54.405 5.364233
54.410 5.330542
54.415 5.491257
54.420 5.781536
54.425 6.016006
54.430 6.241502
54.435 6.729674
54.440 6.922422
54.445 7.087764
54.450 6.847491
54.455 6.676066
54.460 6.538832
54.465 6.427129
54.470 5.955153
54.475 5.845788
54.480 6.037097
54.485 6.142756
54.490 6.531645
54.495 6.851882
54.500 7.070914
54.505 7.291344
54.510 7.126923
54.515 7.153537
54.520 7.072063
54.525 7.05546
54.530 7.04872
54.535 6.901772
54.540 7.291527
54.545 7.573954
54.550 8.053448
54.555 8.162325
54.560 8.374653
54.565 8.478554
54.570 8.52032
54.575 8.010028
54.580 8.105162
54.585 8.282848
54.590 8.062582
54.595 7.721185
54.600 7.78652
54.605 7.986631
54.610 8.337035
54.615 8.101464
54.620 7.693469
54.625 7.507182
54.630 7.478191
54.635 7.125682
54.640 7.138647
54.645 7.263391
54.650 7.337543
54.655 7.547396
54.660 7.708368
54.665 7.489679
54.670 7.533181
54.675 7.037823
54.680 7.060296
54.685 7.257785
54.690 7.749082
54.695 7.783543
54.700 8.030064
54.705 8.265303
54.710 8.615128
54.715 8.319876
54.720 7.945256
54.725 7.39933
54.730 7.496485
54.735 7.585997
54.740 7.749511
54.745 7.506166
54.750 7.322984
54.755 7.284326
54.760 7.043528
54.765 6.775268
54.770 6.712676
54.775 6.522827
54.780 6.301807
54.785 6.370373
54.790 6.498942
54.795 6.711978
54.800 7.255889
54.805 7.060988
54.810 7.181198
54.815 7.565457
54.820 7.566131
54.825 7.971385
54.830 8.383876
54.835 8.223668
54.840 8.142961
54.845 8.002188
54.850 7.910958
54.855 8.155067
54.860 7.755957
54.865 7.524465
54.870 7.071385
54.875 7.260055
54.880 7.46237
54.885 7.51315
54.890 7.331884
54.895 7.254143
54.900 7.647322
54.905 8.069171
54.910 7.972473
54.915 7.754112
54.920 7.631056
54.925 7.451061
54.930 7.149372
54.935 6.862009
54.940 6.759166
54.945 6.668452
54.950 7.26181
54.955 7.411453
54.960 7.807662
54.965 8.313038
54.970 8.402067
54.975 8.468325
54.980 8.553784
54.985 8.171296
54.990 8.037887
54.995 7.653905
55.000 7.537947
55.005 7.696424
55.010 7.736368
55.015 7.721542
55.020 7.758251
55.025 7.72108
55.030 7.722957
55.035 7.823997
55.040 7.542569
55.045 7.123379
55.050 6.798192
55.055 7.02601
55.060 7.221541
55.065 7.175611
55.070 7.158369
55.075 7.20438
55.080 7.692456
55.085 8.21249
55.090 8.184877
55.095 8.482011
55.100 8.662591
55.105 8.304862
55.110 8.282755
55.115 8.120359
55.120 7.563549
55.125 7.43921
55.130 7.539129
55.135 7.941603
55.140 8.6368
55.145 9.130269
55.150 9.816426
55.155 10.116754
55.160 9.932354
55.165 9.358384
55.170 9.173891
55.175 9.035869
55.180 8.900681
55.185 8.515288
55.190 8.463523
55.195 8.615019
55.200 8.614407
55.205 8.282747
55.210 8.308879
55.215 8.26397
55.220 7.967691
55.225 7.966545
55.230 7.925489
55.235 7.946504
55.240 7.957304
55.245 7.926879
55.250 8.003477
55.255 8.097214
55.260 8.163672
55.265 8.134447
55.270 8.258823
55.275 8.109998
55.280 7.840328
55.285 7.490698
55.290 7.569356
55.295 7.392102
55.300 7.505238
55.305 7.603379
55.310 7.70294
55.315 7.336019
55.320 7.590609
55.325 7.71543
55.330 8.129174
55.335 8.06573
55.340 8.064528
55.345 8.165017
55.350 8.380262
55.355 8.153242
55.360 8.27849
55.365 8.098761
55.370 8.160938
55.375 8.190197
55.380 8.217623
55.385 8.45808
55.390 8.655271
55.395 8.347522
55.400 8.499043
55.405 8.750152
55.410 8.426859
55.415 8.104322
55.420 7.686314
55.425 7.749679
55.430 7.956027
55.435 7.60443
55.440 7.786911
55.445 8.260846
55.450 8.627201
55.455 8.593234
55.460 8.583916
55.465 8.917707
55.470 9.078466
55.475 8.461915
55.480 8.031973
55.485 8.155818
55.490 8.018929
55.495 8.036921
55.500 7.53966
55.505 7.414007
55.510 7.294499
55.515 7.707098
55.520 7.522768
55.525 7.79039
55.530 7.602767
55.535 7.385356
55.540 7.536134
55.545 7.421094
55.550 6.956307
55.555 6.546411
55.560 6.316297
55.565 6.546578
55.570 6.839429
55.575 7.133973
55.580 7.271664
55.585 7.603474
55.590 7.997347
55.595 8.261554
55.600 8.49481
55.605 8.48309
55.610 8.676441
55.615 9.147269
55.620 9.431602
55.625 9.528249
55.630 9.356141
55.635 9.332584
55.640 9.391141
55.645 8.954359
55.650 8.57598
55.655 8.41663
55.660 8.381594
55.665 8.197538
55.670 7.822073
55.675 7.787479
55.680 8.298722
55.685 8.441742
55.690 8.150268
55.695 8.097946
55.700 8.358379
55.705 8.679792
55.710 8.767512
55.715 8.430188
55.720 8.453374
55.725 8.615661
55.730 8.774255
55.735 9.241053
55.740 9.17489
55.745 9.034673
55.750 8.92537
55.755 8.774358
55.760 8.926659
55.765 8.838996
55.770 8.606377
55.775 8.43168
55.780 8.625083
55.785 8.795372
55.790 8.99571
55.795 8.576095
55.800 7.788447
55.805 7.711509
55.810 7.914482
55.815 7.678557
55.820 7.798016
55.825 7.751321
55.830 8.008105
55.835 8.345299
55.840 8.472827
55.845 8.765026
55.850 8.712746
55.855 8.660011
55.860 8.736159
55.865 8.953156
55.870 8.920457
55.875 8.921071
55.880 9.130536
55.885 9.330669
55.890 9.373653
55.895 9.570955
55.900 9.289277
55.905 9.230556
55.910 8.662118
55.915 8.508734
55.920 8.747765
55.925 8.821778
55.930 8.944165
55.935 9.293115
55.940 9.243162
55.945 9.418496
55.950 9.468012
55.955 9.298035
55.960 9.081589
55.965 8.88227
55.970 8.949641
55.975 9.536153
55.980 9.416271
55.985 9.344428
55.990 9.282928
55.995 9.721931
56.000 9.70322
56.005 9.279962
56.010 9.130415
56.015 8.964941
56.020 8.57461
56.025 8.332411
56.030 7.887569
56.035 7.88934
56.040 7.860463
56.045 7.737096
56.050 8.02438
56.055 8.423596
56.060 8.643461
56.065 8.718884
56.070 8.645651
56.075 8.88964
56.080 8.725725
56.085 8.640203
56.090 8.591772
56.095 8.461201
56.100 8.564892
56.105 8.860399
56.110 8.80995
56.115 8.704984
56.120 8.753604
56.125 8.670559
56.130 8.763273
56.135 8.500403
56.140 8.654902
56.145 8.724228
56.150 8.797191
56.155 8.830921
56.160 8.796283
56.165 9.010342
56.170 9.092651
56.175 9.007645
56.180 9.156071
56.185 9.132081
56.190 9.048705
56.195 9.037913
56.200 9.337878
56.205 9.291086
56.210 8.938477
56.215 8.884607
56.220 8.786657
56.225 9.171692
56.230 9.626838
56.235 9.605369
56.240 10.060826
56.245 10.655473
56.250 11.160694
56.255 12.030554
56.260 11.496422
56.265 10.937676
56.270 10.560564
56.275 9.917455
56.280 9.694283
56.285 9.580504
56.290 9.204823
56.295 9.693029
56.300 10.147123
56.305 10.68273
56.310 10.647862
56.315 10.729483
56.320 10.810407
56.325 10.956955
56.330 10.462345
56.335 9.82432
56.340 9.089616
56.345 9.227772
56.350 9.064619
56.355 8.598577
56.360 8.46297
56.365 8.754603
56.370 8.838131
56.375 9.236347
56.380 9.253737
56.385 9.241191
56.390 9.342001
56.395 8.814286
56.400 8.504313
56.405 8.337231
56.410 8.034883
56.415 8.259778
56.420 8.354138
56.425 8.563862
56.430 9.18003
56.435 9.311107
56.440 9.74376
56.445 10.259531
56.450 10.176167
56.455 10.190155
56.460 10.270052
56.465 9.793338
56.470 9.983923
56.475 9.933873
56.480 9.621249
56.485 9.171446
56.490 8.950889
56.495 8.978415
56.500 9.238094
56.505 9.13935
56.510 9.245923
56.515 9.609812
56.520 9.609239
56.525 9.680382
56.530 9.147953
56.535 9.039052
56.540 9.090762
56.545 8.888117
56.550 8.573238
56.555 8.778554
56.560 8.879645
56.565 8.92919
56.570 8.937025
56.575 8.904623
56.580 9.015241
56.585 9.316165
56.590 8.954801
56.595 8.971329
56.600 9.314539
56.605 9.410121
56.610 9.319052
56.615 9.549665
56.620 9.785411
56.625 10.656643
56.630 10.967587
56.635 10.961926
56.640 11.094438
56.645 11.073301
56.650 10.964179
56.655 11.100546
56.660 10.903383
56.665 10.705412
56.670 10.342926
56.675 10.318749
56.680 10.36473
56.685 10.406924
56.690 10.130684
56.695 10.304595
56.700 10.433402
56.705 10.7033
56.710 10.789017
56.715 10.691675
56.720 10.399687
56.725 10.331853
56.730 10.341544
56.735 10.493814
56.740 10.401538
56.745 10.57016
56.750 10.656855
56.755 10.694547
56.760 10.636106
56.765 10.012421
56.770 9.857512
56.775 9.853342
56.780 9.312192
56.785 9.046545
56.790 8.950854
56.795 8.817551
56.800 8.694157
56.805 8.502376
56.810 8.898615
56.815 9.942808
56.820 10.287468
56.825 10.624969
56.830 11.068209
56.835 11.47539
56.840 11.864912
56.845 11.402745
56.850 10.818252
56.855 10.851302
56.860 10.51701
56.865 10.330298
56.870 10.249176
56.875 9.693625
56.880 9.878552
56.885 9.730652
56.890 9.38285
56.895 9.307217
56.900 9.648853
56.905 9.815491
56.910 9.774625
56.915 9.813452
56.920 9.863033
56.925 9.870205
56.930 10.351468
56.935 10.418651
56.940 10.096772
56.945 10.234752
56.950 10.102739
56.955 10.348702
56.960 10.681094
56.965 10.41157
56.970 10.152122
56.975 10.28355
56.980 10.48473
56.985 10.54016
56.990 10.832231
56.995 10.580901
57.000 10.964079
57.005 11.248873
57.010 11.022932
57.015 10.861807
57.020 10.594729
57.025 9.934554
57.030 9.817512
57.035 9.348212
57.040 9.145503
57.045 9.273242
57.050 9.538937
57.055 10.023538
57.060 10.548937
57.065 10.857781
57.070 10.959513
57.075 11.256439
57.080 11.000982
57.085 10.601021
57.090 9.893594
57.095 9.360172
57.100 9.120504
57.105 9.004601
57.110 8.893924
57.115 9.058386
57.120 9.275794
57.125 9.44514
57.130 9.445816
57.135 9.330029
57.140 9.242769
57.145 9.109724
57.150 9.202628
57.155 9.069294
57.160 9.49369
57.165 9.641267
57.170 10.100533
57.175 10.610829
57.180 10.779247
57.185 10.916306
57.190 11.311755
57.195 11.354831
57.200 11.394008
57.205 11.075461
57.210 10.647249
57.215 10.74604
57.220 10.271721
57.225 10.166821
57.230 10.212916
57.235 10.116089
57.240 10.382347
57.245 10.355631
57.250 10.217921
57.255 10.080898
57.260 9.47401
57.265 9.312241
57.270 9.531953
57.275 9.581168
57.280 9.608863
57.285 9.944526
57.290 9.808719
57.295 10.184667
57.300 10.148721
57.305 9.94032
57.310 9.837936
57.315 10.115896
57.320 10.582868
57.325 11.077756
57.330 11.149021
57.335 11.130726
57.340 10.698571
57.345 10.77607
57.350 10.694799
57.355 10.394441
57.360 10.227287
57.365 10.046598
57.370 10.462627
57.375 10.827248
57.380 10.770503
57.385 10.611603
57.390 10.741688
57.395 11.32886
57.400 11.528211
57.405 11.351956
57.410 11.349492
57.415 11.366208
57.420 11.442324
57.425 11.475969
57.430 11.17335
57.435 11.083686
57.440 11.135367
57.445 11.155166
57.450 11.338507
57.455 11.675185
57.460 11.834123
57.465 11.4145
57.470 11.394186
57.475 11.173973
57.480 10.823131
57.485 10.18143
57.490 9.663904
57.495 9.669663
57.500 10.178797
57.505 10.500968
57.510 10.760947
57.515 11.092577
57.520 11.529514
57.525 11.736412
57.530 11.603921
57.535 11.300862
57.540 10.894249
57.545 10.51164
57.550 10.137929
57.555 10.414385
57.560 10.108591
57.565 9.598726
57.570 9.640671
57.575 10.096699
57.580 10.428491
57.585 10.938491
57.590 10.97578
57.595 11.390492
57.600 11.813179
57.605 11.729646
57.610 11.497233
57.615 11.630306
57.620 11.391314
57.625 11.247832
57.630 11.129741
57.635 11.214023
57.640 11.187332
57.645 11.30517
57.650 11.095463
57.655 11.221718
57.660 11.025911
57.665 10.904037
57.670 11.02962
57.675 11.090296
57.680 10.913543
57.685 10.925625
57.690 11.234166
57.695 11.498698
57.700 11.819043
57.705 11.732786
57.710 11.984303
57.715 12.06754
57.720 12.217472
57.725 12.023712
57.730 12.295025
57.735 11.989644
57.740 12.019315
57.745 11.749273
57.750 11.699713
57.755 12.115808
57.760 12.098377
57.765 12.03789
57.770 12.670819
57.775 12.602074
57.780 12.413861
57.785 12.503829
57.790 12.100942
57.795 11.95429
57.800 11.714646
57.805 10.78628
57.810 10.519441
57.815 10.700651
57.820 10.796832
57.825 10.818903
57.830 11.051451
57.835 11.205912
57.840 11.652213
57.845 12.148953
57.850 12.230803
57.855 11.840467
57.860 11.936165
57.865 11.615642
57.870 11.821507
57.875 11.959884
57.880 11.959218
57.885 12.311532
57.890 12.640775
57.895 12.805336
57.900 13.219633
57.905 13.030307
57.910 13.303063
57.915 13.034304
57.920 12.627968
57.925 12.366143
57.930 12.163493
57.935 11.732407
57.940 11.851667
57.945 12.032292
57.950 12.445004
57.955 12.740823
57.960 12.763697
57.965 13.321727
57.970 13.784439
57.975 14.116275
57.980 14.145948
57.985 13.99129
57.990 14.091848
57.995 14.540277
58.000 14.145583
58.005 13.588121
58.010 13.548206
58.015 13.424973
58.020 13.065437
58.025 12.762679
58.030 12.742134
58.035 13.099147
58.040 13.11932
58.045 12.428601
58.050 12.307715
58.055 12.60134
58.060 12.790049
58.065 12.317202
58.070 12.193065
58.075 12.648504
58.080 13.252063
58.085 13.3013
58.090 13.329415
58.095 13.023398
58.100 12.775243
58.105 13.065801
58.110 12.993797
58.115 12.862596
58.120 12.765461
58.125 12.92239
58.130 13.580398
58.135 14.233574
58.140 13.903381
58.145 13.849871
58.150 13.184068
58.155 12.753569
58.160 12.670944
58.165 12.344166
58.170 11.709361
58.175 11.572178
58.180 11.575785
58.185 12.358012
58.190 12.725883
58.195 12.504343
58.200 12.745629
58.205 13.030779
58.210 13.36244
58.215 13.523088
58.220 13.336263
58.225 13.549519
58.230 13.525066
58.235 13.795513
58.240 13.976315
58.245 13.649347
58.250 14.223284
58.255 14.572405
58.260 14.467359
58.265 14.600913
58.270 14.431097
58.275 14.168574
58.280 14.169793
58.285 13.016565
58.290 12.588583
58.295 12.850264
58.300 12.529876
58.305 12.637201
58.310 12.581619
58.315 12.694642
58.320 13.306568
58.325 13.104681
58.330 12.770283
58.335 13.436195
58.340 13.740725
58.345 13.955739
58.350 13.990704
58.355 14.423361
58.360 14.717359
58.365 14.964622
58.370 14.640489
58.375 14.652331
58.380 15.042655
58.385 15.273487
58.390 14.769086
58.395 15.019466
58.400 15.465059
58.405 15.613469
58.410 15.873203
58.415 15.896227
58.420 16.139446
58.425 16.911892
58.430 17.301031
58.435 17.251963
58.440 17.570263
58.445 17.849991
58.450 17.859484
58.455 18.306267
58.460 18.796392
58.465 18.977068
58.470 19.063963
58.475 19.267612
58.480 19.621422
58.485 19.940954
58.490 19.927794
58.495 20.428923
58.500 21.072428
58.505 21.200762
58.510 21.349087
58.515 21.376125
58.520 21.777014
58.525 21.928753
58.530 21.199516
58.535 20.847218
58.540 21.19175
58.545 21.996658
58.550 22.608864
58.555 22.894304
58.560 23.34292
58.565 24.235107
58.570 24.737751
58.575 25.298649
58.580 25.251928
58.585 25.206106
58.590 25.464155
58.595 25.959721
58.600 26.538321
58.605 26.331875
58.610 25.885986
58.615 25.711594
58.620 25.49819
58.625 25.723513
58.630 26.134096
58.635 25.903992
58.640 26.457056
58.645 26.481443
58.650 26.853445
58.655 27.058681
58.660 27.211969
58.665 27.222389
58.670 27.516411
58.675 27.928993
58.680 27.930624
58.685 28.255995
58.690 28.9193
58.695 29.665041
58.700 29.225136
58.705 28.680283
58.710 27.930832
58.715 28.234976
58.720 27.880848
58.725 27.615234
58.730 26.747955
58.735 26.15904
58.740 25.546146
58.745 26.223736
58.750 26.316103
58.755 25.480978
58.760 24.666182
58.765 23.833944
58.770 23.712894
58.775 23.437746
58.780 23.098642
58.785 22.716288
58.790 23.355406
58.795 23.472786
58.800 23.080797
58.805 23.072149
58.810 22.781872
58.815 22.273001
58.820 21.942827
58.825 21.330658
58.830 20.851511
58.835 20.699257
58.840 20.408381
58.845 20.131689
58.850 19.913549
58.855 19.375135
58.860 18.945587
58.865 18.544128
58.870 17.864349
58.875 17.851582
58.880 18.010937
58.885 18.06493
58.890 18.292746
58.895 18.475531
58.900 18.590868
58.905 18.912552
58.910 18.627468
58.915 18.012466
58.920 17.892019
58.925 17.851585
58.930 17.812181
58.935 17.715998
58.940 17.611687
58.945 17.558702
58.950 17.676155
58.955 17.205685
58.960 16.420977
58.965 16.208681
58.970 16.332792
58.975 16.220095
58.980 16.020021
58.985 15.748814
58.990 15.529566
58.995 15.645804
59.000 15.187127
59.005 15.122843
59.010 15.42127
59.015 14.984099
59.020 14.905138
59.025 14.943526
59.030 14.603992
59.035 14.835631
59.040 15.156162
59.045 14.739205
59.050 14.939121
59.055 14.771336
59.060 14.687649
59.065 14.758048
59.070 14.315343
59.075 13.381137
59.080 13.217098
59.085 13.068262
59.090 13.254317
59.095 13.365467
59.100 13.676594
59.105 14.34793
59.110 14.460307
59.115 14.565496
59.120 14.465097
59.125 14.419318
59.130 14.269941
59.135 13.865347
59.140 13.405559
59.145 13.423756
59.150 13.330668
59.155 13.479917
59.160 13.2234
59.165 13.177737
59.170 13.191312
59.175 12.803101
59.180 12.713546
59.185 12.58999
59.190 12.090475
59.195 12.009834
59.200 11.993097
59.205 12.11176
59.210 12.511432
59.215 12.534646
59.220 13.122697
59.225 13.783357
59.230 14.388856
59.235 14.286383
59.240 14.008848
59.245 14.049206
59.250 13.588791
59.255 12.922069
59.260 12.481588
59.265 12.025103
59.270 11.928544
59.275 12.332297
59.280 12.378249
59.285 12.701006
59.290 12.662129
59.295 12.937123
59.300 13.28488
59.305 13.280192
59.310 12.995511
59.315 13.051322
59.320 13.844503
59.325 14.413979
59.330 14.784575
59.335 14.709146
59.340 14.618475
59.345 14.576686
59.350 14.557147
59.355 13.650026
59.360 13.0526
59.365 12.283836
59.370 12.43437
59.375 12.612897
59.380 12.514672
59.385 12.54853
59.390 13.222955
59.395 13.410015
59.400 13.577744
59.405 13.037568
59.410 13.02001
59.415 13.35286
59.420 13.497623
59.425 13.119205
59.430 13.009555
59.435 13.037987
59.440 13.568716
59.445 13.869359
59.450 13.190932
59.455 12.778405
59.460 12.97922
59.465 13.454509
59.470 13.151837
59.475 12.752124
59.480 12.736032
59.485 13.021591
59.490 13.227895
59.495 13.000579
59.500 12.646091
59.505 12.971382
59.510 12.902373
59.515 12.553794
59.520 12.43011
59.525 11.717556
59.530 11.448968
59.535 11.157961
59.540 11.224479
59.545 12.120173
59.550 12.630275
59.555 12.954007
59.560 13.726699
59.565 14.569917
59.570 15.089829
59.575 14.8407
59.580 14.249984
59.585 13.669042
59.590 13.211331
59.595 13.235406
59.600 12.772856
59.605 12.133716
59.610 12.409568
59.615 12.507226
59.620 12.828137
59.625 13.03595
59.630 12.533045
59.635 12.345275
59.640 12.661561
59.645 12.224689
59.650 12.114671
59.655 12.314386
59.660 12.141236
59.665 12.366629
59.670 12.187669
59.675 12.313215
59.680 12.378159
59.685 12.696675
59.690 12.526169
59.695 12.970181
59.700 13.393706
59.705 13.8891
59.710 13.934171
59.715 13.594831
59.720 12.838293
59.725 12.802393
59.730 12.560543
59.735 12.216707
59.740 12.057934
59.745 11.902029
59.750 12.31535
59.755 12.612223
59.760 12.988775
59.765 12.842928
59.770 12.771837
59.775 12.705362
59.780 12.605755
59.785 12.499748
59.790 12.133405
59.795 11.823684
59.800 12.101077
59.805 12.055241
59.810 12.892517
59.815 12.630526
59.820 12.084167
59.825 12.413666
59.830 12.463029
59.835 12.385282
59.840 12.340971
59.845 11.491204
59.850 11.427693
59.855 12.099748
59.860 11.991445
59.865 11.726493
59.870 11.950573
59.875 12.081863
59.880 12.666849
59.885 13.939083
59.890 14.474861
59.895 14.440356
59.900 14.308215
59.905 14.053479
59.910 14.143204
59.915 13.865888
59.920 12.710116
59.925 12.342805
59.930 12.579843
59.935 12.553314
59.940 12.267806
59.945 11.585532
59.950 10.97565
59.955 11.121872
59.960 11.530196
59.965 11.458029
59.970 11.379543
59.975 11.204622
59.980 11.20388
59.985 11.876009
59.990 12.048381
59.995 12.118413
60.000 12.275866
60.005 12.070368
60.010 12.516761
60.015 12.505753
60.020 12.035593
60.025 12.042789
60.030 11.396651
60.035 11.443325
60.040 11.756728
60.045 11.958514
60.050 12.53863
60.055 12.264469
60.060 11.638363
60.065 11.705801
60.070 11.834064
60.075 11.833694
60.080 11.963733
60.085 12.205521
60.090 12.909206
60.095 13.42575
60.100 13.003526
60.105 13.310471
60.110 13.220646
60.115 12.940519
60.120 13.390213
60.125 13.975899
60.130 13.982952
60.135 14.111853
60.140 13.913211
60.145 13.971958
60.150 13.973962
60.155 13.49187
60.160 13.17529
60.165 13.260349
60.170 13.754803
60.175 14.030154
60.180 14.293852
60.185 14.261859
60.190 13.746701
60.195 13.143175
60.200 13.072262
60.205 12.515999
60.210 12.621923
60.215 12.482057
60.220 12.343624
60.225 12.503949
60.230 12.35823
60.235 12.573259
60.240 12.808843
60.245 12.332026
60.250 11.991229
60.255 12.113207
60.260 12.461095
60.265 12.696607
60.270 12.593485
60.275 12.3675
60.280 12.174397
60.285 12.247529
60.290 12.177772
60.295 11.824836
60.300 12.399544
60.305 11.946078
60.310 12.233965
60.315 12.901226
60.320 13.205515
60.325 13.292057
60.330 13.000205
60.335 12.991512
60.340 13.463142
60.345 13.009378
60.350 12.48166
60.355 12.442391
60.360 12.700924
60.365 12.810855
60.370 12.600115
60.375 12.768933
60.380 13.093525
60.385 13.248965
60.390 13.018437
60.395 13.077627
60.400 13.031816
60.405 12.200905
60.410 11.528507
60.415 11.70485
60.420 11.744844
60.425 11.82867
60.430 11.869493
60.435 12.451572
60.440 13.080733
60.445 13.441591
60.450 13.677665
60.455 13.961679
60.460 13.879537
60.465 13.776011
60.470 14.183316
60.475 15.045518
60.480 14.686661
60.485 14.375753
60.490 14.151739
60.495 14.29485
60.500 13.753556
60.505 13.249605
60.510 12.476193
60.515 12.582885
60.520 12.756118
60.525 13.149487
60.530 13.519829
60.535 14.07896
60.540 13.883915
60.545 13.734067
60.550 13.376922
60.555 13.292131
60.560 12.857026
60.565 12.662186
60.570 12.763905
60.575 12.719398
60.580 12.982775
60.585 13.109988
60.590 12.946065
60.595 13.276676
60.600 12.536997
60.605 12.093864
60.610 12.580523
60.615 12.558834
60.620 12.178543
60.625 12.400092
60.630 12.677236
60.635 13.521765
60.640 13.492546
60.645 12.989768
60.650 13.191376
60.655 13.689198
60.660 13.600279
60.665 13.093522
60.670 13.002248
60.675 13.769228
60.680 13.995673
60.685 13.842165
60.690 14.12358
60.695 14.080209
60.700 14.634006
60.705 14.677212
60.710 14.172027
60.715 14.15992
60.720 14.240488
60.725 14.57213
60.730 14.836809
60.735 14.743143
60.740 14.505534
60.745 14.751196
60.750 14.740373
60.755 14.790904
60.760 14.686678
60.765 14.38802
60.770 14.283053
60.775 14.369407
60.780 14.161364
60.785 14.300103
60.790 14.031401
60.795 13.74101
60.800 13.63381
60.805 13.513291
60.810 13.251019
60.815 13.128335
60.820 12.908482
60.825 13.2222
60.830 13.364359
60.835 13.513246
60.840 13.810569
60.845 14.131429
60.850 14.672866
60.855 15.224994
60.860 15.321302
60.865 15.496044
60.870 15.416429
60.875 15.360271
60.880 15.396544
60.885 14.590773
60.890 14.032521
60.895 13.658825
60.900 13.695291
60.905 13.982508
60.910 13.659098
60.915 13.616776
60.920 14.213995
60.925 14.441692
60.930 14.07668
60.935 13.638781
60.940 13.46031
60.945 13.999769
60.950 14.141233
60.955 13.907133
60.960 13.920679
60.965 14.474005
60.970 14.298128
60.975 13.835938
60.980 13.531188
60.985 13.210796
60.990 12.898416
60.995 12.404558
61.000 12.29522
61.005 12.666202
61.010 12.619828
61.015 12.16162
61.020 12.692651
61.025 13.225542
61.030 13.457799
61.035 13.400992
61.040 13.169734
61.045 13.190361
61.050 13.320735
61.055 12.742619
61.060 12.864422
61.065 13.012153
61.070 13.108908
61.075 12.91878
61.080 13.176371
61.085 13.186265
61.090 13.296565
61.095 13.042842
61.100 12.89329
61.105 12.876415
61.110 13.469663
61.115 13.274605
61.120 13.220115
61.125 13.132936
61.130 13.102206
61.135 13.139471
61.140 13.551497
61.145 13.6326
61.150 13.999645
61.155 14.2571
61.160 14.778585
61.165 14.857794
61.170 14.542712
61.175 14.06758
61.180 13.628291
61.185 13.321598
61.190 12.784363
61.195 12.400929
61.200 12.62194
61.205 13.177531
61.210 13.165658
61.215 13.358082
61.220 13.642742
61.225 14.010996
61.230 14.299973
61.235 14.155059
61.240 13.851998
61.245 14.084171
61.250 14.098722
61.255 13.946258
61.260 13.41595
61.265 13.308273
61.270 13.623448
61.275 13.679699
61.280 14.087885
61.285 14.705164
61.290 15.109637
61.295 15.758185
61.300 15.544107
61.305 15.10578
61.310 14.594854
61.315 14.204393
61.320 13.68147
61.325 13.200585
61.330 12.738309
61.335 12.652781
61.340 12.883646
61.345 12.438254
61.350 11.748548
61.355 11.707132
61.360 12.409058
61.365 12.745298
61.370 13.043454
61.375 13.098915
61.380 13.777855
61.385 14.20682
61.390 14.144791
61.395 13.841042
61.400 13.775545
61.405 13.975507
61.410 14.187419
61.415 14.441132
61.420 14.781631
61.425 15.049683
61.430 14.992995
61.435 14.674398
61.440 14.118301
61.445 14.10345
61.450 13.93491
61.455 13.89473
61.460 13.526898
61.465 13.22658
61.470 13.525998
61.475 13.763826
61.480 13.895492
61.485 13.87731
61.490 13.315919
61.495 13.528657
61.500 13.46686
61.505 13.061039
61.510 13.067802
61.515 12.582493
61.520 12.622428
61.525 13.2166
61.530 13.482232
61.535 13.486531
61.540 13.375687
61.545 13.758229
61.550 14.398425
61.555 14.279391
61.560 14.067044
61.565 14.084527
61.570 14.317424
61.575 14.313045
61.580 13.929912
61.585 13.44018
61.590 13.51529
61.595 13.512393
61.600 13.039058
61.605 13.404982
61.610 13.838519
61.615 13.759139
61.620 13.983925
61.625 13.829821
61.630 13.576056
61.635 13.657819
61.640 13.529405
61.645 13.596044
61.650 13.656034
61.655 13.726826
61.660 13.858254
61.665 13.845095
61.670 14.326886
61.675 14.555469
61.680 14.21207
61.685 14.319395
61.690 14.469166
61.695 14.413909
61.700 14.562188
61.705 14.212061
61.710 14.225827
61.715 14.671619
61.720 14.613918
61.725 14.148675
61.730 14.189283
61.735 14.743125
61.740 14.550078
61.745 14.190562
61.750 14.081358
61.755 13.796353
61.760 13.939872
61.765 13.757489
61.770 13.435003
61.775 13.726477
61.780 13.474594
61.785 13.501122
61.790 13.825225
61.795 13.796782
61.800 13.666781
61.805 13.526317
61.810 13.640269
61.815 14.37247
61.820 14.089757
61.825 13.735533
61.830 14.029281
61.835 14.377935
61.840 14.523093
61.845 14.565442
61.850 14.232388
61.855 14.714921
61.860 15.125727
61.865 15.074843
61.870 15.040173
61.875 15.329445
61.880 15.708404
61.885 16.042416
61.890 16.015884
61.895 15.470121
61.900 15.106861
61.905 14.957559
61.910 14.859768
61.915 14.261046
61.920 13.738708
61.925 13.958975
61.930 13.992127
61.935 15.090691
61.940 14.885915
61.945 14.648603
61.950 14.532001
61.955 14.192067
61.960 13.97784
61.965 13.866417
61.970 13.445925
61.975 13.347907
61.980 13.148794
61.985 13.786636
61.990 14.322978
61.995 14.345879
62.000 14.710766
62.005 14.365086
62.010 14.647649
62.015 14.897521
62.020 14.351204
62.025 14.347565
62.030 13.992622
62.035 13.943511
62.040 14.08232
62.045 13.752511
62.050 13.845567
62.055 14.191042
62.060 14.246516
62.065 14.972396
62.070 14.955769
62.075 15.254683
62.080 15.947508
62.085 16.220791
62.090 15.934509
62.095 16.029148
62.100 15.448709
62.105 15.135937
62.110 14.488206
62.115 14.671614
62.120 14.64596
62.125 14.887513
62.130 15.012047
62.135 15.404409
62.140 15.415471
62.145 15.428109
62.150 15.127176
62.155 14.677504
62.160 14.197429
62.165 14.00227
62.170 14.407334
62.175 14.498835
62.180 14.570269
62.185 14.455563
62.190 14.849872
62.195 14.757967
62.200 14.359009
62.205 14.35466
62.210 14.53916
62.215 14.348189
62.220 14.046036
62.225 13.60083
62.230 13.691361
62.235 13.983047
62.240 13.979383
62.245 13.97745
62.250 14.237819
62.255 14.446383
62.260 15.197012
62.265 15.257243
62.270 15.0136
62.275 15.634032
62.280 15.585874
62.285 15.184428
62.290 14.734403
62.295 14.540821
62.300 14.843986
62.305 14.688439
62.310 13.991611
62.315 14.312676
62.320 14.743969
62.325 14.466803
62.330 14.211776
62.335 14.357183
62.340 14.544032
62.345 14.037142
62.350 13.719365
62.355 13.755983
62.360 14.394397
62.365 14.012296
62.370 13.904243
62.375 13.809939
62.380 14.213249
62.385 14.29488
62.390 14.313617
62.395 14.454318
62.400 14.646526
62.405 14.941613
62.410 15.082692
62.415 15.031032
62.420 14.996458
62.425 14.923178
62.430 14.749314
62.435 14.718433
62.440 14.574507
62.445 14.628294
62.450 14.755987
62.455 14.748243
62.460 14.577484
62.465 14.573991
62.470 14.550021
62.475 14.455537
62.480 14.098495
62.485 13.814532
62.490 13.656632
62.495 13.862593
62.500 14.223488
62.505 13.855632
62.510 13.592014
62.515 13.812382
62.520 14.115395
62.525 13.951342
62.530 13.654129
62.535 13.356013
62.540 13.427008
62.545 13.438848
62.550 13.630229
62.555 13.715764
62.560 13.514559
62.565 13.293768
62.570 13.191686
62.575 13.685973
62.580 14.265165
62.585 13.855742
62.590 14.196778
62.595 14.264967
62.600 14.693027
62.605 15.308025
62.610 15.079194
62.615 15.134213
62.620 15.309858
62.625 15.470433
62.630 16.406586
62.635 16.286697
62.640 15.570263
62.645 15.639503
62.650 15.004841
62.655 14.645035
62.660 14.239697
62.665 13.600451
62.670 14.163561
62.675 14.939938
62.680 14.456135
62.685 14.336447
62.690 14.00777
62.695 14.110476
62.700 14.559797
62.705 13.910422
62.710 13.284476
62.715 14.020376
62.720 14.864305
62.725 15.558724
62.730 15.934975
62.735 15.793531
62.740 16.013884
62.745 16.400238
62.750 16.190802
62.755 15.857942
62.760 15.087472
62.765 14.412727
62.770 14.395879
62.775 14.013394
62.780 13.814022
62.785 13.406712
62.790 13.713655
62.795 13.892113
62.800 14.012063
62.805 13.672399
62.810 13.642403
62.815 13.720243
62.820 13.481255
62.825 13.142426
62.830 13.658079
62.835 13.851684
62.840 14.075767
62.845 14.164329
62.850 14.147219
62.855 14.885185
62.860 14.958314
62.865 14.655104
62.870 14.745052
62.875 14.803858
62.880 15.223838
62.885 14.872756
62.890 14.451773
62.895 14.501621
62.900 15.025541
62.905 15.334472
62.910 15.393428
62.915 15.230809
62.920 15.573417
62.925 15.906376
62.930 15.768809
62.935 14.648614
62.940 14.213976
62.945 13.929586
62.950 13.516799
62.955 13.542688
62.960 13.678655
62.965 13.822768
62.970 15.232775
62.975 15.467514
62.980 15.89108
62.985 16.14642
62.990 16.096096
62.995 15.879294
63.000 15.931244
63.005 15.079109
63.010 14.54678
63.015 14.141334
63.020 14.421706
63.025 14.16077
63.030 13.798449
63.035 13.626389
63.040 13.786305
63.045 14.381636
63.050 14.827972
63.055 14.369914
63.060 14.502402
63.065 14.548285
63.070 14.780882
63.075 14.494061
63.080 13.904803
63.085 13.880097
63.090 14.094761
63.095 14.192401
63.100 14.327104
63.105 14.459384
63.110 15.115861
63.115 15.637139
63.120 15.452504
63.125 15.68348
63.130 15.585158
63.135 15.432729
63.140 14.713154
63.145 13.788548
63.150 13.527199
63.155 13.13804
63.160 12.787777
63.165 12.891644
63.170 12.87291
63.175 12.844341
63.180 13.197426
63.185 13.659198
63.190 13.706362
63.195 13.83408
63.200 13.97596
63.205 14.545859
63.210 14.91214
63.215 14.866847
63.220 14.128227
63.225 14.330921
63.230 14.657823
63.235 14.571634
63.240 14.187226
63.245 14.540915
63.250 14.8957
63.255 15.709691
63.260 16.033049
63.265 16.021963
63.270 16.570141
63.275 16.968256
63.280 17.085146
63.285 17.628696
63.290 17.342091
63.295 17.055965
63.300 16.839163
63.305 16.631777
63.310 16.554598
63.315 16.172478
63.320 15.511897
63.325 15.518354
63.330 16.010145
63.335 15.588494
63.340 15.326956
63.345 14.999379
63.350 14.895369
63.355 14.948235
63.360 15.003296
63.365 14.979766
63.370 14.637815
63.375 15.43055
63.380 15.582373
63.385 15.932419
63.390 15.732181
63.395 15.499453
63.400 15.728227
63.405 16.034018
63.410 15.831824
63.415 16.097488
63.420 16.514471
63.425 17.135895
63.430 17.599409
63.435 17.408949
63.440 17.541632
63.445 17.15951
63.450 16.900118
63.455 16.68206
63.460 16.230152
63.465 16.003824
63.470 16.035667
63.475 16.008286
63.480 16.034941
63.485 16.066338
63.490 16.078493
63.495 15.809908
63.500 15.625978
63.505 15.371126
63.510 15.406849
63.515 15.348622
63.520 15.218732
63.525 14.901927
63.530 14.819993
63.535 14.914881
63.540 15.49877
63.545 15.433847
63.550 15.169857
63.555 14.930655
63.560 15.048086
63.565 15.336917
63.570 15.705714
63.575 15.248177
63.580 15.463202
63.585 15.916254
63.590 16.10433
63.595 15.808287
63.600 15.643899
63.605 15.12354
63.610 15.51947
63.615 15.292374
63.620 15.352443
63.625 15.515113
63.630 15.87665
63.635 15.88209
63.640 16.258547
63.645 15.880848
63.650 16.118866
63.655 16.253893
63.660 16.091261
63.665 16.057375
63.670 15.891529
63.675 15.489784
63.680 16.15086
63.685 15.966697
63.690 15.493406
63.695 15.45525
63.700 15.55888
63.705 15.812567
63.710 15.909257
63.715 15.345113
63.720 15.023024
63.725 15.222363
63.730 15.363464
63.735 15.37183
63.740 16.534689
63.745 16.608427
63.750 16.71623
63.755 16.833391
63.760 16.452705
63.765 16.634691
63.770 16.601627
63.775 15.844859
63.780 15.543124
63.785 15.635049
63.790 15.952289
63.795 16.376661
63.800 16.203468
63.805 15.727605
63.810 15.344288
63.815 15.301474
63.820 15.607291
63.825 15.906129
63.830 15.847534
63.835 15.866031
63.840 16.446884
63.845 17.552416
63.850 18.357786
63.855 17.814714
63.860 17.944229
63.865 18.101542
63.870 18.632296
63.875 19.345558
63.880 19.066122
63.885 18.690701
63.890 19.246384
63.895 18.387453
63.900 18.305891
63.905 18.197525
63.910 17.461864
63.915 16.884195
63.920 16.239845
63.925 15.880681
63.930 16.160437
63.935 15.891258
63.940 15.727902
63.945 16.239296
63.950 16.778854
63.955 17.174982
63.960 17.158766
63.965 17.576895
63.970 17.868876
63.975 17.674004
63.980 17.414076
63.985 17.368135
63.990 17.746416
63.995 18.353262
64.000 18.488081
64.005 19.202614
64.010 20.393351
64.015 20.697254
64.020 21.505512
64.025 21.947172
64.030 22.047461
64.035 22.918453
64.040 22.30652
64.045 21.775526
64.050 21.588894
64.055 21.140646
64.060 20.675024
64.065 20.593281
64.070 19.897163
64.075 20.832903
64.080 21.696703
64.085 22.302889
64.090 22.567442
64.095 22.80349
64.100 23.191557
64.105 23.424198
64.110 23.491245
64.115 23.628145
64.120 24.265413
64.125 24.941425
64.130 25.216087
64.135 25.050268
64.140 24.88908
64.145 24.807726
64.150 24.615395
64.155 24.731184
64.160 24.928253
64.165 25.240713
64.170 25.697029
64.175 26.113234
64.180 26.376383
64.185 26.825821
64.190 26.686441
64.195 27.220354
64.200 28.655457
64.205 29.807623
64.210 30.566183
64.215 30.765282
64.220 31.115871
64.225 32.093224
64.230 32.776375
64.235 32.673763
64.240 32.991283
64.245 33.566471
64.250 33.812309
64.255 34.493858
64.260 34.792839
64.265 34.875996
64.270 35.698685
64.275 35.974529
64.280 36.647194
64.285 37.543766
64.290 37.562244
64.295 38.387184
64.300 38.987804
64.305 38.671391
64.310 38.666252
64.315 39.081303
64.320 38.713261
64.325 38.921307
64.330 39.143517
64.335 39.079014
64.340 40.180138
64.345 40.498672
64.350 40.152126
64.355 41.080231
64.360 42.983143
64.365 43.25119
64.370 43.145874
64.375 43.090912
64.380 43.819302
64.385 44.597752
64.390 44.301243
64.395 43.715714
64.400 43.653267
64.405 44.159683
64.410 43.566998
64.415 43.605068
64.420 43.146317
64.425 42.815945
64.430 42.339264
64.435 42.079079
64.440 41.905033
64.445 41.246841
64.450 40.862808
64.455 40.066132
64.460 40.013493
64.465 39.778919
64.470 39.434288
64.475 39.423237
64.480 39.371925
64.485 38.901764
64.490 39.123058
64.495 39.262211
64.500 38.32679
64.505 38.067486
64.510 37.90379
64.515 37.398869
64.520 37.24477
64.525 36.871857
64.530 36.352501
64.535 36.273407
64.540 35.671741
64.545 34.982548
64.550 34.854488
64.555 34.120792
64.560 33.551445
64.565 33.172462
64.570 32.372456
64.575 32.673912
64.580 32.329502
64.585 31.70742
64.590 31.596548
64.595 31.082298
64.600 31.192699
64.605 31.328468
64.610 29.990257
64.615 29.420349
64.620 28.759373
64.625 28.14325
64.630 28.227451
64.635 27.893024
64.640 27.573736
64.645 27.031555
64.650 26.943947
64.655 27.359987
64.660 27.696255
64.665 26.955347
64.670 26.051615
64.675 25.897959
64.680 25.913527
64.685 25.515942
64.690 24.661762
64.695 23.912203
64.700 24.183044
64.705 24.151773
64.710 23.708147
64.715 22.901899
64.720 22.562571
64.725 22.870142
64.730 22.763845
64.735 22.354259
64.740 22.429911
64.745 21.922609
64.750 22.026608
64.755 21.779819
64.760 21.474411
64.765 21.339125
64.770 21.316544
64.775 21.366585
64.780 21.15147
64.785 20.761189
64.790 20.805876
64.795 19.935682
64.800 19.942156
64.805 19.461664
64.810 18.609283
64.815 18.421003
64.820 19.398542
64.825 19.404659
64.830 19.67791
64.835 19.276577
64.840 19.076832
64.845 18.947809
64.850 19.640026
64.855 19.197668
64.860 19.18714
64.865 19.848108
64.870 19.925028
64.875 19.882982
64.880 20.285103
64.885 19.672077
64.890 19.556416
64.895 19.40102
64.900 19.547453
64.905 19.70575
64.910 20.08157
64.915 20.075171
64.920 19.954756
64.925 19.940454
64.930 19.623617
64.935 19.245178
64.940 19.033468
64.945 18.620703
64.950 18.18314
64.955 18.083364
64.960 18.258158
64.965 18.749863
64.970 18.677929
64.975 18.934416
64.980 19.640125
64.985 19.691946
64.990 20.249651
64.995 21.035364
65.000 21.153242
65.005 21.824406
65.010 22.344065
65.015 22.286509
65.020 22.96143
65.025 22.756662
65.030 21.697319
65.035 21.526634
65.040 21.912064
65.045 21.477669
65.050 21.184189
65.055 21.188173
65.060 21.666348
65.065 21.872818
65.070 21.543341
65.075 21.099394
65.080 21.455355
65.085 21.892448
65.090 21.88311
65.095 22.254156
65.100 23.042473
65.105 23.774899
65.110 23.647154
65.115 23.348766
65.120 23.497187
65.125 23.539047
65.130 23.730171
65.135 24.00452
65.140 24.312662
65.145 24.923435
65.150 25.526375
65.155 25.484625
65.160 25.126013
65.165 24.960659
65.170 25.229586
65.175 25.696869
65.180 25.502232
65.185 25.495516
65.190 26.949749
65.195 28.494171
65.200 28.917389
65.205 29.678617
65.210 29.483515
65.215 29.624079
65.220 29.563232
65.225 28.976137
65.230 28.854971
65.235 28.591331
65.240 27.545471
65.245 27.342728
65.250 27.586906
65.255 27.640985
65.260 27.507421
65.265 27.711546
65.270 28.06028
65.275 29.265692
65.280 30.133715
65.285 29.921692
65.290 30.685884
65.295 31.018469
65.300 31.310339
65.305 31.21756
65.310 30.860558
65.315 30.621035
65.320 30.801529
65.325 31.029785
65.330 31.521898
65.335 31.540297
65.340 32.329174
65.345 32.920685
65.350 33.978203
65.355 34.36018
65.360 34.506481
65.365 34.795372
65.370 35.621796
65.375 35.721043
65.380 35.76646
65.385 35.388805
65.390 36.071552
65.395 36.373425
65.400 35.955948
65.405 36.110275
65.410 36.927143
65.415 37.309624
65.420 37.853733
65.425 37.587559
65.430 37.49649
65.435 37.796463
65.440 38.0928
65.445 37.864285
65.450 37.515221
65.455 37.364517
65.460 37.372307
65.465 37.462788
65.470 37.211174
65.475 37.007996
65.480 36.898476
65.485 37.306252
65.490 37.836567
65.495 38.435799
65.500 38.510063
65.505 39.39629
65.510 39.580132
65.515 40.034557
65.520 40.132278
65.525 39.880463
65.530 39.327843
65.535 38.902847
65.540 38.230991
65.545 38.318935
65.550 38.359787
65.555 37.362713
65.560 37.01318
65.565 37.276535
65.570 37.929928
65.575 37.765919
65.580 37.626614
65.585 37.716465
65.590 37.802498
65.595 37.68713
65.600 37.310249
65.605 36.972103
65.610 37.352375
65.615 36.462975
65.620 35.623978
65.625 35.861305
65.630 36.006428
65.635 35.711693
65.640 35.657536
65.645 35.043949
65.650 34.238033
65.655 33.968079
65.660 34.028713
65.665 33.410809
65.670 33.450081
65.675 33.849022
65.680 34.062798
65.685 35.446468
65.690 36.007877
65.695 35.932247
65.700 35.970837
65.705 35.689236
65.710 35.261852
65.715 34.69434
65.720 33.878685
65.725 33.103672
65.730 32.778923
65.735 32.767246
65.740 32.974121
65.745 32.809662
65.750 32.471359
65.755 31.8463
65.760 31.558403
65.765 31.377369
65.770 31.459059
65.775 31.098845
65.780 30.777142
65.785 30.53904
65.790 30.297031
65.795 30.593376
65.800 30.334511
65.805 29.254585
65.810 29.136951
65.815 29.388071
65.820 29.440018
65.825 28.878899
65.830 28.512062
65.835 28.641041
65.840 28.593918
65.845 28.319637
65.850 27.306149
65.855 27.157736
65.860 27.172543
65.865 26.649908
65.870 26.311983
65.875 26.792175
65.880 27.11125
65.885 27.3759
65.890 26.935574
65.895 26.708727
65.900 26.468605
65.905 26.451488
65.910 25.595009
65.915 25.04565
65.920 24.722866
65.925 24.88372
65.930 24.547716
65.935 24.496464
65.940 24.245995
65.945 24.40708
65.950 24.466423
65.955 24.046846
65.960 23.190372
65.965 22.811182
65.970 23.278774
65.975 22.890675
65.980 21.827389
65.985 21.383352
65.990 21.378876
65.995 22.078224
66.000 22.094954
66.005 21.502398
66.010 21.447239
66.015 21.539537
66.020 21.425053
66.025 20.984962
66.030 20.503555
66.035 20.18294
66.040 19.558954
66.045 19.33427
66.050 19.215927
66.055 19.638771
66.060 19.618368
66.065 19.138514
66.070 18.710539
66.075 18.960592
66.080 19.097694
66.085 19.190338
66.090 19.079397
66.095 19.60808
66.100 19.971664
66.105 20.069677
66.110 19.919062
66.115 19.892599
66.120 19.487288
66.125 18.588631
66.130 17.927799
66.135 17.63888
66.140 17.773943
66.145 17.141872
66.150 16.902464
66.155 17.004515
66.160 16.781927
66.165 16.690365
66.170 16.600338
66.175 16.490086
66.180 17.386574
66.185 17.252077
66.190 17.1
66.195 17.262589
66.200 17.173761
66.205 17.207327
66.210 17.300173
66.215 17.293564
66.220 17.403963
66.225 17.641186
66.230 17.943676
66.235 18.505177
66.240 18.434984
66.245 17.970974
66.250 17.920406
66.255 17.870152
66.260 17.810198
66.265 18.074768
66.270 17.986961
66.275 17.673925
66.280 17.708359
66.285 17.454622
66.290 17.208881
66.295 17.189356
66.300 16.882454
66.305 16.5179
66.310 16.24118
66.315 15.98046
66.320 16.256422
66.325 16.957741
66.330 17.211447
66.335 16.975233
66.340 17.00761
66.345 17.492603
66.350 17.878849
66.355 17.955669
66.360 17.767591
66.365 17.801805
66.370 17.872557
66.375 17.83432
66.380 17.713659
66.385 17.532745
66.390 17.245506
66.395 16.752258
66.400 16.382475
66.405 16.247259
66.410 15.766935
66.415 15.552833
66.420 15.754701
66.425 15.802893
66.430 16.316914
66.435 16.710619
66.440 17.026642
66.445 17.93108
66.450 18.070745
66.455 17.75667
66.460 17.546307
66.465 17.414394
66.470 16.850874
66.475 16.908947
66.480 16.436373
66.485 16.270014
66.490 16.612211
66.495 16.855955
66.500 17.064322
66.505 17.019279
66.510 16.976273
66.515 17.182981
66.520 17.597424
66.525 17.340088
66.530 17.000439
66.535 17.498768
66.540 17.819145
66.545 16.886702
66.550 17.01688
66.555 17.07827
66.560 17.113127
66.565 17.321735
66.570 16.892435
66.575 17.178123
66.580 17.783737
66.585 18.065617
66.590 18.060328
66.595 18.318165
66.600 18.027966
66.605 17.938597
66.610 17.67845
66.615 17.69849
66.620 16.834421
66.625 16.219038
66.630 16.055796
66.635 15.774861
66.640 15.786235
66.645 15.556403
66.650 15.525719
66.655 16.305328
66.660 16.467833
66.665 16.107603
66.670 15.901029
66.675 15.781204
66.680 16.233948
66.685 16.433405
66.690 15.773984
66.695 15.84354
66.700 16.25318
66.705 16.231817
66.710 16.315229
66.715 15.794818
66.720 16.315538
66.725 16.596512
66.730 16.38991
66.735 16.368952
66.740 16.757963
66.745 16.466549
66.750 16.64039
66.755 16.329178
66.760 16.77165
66.765 17.383463
66.770 17.519911
66.775 17.19273
66.780 17.144976
66.785 17.094086
66.790 16.974678
66.795 16.557589
66.800 16.743097
66.805 17.057522
66.810 17.100727
66.815 17.523249
66.820 17.463881
66.825 17.745329
66.830 17.927795
66.835 17.126612
66.840 16.769335
66.845 16.938013
66.850 17.100981
66.855 17.069132
66.860 16.830252
66.865 17.071171
66.870 17.367519
66.875 17.475143
66.880 17.485586
66.885 17.406685
66.890 17.487377
66.895 17.957521
66.900 18.16194
66.905 18.388615
66.910 18.254332
66.915 18.281391
66.920 18.429062
66.925 18.261326
66.930 17.471415
66.935 17.228453
66.940 16.758537
66.945 17.080006
66.950 16.960482
66.955 16.419777
66.960 16.316839
66.965 16.635963
66.970 16.613632
66.975 16.824751
66.980 16.259705
66.985 16.15283
66.990 16.627333
66.995 16.552824
67.000 16.315825
67.005 16.417013
67.010 16.75157
67.015 16.937771
67.020 17.311472
67.025 17.57803
67.030 17.523613
67.035 16.918564
67.040 16.775949
67.045 16.738176
67.050 17.042322
67.055 16.917208
67.060 16.204123
67.065 16.263351
67.070 16.794319
67.075 16.538677
67.080 16.522512
67.085 16.23859
67.090 16.480179
67.095 17.127604
67.100 17.291029
67.105 17.404888
67.110 18.03768
67.115 17.900137
67.120 18.223949
67.125 18.268763
67.130 17.504887
67.135 17.661665
67.140 17.204977
67.145 16.71431
67.150 16.469931
67.155 15.755009
67.160 15.44768
67.165 15.977179
67.170 15.681509
67.175 16.054504
67.180 16.753653
67.185 17.680073
67.190 18.05028
67.195 18.209372
67.200 18.28183
67.205 18.084038
67.210 17.405359
67.215 16.723255
67.220 16.18767
67.225 15.765828
67.230 15.668324
67.235 15.799178
67.240 16.320337
67.245 17.05715
67.250 17.572886
67.255 18.133299
67.260 18.514259
67.265 18.792711
67.270 19.085485
67.275 18.803938
67.280 18.660734
67.285 18.139643
67.290 17.305042
67.295 17.048626
67.300 16.132166
67.305 15.593598
67.310 15.486866
67.315 15.211439
67.320 15.157807
67.325 15.690115
67.330 15.481268
67.335 15.368135
67.340 15.810565
67.345 16.335236
67.350 16.213377
67.355 15.701819
67.360 15.863054
67.365 16.430132
67.370 16.772497
67.375 16.443617
67.380 16.104025
67.385 17.025356
67.390 17.352705
67.395 16.652187
67.400 16.833998
67.405 17.116823
67.410 16.90653
67.415 16.366852
67.420 15.552586
67.425 15.623422
67.430 15.842308
67.435 15.311333
67.440 15.598194
67.445 16.022991
67.450 16.852612
67.455 16.865696
67.460 16.848049
67.465 16.901167
67.470 16.920305
67.475 16.377113
67.480 15.91889
67.485 15.415364
67.490 16.001833
67.495 16.12484
67.500 16.645826
67.505 17.34186
67.510 17.813559
67.515 18.059296
67.520 18.175196
67.525 18.127483
67.530 18.480236
67.535 18.477367
67.540 17.744003
67.545 17.489355
67.550 17.1947
67.555 16.92174
67.560 16.991358
67.565 16.854445
67.570 16.936472
67.575 16.844057
67.580 16.625711
67.585 17.38269
67.590 17.803122
67.595 17.743105
67.600 17.287191
67.605 17.365511
67.610 17.482073
67.615 17.712328
67.620 17.313234
67.625 16.877024
67.630 17.138803
67.635 17.231148
67.640 16.863422
67.645 16.909372
67.650 17.062359
67.655 17.757322
67.660 17.619787
67.665 17.239477
67.670 17.368082
67.675 17.736006
67.680 17.834633
67.685 17.447123
67.690 16.54777
67.695 16.610744
67.700 16.588022
67.705 15.974842
67.710 16.494066
67.715 16.932684
67.720 17.103399
67.725 17.049952
67.730 16.690887
67.735 16.683598
67.740 17.180975
67.745 16.834085
67.750 16.62854
67.755 16.610746
67.760 17.2034
67.765 17.175062
67.770 16.675735
67.775 15.886143
67.780 15.878838
67.785 16.020004
67.790 16.337959
67.795 16.477184
67.800 17.281096
67.805 17.671604
67.810 17.917809
67.815 17.913834
67.820 18.08353
67.825 17.992962
67.830 18.032389
67.835 17.668501
67.840 17.735182
67.845 18.11014
67.850 17.855425
67.855 17.589325
67.860 17.546841
67.865 17.457785
67.870 17.551931
67.875 17.96192
67.880 17.738325
67.885 17.98543
67.890 17.989386
67.895 18.204046
67.900 17.665207
67.905 17.357456
67.910 17.393648
67.915 16.989613
67.920 16.307226
67.925 15.552208
67.930 15.189288
67.935 15.790797
67.940 16.099501
67.945 15.586178
67.950 15.406553
67.955 15.25964
67.960 15.231136
67.965 15.373811
67.970 15.056856
67.975 15.078728
67.980 15.03549
67.985 15.133758
67.990 15.478709
67.995 15.766224
68.000 15.582373
68.005 15.848275
68.010 15.361962
68.015 15.242455
68.020 15.492539
68.025 15.814759
68.030 15.938216
68.035 16.130972
68.040 16.477304
68.045 17.279324
68.050 17.862898
68.055 18.216679
68.060 18.610392
68.065 18.587879
68.070 18.757929
68.075 18.785593
68.080 18.971704
68.085 19.006828
68.090 18.767822
68.095 18.421425
68.100 18.435061
68.105 18.335529
68.110 18.103308
68.115 17.839296
68.120 17.412064
68.125 17.493721
68.130 17.369284
68.135 17.470407
68.140 16.808359
68.145 16.543669
68.150 16.818117
68.155 16.957747
68.160 16.858154
68.165 16.971903
68.170 17.027107
68.175 18.020338
68.180 18.294394
68.185 18.315809
68.190 19.052937
68.195 19.432919
68.200 19.868456
68.205 19.977831
68.210 19.324331
68.215 18.989504
68.220 18.888018
68.225 18.568966
68.230 18.863022
68.235 18.744608
68.240 18.929415
68.245 19.282764
68.250 18.977484
68.255 18.992516
68.260 18.989594
68.265 18.887285
68.270 19.247738
68.275 19.240578
68.280 19.75695
68.285 20.409313
68.290 20.445425
68.295 20.161173
68.300 19.565617
68.305 19.202692
68.310 18.911583
68.315 18.737642
68.320 19.190067
68.325 19.553503
68.330 19.708715
68.335 19.886217
68.340 20.401754
68.345 20.363018
68.350 20.914883
68.355 20.932472
68.360 21.203318
68.365 21.751087
68.370 22.188034
68.375 22.204275
68.380 22.319069
68.385 22.183279
68.390 22.246002
68.395 22.464508
68.400 22.775318
68.405 22.583715
68.410 22.512249
68.415 23.096743
68.420 23.101995
68.425 22.835314
68.430 22.570438
68.435 22.057035
68.440 22.395496
68.445 22.600058
68.450 23.023911
68.455 24.037769
68.460 24.701414
68.465 25.153175
68.470 25.286814
68.475 24.754633
68.480 24.443836
68.485 24.106205
68.490 24.126209
68.495 24.158251
68.500 24.507086
68.505 25.414169
68.510 26.53826
68.515 27.527737
68.520 27.454493
68.525 27.087551
68.530 27.074612
68.535 27.010471
68.540 26.291737
68.545 25.380302
68.550 24.512486
68.555 25.890087
68.560 26.483782
68.565 26.664268
68.570 26.819529
68.575 27.486763
68.580 27.680546
68.585 27.627436
68.590 26.438379
68.595 26.135101
68.600 26.972862
68.605 26.905182
68.610 27.177614
68.615 28.601753
68.620 29.126217
68.625 29.932775
68.630 30.008404
68.635 29.93004
68.640 30.07226
68.645 29.907589
68.650 29.957829
68.655 31.039581
68.660 31.458412
68.665 30.915812
68.670 31.167049
68.675 32.014957
68.680 32.566402
68.685 32.547791
68.690 32.337143
68.695 33.438343
68.700 34.757618
68.705 34.866169
68.710 34.831055
68.715 34.995266
68.720 35.207867
68.725 35.03944
68.730 34.998669
68.735 34.083992
68.740 33.764767
68.745 34.098751
68.750 34.452515
68.755 34.095119
68.760 33.551281
68.765 33.85442
68.770 34.881546
68.775 34.462055
68.780 34.580357
68.785 34.354649
68.790 34.936672
68.795 35.555801
68.800 35.095821
68.805 34.909492
68.810 34.622536
68.815 34.481178
68.820 34.460979
68.825 34.471867
68.830 34.032536
68.835 34.129059
68.840 34.330261
68.845 35.041965
68.850 34.665668
68.855 34.591877
68.860 34.934669
68.865 34.318913
68.870 33.599537
68.875 33.710354
68.880 33.689205
68.885 32.915287
68.890 32.688519
68.895 32.452179
68.900 32.771271
68.905 32.415043
68.910 32.455654
68.915 32.308002
68.920 32.18092
68.925 31.56279
68.930 31.076427
68.935 31.479834
68.940 31.658709
68.945 29.810036
68.950 29.695841
68.955 30.116892
68.960 30.277843
68.965 30.000406
68.970 30.639627
68.975 31.445541
68.980 32.39566
68.985 31.956158
68.990 31.737875
68.995 31.949984
69.000 32.010368
69.005 31.309635
69.010 30.297239
69.015 29.590385
69.020 29.148685
69.025 29.049957
69.030 28.249376
69.035 27.446404
69.040 26.2645
69.045 26.731659
69.050 26.962831
69.055 27.403194
69.060 26.972628
69.065 27.371822
69.070 28.008781
69.075 28.058691
69.080 28.022219
69.085 28.420652
69.090 28.388906
69.095 28.489071
69.100 28.422482
69.105 27.805239
69.110 27.874098
69.115 26.924377
69.120 26.090412
69.125 25.360531
69.130 24.989109
69.135 24.485619
69.140 24.75169
69.145 23.825083
69.150 23.521053
69.155 23.270178
69.160 23.430725
69.165 23.403555
69.170 22.892591
69.175 22.373861
69.180 22.869837
69.185 23.30253
69.190 23.852951
69.195 23.672997
69.200 23.133278
69.205 22.98646
69.210 21.99716
69.215 22.016867
69.220 21.463314
69.225 21.2362
69.230 21.477741
69.235 21.88249
69.240 21.670527
69.245 21.658531
69.250 21.453835
69.255 21.326511
69.260 20.778357
69.265 20.169395
69.270 20.155951
69.275 20.476864
69.280 20.681007
69.285 20.438826
69.290 20.450733
69.295 20.439972
69.300 20.341513
69.305 20.295811
69.310 19.985165
69.315 19.859848
69.320 19.969431
69.325 19.721003
69.330 19.433491
69.335 19.308521
69.340 19.285555
69.345 19.472004
69.350 19.841806
69.355 19.558777
69.360 20.125774
69.365 20.42598
69.370 19.939667
69.375 19.727957
69.380 19.864523
69.385 19.645311
69.390 19.687981
69.395 19.715675
69.400 20.106344
69.405 20.607525
69.410 20.440054
69.415 19.717106
69.420 19.774319
69.425 19.686884
69.430 19.347097
69.435 19.094177
69.440 19.100306
69.445 19.119978
69.450 19.606007
69.455 18.694578
69.460 18.693277
69.465 18.619953
69.470 18.237907
69.475 18.372639
69.480 17.912451
69.485 17.987274
69.490 18.626678
69.495 18.588139
69.500 18.312412
69.505 17.983038
69.510 17.921888
69.515 17.601038
69.520 16.804163
69.525 16.529512
69.530 16.438118
69.535 17.234901
69.540 17.370075
69.545 17.504591
69.550 18.007467
69.555 18.500275
69.560 18.666676
69.565 18.721958
69.570 18.541506
69.575 18.399202
69.580 18.739025
69.585 19.027218
69.590 18.32653
69.595 17.846272
69.600 17.332113
69.605 17.275055
69.610 17.332129
69.615 16.725996
69.620 16.29216
69.625 16.898054
69.630 17.619495
69.635 17.896782
69.640 17.953741
69.645 17.890593
69.650 17.971502
69.655 18.087831
69.660 17.305578
69.665 16.763216
69.670 17.358683
69.675 17.673243
69.680 17.873001
69.685 17.9795
69.690 17.624176
69.695 17.960203
69.700 18.119783
69.705 17.131355
69.710 16.173653
69.715 15.426254
69.720 15.131336
69.725 15.848677
69.730 16.305088
69.735 16.005461
69.740 16.270287
69.745 16.985891
69.750 17.396582
69.755 17.661316
69.760 17.437616
69.765 17.174444
69.770 17.311302
69.775 17.405514
69.780 18.147308
69.785 18.73468
69.790 18.387184
69.795 18.709972
69.800 19.252575
69.805 19.176973
69.810 18.757841
69.815 18.776875
69.820 19.131359
69.825 19.109747
69.830 18.072985
69.835 17.149973
69.840 17.034973
69.845 17.031427
69.850 16.430843
69.855 16.256197
69.860 16.176569
69.865 16.516405
69.870 17.111238
69.875 17.454182
69.880 17.75732
69.885 17.577007
69.890 17.387104
69.895 17.888969
69.900 17.603516
69.905 17.069698
69.910 16.787128
69.915 16.593382
69.920 16.371639
69.925 16.225784
69.930 16.56851
69.935 17.270479
69.940 17.768625
69.945 17.851526
69.950 17.572556
69.955 17.838699
69.960 17.693974
69.965 17.46237
69.970 17.277824
69.975 16.381262
69.980 16.148211
69.985 16.129917
69.990 16.06069
69.995 15.713216
70.000 15.113307
70.005 15.07438
70.010 15.931906
70.015 16.4242
70.020 16.61952
70.025 16.870998
70.030 17.141376
70.035 17.473591
70.040 17.397766
70.045 16.757446
70.050 16.329308
70.055 15.470888
70.060 15.049461
70.065 15.407896
70.070 15.614728
70.075 15.454346
70.080 16.325411
70.085 17.065374
70.090 18.690508
70.095 19.304775
70.100 19.425293
70.105 19.719175
70.110 19.871853
70.115 19.418583
70.120 18.859926
70.125 18.249693
70.130 17.818974
70.135 17.190138
70.140 17.251387
70.145 17.372341
70.150 17.178719
70.155 17.316702
70.160 17.486305
70.165 17.63003
70.170 18.118502
70.175 18.315981
70.180 18.228382
70.185 18.107887
70.190 17.815266
70.195 17.440636
70.200 17.209499
70.205 17.348076
70.210 17.26457
70.215 17.524803
70.220 17.615303
70.225 17.518948
70.230 17.833702
70.235 18.05323
70.240 17.372108
70.245 16.722284
70.250 16.842192
70.255 17.056185
70.260 17.407753
70.265 17.414383
70.270 16.939531
70.275 17.162376
70.280 17.223652
70.285 16.890272
70.290 16.629211
70.295 16.359802
70.300 16.054411
70.305 16.092377
70.310 15.865662
70.315 16.026409
70.320 16.243423
70.325 16.308952
70.330 16.157536
70.335 16.597744
70.340 16.216812
70.345 16.412552
70.350 16.344854
70.355 16.512114
70.360 16.699266
70.365 16.92053
70.370 17.024117
70.375 17.226395
70.380 16.962326
70.385 17.079042
70.390 17.054684
70.395 16.726357
70.400 16.706802
70.405 16.25322
70.410 16.270725
70.415 16.191689
70.420 15.589936
70.425 15.843608
70.430 15.913699
70.435 16.106565
70.440 16.479515
70.445 16.367374
70.450 16.11706
70.455 15.511903
70.460 15.257519
70.465 14.878895
70.470 14.856193
70.475 15.278681
70.480 15.748567
70.485 17.151262
70.490 18.357569
70.495 18.233152
70.500 18.300858
70.505 18.220661
70.510 17.752518
70.515 17.207487
70.520 16.811239
70.525 16.879578
70.530 16.931227
70.535 17.268524
70.540 17.576283
70.545 18.335829
70.550 18.822794
70.555 18.990644
70.560 18.949797
70.565 19.389746
70.570 19.120342
70.575 18.991014
70.580 18.715839
70.585 17.888943
70.590 17.193464
70.595 16.834211
70.600 16.870394
70.605 17.0737
70.610 17.397171
70.615 17.853403
70.620 18.509546
70.625 18.474289
70.630 18.219826
70.635 17.74712
70.640 17.146923
70.645 16.746357
70.650 16.144094
70.655 15.741248
70.660 15.709482
70.665 15.469255
70.670 15.609111
70.675 15.387174
70.680 15.212189
70.685 14.852613
70.690 15.439191
70.695 15.747143
70.700 16.280754
70.705 16.681023
70.710 16.714682
70.715 16.890684
70.720 17.414831
70.725 16.992134
70.730 16.337519
70.735 16.092348
70.740 16.288851
70.745 16.307781
70.750 15.905954
70.755 15.788852
70.760 16.596163
70.765 17.303831
70.770 17.196474
70.775 16.985945
70.780 17.223314
70.785 17.52202
70.790 17.380398
70.795 16.555786
70.800 16.127598
70.805 16.259062
70.810 15.905451
70.815 15.80722
70.820 16.425125
70.825 16.783585
70.830 17.356043
70.835 17.100456
70.840 16.783764
70.845 17.056877
70.850 17.039829
70.855 16.862036
70.860 16.726202
70.865 16.64188
70.870 17.197287
70.875 17.925068
70.880 17.79262
70.885 18.058561
70.890 17.342001
70.895 17.290749
70.900 17.355131
70.905 17.119644
70.910 16.62874
70.915 16.261177
70.920 15.84551
70.925 16.035318
70.930 15.491427
70.935 15.318665
70.940 14.881585
70.945 14.767519
70.950 15.177908
70.955 15.747406
70.960 16.357182
70.965 16.833185
70.970 17.354622
70.975 17.675756
70.980 18.028692
70.985 18.14966
70.990 17.403429
70.995 17.013824
71.000 16.370699
71.005 16.385303
71.010 16.952995
71.015 17.243128
71.020 17.218185
71.025 16.880293
71.030 17.112341
71.035 17.123487
71.040 16.880447
71.045 15.508749
71.050 14.545272
71.055 14.571508
71.060 14.217136
71.065 14.139902
71.070 14.288634
71.075 14.702452
71.080 15.573647
71.085 16.026003
71.090 16.391764
71.095 17.30127
71.100 17.427427
71.105 17.498394
71.110 17.92597
71.115 17.705671
71.120 17.563713
71.125 17.21386
71.130 17.302708
71.135 17.283827
71.140 16.619617
71.145 16.082253
71.150 16.527147
71.155 16.491047
71.160 16.059549
71.165 16.134287
71.170 16.008469
71.175 16.196493
71.180 16.232738
71.185 15.684599
71.190 15.865169
71.195 15.485124
71.200 15.495586
71.205 16.009224
71.210 16.21249
71.215 16.278252
71.220 16.123837
71.225 16.879995
71.230 17.930933
71.235 17.780821
71.240 17.758875
71.245 17.460482
71.250 17.362158
71.255 17.888603
71.260 17.335527
71.265 17.234732
71.270 16.653708
71.275 16.792826
71.280 17.232635
71.285 17.555386
71.290 16.727003
71.295 16.541279
71.300 16.146542
71.305 16.878271
71.310 17.199074
71.315 17.121819
71.320 17.142736
71.325 17.42963
71.330 17.665592
71.335 17.578575
71.340 17.35169
71.345 16.782896
71.350 16.886229
71.355 17.176317
71.360 17.203156
71.365 16.754972
71.370 16.552856
71.375 16.418688
71.380 16.465689
71.385 16.491377
71.390 16.109106
71.395 16.042046
71.400 16.68709
71.405 16.638674
71.410 16.774878
71.415 16.84454
71.420 17.196554
71.425 16.973925
71.430 17.161486
71.435 17.440113
71.440 17.516758
71.445 17.502283
71.450 17.179905
71.455 17.286846
71.460 17.549772
71.465 16.817516
71.470 16.8272
71.475 17.197178
71.480 17.17931
71.485 17.13261
71.490 16.743885
71.495 16.903065
71.500 16.912014
71.505 16.236769
71.510 15.721439
71.515 15.629928
71.520 15.528291
71.525 15.296309
71.530 15.453889
71.535 16.039793
71.540 16.627031
71.545 17.043873
71.550 16.75008
71.555 16.895418
71.560 17.541304
71.565 17.509274
71.570 17.139849
71.575 17.090931
71.580 16.889866
71.585 17.178806
71.590 16.705381
71.595 16.328072
71.600 15.975696
71.605 15.49719
71.610 16.028664
71.615 15.882538
71.620 15.920326
71.625 15.757321
71.630 15.834345
71.635 16.011894
71.640 15.758736
71.645 15.109237
71.650 15.279155
71.655 14.89786
71.660 15.216265
71.665 14.976994
71.670 15.230978
71.675 16.145678
71.680 16.047354
71.685 16.270123
71.690 16.459785
71.695 16.057011
71.700 15.49322
71.705 14.416617
71.710 13.871717
71.715 13.689693
71.720 14.045615
71.725 14.24964
71.730 14.628036
71.735 15.493716
71.740 16.009232
71.745 16.219542
71.750 16.515377
71.755 16.693941
71.760 16.929556
71.765 16.970718
71.770 17.332973
71.775 18.011086
71.780 18.355459
71.785 18.154182
71.790 17.317682
71.795 16.775761
71.800 16.673031
71.805 16.389025
71.810 15.30008
71.815 15.074008
71.820 14.989247
71.825 14.987356
71.830 15.16376
71.835 15.034492
71.840 15.844864
71.845 16.441311
71.850 16.533512
71.855 16.579529
71.860 16.7549
71.865 16.640509
71.870 16.375082
71.875 16.217003
71.880 16.564058
71.885 16.536392
71.890 16.775833
71.895 16.911871
71.900 17.560688
71.905 18.045595
71.910 17.570646
71.915 16.941496
71.920 17.007206
71.925 17.393852
71.930 17.502262
71.935 16.764593
71.940 16.718924
71.945 16.664612
71.950 17.090595
71.955 17.13467
71.960 16.700686
71.965 16.683695
71.970 17.00605
71.975 16.699999
71.980 17.257648
71.985 17.082973
71.990 17.066603
71.995 16.945122
72.000 16.783777
72.005 16.289219
72.010 16.069786
72.015 15.758929
72.020 16.003479
72.025 15.836514
72.030 16.370823
72.035 16.980211
72.040 17.361021
72.045 17.686298
72.050 17.655424
72.055 17.41621
72.060 17.234713
72.065 17.152817
72.070 17.137615
72.075 16.748518
72.080 16.023754
72.085 15.429773
72.090 15.262651
72.095 15.34458
72.100 15.31551
72.105 15.49643
72.110 15.892311
72.115 16.535364
72.120 16.836357
72.125 16.808739
72.130 17.110022
72.135 17.146206
72.140 17.237543
72.145 17.347235
72.150 16.889517
72.155 17.123594
72.160 17.12771
72.165 16.902237
72.170 16.435598
72.175 16.479589
72.180 16.198219
72.185 16.292788
72.190 15.79201
72.195 15.897278
72.200 15.961266
72.205 15.430584
72.210 14.975217
72.215 15.314218
72.220 15.717047
72.225 15.904351
72.230 15.525814
72.235 15.88937
72.240 16.395123
72.245 16.748552
72.250 16.624365
72.255 15.888573
72.260 15.882668
72.265 16.020658
72.270 15.69782
72.275 15.724948
72.280 15.911333
72.285 16.451063
72.290 16.608477
72.295 16.70752
72.300 16.983313
72.305 17.191265
72.310 16.91279
72.315 17.473473
72.320 17.55566
72.325 17.801558
72.330 17.839191
72.335 17.217119
72.340 17.224539
72.345 16.886963
72.350 16.267435
72.355 16.274668
72.360 16.765163
72.365 16.684965
72.370 17.106373
72.375 17.350935
72.380 17.560778
72.385 17.167547
72.390 16.741541
72.395 16.854673
72.400 17.089579
72.405 17.178656
72.410 16.74102
72.415 16.453434
72.420 16.578032
72.425 16.863668
72.430 16.834673
72.435 16.852665
72.440 16.860298
72.445 17.120512
72.450 17.924349
72.455 18.476192
72.460 18.75098
72.465 18.723568
72.470 18.434177
72.475 18.839773
72.480 18.535053
72.485 18.525848
72.490 18.357862
72.495 17.681063
72.500 17.644184
72.505 17.527937
72.510 17.416721
72.515 17.410343
72.520 16.44487
72.525 16.413885
72.530 16.069414
72.535 15.659478
72.540 15.914072
72.545 16.07914
72.550 16.455837
72.555 16.277721
72.560 15.882213
72.565 16.141151
72.570 16.216372
72.575 16.059963
72.580 15.765481
72.585 15.541621
72.590 15.994265
72.595 16.629335
72.600 17.439592
72.605 17.65354
72.610 17.917301
72.615 18.121908
72.620 18.051363
72.625 17.690762
72.630 17.079649
72.635 16.193544
72.640 15.558414
72.645 15.481446
72.650 15.421528
72.655 15.957446
72.660 16.177361
72.665 16.178869
72.670 16.74193
72.675 16.874041
72.680 16.628862
72.685 16.08618
72.690 15.776057
72.695 15.502322
72.700 15.2708
72.705 15.097265
72.710 15.142064
72.715 15.38231
72.720 15.065665
72.725 15.690878
72.730 16.210026
72.735 16.316673
72.740 16.178154
72.745 15.755741
72.750 15.720136
72.755 16.313711
72.760 15.567967
72.765 15.731706
72.770 15.563709
72.775 15.054874
72.780 14.71806
72.785 14.692797
72.790 14.069665
72.795 14.343307
72.800 14.315737
72.805 14.404659
72.810 14.867477
72.815 15.256375
72.820 15.724096
72.825 16.379869
72.830 16.48558
72.835 16.605846
72.840 16.908302
72.845 16.82349
72.850 17.082619
72.855 16.710512
72.860 15.594576
72.865 15.230852
72.870 15.668904
72.875 16.114048
72.880 16.387053
72.885 16.31706
72.890 17.077446
72.895 17.78739
72.900 18.186907
72.905 17.540899
72.910 16.991373
72.915 16.707018
72.920 16.440464
72.925 16.062796
72.930 15.877922
72.935 15.559537
72.940 16.126022
72.945 16.073193
72.950 15.880557
72.955 15.783842
72.960 15.44003
72.965 15.169291
72.970 14.678476
72.975 14.35306
72.980 14.153371
72.985 14.116718
72.990 14.476872
72.995 14.746686
73.000 15.040304
