!@!!GADDS PLOTSO FILE: Chi integration type
!@!!Title/SampleName: map-9b
!@!!Comment: ?
!@!!User: Bruker Instrument Administrator
!@!!Site: University of Illinois Chicago
!@!!Frame: map-9b_01_000.gfrm
!@!!Wavelengths    1.54184   1.54056   1.54439
!@!!Frame angles: 2Theta: 63.000 Omega: 50.000 Phi: 0.000 Chi: 90.000
!@!!Integration range: 2Theta: 53.000 to 73.000  Gamma: -105.000 to -75.000
!@!!Integration method: bin normalized
!@!N
!@!SS
!@!M
!@!L 0.0 0.0 0.0 0.0
!@!XDegrees
!@!YCounts
53.000 8.248277
53.005 8.420682
53.010 9.19022
53.015 9.713766
53.020 9.814093
53.025 10.12667
53.030 10.347563
53.035 10.234737
53.040 10.38246
53.045 10.218786
53.050 10.368494
53.055 10.464494
53.060 10.207906
53.065 10.310423
53.070 10.387112
53.075 10.708948
53.080 10.943995
53.085 11.158926
53.090 10.708708
53.095 10.579438
53.100 10.739078
53.105 10.671949
53.110 10.225107
53.115 9.061758
53.120 8.808337
53.125 9.165427
53.130 9.288568
53.135 9.332902
53.140 9.151527
53.145 9.072378
53.150 9.554155
53.155 9.129314
53.160 8.630567
53.165 8.681378
53.170 8.597437
53.175 8.325124
53.180 8.594588
53.185 9.106117
53.190 9.357603
53.195 8.906045
53.200 8.627124
53.205 8.869319
53.210 8.997608
53.215 8.557274
53.220 8.580319
53.225 8.986753
53.230 9.38948
53.235 9.640712
53.240 9.594628
53.245 9.714668
53.250 9.593542
53.255 9.384996
53.260 9.325276
53.265 9.348843
53.270 9.358589
53.275 9.527143
53.280 9.430866
53.285 9.742005
53.290 9.59543
53.295 9.460876
53.300 9.013946
53.305 8.819016
53.310 8.866559
53.315 8.903607
53.320 8.664378
53.325 8.688832
53.330 8.746713
53.335 9.086845
53.340 9.570518
53.345 9.717334
53.350 9.599926
53.355 9.609055
53.360 9.675572
53.365 9.765791
53.370 9.264105
53.375 9.095592
53.380 9.637717
53.385 10.358026
53.390 10.624781
53.395 10.526287
53.400 10.524209
53.405 10.795876
53.410 11.029171
53.415 10.395658
53.420 9.924614
53.425 9.882546
53.430 9.714022
53.435 10.04749
53.440 9.733732
53.445 9.293172
53.450 9.606319
53.455 9.561384
53.460 10.025267
53.465 10.242839
53.470 9.894588
53.475 10.074667
53.480 10.201061
53.485 10.312853
53.490 10.280283
53.495 10.502928
53.500 10.722666
53.505 10.854903
53.510 10.636486
53.515 10.83186
53.520 10.872842
53.525 11.04287
53.530 10.752123
53.535 10.565327
53.540 10.505335
53.545 10.155659
53.550 10.032074
53.555 9.993121
53.560 10.026712
53.565 9.927384
53.570 9.761632
53.575 9.872189
53.580 9.634349
53.585 9.49007
53.590 9.155538
53.595 9.024579
53.600 9.589115
53.605 9.775056
53.610 9.689872
53.615 9.970826
53.620 10.158615
53.625 10.284882
53.630 10.213013
53.635 10.049217
53.640 10.453157
53.645 10.489991
53.650 10.544341
53.655 10.481576
53.660 10.533221
53.665 10.114573
53.670 9.872476
53.675 9.641391
53.680 9.784527
53.685 9.545829
53.690 10.057362
53.695 10.443222
53.700 10.629345
53.705 10.885867
53.710 10.924934
53.715 10.651312
53.720 10.687658
53.725 9.796316
53.730 9.44587
53.735 9.235918
53.740 8.560021
53.745 8.144207
53.750 7.861337
53.755 7.658116
53.760 7.589808
53.765 7.906931
53.770 8.007816
53.775 8.591272
53.780 9.070773
53.785 9.821023
53.790 10.179458
53.795 10.081063
53.800 10.472112
53.805 10.763309
53.810 11.118353
53.815 11.103996
53.820 10.624969
53.825 11.005461
53.830 10.755405
53.835 10.122526
53.840 9.608721
53.845 8.871696
53.850 9.27219
53.855 8.90703
53.860 8.525826
53.865 8.477499
53.870 8.619871
53.875 8.999101
53.880 9.385621
53.885 8.951477
53.890 8.963746
53.895 9.047826
53.900 9.086037
53.905 9.330964
53.910 9.915812
53.915 10.331677
53.920 10.659954
53.925 11.206245
53.930 11.89341
53.935 12.273191
53.940 12.231356
53.945 11.439084
53.950 11.160044
53.955 11.018825
53.960 10.889219
53.965 11.004251
53.970 11.024437
53.975 11.090507
53.980 10.939907
53.985 10.699333
53.990 10.590195
53.995 10.370555
54.000 10.109015
54.005 9.76998
54.010 9.718795
54.015 10.016987
54.020 9.937357
54.025 9.623465
54.030 9.33869
54.035 9.259074
54.040 9.393605
54.045 9.886293
54.050 10.084458
54.055 10.319322
54.060 10.84727
54.065 10.770048
54.070 10.66127
54.075 10.526211
54.080 9.892651
54.085 9.558421
54.090 9.499718
54.095 9.218814
54.100 9.35411
54.105 9.769898
54.110 10.058323
54.115 9.991211
54.120 10.26533
54.125 10.439257
54.130 11.14745
54.135 11.033641
54.140 10.476471
54.145 10.51431
54.150 10.283545
54.155 10.680205
54.160 11.100311
54.165 10.863654
54.170 11.41451
54.175 12.271505
54.180 12.63239
54.185 13.22876
54.190 12.58891
54.195 12.421644
54.200 12.406516
54.205 12.213833
54.210 11.424438
54.215 11.451262
54.220 11.165195
54.225 11.0366
54.230 10.912697
54.235 10.681908
54.240 10.316084
54.245 10.604357
54.250 10.502945
54.255 11.056832
54.260 11.269007
54.265 10.980066
54.270 11.246579
54.275 11.592007
54.280 11.800753
54.285 11.869827
54.290 11.446905
54.295 11.773612
54.300 12.263194
54.305 12.001854
54.310 11.32198
54.315 10.690368
54.320 10.913777
54.325 10.599366
54.330 10.503198
54.335 10.29926
54.340 10.230536
54.345 10.510355
54.350 10.789621
54.355 11.02971
54.360 11.15468
54.365 10.81426
54.370 10.915274
54.375 11.40579
54.380 11.663074
54.385 11.391298
54.390 10.997583
54.395 10.666212
54.400 10.788155
54.405 11.207267
54.410 10.875298
54.415 10.838494
54.420 11.129458
54.425 11.315583
54.430 11.638961
54.435 11.491665
54.440 10.903923
54.445 11.005509
54.450 11.082156
54.455 11.276079
54.460 11.618931
54.465 12.016063
54.470 12.163052
54.475 12.195784
54.480 11.96942
54.485 11.55289
54.490 11.446765
54.495 11.027285
54.500 10.325292
54.505 10.196426
54.510 9.990211
54.515 10.370853
54.520 10.090643
54.525 9.924252
54.530 10.574072
54.535 11.039513
54.540 11.460176
54.545 11.799794
54.550 12.248693
54.555 12.598263
54.560 12.258218
54.565 12.139422
54.570 12.107782
54.575 11.962186
54.580 11.359438
54.585 10.465527
54.590 10.441517
54.595 10.777478
54.600 10.729374
54.605 10.846362
54.610 11.133832
54.615 11.479996
54.620 11.828487
54.625 11.688574
54.630 11.224978
54.635 11.157135
54.640 10.903544
54.645 10.639882
54.650 10.640125
54.655 10.661382
54.660 11.401631
54.665 11.768462
54.670 11.134464
54.675 10.871216
54.680 10.76792
54.685 10.759531
54.690 10.498591
54.695 9.713238
54.700 9.212768
54.705 9.558984
54.710 10.371755
54.715 10.813858
54.720 10.84384
54.725 10.668641
54.730 10.746993
54.735 11.197136
54.740 11.471239
54.745 11.183826
54.750 11.174702
54.755 11.166058
54.760 11.427087
54.765 11.719854
54.770 11.560198
54.775 11.313636
54.780 11.445243
54.785 11.374999
54.790 11.471569
54.795 11.919505
54.800 12.462668
54.805 12.413853
54.810 12.253609
54.815 11.910666
54.820 12.230227
54.825 11.9731
54.830 11.148052
54.835 10.812929
54.840 11.148561
54.845 11.586018
54.850 11.829123
54.855 11.742401
54.860 11.852142
54.865 12.227534
54.870 12.217226
54.875 11.926311
54.880 11.547098
54.885 11.298121
54.890 11.492562
54.895 11.896626
54.900 12.062596
54.905 12.110129
54.910 12.558616
54.915 12.577562
54.920 12.525577
54.925 12.229376
54.930 11.985724
54.935 11.101986
54.940 10.917193
54.945 11.00074
54.950 11.373932
54.955 11.487372
54.960 12.233917
54.965 12.7451
54.970 13.263535
54.975 13.2004
54.980 12.861043
54.985 12.738132
54.990 12.544271
54.995 11.986162
55.000 11.954711
55.005 11.62114
55.010 11.790657
55.015 11.777507
55.020 11.595778
55.025 11.653872
55.030 11.539441
55.035 11.007145
55.040 11.232319
55.045 11.075821
55.050 11.092875
55.055 10.848656
55.060 10.299438
55.065 10.077209
55.070 10.002675
55.075 10.083115
55.080 10.377275
55.085 10.516082
55.090 10.883679
55.095 11.344535
55.100 11.364683
55.105 12.103414
55.110 11.986238
55.115 11.846114
55.120 11.82269
55.125 11.865586
55.130 12.118734
55.135 12.466036
55.140 12.31731
55.145 12.603848
55.150 12.421787
55.155 12.098377
55.160 11.993703
55.165 11.640029
55.170 11.867174
55.175 11.605213
55.180 11.577969
55.185 12.143243
55.190 12.569021
55.195 12.755546
55.200 12.79208
55.205 12.442014
55.210 12.26
55.215 11.856185
55.220 11.571922
55.225 11.030463
55.230 10.716301
55.235 10.536283
55.240 10.453993
55.245 10.539447
55.250 10.521478
55.255 10.425336
55.260 10.565181
55.265 10.381149
55.270 9.94218
55.275 10.052378
55.280 10.068098
55.285 9.880843
55.290 10.137488
55.295 10.368305
55.300 10.994226
55.305 10.684319
55.310 10.880093
55.315 11.205029
55.320 11.545132
55.325 11.980134
55.330 11.91394
55.335 11.85789
55.340 12.248686
55.345 12.109219
55.350 12.532573
55.355 12.974821
55.360 12.538164
55.365 12.107334
55.370 12.221836
55.375 12.089387
55.380 11.842207
55.385 11.304297
55.390 11.412726
55.395 11.90413
55.400 12.466063
55.405 12.758999
55.410 13.549212
55.415 13.441335
55.420 13.051017
55.425 12.498056
55.430 12.291066
55.435 11.94603
55.440 11.671644
55.445 11.262923
55.450 11.575562
55.455 11.480523
55.460 11.169734
55.465 11.319082
55.470 11.544134
55.475 11.535442
55.480 11.192347
55.485 11.597513
55.490 12.06248
55.495 12.550673
55.500 12.457207
55.505 12.5601
55.510 12.370199
55.515 12.265126
55.520 11.490049
55.525 10.98372
55.530 10.821713
55.535 11.011019
55.540 11.069812
55.545 12.172229
55.550 12.592843
55.555 12.802942
55.560 13.084195
55.565 12.740813
55.570 12.399035
55.575 11.851901
55.580 11.393774
55.585 11.918107
55.590 12.497583
55.595 12.384622
55.600 12.369649
55.605 12.15219
55.610 12.093508
55.615 12.063974
55.620 11.57359
55.625 11.361122
55.630 11.074443
55.635 11.421778
55.640 11.73275
55.645 11.584979
55.650 11.492115
55.655 11.943025
55.660 11.684634
55.665 12.162574
55.670 11.971962
55.675 12.646163
55.680 12.643472
55.685 12.650773
55.690 12.405153
55.695 12.35477
55.700 12.388462
55.705 12.632329
55.710 11.890904
55.715 12.067595
55.720 11.899755
55.725 12.126524
55.730 12.555662
55.735 12.479716
55.740 12.055942
55.745 12.130661
55.750 12.475934
55.755 12.328394
55.760 11.946131
55.765 12.012096
55.770 11.827905
55.775 12.705535
55.780 12.718276
55.785 12.55298
55.790 12.814624
55.795 12.934268
55.800 12.690467
55.805 12.438041
55.810 11.98683
55.815 12.274186
55.820 12.178805
55.825 11.770297
55.830 11.791781
55.835 11.905025
55.840 12.454734
55.845 12.240479
55.850 12.047103
55.855 12.044138
55.860 12.254414
55.865 12.096707
55.870 12.181782
55.875 12.738233
55.880 13.405586
55.885 13.484669
55.890 13.566808
55.895 13.751699
55.900 13.783519
55.905 13.439485
55.910 13.092663
55.915 12.749232
55.920 12.532286
55.925 12.503168
55.930 12.344163
55.935 12.716922
55.940 13.296707
55.945 13.307447
55.950 13.90592
55.955 13.934906
55.960 14.15169
55.965 14.219254
55.970 14.069698
55.975 13.227207
55.980 13.149168
55.985 12.942833
55.990 12.951565
55.995 13.130584
56.000 13.242529
56.005 13.181277
56.010 13.736765
56.015 13.564594
56.020 13.541965
56.025 13.480357
56.030 13.42754
56.035 13.394485
56.040 13.166081
56.045 12.57805
56.050 11.98032
56.055 11.634141
56.060 11.485202
56.065 10.657544
56.070 10.695669
56.075 10.573168
56.080 11.088086
56.085 11.560302
56.090 11.711684
56.095 11.724234
56.100 11.988394
56.105 11.931484
56.110 12.194756
56.115 11.601895
56.120 11.30977
56.125 11.523718
56.130 12.147704
56.135 12.691248
56.140 12.657376
56.145 12.495226
56.150 12.947135
56.155 13.32555
56.160 13.197547
56.165 12.958641
56.170 12.742134
56.175 12.829041
56.180 12.92925
56.185 13.431982
56.190 13.118286
56.195 13.249131
56.200 13.533411
56.205 13.247626
56.210 13.064563
56.215 13.300817
56.220 13.253302
56.225 13.263388
56.230 13.156281
56.235 13.193417
56.240 13.293364
56.245 13.557133
56.250 13.541067
56.255 13.947173
56.260 13.957623
56.265 13.15612
56.270 12.757336
56.275 12.785567
56.280 12.374556
56.285 11.917215
56.290 11.485988
56.295 12.050335
56.300 12.397723
56.305 12.503787
56.310 12.249663
56.315 12.357751
56.320 12.206289
56.325 11.89245
56.330 11.826463
56.335 11.922376
56.340 11.814773
56.345 11.719872
56.350 11.467199
56.355 11.545599
56.360 11.827621
56.365 11.979866
56.370 11.982836
56.375 12.022633
56.380 12.166021
56.385 11.706122
56.390 11.327271
56.395 11.43072
56.400 11.526364
56.405 11.461415
56.410 11.538116
56.415 11.676374
56.420 11.94314
56.425 12.270162
56.430 12.071552
56.435 11.479313
56.440 12.229614
56.445 12.613045
56.450 12.691779
56.455 13.183837
56.460 13.065914
56.465 13.10008
56.470 13.260728
56.475 12.668068
56.480 12.817459
56.485 13.043506
56.490 13.671744
56.495 13.977302
56.500 14.139624
56.505 14.034775
56.510 14.072516
56.515 13.7068
56.520 13.467601
56.525 12.807992
56.530 12.245386
56.535 12.0078
56.540 12.143353
56.545 12.067175
56.550 12.342051
56.555 12.98722
56.560 13.508341
56.565 13.799043
56.570 14.344301
56.575 14.658523
56.580 14.588923
56.585 14.39339
56.590 13.350564
56.595 13.042765
56.600 12.656058
56.605 13.035718
56.610 12.968156
56.615 12.940817
56.620 13.294168
56.625 13.817372
56.630 13.853392
56.635 14.023764
56.640 13.349121
56.645 13.681819
56.650 13.844913
56.655 13.620549
56.660 13.51348
56.665 13.089876
56.670 12.962471
56.675 12.934676
56.680 12.882871
56.685 13.273252
56.690 13.897912
56.695 15.208328
56.700 15.738202
56.705 15.316967
56.710 15.246415
56.715 14.737975
56.720 14.194162
56.725 13.580453
56.730 12.610339
56.735 12.569861
56.740 13.57763
56.745 13.938771
56.750 14.706341
56.755 15.089984
56.760 14.837225
56.765 15.092688
56.770 15.389132
56.775 14.536118
56.780 14.246725
56.785 13.785445
56.790 13.900944
56.795 14.414144
56.800 14.292057
56.805 13.946391
56.810 14.456887
56.815 14.721977
56.820 15.115579
56.825 15.148762
56.830 15.028632
56.835 15.371715
56.840 15.734862
56.845 15.665432
56.850 15.51683
56.855 15.411888
56.860 15.06916
56.865 14.759814
56.870 15.103077
56.875 14.864231
56.880 14.658354
56.885 14.851992
56.890 14.53837
56.895 14.645453
56.900 14.931669
56.905 14.345071
56.910 14.132736
56.915 13.842365
56.920 13.470998
56.925 13.493612
56.930 13.355431
56.935 12.869265
56.940 13.025899
56.945 13.407378
56.950 13.433769
56.955 13.220442
56.960 13.049661
56.965 13.274927
56.970 13.305402
56.975 13.227033
56.980 13.428134
56.985 13.560726
56.990 14.009439
56.995 13.976053
57.000 13.523947
57.005 13.432104
57.010 13.259483
57.015 13.155784
57.020 13.47205
57.025 13.743423
57.030 13.926941
57.035 14.194307
57.040 13.963199
57.045 13.922242
57.050 13.529102
57.055 13.062193
57.060 12.562669
57.065 12.957259
57.070 13.142012
57.075 13.298261
57.080 13.343956
57.085 13.315896
57.090 13.081349
57.095 13.105076
57.100 12.700935
57.105 12.538133
57.110 12.836102
57.115 13.098348
57.120 13.294518
57.125 13.438409
57.130 13.695113
57.135 13.668422
57.140 13.74479
57.145 13.439487
57.150 13.24062
57.155 13.517641
57.160 13.79276
57.165 13.632016
57.170 13.984617
57.175 13.89019
57.180 13.919333
57.185 14.059962
57.190 13.708609
57.195 13.587443
57.200 13.642252
57.205 13.650547
57.210 13.745044
57.215 13.435056
57.220 13.276806
57.225 13.157567
57.230 13.444119
57.235 13.437991
57.240 13.583549
57.245 13.55411
57.250 13.908388
57.255 13.892227
57.260 14.279605
57.265 14.542363
57.270 14.403763
57.275 14.093779
57.280 14.485307
57.285 14.584977
57.290 14.704612
57.295 14.345965
57.300 14.330585
57.305 14.357251
57.310 14.862158
57.315 14.314979
57.320 14.415275
57.325 14.746731
57.330 14.789039
57.335 14.833168
57.340 14.938689
57.345 15.093526
57.350 15.647654
57.355 15.16307
57.360 14.759359
57.365 14.66215
57.370 14.302024
57.375 13.496787
57.380 13.118671
57.385 13.295341
57.390 13.927777
57.395 13.875763
57.400 13.891082
57.405 13.973617
57.410 14.138486
57.415 13.853977
57.420 13.219143
57.425 12.776561
57.430 13.229917
57.435 13.021906
57.440 13.17247
57.445 13.195743
57.450 13.27591
57.455 13.830781
57.460 13.844513
57.465 13.476719
57.470 13.629823
57.475 13.473416
57.480 13.904452
57.485 14.137295
57.490 14.339965
57.495 14.33918
57.500 14.342075
57.505 14.652379
57.510 14.822932
57.515 14.677295
57.520 14.466595
57.525 13.988656
57.530 13.973412
57.535 14.182993
57.540 13.759311
57.545 13.822389
57.550 13.829271
57.555 13.737089
57.560 13.934528
57.565 14.412107
57.570 14.376667
57.575 14.257098
57.580 14.436437
57.585 14.409881
57.590 14.630821
57.595 14.655677
57.600 14.353452
57.605 14.819078
57.610 14.889954
57.615 14.755049
57.620 14.694448
57.625 15.231205
57.630 15.626966
57.635 15.711955
57.640 15.612994
57.645 15.653508
57.650 15.854061
57.655 16.422773
57.660 15.763648
57.665 15.084041
57.670 14.956963
57.675 15.051145
57.680 15.14245
57.685 14.63369
57.690 15.104536
57.695 15.999576
57.700 16.5257
57.705 16.798323
57.710 17.406847
57.715 18.010035
57.720 18.421982
57.725 18.031399
57.730 17.774002
57.735 17.455133
57.740 17.012714
57.745 17.116991
57.750 16.826338
57.755 16.849396
57.760 16.23826
57.765 15.996131
57.770 16.388592
57.775 16.611328
57.780 15.768296
57.785 15.447436
57.790 15.323808
57.795 15.386275
57.800 15.271728
57.805 15.112305
57.810 14.940332
57.815 15.110022
57.820 15.388697
57.825 15.264531
57.830 15.297529
57.835 15.202194
57.840 15.190129
57.845 14.841721
57.850 14.727774
57.855 14.607858
57.860 14.568865
57.865 14.406726
57.870 14.223738
57.875 14.439604
57.880 14.624476
57.885 14.853195
57.890 15.031785
57.895 15.372673
57.900 15.704787
57.905 15.702056
57.910 15.326289
57.915 15.466702
57.920 15.571836
57.925 15.882183
57.930 15.793448
57.935 15.442491
57.940 15.764546
57.945 15.929997
57.950 15.931136
57.955 15.441438
57.960 15.199067
57.965 15.314506
57.970 14.92679
57.975 14.720652
57.980 14.678767
57.985 14.568764
57.990 14.691859
57.995 14.898337
58.000 14.988546
58.005 15.530212
58.010 15.908412
58.015 16.193922
58.020 16.366056
58.025 16.829779
58.030 16.780207
58.035 16.786728
58.040 17.128561
58.045 17.112507
58.050 17.185871
58.055 17.320601
58.060 17.401499
58.065 17.616283
58.070 17.608421
58.075 17.503021
58.080 17.384184
58.085 17.442831
58.090 17.313011
58.095 17.258976
58.100 16.602482
58.105 16.411753
58.110 16.464127
58.115 16.843771
58.120 16.924959
58.125 17.180035
58.130 17.237158
58.135 17.907114
58.140 18.067381
58.145 18.226519
58.150 18.182808
58.155 18.181414
58.160 18.119596
58.165 18.231573
58.170 18.298416
58.175 17.903427
58.180 18.068201
58.185 17.57358
58.190 16.868204
58.195 16.825962
58.200 17.108114
58.205 17.592745
58.210 17.984758
58.215 17.740332
58.220 18.351698
58.225 18.72401
58.230 18.504036
58.235 18.010466
58.240 17.886463
58.245 18.052244
58.250 18.379766
58.255 18.399908
58.260 18.431831
58.265 18.480042
58.270 18.560373
58.275 18.482336
58.280 18.324266
58.285 18.23509
58.290 18.486694
58.295 18.721228
58.300 18.749689
58.305 19.16445
58.310 19.162806
58.315 19.432072
58.320 19.498846
58.325 20.310965
58.330 20.510983
58.335 20.47438
58.340 20.57246
58.345 20.816965
58.350 21.198538
58.355 21.21241
58.360 20.354397
58.365 20.035095
58.370 20.455238
58.375 20.352694
58.380 20.364891
58.385 20.394911
58.390 20.533386
58.395 21.373787
58.400 22.429588
58.405 22.410604
58.410 22.191927
58.415 22.61198
58.420 23.520639
58.425 23.793964
58.430 24.134741
58.435 23.448997
58.440 24.071861
58.445 25.204575
58.450 25.116465
58.455 25.667509
58.460 26.658634
58.465 27.24651
58.470 28.134706
58.475 28.220076
58.480 28.05085
58.485 28.283176
58.490 28.822208
58.495 29.789631
58.500 30.528376
58.505 30.760162
58.510 30.514193
58.515 30.784454
58.520 31.377886
58.525 30.89554
58.530 30.270113
58.535 29.878233
58.540 30.090992
58.545 31.172707
58.550 31.515411
58.555 31.841827
58.560 32.55162
58.565 32.369598
58.570 32.598278
58.575 33.43206
58.580 33.820911
58.585 34.115929
58.590 33.314705
58.595 33.23135
58.600 33.571323
58.605 34.032818
58.610 33.959728
58.615 33.530342
58.620 33.804447
58.625 34.500679
58.630 34.758507
58.635 34.683769
58.640 35.135689
58.645 35.067249
58.650 35.427807
58.655 35.72876
58.660 35.907665
58.665 35.521515
58.670 35.406052
58.675 34.75108
58.680 33.761417
58.685 33.786312
58.690 33.691292
58.695 33.273067
58.700 32.887691
58.705 32.984234
58.710 32.798084
58.715 33.153587
58.720 31.905144
58.725 31.046625
58.730 30.489716
58.735 30.118742
58.740 29.63409
58.745 28.753361
58.750 28.246918
58.755 27.608524
58.760 27.515751
58.765 27.838284
58.770 27.732018
58.775 28.07786
58.780 28.618931
58.785 28.640232
58.790 28.96417
58.795 28.767849
58.800 27.930952
58.805 27.618206
58.810 26.887415
58.815 26.403709
58.820 26.884371
58.825 27.114599
58.830 26.909969
58.835 26.616243
58.840 26.852644
58.845 27.379725
58.850 27.246498
58.855 26.35223
58.860 25.6096
58.865 25.211943
58.870 24.146091
58.875 23.103096
58.880 22.041307
58.885 22.248686
58.890 22.510149
58.895 22.781378
58.900 23.460672
58.905 24.376886
58.910 24.755228
58.915 24.827963
58.920 24.26515
58.925 24.125748
58.930 23.982643
58.935 23.035992
58.940 22.402819
58.945 21.232595
58.950 20.328762
58.955 19.813131
58.960 18.759874
58.965 18.30208
58.970 18.009897
58.975 17.966652
58.980 18.525352
58.985 18.859352
58.990 18.677822
58.995 19.156645
59.000 19.364342
59.005 20.101896
59.010 20.384007
59.015 20.837473
59.020 20.422131
59.025 20.031511
59.030 19.978895
59.035 19.559654
59.040 19.270771
59.045 18.565655
59.050 17.952427
59.055 18.307156
59.060 18.935383
59.065 18.629955
59.070 18.792469
59.075 18.523411
59.080 19.034101
59.085 19.04792
59.090 18.652834
59.095 18.284922
59.100 17.684305
59.105 16.97287
59.110 16.633129
59.115 16.060865
59.120 15.571924
59.125 15.874401
59.130 16.197674
59.135 16.569998
59.140 16.908358
59.145 17.034317
59.150 17.181147
59.155 17.38308
59.160 17.301229
59.165 17.508533
59.170 18.02532
59.175 18.153259
59.180 17.966022
59.185 18.161982
59.190 18.295631
59.195 18.350616
59.200 18.660997
59.205 18.235922
59.210 17.773148
59.215 17.323181
59.220 16.649466
59.225 16.767494
59.230 16.281813
59.235 15.504718
59.240 15.675368
59.245 15.914679
59.250 15.863602
59.255 15.883311
59.260 15.844729
59.265 15.867109
59.270 16.103668
59.275 16.15634
59.280 16.062757
59.285 16.133116
59.290 15.771446
59.295 15.107205
59.300 14.955638
59.305 14.629185
59.310 14.101591
59.315 14.720216
59.320 15.437594
59.325 16.230883
59.330 16.774284
59.335 16.877079
59.340 16.542946
59.345 16.094179
59.350 15.541948
59.355 14.797033
59.360 14.079877
59.365 14.178603
59.370 14.477021
59.375 14.980025
59.380 15.437399
59.385 15.808682
59.390 16.585028
59.395 17.520233
59.400 17.648338
59.405 16.82412
59.410 16.622372
59.415 16.802752
59.420 16.408842
59.425 15.473845
59.430 14.77646
59.435 14.332413
59.440 14.680291
59.445 14.773829
59.450 14.361465
59.455 14.458097
59.460 15.148382
59.465 15.650522
59.470 15.916338
59.475 16.206015
59.480 16.12579
59.485 16.259314
59.490 16.113855
59.495 15.497852
59.500 15.100236
59.505 15.098254
59.510 14.917566
59.515 14.742956
59.520 14.572191
59.525 14.863763
59.530 15.115375
59.535 15.075189
59.540 14.82854
59.545 14.659716
59.550 14.929171
59.555 15.122946
59.560 14.901361
59.565 15.175561
59.570 15.617999
59.575 16.109003
59.580 16.466076
59.585 16.542593
59.590 16.324324
59.595 16.25696
59.600 16.049004
59.605 15.871541
59.610 15.718582
59.615 15.839441
59.620 15.58885
59.625 15.929671
59.630 16.484146
59.635 16.067879
59.640 16.63196
59.645 16.969173
59.650 17.435959
59.655 17.534384
59.660 17.234386
59.665 17.137428
59.670 17.558477
59.675 17.558525
59.680 17.227564
59.685 16.725294
59.690 16.821318
59.695 16.942188
59.700 17.26552
59.705 17.863869
59.710 17.143373
59.715 16.889025
59.720 17.041637
59.725 16.936689
59.730 16.781504
59.735 16.446535
59.740 15.394032
59.745 15.735149
59.750 15.814721
59.755 15.442874
59.760 15.43735
59.765 15.242671
59.770 15.026062
59.775 14.952131
59.780 15.300721
59.785 15.569469
59.790 15.655346
59.795 16.097485
59.800 15.728035
59.805 16.309858
59.810 16.914381
59.815 16.73963
59.820 16.394125
59.825 16.170656
59.830 15.891243
59.835 15.88341
59.840 15.765232
59.845 15.668965
59.850 15.371542
59.855 15.374894
59.860 15.383846
59.865 15.060087
59.870 14.918481
59.875 14.079596
59.880 14.3668
59.885 14.366561
59.890 14.438643
59.895 14.400024
59.900 14.848536
59.905 15.188453
59.910 15.263534
59.915 14.859859
59.920 15.03413
59.925 15.375909
59.930 16.270311
59.935 17.057949
59.940 17.358644
59.945 17.485413
59.950 17.848906
59.955 17.758259
59.960 17.718147
59.965 17.26049
59.970 16.396862
59.975 16.530272
59.980 16.724594
59.985 16.589186
59.990 16.638599
59.995 16.173735
60.000 16.279106
60.005 16.484854
60.010 16.495045
60.015 16.46492
60.020 16.258579
60.025 16.349739
60.030 16.417025
60.035 16.174582
60.040 16.3256
60.045 16.774422
60.050 16.983709
60.055 17.094809
60.060 17.198454
60.065 17.257175
60.070 17.128769
60.075 16.925129
60.080 15.969855
60.085 15.302116
60.090 15.390916
60.095 15.399058
60.100 15.497921
60.105 15.377566
60.110 15.536556
60.115 15.585754
60.120 15.403444
60.125 15.197824
60.130 14.764881
60.135 14.664961
60.140 14.836228
60.145 14.395701
60.150 14.276597
60.155 15.012114
60.160 15.253091
60.165 15.53224
60.170 15.794849
60.175 15.945347
60.180 16.120821
60.185 16.223984
60.190 16.169781
60.195 15.906525
60.200 15.458074
60.205 15.533905
60.210 15.538308
60.215 15.843058
60.220 15.383358
60.225 14.943381
60.230 15.044603
60.235 14.957583
60.240 14.59204
60.245 14.163755
60.250 14.088352
60.255 14.747389
60.260 14.381148
60.265 14.184086
60.270 14.678447
60.275 14.886306
60.280 15.294074
60.285 15.234448
60.290 14.656595
60.295 15.258171
60.300 15.302506
60.305 14.916451
60.310 14.854912
60.315 14.658484
60.320 14.390915
60.325 14.846062
60.330 14.400401
60.335 14.372026
60.340 14.625855
60.345 14.546297
60.350 14.606428
60.355 15.192897
60.360 15.516549
60.365 16.24033
60.370 16.546434
60.375 16.522604
60.380 17.056293
60.385 17.221674
60.390 17.148645
60.395 16.92588
60.400 16.342979
60.405 16.528408
60.410 16.53145
60.415 16.010399
60.420 15.990768
60.425 15.960442
60.430 15.946177
60.435 15.861
60.440 16.017536
60.445 15.790709
60.450 15.886374
60.455 15.582756
60.460 15.757276
60.465 15.963084
60.470 15.966743
60.475 16.047031
60.480 16.023043
60.485 15.805386
60.490 15.899247
60.495 15.435876
60.500 15.915584
60.505 16.344719
60.510 16.46077
60.515 16.960941
60.520 17.130804
60.525 17.490322
60.530 17.398714
60.535 16.882442
60.540 16.776049
60.545 16.588032
60.550 16.291515
60.555 16.520042
60.560 16.557722
60.565 16.619602
60.570 15.925917
60.575 15.600458
60.580 15.186588
60.585 15.526647
60.590 15.347733
60.595 15.544012
60.600 15.451283
60.605 15.718265
60.610 15.989169
60.615 15.966092
60.620 15.751608
60.625 15.634269
60.630 15.488466
60.635 15.268897
60.640 15.48473
60.645 15.284413
60.650 15.494487
60.655 14.916017
60.660 14.785703
60.665 14.737866
60.670 15.197652
60.675 14.984493
60.680 15.067676
60.685 15.558886
60.690 16.355175
60.695 16.531254
60.700 16.165863
60.705 16.533482
60.710 16.812681
60.715 17.033546
60.720 16.419916
60.725 16.36825
60.730 16.432343
60.735 16.562614
60.740 16.188341
60.745 15.798134
60.750 15.896563
60.755 15.926087
60.760 15.895679
60.765 16.220402
60.770 16.064617
60.775 16.032206
60.780 16.5912
60.785 16.570221
60.790 16.430418
60.795 16.285124
60.800 16.287378
60.805 16.535784
60.810 17.00536
60.815 17.068447
60.820 16.933704
60.825 17.390265
60.830 17.471287
60.835 17.342611
60.840 17.414
60.845 17.047871
60.850 17.088039
60.855 16.93199
60.860 16.431393
60.865 16.346834
60.870 16.187975
60.875 15.984977
60.880 16.244949
60.885 16.133902
60.890 16.587395
60.895 17.108677
60.900 17.40094
60.905 17.630798
60.910 17.352119
60.915 16.984631
60.920 16.720516
60.925 16.342272
60.930 16.12228
60.935 15.653728
60.940 15.360733
60.945 15.563969
60.950 15.994494
60.955 15.591544
60.960 15.51826
60.965 15.51861
60.970 16.093224
60.975 16.242821
60.980 16.203941
60.985 16.080446
60.990 16.024601
60.995 15.732588
61.000 15.157109
61.005 14.9073
61.010 15.027115
61.015 15.091728
61.020 14.626591
61.025 14.948057
61.030 15.510714
61.035 15.720892
61.040 15.521081
61.045 15.887621
61.050 16.211906
61.055 16.657333
61.060 16.416407
61.065 16.071054
61.070 16.548847
61.075 16.395555
61.080 15.966931
61.085 15.538089
61.090 15.824799
61.095 16.192352
61.100 16.76889
61.105 16.863491
61.110 17.085472
61.115 17.172346
61.120 16.944046
61.125 16.69109
61.130 16.622187
61.135 16.082323
61.140 15.673084
61.145 15.70092
61.150 15.859916
61.155 15.591112
61.160 15.377791
61.165 15.673925
61.170 16.032684
61.175 15.86923
61.180 15.449601
61.185 15.268183
61.190 15.904278
61.195 16.239922
61.200 16.486452
61.205 16.683405
61.210 16.91671
61.215 17.071154
61.220 17.142174
61.225 17.164021
61.230 17.320778
61.235 17.060764
61.240 16.98679
61.245 16.98139
61.250 17.816673
61.255 17.913088
61.260 17.779989
61.265 17.217741
61.270 16.41592
61.275 16.006897
61.280 15.884117
61.285 15.220479
61.290 15.103806
61.295 14.779418
61.300 14.787117
61.305 15.111536
61.310 15.48872
61.315 15.226783
61.320 15.253227
61.325 15.150446
61.330 15.107932
61.335 15.248768
61.340 15.804956
61.345 15.898852
61.350 15.978967
61.355 15.973015
61.360 16.625965
61.365 16.855331
61.370 16.662931
61.375 15.792678
61.380 15.171515
61.385 14.780164
61.390 15.133842
61.395 14.86241
61.400 14.96956
61.405 15.046384
61.410 15.360522
61.415 16.154106
61.420 16.631836
61.425 16.08227
61.430 15.715688
61.435 15.849257
61.440 17.232487
61.445 17.632202
61.450 17.706804
61.455 18.287853
61.460 18.116758
61.465 18.316751
61.470 17.507414
61.475 16.737684
61.480 16.593987
61.485 15.996127
61.490 15.715697
61.495 15.868143
61.500 15.650449
61.505 15.880437
61.510 15.230663
61.515 15.201601
61.520 14.991931
61.525 14.66226
61.530 14.631692
61.535 15.045896
61.540 15.309023
61.545 15.611876
61.550 15.356655
61.555 15.816908
61.560 15.694767
61.565 15.78257
61.570 15.302314
61.575 15.505335
61.580 15.731523
61.585 15.711764
61.590 15.282096
61.595 15.713016
61.600 15.6586
61.605 16.074221
61.610 15.448442
61.615 15.238305
61.620 15.55338
61.625 15.503428
61.630 15.669673
61.635 15.826775
61.640 15.629811
61.645 15.595453
61.650 15.611713
61.655 15.900591
61.660 16.170988
61.665 15.578787
61.670 15.442561
61.675 15.752345
61.680 15.689259
61.685 15.677839
61.690 15.297378
61.695 15.404279
61.700 15.215103
61.705 15.017088
61.710 15.006124
61.715 15.748168
61.720 15.718254
61.725 15.543958
61.730 15.430407
61.735 16.226894
61.740 16.150208
61.745 15.548866
61.750 15.035644
61.755 15.21996
61.760 15.357277
61.765 15.411688
61.770 15.462621
61.775 15.713078
61.780 15.710156
61.785 16.463486
61.790 16.275335
61.795 15.817889
61.800 15.85635
61.805 16.266233
61.810 16.69606
61.815 17.279308
61.820 17.736565
61.825 17.922241
61.830 18.348698
61.835 18.11491
61.840 17.340076
61.845 17.214314
61.850 17.052698
61.855 16.495087
61.860 16.791222
61.865 17.447353
61.870 17.826847
61.875 18.336889
61.880 18.942179
61.885 18.974081
61.890 18.634295
61.895 18.616657
61.900 18.560331
61.905 18.320805
61.910 17.894592
61.915 17.331739
61.920 17.115772
61.925 16.925816
61.930 16.747511
61.935 16.797159
61.940 16.779716
61.945 16.806555
61.950 16.472689
61.955 16.633394
61.960 16.378119
61.965 16.001223
61.970 15.805647
61.975 15.816335
61.980 15.934994
61.985 16.143782
61.990 15.920821
61.995 16.193222
62.000 16.414728
62.005 16.253904
62.010 16.017767
62.015 16.103558
62.020 16.034281
62.025 15.76571
62.030 15.71139
62.035 15.136542
62.040 15.509768
62.045 15.766557
62.050 15.712291
62.055 16.298201
62.060 17.092455
62.065 16.761677
62.070 16.695778
62.075 16.540739
62.080 16.442276
62.085 16.242947
62.090 15.991821
62.095 15.730505
62.100 16.335533
62.105 17.019308
62.110 17.332558
62.115 17.111181
62.120 16.741266
62.125 16.247234
62.130 16.517845
62.135 16.963514
62.140 16.868507
62.145 16.35783
62.150 16.880413
62.155 17.452982
62.160 18.101681
62.165 18.176979
62.170 17.895744
62.175 17.737005
62.180 17.648029
62.185 16.980436
62.190 16.7444
62.195 16.581835
62.200 16.635078
62.205 16.891901
62.210 16.684662
62.215 17.096125
62.220 17.361603
62.225 17.555977
62.230 17.321728
62.235 16.379677
62.240 16.25576
62.245 16.682777
62.250 16.054577
62.255 15.866887
62.260 15.458644
62.265 15.698709
62.270 15.729545
62.275 15.18226
62.280 14.950046
62.285 15.527059
62.290 15.752782
62.295 15.868414
62.300 16.10717
62.305 16.802498
62.310 16.851328
62.315 16.416851
62.320 16.710836
62.325 17.126566
62.330 17.361704
62.335 17.055109
62.340 16.72529
62.345 16.581963
62.350 16.7124
62.355 16.178192
62.360 16.2346
62.365 16.352959
62.370 16.190151
62.375 16.196527
62.380 16.658667
62.385 16.713343
62.390 16.601326
62.395 16.064857
62.400 16.137236
62.405 16.922508
62.410 17.293196
62.415 17.756136
62.420 17.814888
62.425 18.16341
62.430 18.062096
62.435 17.581064
62.440 17.409044
62.445 17.537306
62.450 17.29912
62.455 17.579165
62.460 17.471588
62.465 17.511198
62.470 17.233261
62.475 16.593428
62.480 16.731937
62.485 16.393173
62.490 16.371294
62.495 16.480076
62.500 16.992924
62.505 17.310308
62.510 17.317026
62.515 16.75527
62.520 16.562723
62.525 16.636795
62.530 16.227396
62.535 15.569022
62.540 15.659727
62.545 16.1423
62.550 15.898172
62.555 16.241405
62.560 16.273451
62.565 16.146479
62.570 15.96903
62.575 15.876783
62.580 15.44041
62.585 15.797737
62.590 15.204826
62.595 15.003757
62.600 15.904263
62.605 16.086346
62.610 16.132587
62.615 16.544788
62.620 16.35128
62.625 16.98826
62.630 17.171827
62.635 17.425379
62.640 17.745863
62.645 17.476374
62.650 17.490019
62.655 17.461916
62.660 17.146683
62.665 17.189562
62.670 17.482872
62.675 17.805696
62.680 18.714569
62.685 18.996216
62.690 19.44677
62.695 19.761757
62.700 19.622578
62.705 19.518373
62.710 19.120752
62.715 18.169544
62.720 17.361958
62.725 17.365711
62.730 17.047277
62.735 17.074026
62.740 16.850674
62.745 17.007853
62.750 17.222475
62.755 17.759508
62.760 17.76638
62.765 17.385309
62.770 17.111336
62.775 16.876375
62.780 17.096659
62.785 17.192934
62.790 17.108154
62.795 17.338802
62.800 17.805777
62.805 18.3312
62.810 18.34552
62.815 17.93532
62.820 17.642256
62.825 17.638721
62.830 17.797247
62.835 17.640284
62.840 17.135977
62.845 17.303049
62.850 17.569906
62.855 17.847086
62.860 17.745596
62.865 17.304909
62.870 17.294487
62.875 17.693649
62.880 17.250605
62.885 16.842289
62.890 16.902468
62.895 16.985443
62.900 16.896505
62.905 16.883018
62.910 16.233894
62.915 16.396219
62.920 17.123112
62.925 17.29076
62.930 17.120131
62.935 17.347153
62.940 17.36364
62.945 17.7838
62.950 17.83358
62.955 17.249241
62.960 16.824299
62.965 16.825542
62.970 16.914793
62.975 17.185129
62.980 17.061962
62.985 17.152636
62.990 17.24361
62.995 17.622997
63.000 17.734686
63.005 17.717182
63.010 17.619745
63.015 17.342758
63.020 17.289877
63.025 17.305439
63.030 17.274162
63.035 17.254997
63.040 17.03175
63.045 17.103563
63.050 17.528866
63.055 17.472376
63.060 17.501135
63.065 17.497494
63.070 17.629278
63.075 17.742071
63.080 17.593168
63.085 17.366697
63.090 17.012079
63.095 17.148048
63.100 16.70137
63.105 16.599798
63.110 17.004128
63.115 17.433737
63.120 17.698498
63.125 18.043036
63.130 18.477308
63.135 18.802284
63.140 18.879545
63.145 18.374569
63.150 17.644073
63.155 17.461605
63.160 17.425932
63.165 16.864946
63.170 16.830524
63.175 16.836796
63.180 17.283388
63.185 17.283833
63.190 17.165386
63.195 17.050903
63.200 17.182165
63.205 16.479115
63.210 15.779223
63.215 15.711572
63.220 16.354919
63.225 16.415077
63.230 16.631804
63.235 16.42275
63.240 16.744673
63.245 16.909607
63.250 16.690002
63.255 16.52828
63.260 16.995861
63.265 17.122425
63.270 17.840128
63.275 18.165972
63.280 18.793133
63.285 19.038834
63.290 18.986183
63.295 18.475496
63.300 18.379328
63.305 17.957941
63.310 17.582214
63.315 17.228189
63.320 16.822432
63.325 17.150185
63.330 16.835821
63.335 16.309822
63.340 15.943611
63.345 16.383896
63.350 16.623209
63.355 16.701847
63.360 16.286596
63.365 16.489857
63.370 17.162903
63.375 17.867807
63.380 17.811914
63.385 17.678095
63.390 17.635246
63.395 17.873518
63.400 18.607086
63.405 18.336716
63.410 17.917051
63.415 17.642042
63.420 17.363644
63.425 17.574675
63.430 17.725176
63.435 17.748098
63.440 17.505157
63.445 17.57291
63.450 18.208132
63.455 19.193951
63.460 19.447166
63.465 19.639284
63.470 19.471437
63.475 19.939247
63.480 19.954142
63.485 19.436913
63.490 18.871792
63.495 18.545658
63.500 18.241158
63.505 17.983839
63.510 17.880692
63.515 17.764847
63.520 17.784042
63.525 16.79825
63.530 16.378143
63.535 16.347023
63.540 16.069109
63.545 15.901752
63.550 15.792686
63.555 16.239811
63.560 17.432898
63.565 17.883648
63.570 18.121786
63.575 18.893734
63.580 19.225166
63.585 19.375483
63.590 18.735033
63.595 18.293325
63.600 18.305235
63.605 17.847075
63.610 16.924006
63.615 16.861286
63.620 17.075609
63.625 17.450306
63.630 17.792885
63.635 17.869619
63.640 18.441465
63.645 19.052765
63.650 19.255966
63.655 19.172535
63.660 19.288784
63.665 19.933966
63.670 20.619179
63.675 20.364969
63.680 20.033455
63.685 19.594429
63.690 19.490602
63.695 19.26553
63.700 18.468859
63.705 17.871517
63.710 18.36709
63.715 18.086548
63.720 17.954376
63.725 18.100916
63.730 18.042837
63.735 17.600863
63.740 17.590891
63.745 17.030489
63.750 17.454876
63.755 17.850086
63.760 17.711983
63.765 17.597849
63.770 17.97407
63.775 18.226349
63.780 19.100639
63.785 19.409243
63.790 19.846916
63.795 19.919495
63.800 19.964914
63.805 20.27877
63.810 19.50985
63.815 19.222649
63.820 19.119064
63.825 18.763365
63.830 19.201622
63.835 19.884605
63.840 20.676962
63.845 21.659109
63.850 21.913403
63.855 21.704243
63.860 21.928829
63.865 21.443642
63.870 20.416603
63.875 19.363939
63.880 19.131407
63.885 18.794216
63.890 18.921625
63.895 19.003391
63.900 19.391163
63.905 20.062685
63.910 20.215183
63.915 19.597834
63.920 19.983252
63.925 20.110424
63.930 20.126532
63.935 19.847723
63.940 19.955637
63.945 20.233294
63.950 20.750483
63.955 21.217566
63.960 21.87875
63.965 22.921108
63.970 23.659464
63.975 24.882565
63.980 25.388109
63.985 25.467361
63.990 25.197142
63.995 25.15831
64.000 24.619801
64.005 25.180969
64.010 24.78956
64.015 25.836679
64.020 26.545959
64.025 27.356842
64.030 27.365856
64.035 27.77866
64.040 27.390745
64.045 27.068382
64.050 26.64994
64.055 26.300318
64.060 26.343367
64.065 26.816923
64.070 26.672529
64.075 27.081348
64.080 27.309286
64.085 26.916286
64.090 27.101511
64.095 26.880182
64.100 26.807049
64.105 26.756905
64.110 26.66844
64.115 27.765505
64.120 29.404041
64.125 29.649593
64.130 30.144873
64.135 31.190926
64.140 31.647251
64.145 31.927372
64.150 31.55607
64.155 31.417356
64.160 31.995249
64.165 32.378517
64.170 32.78083
64.175 33.806107
64.180 34.654346
64.185 34.819965
64.190 34.63224
64.195 34.294167
64.200 34.119019
64.205 33.313564
64.210 33.385559
64.215 32.906475
64.220 33.995586
64.225 34.252853
64.230 35.16573
64.235 36.37664
64.240 37.736385
64.245 37.863659
64.250 38.273132
64.255 39.123775
64.260 40.025028
64.265 40.518894
64.270 40.711102
64.275 40.329437
64.280 40.225082
64.285 40.34026
64.290 40.570465
64.295 41.767273
64.300 41.925259
64.305 41.223701
64.310 40.557396
64.315 41.105865
64.320 41.352287
64.325 41.576382
64.330 41.125381
64.335 40.730824
64.340 41.475132
64.345 42.208763
64.350 42.246872
64.355 42.335182
64.360 41.978271
64.365 42.26059
64.370 42.998764
64.375 43.322296
64.380 44.264648
64.385 44.567764
64.390 44.711697
64.395 44.201836
64.400 44.170292
64.405 43.559143
64.410 43.233257
64.415 42.780827
64.420 42.736637
64.425 43.210022
64.430 43.484459
64.435 43.409611
64.440 43.929749
64.445 44.486748
64.450 44.343929
64.455 44.241486
64.460 43.548073
64.465 43.028416
64.470 43.224258
64.475 43.49297
64.480 43.047348
64.485 42.44315
64.490 42.547916
64.495 42.803341
64.500 42.242149
64.505 41.532658
64.510 39.746422
64.515 38.983822
64.520 38.220303
64.525 36.661255
64.530 36.014069
64.535 36.11282
64.540 35.415649
64.545 35.622551
64.550 35.569347
64.555 36.031021
64.560 35.722095
64.565 34.573082
64.570 33.141266
64.575 32.245274
64.580 31.41132
64.585 30.857782
64.590 30.685343
64.595 30.6182
64.600 30.512453
64.605 30.607061
64.610 30.898613
64.615 30.824955
64.620 30.939968
64.625 30.295502
64.630 29.740105
64.635 29.266544
64.640 29.071539
64.645 28.170759
64.650 27.651985
64.655 26.748199
64.660 26.530233
64.665 26.943316
64.670 26.958323
64.675 26.886545
64.680 26.568682
64.685 26.384989
64.690 25.722128
64.695 25.531101
64.700 25.308372
64.705 25.734161
64.710 25.610237
64.715 25.916258
64.720 25.843121
64.725 25.995083
64.730 25.920357
64.735 25.247402
64.740 24.44869
64.745 24.126322
64.750 23.828718
64.755 23.277985
64.760 23.3265
64.765 23.518177
64.770 24.181255
64.775 23.703917
64.780 23.742872
64.785 23.643221
64.790 23.641405
64.795 23.363497
64.800 23.154545
64.805 22.402575
64.810 22.304581
64.815 21.437712
64.820 21.874306
64.825 21.931547
64.830 22.390188
64.835 22.718672
64.840 22.941978
64.845 22.823128
64.850 23.226507
64.855 22.227545
64.860 22.134012
64.865 21.352657
64.870 20.905413
64.875 21.134905
64.880 20.884489
64.885 20.580221
64.890 20.934475
64.895 20.567081
64.900 20.936258
64.905 20.857168
64.910 20.851143
64.915 22.139099
64.920 22.3601
64.925 22.448542
64.930 22.570002
64.935 22.054937
64.940 22.336729
64.945 21.949804
64.950 21.161209
64.955 21.058514
64.960 21.944286
64.965 22.49601
64.970 22.629391
64.975 22.817993
64.980 22.899321
64.985 23.575636
64.990 24.406723
64.995 23.993246
65.000 23.895168
65.005 24.468124
65.010 24.323235
65.015 24.870571
65.020 24.932512
65.025 24.891861
65.030 24.584818
65.035 24.540466
65.040 24.368174
65.045 25.217085
65.050 25.118687
65.055 24.663956
65.060 25.083981
65.065 25.194698
65.070 25.675108
65.075 26.090509
65.080 26.162809
65.085 26.086525
65.090 26.510994
65.095 26.370785
65.100 27.403284
65.105 27.619432
65.110 27.458912
65.115 27.746552
65.120 28.106024
65.125 27.79134
65.130 27.271854
65.135 27.001022
65.140 27.391796
65.145 27.429138
65.150 27.68618
65.155 28.055656
65.160 28.418285
65.165 28.581881
65.170 28.003309
65.175 27.821268
65.180 27.47842
65.185 26.773838
65.190 26.891701
65.195 27.053038
65.200 27.439234
65.205 28.152103
65.210 28.308186
65.215 28.628025
65.220 28.376783
65.225 28.077845
65.230 28.081158
65.235 27.9977
65.240 28.20434
65.245 27.513077
65.250 27.814419
65.255 27.805956
65.260 28.067482
65.265 28.126045
65.270 28.711319
65.275 28.88995
65.280 29.819353
65.285 30.018284
65.290 30.569874
65.295 30.438341
65.300 30.957848
65.305 30.938803
65.310 30.727737
65.315 29.990326
65.320 30.175821
65.325 30.21455
65.330 30.460369
65.335 29.671833
65.340 29.73609
65.345 30.185469
65.350 31.234526
65.355 31.65526
65.360 31.950918
65.365 32.14386
65.370 32.485733
65.375 31.993708
65.380 31.484148
65.385 30.902637
65.390 30.073103
65.395 30.197287
65.400 30.506149
65.405 31.206917
65.410 31.444704
65.415 32.350388
65.420 32.688179
65.425 33.422897
65.430 33.271767
65.435 33.121494
65.440 32.44817
65.445 31.492495
65.450 30.492174
65.455 30.315664
65.460 30.639572
65.465 31.300863
65.470 31.083178
65.475 31.962334
65.480 33.854794
65.485 34.650963
65.490 34.640942
65.495 35.254097
65.500 35.243023
65.505 35.674427
65.510 36.0933
65.515 35.980289
65.520 35.913986
65.525 35.935635
65.530 35.130806
65.535 35.108433
65.540 35.018318
65.545 35.598545
65.550 35.45472
65.555 35.036102
65.560 35.156643
65.565 35.770561
65.570 35.93972
65.575 36.119251
65.580 35.498947
65.585 35.807468
65.590 36.50172
65.595 36.456608
65.600 35.849556
65.605 36.066326
65.610 36.092094
65.615 36.044357
65.620 36.573112
65.625 37.467499
65.630 38.297661
65.635 38.527321
65.640 38.486858
65.645 38.836739
65.650 39.658134
65.655 38.877842
65.660 38.095238
65.665 37.791889
65.670 38.331921
65.675 39.608833
65.680 39.154797
65.685 38.766571
65.690 39.778763
65.695 39.683205
65.700 39.427746
65.705 39.652973
65.710 39.491768
65.715 39.908203
65.720 39.940952
65.725 39.541824
65.730 39.295624
65.735 38.84581
65.740 38.274147
65.745 37.466885
65.750 38.299225
65.755 38.729511
65.760 38.51358
65.765 38.593033
65.770 38.513424
65.775 38.532593
65.780 38.806103
65.785 38.407375
65.790 38.704197
65.795 38.496525
65.800 39.532787
65.805 40.250256
65.810 39.861347
65.815 40.236839
65.820 39.774757
65.825 38.964569
65.830 39.898113
65.835 39.531281
65.840 40.333214
65.845 41.080811
65.850 40.374325
65.855 40.088791
65.860 39.975929
65.865 39.612545
65.870 38.838512
65.875 37.890362
65.880 37.534431
65.885 37.406212
65.890 38.235733
65.895 38.36845
65.900 37.49968
65.905 38.299122
65.910 38.017559
65.915 37.888714
65.920 38.243538
65.925 37.099564
65.930 36.620564
65.935 36.507126
65.940 35.623505
65.945 35.368275
65.950 34.846695
65.955 34.561672
65.960 34.759354
65.965 34.335037
65.970 34.231823
65.975 33.683846
65.980 33.240971
65.985 33.063454
65.990 32.317947
65.995 31.535065
66.000 32.13718
66.005 32.279476
66.010 32.65406
66.015 32.217655
66.020 32.262161
66.025 31.847729
66.030 31.146467
66.035 29.994553
66.040 29.422297
66.045 29.089464
66.050 28.898354
66.055 28.030272
66.060 28.140097
66.065 28.156733
66.070 28.057476
66.075 27.841871
66.080 27.533546
66.085 28.468748
66.090 28.880913
66.095 28.849501
66.100 28.573914
66.105 28.081303
66.110 28.411701
66.115 28.242956
66.120 27.47554
66.125 27.256432
66.130 27.406542
66.135 27.465012
66.140 27.116381
66.145 25.97027
66.150 25.26088
66.155 24.928202
66.160 24.299088
66.165 23.750271
66.170 23.387812
66.175 24.013132
66.180 24.094759
66.185 23.94924
66.190 23.946579
66.195 24.581564
66.200 24.27734
66.205 24.421768
66.210 23.593281
66.215 23.558573
66.220 23.522491
66.225 22.954311
66.230 22.312527
66.235 21.921938
66.240 21.007778
66.245 21.016834
66.250 20.966221
66.255 21.143555
66.260 21.46928
66.265 21.729406
66.270 21.799564
66.275 22.308537
66.280 22.113214
66.285 22.208141
66.290 22.017332
66.295 21.903091
66.300 21.789597
66.305 22.303722
66.310 21.568174
66.315 21.535299
66.320 21.739906
66.325 21.62855
66.330 21.377575
66.335 21.469891
66.340 21.171082
66.345 21.530939
66.350 21.917564
66.355 21.986258
66.360 22.158936
66.365 22.213333
66.370 21.947598
66.375 20.906311
66.380 20.959116
66.385 20.250919
66.390 20.019321
66.395 19.789509
66.400 19.155437
66.405 18.897285
66.410 18.683432
66.415 18.054935
66.420 17.748543
66.425 17.812496
66.430 18.247005
66.435 18.488001
66.440 18.608391
66.445 19.18816
66.450 19.525503
66.455 20.008158
66.460 19.713959
66.465 19.193062
66.470 19.192842
66.475 19.121931
66.480 18.853207
66.485 19.451145
66.490 19.919554
66.495 20.208138
66.500 20.098574
66.505 20.267668
66.510 20.556883
66.515 21.02951
66.520 20.819435
66.525 19.735752
66.530 18.959232
66.535 19.278954
66.540 19.602999
66.545 19.026463
66.550 18.710365
66.555 18.651957
66.560 18.592068
66.565 19.276884
66.570 18.881405
66.575 18.558573
66.580 19.048258
66.585 19.193804
66.590 18.677179
66.595 19.548565
66.600 19.450867
66.605 19.70492
66.610 19.350313
66.615 18.94433
66.620 18.74312
66.625 19.460329
66.630 18.639139
66.635 18.758951
66.640 18.649063
66.645 19.196554
66.650 19.173464
66.655 18.987713
66.660 19.12355
66.665 19.334047
66.670 19.36841
66.675 19.409849
66.680 19.461714
66.685 19.416878
66.690 19.233973
66.695 19.024923
66.700 19.050764
66.705 18.8167
66.710 18.884363
66.715 18.726
66.720 19.279444
66.725 19.14732
66.730 18.969349
66.735 19.102112
66.740 18.891573
66.745 18.79051
66.750 19.017534
66.755 18.512804
66.760 18.688576
66.765 18.698339
66.770 18.517776
66.775 18.876595
66.780 18.722561
66.785 18.667261
66.790 18.933054
66.795 18.815737
66.800 18.515392
66.805 18.725382
66.810 18.360266
66.815 18.654488
66.820 18.366385
66.825 17.715429
66.830 17.531027
66.835 17.389687
66.840 16.890453
66.845 17.101603
66.850 17.206324
66.855 17.740585
66.860 18.486879
66.865 18.609457
66.870 19.131721
66.875 18.900358
66.880 18.30094
66.885 18.003128
66.890 17.985182
66.895 17.856724
66.900 17.633089
66.905 17.122305
66.910 17.721193
66.915 18.000938
66.920 18.175022
66.925 18.055773
66.930 18.421009
66.935 19.034163
66.940 19.293825
66.945 18.920568
66.950 18.509674
66.955 18.605328
66.960 18.434217
66.965 18.089882
66.970 18.274618
66.975 18.385216
66.980 18.988222
66.985 19.197638
66.990 18.966635
66.995 19.398581
67.000 19.544586
67.005 19.465
67.010 19.51429
67.015 19.226532
67.020 19.118526
67.025 18.667442
67.030 18.411682
67.035 18.402401
67.040 18.529869
67.045 18.382994
67.050 18.062441
67.055 18.50173
67.060 19.051062
67.065 18.643269
67.070 18.033964
67.075 17.866058
67.080 18.164934
67.085 18.495007
67.090 17.876144
67.095 17.540224
67.100 17.537106
67.105 17.504789
67.110 17.398912
67.115 17.515823
67.120 17.540075
67.125 17.632261
67.130 17.829596
67.135 18.13821
67.140 18.166279
67.145 18.244297
67.150 18.094194
67.155 18.532145
67.160 19.135483
67.165 18.999031
67.170 18.894415
67.175 19.034723
67.180 18.784336
67.185 18.721325
67.190 18.43409
67.195 18.148811
67.200 18.291033
67.205 18.206808
67.210 18.072805
67.215 18.039486
67.220 18.30979
67.225 18.474167
67.230 18.460443
67.235 19.054619
67.240 19.066929
67.245 19.386953
67.250 19.718607
67.255 19.700026
67.260 19.449587
67.265 19.112209
67.270 18.414103
67.275 18.363243
67.280 17.753754
67.285 17.403271
67.290 17.161421
67.295 17.146576
67.300 17.380171
67.305 17.639931
67.310 18.029062
67.315 18.423937
67.320 18.463926
67.325 18.014711
67.330 18.14537
67.335 18.370825
67.340 18.561977
67.345 19.25811
67.350 19.153311
67.355 19.094835
67.360 19.981112
67.365 20.062803
67.370 19.057245
67.375 18.799149
67.380 18.490862
67.385 18.447983
67.390 19.301908
67.395 19.111105
67.400 19.311523
67.405 19.904816
67.410 20.173523
67.415 19.624071
67.420 19.53548
67.425 18.9233
67.430 18.629854
67.435 18.988771
67.440 18.855055
67.445 18.266455
67.450 18.538946
67.455 18.939243
67.460 19.379593
67.465 19.549812
67.470 18.946045
67.475 18.923737
67.480 19.838886
67.485 19.919804
67.490 20.05629
67.495 19.66777
67.500 19.945704
67.505 20.084875
67.510 20.1591
67.515 19.697292
67.520 19.465191
67.525 19.111473
67.530 19.514326
67.535 19.161295
67.540 18.659929
67.545 18.368164
67.550 18.744503
67.555 18.849445
67.560 19.014141
67.565 18.4174
67.570 18.61529
67.575 18.882469
67.580 19.08391
67.585 18.945488
67.590 18.532465
67.595 18.521492
67.600 18.725937
67.605 18.94072
67.610 19.130194
67.615 19.268263
67.620 20.271387
67.625 20.632444
67.630 20.191301
67.635 19.624109
67.640 19.654366
67.645 20.227312
67.650 20.312979
67.655 19.299305
67.660 19.064964
67.665 19.925665
67.670 20.609039
67.675 19.747488
67.680 19.53101
67.685 19.339182
67.690 18.771841
67.695 18.671791
67.700 18.114088
67.705 18.015833
67.710 18.076939
67.715 17.71876
67.720 17.702881
67.725 18.497248
67.730 18.829979
67.735 18.661135
67.740 19.11128
67.745 19.650042
67.750 20.183117
67.755 20.193298
67.760 20.009954
67.765 19.770252
67.770 19.879045
67.775 19.715944
67.780 19.619564
67.785 18.85503
67.790 18.615599
67.795 18.344585
67.800 18.448366
67.805 18.451752
67.810 17.945753
67.815 17.843018
67.820 17.974566
67.825 18.506683
67.830 18.793806
67.835 18.632824
67.840 18.111639
67.845 18.354729
67.850 18.292938
67.855 18.191748
67.860 18.055517
67.865 17.671926
67.870 17.507078
67.875 18.858141
67.880 19.077316
67.885 18.92985
67.890 19.296097
67.895 19.226093
67.900 20.072006
67.905 20.106474
67.910 19.021296
67.915 18.988577
67.920 19.05843
67.925 18.98181
67.930 18.833435
67.935 18.404467
67.940 19.020376
67.945 19.463585
67.950 19.390295
67.955 19.193356
67.960 18.914558
67.965 18.530897
67.970 18.499878
67.975 18.612141
67.980 18.813259
67.985 18.885633
67.990 19.014507
67.995 18.933954
68.000 19.316475
68.005 19.010735
68.010 18.557945
68.015 19.069723
68.020 19.247496
68.025 19.475445
68.030 19.656046
68.035 19.523314
68.040 20.111547
68.045 20.155331
68.050 19.158155
68.055 19.763805
68.060 19.803268
68.065 20.119062
68.070 19.981312
68.075 20.262077
68.080 20.213963
68.085 20.736311
68.090 20.616945
68.095 20.877256
68.100 20.711418
68.105 21.200758
68.110 21.101236
68.115 21.021683
68.120 20.416267
68.125 20.081739
68.130 19.532835
68.135 19.298306
68.140 18.905315
68.145 18.7316
68.150 19.421497
68.155 19.571733
68.160 19.637209
68.165 19.9107
68.170 20.325829
68.175 20.274181
68.180 19.448587
68.185 18.973032
68.190 19.340551
68.195 19.478264
68.200 20.143702
68.205 20.230537
68.210 20.041355
68.215 20.376169
68.220 20.647243
68.225 20.657066
68.230 20.714689
68.235 20.43627
68.240 20.448807
68.245 20.448267
68.250 20.390989
68.255 20.136023
68.260 21.128094
68.265 21.75872
68.270 21.653725
68.275 21.500216
68.280 21.715662
68.285 22.225851
68.290 22.549234
68.295 21.757092
68.300 21.51618
68.305 21.754972
68.310 21.326935
68.315 21.583208
68.320 22.203331
68.325 22.289682
68.330 21.544359
68.335 21.14353
68.340 20.766857
68.345 21.56172
68.350 21.067318
68.355 20.090664
68.360 19.97262
68.365 20.53137
68.370 21.148811
68.375 21.542408
68.380 21.67642
68.385 22.502438
68.390 23.015131
68.395 23.262074
68.400 23.494041
68.405 23.707088
68.410 24.393515
68.415 24.60972
68.420 25.141827
68.425 25.414753
68.430 25.502226
68.435 25.308239
68.440 25.108505
68.445 25.405436
68.450 25.375008
68.455 24.837772
68.460 24.844294
68.465 24.434839
68.470 24.994745
68.475 25.630228
68.480 25.284777
68.485 25.971233
68.490 26.826471
68.495 27.215601
68.500 27.648222
68.505 27.109804
68.510 26.599112
68.515 26.780079
68.520 27.092117
68.525 26.387545
68.530 26.503067
68.535 26.530815
68.540 27.045654
68.545 27.444368
68.550 27.202747
68.555 26.522444
68.560 27.509541
68.565 27.918322
68.570 28.19401
68.575 29.012352
68.580 28.884539
68.585 29.463623
68.590 29.793922
68.595 29.066008
68.600 28.658165
68.605 29.331703
68.610 28.388027
68.615 28.899258
68.620 29.069799
68.625 29.073784
68.630 29.544024
68.635 29.853495
68.640 29.595634
68.645 30.240957
68.650 30.282722
68.655 30.183308
68.660 30.646008
68.665 31.507814
68.670 31.980553
68.675 31.282408
68.680 30.843616
68.685 30.884655
68.690 30.950758
68.695 30.974333
68.700 30.260189
68.705 30.087671
68.710 30.915741
68.715 31.453346
68.720 31.106621
68.725 31.960337
68.730 32.417522
68.735 32.116665
68.740 32.374203
68.745 32.254681
68.750 32.7411
68.755 33.518082
68.760 33.432514
68.765 33.926987
68.770 34.131466
68.775 34.07513
68.780 34.096394
68.785 33.716969
68.790 33.305885
68.795 32.66571
68.800 33.400162
68.805 34.310398
68.810 34.700401
68.815 34.472435
68.820 34.484535
68.825 35.081036
68.830 35.250969
68.835 34.626007
68.840 34.546062
68.845 34.116783
68.850 34.136997
68.855 33.950474
68.860 33.554161
68.865 33.788429
68.870 33.803585
68.875 33.745186
68.880 33.576283
68.885 33.33226
68.890 34.256409
68.895 34.178345
68.900 34.532646
68.905 35.382267
68.910 35.912773
68.915 36.82127
68.920 37.161037
68.925 37.415981
68.930 37.887066
68.935 37.423347
68.940 37.464466
68.945 36.760624
68.950 36.504879
68.955 36.135227
68.960 36.012848
68.965 35.494274
68.970 35.649895
68.975 35.649403
68.980 35.835644
68.985 35.912735
68.990 36.106899
68.995 36.237259
69.000 36.050564
69.005 35.48436
69.010 35.752823
69.015 36.152214
69.020 35.940311
69.025 35.394733
69.030 34.933971
69.035 34.446838
69.040 33.995407
69.045 33.513287
69.050 33.70203
69.055 34.351723
69.060 34.537636
69.065 34.91534
69.070 35.721115
69.075 35.744858
69.080 34.781086
69.085 34.316063
69.090 33.56189
69.095 33.533543
69.100 33.942875
69.105 33.34193
69.110 32.945469
69.115 32.814259
69.120 32.261448
69.125 32.244053
69.130 31.797071
69.135 30.338865
69.140 30.656111
69.145 31.00721
69.150 30.828295
69.155 30.795893
69.160 30.533112
69.165 30.511723
69.170 30.814259
69.175 30.380678
69.180 29.903437
69.185 29.893051
69.190 29.586779
69.195 29.952332
69.200 30.02475
69.205 29.829622
69.210 29.733065
69.215 29.536144
69.220 29.422791
69.225 29.583313
69.230 29.355965
69.235 28.890244
69.240 29.072092
69.245 29.039839
69.250 29.082376
69.255 29.224142
69.260 28.765966
69.265 28.118437
69.270 27.710543
69.275 26.681442
69.280 26.254019
69.285 26.141024
69.290 26.831909
69.295 27.150873
69.300 27.626434
69.305 27.742441
69.310 28.024199
69.315 27.530754
69.320 26.54985
69.325 25.748838
69.330 25.504185
69.335 25.124865
69.340 24.965219
69.345 24.569016
69.350 25.442837
69.355 25.434437
69.360 25.358706
69.365 25.349928
69.370 25.348364
69.375 25.174965
69.380 24.439215
69.385 25.115213
69.390 25.828154
69.395 25.356226
69.400 24.630375
69.405 23.925322
69.410 24.255348
69.415 23.78722
69.420 22.464022
69.425 22.078232
69.430 22.797325
69.435 23.682802
69.440 23.804552
69.445 23.714634
69.450 24.404789
69.455 24.580166
69.460 23.989227
69.465 23.208055
69.470 22.93305
69.475 22.650007
69.480 22.152422
69.485 21.917587
69.490 21.528952
69.495 21.590572
69.500 21.376638
69.505 21.525166
69.510 21.86813
69.515 21.912901
69.520 21.706938
69.525 21.971432
69.530 21.792248
69.535 21.715784
69.540 21.692266
69.545 22.013367
69.550 21.856762
69.555 21.222197
69.560 20.744827
69.565 20.540274
69.570 21.059637
69.575 21.61746
69.580 21.070692
69.585 20.288317
69.590 19.481112
69.595 19.265656
69.600 18.556368
69.605 17.312191
69.610 16.363739
69.615 16.727402
69.620 17.275028
69.625 17.878544
69.630 18.51099
69.635 18.720648
69.640 19.137533
69.645 18.964924
69.650 18.991274
69.655 18.924547
69.660 18.973444
69.665 18.813982
69.670 19.733875
69.675 20.249634
69.680 20.662361
69.685 20.569412
69.690 20.862688
69.695 20.78385
69.700 20.506054
69.705 19.384111
69.710 19.029539
69.715 18.747511
69.720 18.501272
69.725 18.427536
69.730 18.343233
69.735 18.59749
69.740 19.251118
69.745 18.94305
69.750 18.53639
69.755 18.542418
69.760 18.667389
69.765 19.146534
69.770 18.734941
69.775 18.034515
69.780 18.641891
69.785 19.744179
69.790 19.811785
69.795 19.678171
69.800 19.450207
69.805 19.895784
69.810 20.848103
69.815 20.855156
69.820 20.161018
69.825 20.324327
69.830 20.406481
69.835 20.490681
69.840 20.175047
69.845 19.641863
69.850 18.827816
69.855 18.365479
69.860 17.971611
69.865 17.651442
69.870 18.01631
69.875 17.986073
69.880 17.983292
69.885 18.355303
69.890 19.532875
69.895 20.040949
69.900 19.869286
69.905 19.445421
69.910 19.542936
69.915 19.619831
69.920 19.43434
69.925 18.749773
69.930 19.130228
69.935 20.223501
69.940 20.321911
69.945 20.19993
69.950 20.956039
69.955 21.314589
69.960 21.271215
69.965 20.877254
69.970 20.336721
69.975 20.105595
69.980 19.71323
69.985 19.633667
69.990 19.506178
69.995 19.180159
70.000 18.274233
70.005 17.692169
70.010 17.452007
70.015 17.681946
70.020 17.58474
70.025 17.667156
70.030 18.160118
70.035 18.530952
70.040 18.897449
70.045 19.262287
70.050 19.169596
70.055 18.422831
70.060 18.423153
70.065 18.348333
70.070 18.318516
70.075 18.221376
70.080 17.939835
70.085 18.071022
70.090 18.187313
70.095 18.187204
70.100 18.621937
70.105 18.749552
70.110 18.613607
70.115 18.342705
70.120 17.88958
70.125 18.08359
70.130 17.812386
70.135 17.810499
70.140 17.825178
70.145 18.215759
70.150 18.681723
70.155 18.578672
70.160 18.62949
70.165 18.990246
70.170 18.229458
70.175 18.109926
70.180 17.565659
70.185 17.774622
70.190 18.128519
70.195 18.364159
70.200 17.9569
70.205 18.566185
70.210 18.839003
70.215 19.05121
70.220 18.912939
70.225 18.668139
70.230 18.831923
70.235 19.184708
70.240 19.634932
70.245 19.780212
70.250 20.025339
70.255 19.699385
70.260 19.348835
70.265 18.69422
70.270 17.677658
70.275 16.862812
70.280 16.925785
70.285 17.113869
70.290 16.789181
70.295 16.950066
70.300 17.450605
70.305 17.713993
70.310 17.598358
70.315 17.114023
70.320 16.900845
70.325 17.488955
70.330 18.222654
70.335 18.165672
70.340 18.702801
70.345 18.513334
70.350 18.065176
70.355 17.708815
70.360 17.985006
70.365 17.712536
70.370 17.303925
70.375 17.630959
70.380 18.408365
70.385 18.917864
70.390 19.319754
70.395 19.347189
70.400 19.503708
70.405 19.469032
70.410 19.160919
70.415 19.330381
70.420 19.236052
70.425 19.107536
70.430 18.409674
70.435 18.014587
70.440 18.284346
70.445 18.235861
70.450 18.209349
70.455 18.48897
70.460 18.481329
70.465 19.031376
70.470 19.240728
70.475 19.021494
70.480 18.406567
70.485 18.541616
70.490 18.451908
70.495 18.146809
70.500 18.506941
70.505 18.789902
70.510 18.349827
70.515 18.856344
70.520 18.735235
70.525 18.727898
70.530 18.422359
70.535 17.531681
70.540 17.89403
70.545 18.205334
70.550 17.689348
70.555 17.929489
70.560 17.889029
70.565 18.596586
70.570 19.014538
70.575 18.234161
70.580 18.865845
70.585 19.575203
70.590 19.361973
70.595 19.225471
70.600 19.045626
70.605 19.021942
70.610 19.628311
70.615 19.447269
70.620 18.901262
70.625 19.143686
70.630 19.530542
70.635 19.171017
70.640 19.177443
70.645 19.016235
70.650 18.464779
70.655 17.903896
70.660 17.928171
70.665 17.355604
70.670 16.801596
70.675 16.794596
70.680 16.694416
70.685 17.421352
70.690 18.009048
70.695 18.167561
70.700 18.841806
70.705 19.275652
70.710 19.286045
70.715 19.205591
70.720 18.701771
70.725 18.328209
70.730 17.985199
70.735 18.0082
70.740 18.490271
70.745 18.612597
70.750 19.065216
70.755 19.072466
70.760 18.982105
70.765 18.945347
70.770 19.020525
70.775 18.298193
70.780 18.024319
70.785 17.256477
70.790 16.989843
70.795 16.51564
70.800 16.21736
70.805 15.838772
70.810 16.060942
70.815 16.745321
70.820 17.841244
70.825 18.39625
70.830 18.625935
70.835 18.763119
70.840 19.162703
70.845 19.12911
70.850 18.619745
70.855 18.07559
70.860 18.141016
70.865 18.246462
70.870 18.377996
70.875 18.276114
70.880 18.3599
70.885 18.054924
70.890 18.232956
70.895 18.806423
70.900 19.152229
70.905 19.02376
70.910 18.262991
70.915 18.184372
70.920 18.35841
70.925 17.235033
70.930 16.010393
70.935 15.422034
70.940 15.603246
70.945 16.182335
70.950 16.817867
70.955 17.261389
70.960 17.786964
70.965 18.454554
70.970 19.061939
70.975 19.272791
70.980 19.270506
70.985 18.497225
70.990 18.55418
70.995 19.258755
71.000 19.382467
71.005 18.959019
71.010 19.411957
71.015 19.422901
71.020 19.237312
71.025 19.044321
71.030 19.135689
71.035 19.315844
71.040 19.501177
71.045 19.37352
71.050 19.936495
71.055 20.324104
71.060 19.930946
71.065 20.015879
71.070 19.857975
71.075 19.688234
71.080 19.356358
71.085 19.200762
71.090 19.614746
71.095 19.812943
71.100 19.380978
71.105 18.861031
71.110 18.341413
71.115 17.939701
71.120 17.933485
71.125 18.088526
71.130 18.878429
71.135 19.002117
71.140 19.306536
71.145 19.579363
71.150 19.089943
71.155 18.819242
71.160 18.568899
71.165 18.23978
71.170 18.878767
71.175 19.295996
71.180 19.971439
71.185 19.780382
71.190 19.173435
71.195 19.012136
71.200 18.897789
71.205 18.698725
71.210 18.214241
71.215 17.874874
71.220 18.374269
71.225 18.591778
71.230 18.185471
71.235 18.167061
71.240 17.921984
71.245 17.984039
71.250 18.578129
71.255 18.862741
71.260 18.940704
71.265 19.455725
71.270 19.202339
71.275 19.19997
71.280 18.987572
71.285 18.300646
71.290 18.353542
71.295 17.593496
71.300 17.014189
71.305 16.90036
71.310 16.944462
71.315 16.827063
71.320 17.02948
71.325 16.889267
71.330 17.37752
71.335 17.753584
71.340 17.81546
71.345 17.961456
71.350 17.816977
71.355 17.674898
71.360 17.80138
71.365 18.163818
71.370 17.719658
71.375 17.227428
71.380 17.142605
71.385 17.483204
71.390 17.487114
71.395 17.229685
71.400 17.510481
71.405 18.686033
71.410 19.253777
71.415 19.92881
71.420 19.969484
71.425 20.339155
71.430 20.022394
71.435 19.329227
71.440 18.721094
71.445 18.976746
71.450 18.813946
71.455 18.747213
71.460 19.163572
71.465 19.744844
71.470 20.0394
71.475 19.754673
71.480 19.575397
71.485 19.607122
71.490 19.84893
71.495 19.750097
71.500 19.787392
71.505 19.694851
71.510 20.366426
71.515 20.443275
71.520 20.449047
71.525 20.328211
71.530 20.289398
71.535 20.435995
71.540 20.787756
71.545 20.638586
71.550 20.198376
71.555 19.701536
71.560 19.472595
71.565 19.031761
71.570 18.753586
71.575 18.091419
71.580 17.952543
71.585 17.924999
71.590 17.988373
71.595 18.460779
71.600 18.563803
71.605 18.351664
71.610 18.557228
71.615 18.510639
71.620 18.67662
71.625 18.1304
71.630 17.626884
71.635 17.377356
71.640 17.119759
71.645 16.722204
71.650 16.723375
71.655 16.847759
71.660 17.153637
71.665 17.750557
71.670 17.822298
71.675 17.339087
71.680 17.585125
71.685 17.314568
71.690 17.29945
71.695 17.445576
71.700 17.277565
71.705 17.233763
71.710 17.864687
71.715 18.008608
71.720 18.593128
71.725 18.579655
71.730 18.400932
71.735 18.270941
71.740 18.310032
71.745 18.619139
71.750 18.210361
71.755 18.17811
71.760 18.536606
71.765 18.919025
71.770 19.597212
71.775 19.67395
71.780 19.093304
71.785 19.306171
71.790 18.8447
71.795 18.892269
71.800 18.57593
71.805 18.356159
71.810 18.511808
71.815 18.531788
71.820 18.410507
71.825 18.37554
71.830 18.29748
71.835 18.469223
71.840 18.692324
71.845 18.288404
71.850 19.106285
71.855 19.289522
71.860 19.312944
71.865 19.19372
71.870 18.953255
71.875 19.438046
71.880 19.554592
71.885 19.231171
71.890 18.780012
71.895 18.379955
71.900 18.380255
71.905 18.390856
71.910 17.822071
71.915 17.73538
71.920 17.471552
71.925 17.617725
71.930 17.841097
71.935 17.416666
71.940 17.749372
71.945 17.541204
71.950 16.794424
71.955 16.591845
71.960 16.378345
71.965 16.27475
71.970 16.310633
71.975 16.038095
71.980 16.691259
71.985 17.262741
71.990 17.831255
71.995 17.902208
72.000 18.029547
72.005 17.638889
72.010 17.546125
72.015 16.914717
72.020 16.84968
72.025 16.810558
72.030 16.844742
72.035 17.023024
72.040 17.361515
72.045 17.717804
72.050 18.300781
72.055 18.718821
72.060 18.557182
72.065 18.560143
72.070 18.380512
72.075 18.456276
72.080 18.312769
72.085 18.283731
72.090 18.029602
72.095 18.013203
72.100 17.921558
72.105 18.055334
72.110 17.731342
72.115 17.703012
72.120 17.69738
72.125 17.972664
72.130 18.758429
72.135 18.808582
72.140 18.703125
72.145 19.30555
72.150 19.07865
72.155 18.792709
72.160 18.110781
72.165 17.332563
72.170 17.180765
72.175 17.075161
72.180 17.226204
72.185 16.949289
72.190 16.745005
72.195 16.923344
72.200 17.193064
72.205 17.523308
72.210 17.426802
72.215 17.290001
72.220 17.442669
72.225 17.821753
72.230 17.533529
72.235 17.614601
72.240 17.494158
72.245 17.280207
72.250 17.016174
72.255 17.332594
72.260 17.526178
72.265 17.923588
72.270 17.616173
72.275 17.336819
72.280 17.805672
72.285 17.900743
72.290 17.860674
72.295 17.339827
72.300 17.299856
72.305 17.722794
72.310 18.366791
72.315 18.664871
72.320 18.907928
72.325 19.410543
72.330 19.796928
72.335 20.246456
72.340 20.044764
72.345 19.398609
72.350 18.697241
72.355 18.860132
72.360 18.259012
72.365 17.971117
72.370 17.723225
72.375 17.422417
72.380 17.600622
72.385 17.57585
72.390 17.65188
72.395 18.046415
72.400 18.109301
72.405 18.065126
72.410 18.636732
72.415 18.603985
72.420 18.046532
72.425 17.61899
72.430 17.196074
72.435 16.807537
72.440 16.599396
72.445 16.494375
72.450 17.205956
72.455 17.797228
72.460 18.151392
72.465 17.957481
72.470 18.145081
72.475 18.616581
72.480 18.456739
72.485 18.212612
72.490 18.18075
72.495 18.474045
72.500 18.362034
72.505 18.600222
72.510 18.514093
72.515 18.891363
72.520 19.02289
72.525 18.338411
72.530 18.050875
72.535 17.784388
72.540 17.016335
72.545 16.589275
72.550 16.199959
72.555 15.949704
72.560 15.536768
72.565 15.73294
72.570 16.920666
72.575 17.543106
72.580 17.511518
72.585 17.871616
72.590 18.390265
72.595 19.168047
72.600 19.789433
72.605 19.451448
72.610 19.126146
72.615 18.817022
72.620 19.179529
72.625 18.96447
72.630 18.734739
72.635 18.270746
72.640 18.01486
72.645 18.452805
72.650 17.902399
72.655 17.415401
72.660 17.620012
72.665 17.282694
72.670 16.82831
72.675 17.075727
72.680 16.54484
72.685 16.81551
72.690 16.552725
72.695 16.729343
72.700 16.676628
72.705 16.34473
72.710 15.97771
72.715 16.09724
72.720 16.134336
72.725 16.078102
72.730 15.783981
72.735 16.309412
72.740 16.572222
72.745 16.891508
72.750 16.735661
72.755 16.55851
72.760 16.520109
72.765 16.249945
72.770 15.6396
72.775 15.326869
72.780 15.101454
72.785 15.230401
72.790 14.947316
72.795 15.225246
72.800 15.328052
72.805 15.403445
72.810 15.267715
72.815 15.110935
72.820 14.91078
72.825 16.059101
72.830 16.813185
72.835 17.866919
72.840 18.019176
72.845 18.605001
72.850 19.390205
72.855 19.044161
72.860 18.090046
72.865 17.248171
72.870 16.998224
72.875 17.080309
72.880 17.314495
72.885 17.107054
72.890 17.68935
72.895 17.978222
72.900 17.468077
72.905 17.719103
72.910 17.80047
72.915 17.465073
72.920 17.072269
72.925 16.711355
72.930 16.591898
72.935 16.395081
72.940 16.252419
72.945 16.078503
72.950 15.941149
72.955 15.914804
72.960 16.189047
72.965 16.902826
72.970 17.123827
72.975 17.244774
72.980 17.417963
72.985 17.697432
72.990 18.148844
72.995 17.40287
73.000 16.517595
