!@!!GADDS PLOTSO FILE: Chi integration type
!@!!Title/SampleName: map-35
!@!!Comment: ?
!@!!User: Bruker Instrument Administrator
!@!!Site: University of Illinois Chicago
!@!!Frame: map-35_01_000.gfrm
!@!!Wavelengths    1.54184   1.54056   1.54439
!@!!Frame angles: 2Theta: 63.000 Omega: 50.000 Phi: 0.000 Chi: 90.000
!@!!Integration range: 2Theta: 53.000 to 73.000  Gamma: -105.000 to -75.000
!@!!Integration method: bin normalized
!@!N
!@!SS
!@!M
!@!L 0.0 0.0 0.0 0.0
!@!XDegrees
!@!YCounts
53.000 7.756298
53.005 7.779622
53.010 8.033394
53.015 7.757944
53.020 7.663403
53.025 7.35546
53.030 7.422966
53.035 7.66005
53.040 7.72249
53.045 7.569614
53.050 7.434157
53.055 7.42125
53.060 7.810113
53.065 7.818651
53.070 7.868351
53.075 7.944706
53.080 8.374813
53.085 8.319871
53.090 8.444528
53.095 8.690458
53.100 8.894372
53.105 9.12068
53.110 9.192061
53.115 9.611499
53.120 9.700203
53.125 9.213663
53.130 9.004097
53.135 8.69427
53.140 8.253644
53.145 7.859456
53.150 7.333943
53.155 7.582845
53.160 7.799047
53.165 8.150341
53.170 8.20991
53.175 8.40898
53.180 8.42717
53.185 8.299844
53.190 8.188382
53.195 8.066479
53.200 7.709134
53.205 7.542795
53.210 7.861496
53.215 8.489512
53.220 8.36403
53.225 8.296897
53.230 8.276452
53.235 8.277904
53.240 8.492987
53.245 7.844847
53.250 7.657879
53.255 7.832105
53.260 7.401688
53.265 7.59971
53.270 7.701917
53.275 7.962872
53.280 8.016164
53.285 7.973384
53.290 8.174401
53.295 8.685068
53.300 8.636905
53.305 8.665028
53.310 8.895651
53.315 9.095425
53.320 9.344825
53.325 9.027207
53.330 8.794949
53.335 8.922693
53.340 8.935371
53.345 8.370241
53.350 8.394892
53.355 8.250271
53.360 8.432527
53.365 8.222741
53.370 8.116659
53.375 8.0182
53.380 8.205694
53.385 8.24958
53.390 8.390288
53.395 8.456373
53.400 8.463286
53.405 8.293236
53.410 8.383036
53.415 8.335463
53.420 8.382291
53.425 8.264625
53.430 8.457186
53.435 8.766672
53.440 8.996524
53.445 9.002746
53.450 8.966809
53.455 8.819618
53.460 8.749277
53.465 8.30512
53.470 8.028219
53.475 8.163882
53.480 8.39426
53.485 8.214804
53.490 8.288037
53.495 8.711864
53.500 9.184196
53.505 9.417813
53.510 9.284903
53.515 9.183165
53.520 9.530842
53.525 9.614821
53.530 9.273912
53.535 8.670426
53.540 8.210258
53.545 8.101818
53.550 8.264856
53.555 8.337441
53.560 8.390981
53.565 8.502776
53.570 8.892076
53.575 9.185615
53.580 9.093289
53.585 9.330762
53.590 9.493313
53.595 9.81057
53.600 9.682537
53.605 9.936395
53.610 9.566971
53.615 9.290348
53.620 8.879579
53.625 8.543732
53.630 8.422088
53.635 8.157523
53.640 8.397612
53.645 8.84943
53.650 8.895852
53.655 9.097979
53.660 8.996325
53.665 9.004045
53.670 8.875237
53.675 8.452272
53.680 8.349845
53.685 8.128811
53.690 8.228367
53.695 8.480038
53.700 8.091375
53.705 8.214533
53.710 8.071764
53.715 8.007888
53.720 7.926963
53.725 7.668918
53.730 8.017384
53.735 8.572254
53.740 8.285987
53.745 8.536482
53.750 8.850648
53.755 8.948893
53.760 8.897857
53.765 8.68428
53.770 8.569022
53.775 8.579335
53.780 8.607318
53.785 8.268337
53.790 8.304266
53.795 8.570334
53.800 9.070511
53.805 9.849184
53.810 9.79896
53.815 9.711491
53.820 9.815414
53.825 9.383525
53.830 9.133835
53.835 8.591384
53.840 8.498791
53.845 9.154075
53.850 9.64752
53.855 10.1812
53.860 10.198124
53.865 10.239022
53.870 10.365341
53.875 9.812722
53.880 9.346732
53.885 8.961651
53.890 9.049784
53.895 9.332963
53.900 9.090714
53.905 9.143273
53.910 9.327437
53.915 8.985909
53.920 8.852452
53.925 8.807125
53.930 8.729318
53.935 8.785465
53.940 8.491277
53.945 9.074953
53.950 9.409917
53.955 9.710993
53.960 9.631975
53.965 9.225456
53.970 9.155475
53.975 9.04037
53.980 8.694942
53.985 8.573341
53.990 8.020533
53.995 8.186657
54.000 8.772198
54.005 8.964399
54.010 9.359412
54.015 9.513064
54.020 9.761201
54.025 9.805892
54.030 9.480727
54.035 9.119794
54.040 9.020179
54.045 9.054846
54.050 8.798911
54.055 8.517347
54.060 8.350026
54.065 8.607301
54.070 9.050056
54.075 8.835693
54.080 9.022076
54.085 9.572851
54.090 10.153783
54.095 10.792616
54.100 10.858046
54.105 10.949667
54.110 11.426135
54.115 11.156138
54.120 10.683688
54.125 10.221089
54.130 10.000662
54.135 9.634312
54.140 9.303901
54.145 9.200586
54.150 9.368849
54.155 9.308324
54.160 9.45259
54.165 9.702096
54.170 9.716846
54.175 9.620843
54.180 8.876039
54.185 8.544485
54.190 9.045974
54.195 8.920081
54.200 8.81394
54.205 9.054508
54.210 9.301301
54.215 9.416079
54.220 9.501598
54.225 9.322412
54.230 9.374297
54.235 9.377085
54.240 9.232558
54.245 9.390356
54.250 9.650173
54.255 9.357132
54.260 9.700177
54.265 10.114865
54.270 9.995957
54.275 10.071528
54.280 10.230929
54.285 10.258634
54.290 10.363477
54.295 9.734634
54.300 9.760242
54.305 10.501614
54.310 10.780348
54.315 11.007075
54.320 11.328134
54.325 11.342137
54.330 11.534025
54.335 11.561028
54.340 11.266244
54.345 11.034977
54.350 10.475847
54.355 10.255798
54.360 10.261202
54.365 9.897334
54.370 9.669457
54.375 9.270512
54.380 9.132547
54.385 9.593419
54.390 9.608479
54.395 9.489633
54.400 9.217362
54.405 8.77648
54.410 8.542627
54.415 8.479135
54.420 8.420158
54.425 8.583594
54.430 8.710309
54.435 9.104578
54.440 9.67384
54.445 9.982302
54.450 9.989891
54.455 9.87661
54.460 10.094703
54.465 10.498159
54.470 10.351823
54.475 10.383234
54.480 10.618716
54.485 10.84433
54.490 11.05697
54.495 11.016668
54.500 10.812079
54.505 11.006088
54.510 10.644052
54.515 10.43146
54.520 10.420581
54.525 10.541216
54.530 10.589385
54.535 10.812033
54.540 10.892065
54.545 10.483425
54.550 10.251276
54.555 9.969843
54.560 9.832768
54.565 10.091077
54.570 9.94723
54.575 10.067084
54.580 9.961639
54.585 10.21208
54.590 10.173192
54.595 9.726772
54.600 9.161263
54.605 8.91038
54.610 9.232284
54.615 9.70322
54.620 9.891113
54.625 9.732165
54.630 9.966286
54.635 10.01147
54.640 9.843806
54.645 9.690812
54.650 9.537053
54.655 9.346062
54.660 9.814389
54.665 10.264011
54.670 10.73656
54.675 11.170321
54.680 11.481466
54.685 11.565099
54.690 11.461409
54.695 11.099588
54.700 10.521382
54.705 10.226422
54.710 10.223346
54.715 9.434056
54.720 9.334496
54.725 9.436884
54.730 9.496332
54.735 9.394729
54.740 9.196704
54.745 9.165682
54.750 9.776229
54.755 9.846202
54.760 10.019691
54.765 10.263933
54.770 10.681584
54.775 10.667315
54.780 10.603292
54.785 10.533653
54.790 10.483658
54.795 10.386823
54.800 10.271544
54.805 10.268389
54.810 9.89784
54.815 9.825865
54.820 10.0401
54.825 9.856436
54.830 9.923696
54.835 9.93674
54.840 9.839165
54.845 10.274614
54.850 10.084619
54.855 9.630901
54.860 9.808607
54.865 9.779364
54.870 9.767404
54.875 10.017313
54.880 10.397852
54.885 10.970442
54.890 11.290488
54.895 11.310454
54.900 11.291709
54.905 11.306406
54.910 11.170238
54.915 11.336367
54.920 11.118103
54.925 10.478169
54.930 9.930949
54.935 10.050229
54.940 9.694865
54.945 9.475517
54.950 9.09972
54.955 9.189072
54.960 9.654912
54.965 9.667035
54.970 9.345378
54.975 9.827851
54.980 10.158672
54.985 10.306914
54.990 10.532541
54.995 10.812332
55.000 10.981021
55.005 11.05058
55.010 10.58801
55.015 10.351685
55.020 10.042207
55.025 9.84496
55.030 9.774236
55.035 9.473271
55.040 9.327769
55.045 9.586119
55.050 9.81161
55.055 9.720078
55.060 9.748609
55.065 9.845726
55.070 10.194695
55.075 9.955997
55.080 10.230456
55.085 10.34274
55.090 10.468379
55.095 10.668803
55.100 10.583398
55.105 10.606131
55.110 10.985066
55.115 10.284725
55.120 10.223665
55.125 10.186458
55.130 10.051821
55.135 9.889191
55.140 9.814852
55.145 10.172851
55.150 10.552452
55.155 10.151011
55.160 10.178125
55.165 10.142718
55.170 10.409984
55.175 10.0994
55.180 9.701003
55.185 9.217875
55.190 9.254916
55.195 9.491083
55.200 9.505226
55.205 9.802593
55.210 9.89255
55.215 10.608637
55.220 11.356194
55.225 11.145674
55.230 10.303152
55.235 9.986231
55.240 9.84246
55.245 9.746184
55.250 9.219367
55.255 9.066848
55.260 9.627074
55.265 10.421041
55.270 11.022916
55.275 11.131175
55.280 11.195307
55.285 11.296271
55.290 10.637073
55.295 10.304036
55.300 10.145659
55.305 9.941759
55.310 9.847973
55.315 9.807783
55.320 9.932567
55.325 10.413733
55.330 10.511162
55.335 9.970998
55.340 9.579334
55.345 9.493732
55.350 9.468059
55.355 9.682674
55.360 9.739578
55.365 9.773517
55.370 10.335819
55.375 10.57689
55.380 10.953067
55.385 10.934345
55.390 10.684367
55.395 10.664905
55.400 10.204082
55.405 9.907784
55.410 10.060956
55.415 10.478387
55.420 10.716387
55.425 11.2054
55.430 11.081751
55.435 11.70451
55.440 11.958035
55.445 12.008608
55.450 11.175698
55.455 11.019183
55.460 10.905658
55.465 11.125964
55.470 11.082896
55.475 10.866373
55.480 10.705084
55.485 11.421167
55.490 11.263257
55.495 11.053295
55.500 11.336007
55.505 11.216192
55.510 11.499015
55.515 11.232002
55.520 10.545728
55.525 10.707129
55.530 10.746844
55.535 10.541959
55.540 10.505399
55.545 10.134176
55.550 10.348628
55.555 10.840792
55.560 10.700572
55.565 10.645281
55.570 10.931632
55.575 11.284881
55.580 11.397915
55.585 11.76825
55.590 12.201833
55.595 12.146458
55.600 12.112136
55.605 11.338756
55.610 10.959225
55.615 10.490648
55.620 10.038975
55.625 9.199536
55.630 9.200136
55.635 9.054952
55.640 9.39371
55.645 9.732263
55.650 10.025004
55.655 10.379072
55.660 10.66427
55.665 10.76558
55.670 11.346997
55.675 11.57097
55.680 11.93343
55.685 11.866735
55.690 12.153506
55.695 12.78613
55.700 12.828419
55.705 12.631372
55.710 12.505692
55.715 12.449532
55.720 11.907542
55.725 11.331185
55.730 10.799608
55.735 10.071822
55.740 9.716026
55.745 9.324609
55.750 9.515469
55.755 9.816561
55.760 9.886988
55.765 10.044759
55.770 10.125939
55.775 10.107237
55.780 10.128241
55.785 10.058918
55.790 10.077062
55.795 10.242275
55.800 10.060627
55.805 10.160646
55.810 10.180358
55.815 10.435521
55.820 10.476491
55.825 10.738611
55.830 10.816325
55.835 10.930599
55.840 11.634809
55.845 11.893996
55.850 12.249089
55.855 12.498111
55.860 12.044633
55.865 12.13405
55.870 12.594593
55.875 12.65252
55.880 12.832954
55.885 12.672895
55.890 12.218791
55.895 12.312797
55.900 12.398393
55.905 12.258359
55.910 12.26909
55.915 11.956851
55.920 12.2532
55.925 12.853504
55.930 13.197238
55.935 13.204562
55.940 13.190729
55.945 13.230922
55.950 13.437729
55.955 13.501108
55.960 13.420194
55.965 13.305299
55.970 13.187155
55.975 13.059123
55.980 12.430367
55.985 11.865083
55.990 11.193216
55.995 10.869255
56.000 10.847368
56.005 10.534353
56.010 10.493184
56.015 10.731906
56.020 10.967678
56.025 11.044685
56.030 10.900044
56.035 10.900037
56.040 11.083573
56.045 11.190876
56.050 10.955894
56.055 11.09891
56.060 11.323185
56.065 11.415545
56.070 11.393515
56.075 11.724861
56.080 11.487866
56.085 11.368
56.090 11.275748
56.095 11.206381
56.100 11.078386
56.105 10.861497
56.110 10.466063
56.115 11.108628
56.120 11.513118
56.125 11.513475
56.130 11.715243
56.135 12.335018
56.140 12.855325
56.145 13.060462
56.150 13.053274
56.155 12.746545
56.160 12.485274
56.165 12.144018
56.170 11.759164
56.175 11.229689
56.180 11.204198
56.185 11.314821
56.190 11.635747
56.195 12.350651
56.200 12.518349
56.205 12.67519
56.210 12.48493
56.215 12.036619
56.220 11.827003
56.225 12.018585
56.230 12.472589
56.235 12.918192
56.240 12.883036
56.245 13.434785
56.250 13.340816
56.255 13.479255
56.260 13.50821
56.265 12.888674
56.270 12.566973
56.275 12.116357
56.280 12.196345
56.285 12.581414
56.290 12.745994
56.295 12.856335
56.300 12.574671
56.305 12.683801
56.310 12.917509
56.315 12.49544
56.320 11.886323
56.325 11.470318
56.330 10.675517
56.335 10.607646
56.340 10.696523
56.345 10.920172
56.350 11.089578
56.355 11.735909
56.360 11.852456
56.365 12.116749
56.370 12.466899
56.375 11.561558
56.380 11.578768
56.385 11.732299
56.390 11.30669
56.395 11.412374
56.400 11.35481
56.405 10.962974
56.410 11.499976
56.415 11.631593
56.420 11.285129
56.425 11.463991
56.430 11.647421
56.435 11.695045
56.440 11.524142
56.445 11.539751
56.450 11.323284
56.455 11.940313
56.460 11.611669
56.465 11.278272
56.470 11.209448
56.475 11.501571
56.480 11.76671
56.485 12.251513
56.490 12.136982
56.495 12.071229
56.500 12.076704
56.505 12.08277
56.510 12.057233
56.515 11.779657
56.520 11.692691
56.525 11.550686
56.530 11.442258
56.535 11.093811
56.540 11.165009
56.545 11.097991
56.550 10.638026
56.555 10.218521
56.560 10.108074
56.565 9.902757
56.570 9.863902
56.575 9.842172
56.580 10.27681
56.585 10.417676
56.590 10.672041
56.595 11.473711
56.600 11.654983
56.605 11.84092
56.610 11.75869
56.615 11.953094
56.620 12.31091
56.625 12.279952
56.630 12.171719
56.635 12.726541
56.640 12.74412
56.645 12.729911
56.650 12.499475
56.655 12.423166
56.660 12.186661
56.665 11.863726
56.670 12.022483
56.675 12.14476
56.680 12.136515
56.685 12.07581
56.690 12.027642
56.695 12.510382
56.700 12.484351
56.705 11.988016
56.710 12.095283
56.715 12.184206
56.720 12.423665
56.725 12.723763
56.730 12.458775
56.735 13.219368
56.740 13.678164
56.745 14.128917
56.750 14.111986
56.755 14.060083
56.760 13.867403
56.765 13.10742
56.770 12.272599
56.775 12.121275
56.780 11.920302
56.785 12.202147
56.790 11.60848
56.795 11.993119
56.800 12.94149
56.805 13.56205
56.810 14.045795
56.815 14.198644
56.820 14.307017
56.825 14.739075
56.830 14.677361
56.835 13.997551
56.840 13.81686
56.845 13.269861
56.850 12.790955
56.855 12.530224
56.860 12.341968
56.865 12.463635
56.870 13.400983
56.875 13.083199
56.880 13.020993
56.885 13.33325
56.890 13.385477
56.895 13.245675
56.900 12.90143
56.905 12.546215
56.910 12.618418
56.915 12.455979
56.920 12.14327
56.925 11.975204
56.930 12.197536
56.935 11.989497
56.940 11.700387
56.945 12.034332
56.950 12.633634
56.955 12.824123
56.960 13.277932
56.965 13.047504
56.970 13.393833
56.975 14.094483
56.980 13.839491
56.985 13.41827
56.990 13.182201
56.995 13.111628
57.000 13.142159
57.005 13.586954
57.010 13.57268
57.015 13.56223
57.020 13.775351
57.025 14.216499
57.030 14.027464
57.035 13.74481
57.040 12.789241
57.045 12.266459
57.050 12.657311
57.055 12.548105
57.060 12.286727
57.065 12.730485
57.070 13.321797
57.075 13.684094
57.080 13.818326
57.085 13.46752
57.090 13.49769
57.095 13.266773
57.100 12.9531
57.105 12.933299
57.110 12.486333
57.115 12.165991
57.120 11.804971
57.125 11.932028
57.130 11.876469
57.135 11.480186
57.140 11.496593
57.145 11.856552
57.150 12.684057
57.155 12.826994
57.160 13.248715
57.165 13.808133
57.170 13.503902
57.175 13.523198
57.180 13.309255
57.185 12.971703
57.190 13.371756
57.195 13.221855
57.200 13.232531
57.205 13.621593
57.210 13.78581
57.215 13.898151
57.220 13.969708
57.225 13.629056
57.230 13.057076
57.235 12.732668
57.240 12.355375
57.245 12.260832
57.250 12.403305
57.255 12.354067
57.260 12.528211
57.265 12.686148
57.270 13.282322
57.275 13.849652
57.280 13.45729
57.285 13.373965
57.290 13.37412
57.295 13.19762
57.300 13.417542
57.305 12.948874
57.310 12.501144
57.315 13.361389
57.320 13.34236
57.325 13.615825
57.330 13.976335
57.335 14.308578
57.340 14.951457
57.345 15.326488
57.350 15.001207
57.355 15.110087
57.360 14.856066
57.365 14.73823
57.370 14.699852
57.375 14.219951
57.380 13.667766
57.385 13.63751
57.390 13.47319
57.395 13.538001
57.400 13.034193
57.405 13.253982
57.410 13.539119
57.415 13.841438
57.420 13.561367
57.425 13.171731
57.430 13.030652
57.435 13.087298
57.440 12.938839
57.445 12.930737
57.450 12.807473
57.455 13.161734
57.460 13.643352
57.465 13.806892
57.470 13.754177
57.475 13.495042
57.480 13.278019
57.485 13.487831
57.490 13.595949
57.495 13.53664
57.500 13.55984
57.505 13.483697
57.510 13.349766
57.515 13.553237
57.520 13.307341
57.525 13.209579
57.530 13.424311
57.535 13.337346
57.540 13.663899
57.545 14.138804
57.550 14.083597
57.555 14.437664
57.560 14.850824
57.565 14.81064
57.570 14.332745
57.575 14.258358
57.580 13.77397
57.585 13.563843
57.590 13.31449
57.595 12.818915
57.600 12.758647
57.605 12.693366
57.610 12.794574
57.615 12.698118
57.620 13.068684
57.625 13.327645
57.630 13.425984
57.635 13.409054
57.640 13.576819
57.645 13.482393
57.650 13.87989
57.655 13.922132
57.660 13.943385
57.665 14.344533
57.670 14.270538
57.675 14.251804
57.680 14.063786
57.685 14.211364
57.690 13.948892
57.695 13.569554
57.700 12.794502
57.705 12.969172
57.710 13.194155
57.715 13.114985
57.720 12.84696
57.725 13.068198
57.730 13.184048
57.735 13.569581
57.740 13.598929
57.745 13.504872
57.750 13.561511
57.755 13.289045
57.760 13.593712
57.765 13.83518
57.770 13.791585
57.775 13.90541
57.780 13.870642
57.785 13.717814
57.790 13.542724
57.795 13.506831
57.800 13.782227
57.805 14.018575
57.810 13.765597
57.815 13.989805
57.820 14.413041
57.825 14.970471
57.830 14.180408
57.835 13.959526
57.840 13.670313
57.845 13.779555
57.850 13.894553
57.855 13.523882
57.860 13.365797
57.865 13.814235
57.870 13.518071
57.875 13.466241
57.880 13.661633
57.885 13.346171
57.890 13.829144
57.895 13.677011
57.900 13.89475
57.905 13.904625
57.910 13.438014
57.915 13.697392
57.920 13.646945
57.925 13.529477
57.930 13.691937
57.935 13.104817
57.940 13.412285
57.945 13.437471
57.950 13.133756
57.955 13.022132
57.960 12.974442
57.965 12.851431
57.970 13.211978
57.975 12.894929
57.980 13.068985
57.985 13.273376
57.990 13.425338
57.995 13.933157
58.000 14.464281
58.005 14.979107
58.010 15.396976
58.015 15.669666
58.020 15.672807
58.025 15.557035
58.030 15.086223
58.035 14.600649
58.040 14.202104
58.045 14.004127
58.050 13.56703
58.055 13.469407
58.060 13.214146
58.065 12.738767
58.070 12.689066
58.075 12.880133
58.080 13.37606
58.085 13.355691
58.090 13.380373
58.095 13.848119
58.100 14.155331
58.105 14.399399
58.110 14.467871
58.115 14.026793
58.120 13.873521
58.125 13.787407
58.130 13.726166
58.135 14.05706
58.140 13.895542
58.145 13.517515
58.150 13.590501
58.155 14.205086
58.160 14.616854
58.165 14.51908
58.170 14.322249
58.175 14.591674
58.180 14.809184
58.185 14.645324
58.190 14.397656
58.195 14.435753
58.200 14.423562
58.205 14.190025
58.210 13.819633
58.215 13.910959
58.220 14.263286
58.225 13.976987
58.230 13.447517
58.235 14.047113
58.240 14.407359
58.245 14.901906
58.250 15.450871
58.255 15.998808
58.260 15.979667
58.265 15.827359
58.270 15.19532
58.275 15.375052
58.280 14.827988
58.285 14.105031
58.290 13.350862
58.295 13.848522
58.300 14.243568
58.305 14.702093
58.310 14.678491
58.315 14.553085
58.320 14.316291
58.325 14.333451
58.330 14.072822
58.335 14.226281
58.340 13.81431
58.345 13.786621
58.350 14.026873
58.355 14.381741
58.360 14.475842
58.365 14.491752
58.370 14.194518
58.375 13.469352
58.380 13.166431
58.385 13.120729
58.390 13.63979
58.395 14.142818
58.400 14.421446
58.405 14.856009
58.410 15.626275
58.415 15.873063
58.420 16.27689
58.425 15.706792
58.430 15.386521
58.435 14.860442
58.440 14.607153
58.445 14.447467
58.450 14.097644
58.455 13.782526
58.460 13.898911
58.465 13.873684
58.470 14.020337
58.475 13.750956
58.480 13.773685
58.485 14.528001
58.490 14.824022
58.495 14.590496
58.500 15.075037
58.505 15.29032
58.510 15.527673
58.515 15.903703
58.520 15.293406
58.525 15.238394
58.530 15.456471
58.535 15.676004
58.540 15.875447
58.545 15.862768
58.550 15.308939
58.555 15.246769
58.560 15.232792
58.565 14.98385
58.570 14.596757
58.575 14.590155
58.580 14.833762
58.585 15.168256
58.590 15.145344
58.595 15.003658
58.600 14.911325
58.605 14.950103
58.610 15.105232
58.615 15.234262
58.620 15.39482
58.625 16.052954
58.630 16.423954
58.635 16.655474
58.640 16.72226
58.645 16.076612
58.650 15.934086
58.655 15.936647
58.660 15.615012
58.665 15.430902
58.670 15.44504
58.675 15.145895
58.680 15.075688
58.685 14.589732
58.690 14.303475
58.695 14.347433
58.700 14.335171
58.705 13.584141
58.710 13.703546
58.715 14.239581
58.720 14.518082
58.725 14.59816
58.730 14.651986
58.735 15.176444
58.740 15.663427
58.745 15.701585
58.750 15.685124
58.755 15.930517
58.760 16.302631
58.765 16.407705
58.770 16.050732
58.775 15.866036
58.780 15.947872
58.785 15.971799
58.790 16.000854
58.795 15.819838
58.800 15.46718
58.805 15.17672
58.810 15.550677
58.815 15.514859
58.820 15.558601
58.825 15.488208
58.830 15.175546
58.835 14.646889
58.840 15.060682
58.845 15.1377
58.850 15.084049
58.855 15.038804
58.860 15.143556
58.865 15.593681
58.870 16.16618
58.875 15.747676
58.880 15.239642
58.885 14.911575
58.890 14.553884
58.895 14.191143
58.900 14.052325
58.905 13.756394
58.910 14.113856
58.915 14.410695
58.920 14.569776
58.925 14.871002
58.930 15.402274
58.935 15.300569
58.940 14.894152
58.945 14.915663
58.950 14.973265
58.955 14.962268
58.960 15.050331
58.965 14.642038
58.970 14.794437
58.975 15.533604
58.980 15.934504
58.985 15.953897
58.990 16.040815
58.995 15.992592
59.000 16.116703
59.005 16.405636
59.010 16.429699
59.015 16.151314
59.020 15.991087
59.025 15.920179
59.030 16.524954
59.035 16.941057
59.040 17.063663
59.045 16.746914
59.050 16.378119
59.055 16.296228
59.060 16.350475
59.065 15.487993
59.070 14.96229
59.075 14.594329
59.080 14.751297
59.085 14.732681
59.090 15.048015
59.095 14.629972
59.100 15.030382
59.105 15.189692
59.110 15.70367
59.115 15.641891
59.120 15.669997
59.125 15.985594
59.130 16.295122
59.135 16.128332
59.140 16.305038
59.145 15.725156
59.150 15.509639
59.155 15.662884
59.160 15.368078
59.165 15.745572
59.170 16.694445
59.175 17.23197
59.180 17.689053
59.185 17.805107
59.190 17.616104
59.195 17.527452
59.200 17.314795
59.205 16.274658
59.210 15.251012
59.215 14.59239
59.220 14.951979
59.225 14.931777
59.230 15.088564
59.235 14.821323
59.240 15.317265
59.245 16.462454
59.250 16.409094
59.255 16.3057
59.260 16.522736
59.265 16.620314
59.270 16.5494
59.275 16.141731
59.280 15.672334
59.285 16.009066
59.290 16.027992
59.295 15.847809
59.300 15.907956
59.305 15.943719
59.310 15.536874
59.315 15.690703
59.320 15.948642
59.325 15.75193
59.330 16.361572
59.335 16.70084
59.340 16.862043
59.345 16.968769
59.350 16.879473
59.355 17.218746
59.360 17.722742
59.365 17.20376
59.370 16.876026
59.375 17.339394
59.380 17.493366
59.385 17.319298
59.390 17.296209
59.395 16.885887
59.400 16.981043
59.405 17.19463
59.410 16.926163
59.415 17.001884
59.420 16.965492
59.425 17.215048
59.430 17.552927
59.435 17.693789
59.440 17.748518
59.445 18.408466
59.450 19.348295
59.455 19.574715
59.460 19.240341
59.465 18.971449
59.470 18.959225
59.475 18.798113
59.480 18.363445
59.485 17.972511
59.490 17.878698
59.495 17.561539
59.500 17.780668
59.505 17.636248
59.510 17.732113
59.515 17.023207
59.520 16.345736
59.525 16.010202
59.530 15.861966
59.535 16.006428
59.540 16.249361
59.545 16.411783
59.550 17.043667
59.555 17.629536
59.560 18.20863
59.565 18.419409
59.570 18.060596
59.575 17.782045
59.580 17.714336
59.585 17.390821
59.590 17.340675
59.595 17.460106
59.600 17.774435
59.605 17.721968
59.610 17.839159
59.615 17.775475
59.620 17.880646
59.625 17.489038
59.630 18.111902
59.635 18.42469
59.640 18.723867
59.645 18.724306
59.650 18.90354
59.655 19.433918
59.660 19.32556
59.665 19.143259
59.670 19.630661
59.675 19.735691
59.680 20.308084
59.685 20.594326
59.690 20.67676
59.695 21.22348
59.700 21.002239
59.705 19.579117
59.710 19.370899
59.715 18.832098
59.720 19.110708
59.725 18.995083
59.730 18.58024
59.735 18.399977
59.740 19.215811
59.745 19.359182
59.750 19.738911
59.755 18.620667
59.760 18.55142
59.765 18.832821
59.770 19.938732
59.775 20.566898
59.780 20.713423
59.785 20.368959
59.790 20.711838
59.795 20.991816
59.800 20.771427
59.805 19.986744
59.810 19.534687
59.815 19.589485
59.820 19.784975
59.825 20.096987
59.830 19.969423
59.835 19.827093
59.840 19.588615
59.845 19.576389
59.850 19.994196
59.855 20.344336
59.860 20.335449
59.865 20.162457
59.870 20.365808
59.875 20.770247
59.880 20.915363
59.885 20.517977
59.890 20.282652
59.895 20.187971
59.900 20.280201
59.905 20.295542
59.910 20.008217
59.915 20.283609
59.920 20.431046
59.925 20.845268
59.930 21.23105
59.935 21.097788
59.940 21.661972
59.945 21.868763
59.950 21.860098
59.955 21.493341
59.960 21.337687
59.965 21.745693
59.970 22.476734
59.975 22.146618
59.980 21.861551
59.985 21.510973
59.990 21.558918
59.995 20.973589
60.000 20.578236
60.005 20.452391
60.010 20.585646
60.015 20.767456
60.020 20.643349
60.025 20.956776
60.030 21.132597
60.035 21.581665
60.040 21.79623
60.045 22.312113
60.050 23.098164
60.055 23.540277
60.060 24.033697
60.065 24.357643
60.070 24.266344
60.075 23.777517
60.080 23.483017
60.085 23.596878
60.090 23.270483
60.095 23.1446
60.100 22.858915
60.105 22.227934
60.110 22.213423
60.115 21.763561
60.120 20.854025
60.125 20.938383
60.130 20.366707
60.135 20.18643
60.140 20.303993
60.145 20.147312
60.150 20.100834
60.155 20.08814
60.160 20.21286
60.165 20.706558
60.170 20.975552
60.175 21.201626
60.180 21.84981
60.185 22.038683
60.190 22.163202
60.195 21.972754
60.200 22.206116
60.205 22.629435
60.210 22.203167
60.215 21.897802
60.220 21.652838
60.225 22.164379
60.230 22.295773
60.235 21.89329
60.240 21.890692
60.245 21.884119
60.250 21.136179
60.255 20.806789
60.260 20.625397
60.265 20.275509
60.270 20.489729
60.275 20.605137
60.280 20.226324
60.285 20.661892
60.290 20.887104
60.295 20.296274
60.300 19.893454
60.305 19.492048
60.310 19.309446
60.315 19.820198
60.320 19.896513
60.325 20.445858
60.330 21.12994
60.335 21.4914
60.340 21.040049
60.345 21.725794
60.350 22.07906
60.355 21.990625
60.360 21.830656
60.365 21.345594
60.370 20.972734
60.375 21.123253
60.380 20.032696
60.385 19.62027
60.390 19.091942
60.395 19.107378
60.400 19.482965
60.405 20.010059
60.410 19.995562
60.415 20.338821
60.420 20.720091
60.425 21.26103
60.430 21.35729
60.435 21.062082
60.440 20.45265
60.445 20.549803
60.450 20.726332
60.455 20.963919
60.460 20.88505
60.465 20.198776
60.470 20.089537
60.475 20.442291
60.480 20.169388
60.485 19.476688
60.490 18.952845
60.495 18.594208
60.500 18.471603
60.505 18.199486
60.510 17.810753
60.515 17.481394
60.520 17.454731
60.525 17.389481
60.530 17.421478
60.535 17.418299
60.540 17.605322
60.545 17.76873
60.550 18.358093
60.555 18.583801
60.560 18.394691
60.565 18.273125
60.570 18.489496
60.575 19.306835
60.580 19.374504
60.585 18.711576
60.590 18.838285
60.595 18.745113
60.600 18.622725
60.605 18.41267
60.610 17.686583
60.615 17.906298
60.620 18.269855
60.625 18.235991
60.630 18.499823
60.635 18.819851
60.640 18.924654
60.645 18.933981
60.650 18.631659
60.655 18.691326
60.660 18.413713
60.665 18.397573
60.670 18.347469
60.675 18.584421
60.680 19.019289
60.685 18.827772
60.690 18.670448
60.695 18.923029
60.700 19.007793
60.705 18.951473
60.710 18.578678
60.715 18.285095
60.720 18.528536
60.725 18.332071
60.730 17.815588
60.735 17.847742
60.740 17.760124
60.745 17.806656
60.750 18.255222
60.755 18.325483
60.760 18.728888
60.765 19.604757
60.770 19.538586
60.775 19.753614
60.780 19.100519
60.785 18.568323
60.790 18.007801
60.795 17.674713
60.800 16.9249
60.805 17.020754
60.810 17.246288
60.815 17.477701
60.820 16.984612
60.825 17.361746
60.830 17.837633
60.835 18.207539
60.840 17.526979
60.845 17.772545
60.850 18.443653
60.855 19.454241
60.860 19.702291
60.865 19.692074
60.870 19.409754
60.875 19.58901
60.880 19.187904
60.885 18.686972
60.890 17.937197
60.895 17.576439
60.900 17.204536
60.905 17.325787
60.910 17.36981
60.915 17.358608
60.920 17.562414
60.925 17.974619
60.930 18.105196
60.935 18.020361
60.940 18.05719
60.945 18.247477
60.950 17.627691
60.955 17.179123
60.960 16.47315
60.965 15.936226
60.970 15.979354
60.975 15.852547
60.980 15.604807
60.985 16.178091
60.990 16.554655
60.995 17.403221
61.000 17.529484
61.005 17.20048
61.010 16.923676
61.015 17.193491
61.020 17.313551
61.025 17.253897
61.030 16.734613
61.035 16.975481
61.040 17.222639
61.045 16.729055
61.050 16.568233
61.055 15.886178
61.060 15.574045
61.065 15.350863
61.070 15.079741
61.075 15.429846
61.080 16.148798
61.085 15.84414
61.090 16.015284
61.095 15.996217
61.100 15.910087
61.105 16.388823
61.110 15.732175
61.115 15.251799
61.120 14.923202
61.125 14.490263
61.130 14.677965
61.135 14.700029
61.140 14.176147
61.145 14.441774
61.150 14.566652
61.155 14.844593
61.160 15.351624
61.165 14.920095
61.170 15.024127
61.175 14.935966
61.180 14.893269
61.185 15.126628
61.190 15.137133
61.195 15.608753
61.200 16.244793
61.205 16.405247
61.210 17.022871
61.215 17.417593
61.220 17.250986
61.225 17.514008
61.230 17.697248
61.235 17.407013
61.240 17.314894
61.245 17.168547
61.250 16.884644
61.255 17.732107
61.260 17.886087
61.265 17.696238
61.270 18.039734
61.275 18.030632
61.280 17.589708
61.285 17.195612
61.290 16.964819
61.295 16.427172
61.300 16.671371
61.305 16.6362
61.310 16.802301
61.315 17.164785
61.320 17.472301
61.325 17.142023
61.330 17.039286
61.335 16.190643
61.340 16.292231
61.345 16.082134
61.350 16.324387
61.355 16.318693
61.360 16.114119
61.365 16.655594
61.370 16.977859
61.375 16.459312
61.380 16.242188
61.385 15.611045
61.390 15.677629
61.395 15.728403
61.400 15.351151
61.405 15.646492
61.410 16.009829
61.415 16.133375
61.420 16.56146
61.425 16.132044
61.430 15.76155
61.435 15.29086
61.440 14.964218
61.445 15.257133
61.450 15.559022
61.455 15.257473
61.460 15.480059
61.465 16.052971
61.470 16.911882
61.475 17.293179
61.480 16.541792
61.485 16.267447
61.490 16.109612
61.495 16.262331
61.500 16.208145
61.505 15.896807
61.510 15.461582
61.515 15.963566
61.520 16.162037
61.525 16.136522
61.530 16.56941
61.535 16.250906
61.540 15.905734
61.545 16.325066
61.550 16.70826
61.555 17.069756
61.560 17.340786
61.565 16.871178
61.570 16.687241
61.575 16.845818
61.580 16.49176
61.585 16.529102
61.590 15.85326
61.595 15.196465
61.600 15.181721
61.605 15.282424
61.610 15.797441
61.615 15.506471
61.620 15.413636
61.625 16.128685
61.630 16.348488
61.635 16.494856
61.640 16.526453
61.645 16.376757
61.650 16.301584
61.655 15.800282
61.660 15.332174
61.665 15.495366
61.670 15.696403
61.675 15.886885
61.680 15.436141
61.685 15.532113
61.690 15.062086
61.695 15.157783
61.700 15.603586
61.705 15.488516
61.710 15.566108
61.715 16.248075
61.720 15.986103
61.725 16.056089
61.730 16.321514
61.735 16.645559
61.740 16.193712
61.745 15.764953
61.750 15.412804
61.755 16.688169
61.760 18.055195
61.765 18.289688
61.770 17.418303
61.775 17.493111
61.780 17.596273
61.785 16.755932
61.790 15.768902
61.795 15.227018
61.800 15.056527
61.805 14.938197
61.810 15.661077
61.815 16.287836
61.820 17.687195
61.825 18.198763
61.830 18.057737
61.835 17.918039
61.840 18.334646
61.845 17.997194
61.850 17.682163
61.855 17.915409
61.860 18.36314
61.865 18.110136
61.870 17.927629
61.875 18.418003
61.880 18.845118
61.885 19.281849
61.890 18.878633
61.895 18.426342
61.900 18.402523
61.905 18.599163
61.910 17.926897
61.915 17.484497
61.920 16.806221
61.925 16.182638
61.930 15.996516
61.935 16.54147
61.940 16.652973
61.945 16.595461
61.950 16.685242
61.955 16.815022
61.960 16.914698
61.965 16.302301
61.970 15.501903
61.975 14.827724
61.980 14.972253
61.985 14.697405
61.990 14.766528
61.995 14.908532
62.000 15.240188
62.005 14.951942
62.010 15.23241
62.015 15.244827
62.020 15.470062
62.025 15.259335
62.030 15.372798
62.035 16.236141
62.040 16.525524
62.045 16.413807
62.050 16.217199
62.055 16.412191
62.060 16.85375
62.065 16.50074
62.070 15.926846
62.075 16.142389
62.080 16.326767
62.085 16.425348
62.090 15.960813
62.095 15.178428
62.100 15.086418
62.105 15.305142
62.110 15.432824
62.115 15.580702
62.120 15.909715
62.125 16.737726
62.130 17.016243
62.135 16.821024
62.140 17.325705
62.145 18.113136
62.150 18.11174
62.155 17.647547
62.160 18.018494
62.165 18.73238
62.170 19.177898
62.175 19.558901
62.180 19.708693
62.185 20.082439
62.190 19.753838
62.195 19.028961
62.200 18.09149
62.205 17.614876
62.210 17.091652
62.215 16.699713
62.220 16.46121
62.225 16.611774
62.230 16.983871
62.235 17.685276
62.240 18.194645
62.245 18.115898
62.250 17.980524
62.255 18.447021
62.260 18.228754
62.265 17.37336
62.270 17.054268
62.275 17.111975
62.280 16.839891
62.285 16.690088
62.290 16.325481
62.295 16.531912
62.300 16.643698
62.305 16.381929
62.310 15.818897
62.315 16.070042
62.320 15.890128
62.325 15.577425
62.330 16.197897
62.335 16.752771
62.340 17.563337
62.345 18.214025
62.350 17.693794
62.355 17.580299
62.360 17.61553
62.365 17.147993
62.370 16.828737
62.375 15.938712
62.380 14.849441
62.385 14.322458
62.390 14.322829
62.395 14.269101
62.400 14.07195
62.405 14.12264
62.410 14.817767
62.415 15.9697
62.420 16.860371
62.425 16.933544
62.430 17.034933
62.435 17.003036
62.440 16.925219
62.445 16.468618
62.450 16.025623
62.455 15.87174
62.460 15.815728
62.465 16.337797
62.470 16.87249
62.475 17.485714
62.480 17.850447
62.485 17.623669
62.490 17.698051
62.495 17.662411
62.500 17.187674
62.505 17.106075
62.510 16.713577
62.515 16.215359
62.520 16.602406
62.525 16.542713
62.530 16.60223
62.535 16.740421
62.540 16.635799
62.545 16.938517
62.550 16.527576
62.555 16.267733
62.560 16.246002
62.565 15.702425
62.570 15.522069
62.575 14.960688
62.580 14.528683
62.585 15.439802
62.590 15.733756
62.595 16.010956
62.600 16.503618
62.605 16.732857
62.610 17.071316
62.615 17.472414
62.620 16.995668
62.625 16.988548
62.630 17.208519
62.635 17.843918
62.640 17.866152
62.645 18.478561
62.650 18.538584
62.655 18.267567
62.660 17.395237
62.665 17.235426
62.670 17.437868
62.675 17.37653
62.680 16.661804
62.685 16.656919
62.690 17.038218
62.695 17.295193
62.700 16.835785
62.705 16.269146
62.710 16.267107
62.715 16.170279
62.720 16.05098
62.725 16.295063
62.730 16.909306
62.735 17.494616
62.740 17.428139
62.745 17.469912
62.750 18.395588
62.755 18.334009
62.760 18.245619
62.765 18.118963
62.770 17.917267
62.775 18.324331
62.780 18.434793
62.785 18.012665
62.790 18.516674
62.795 18.572514
62.800 18.230183
62.805 18.13007
62.810 18.001789
62.815 17.848698
62.820 17.517725
62.825 16.890295
62.830 16.904882
62.835 17.219542
62.840 16.917345
62.845 16.595734
62.850 16.604204
62.855 16.672569
62.860 16.912815
62.865 16.686092
62.870 16.714998
62.875 17.06176
62.880 17.454962
62.885 17.015549
62.890 16.717577
62.895 16.521402
62.900 16.588289
62.905 16.429455
62.910 16.013357
62.915 15.28505
62.920 15.46003
62.925 15.386209
62.930 15.133485
62.935 14.801155
62.940 14.981632
62.945 14.724529
62.950 15.136546
62.955 15.073802
62.960 15.163679
62.965 15.152287
62.970 15.370742
62.975 15.284513
62.980 15.500736
62.985 15.918875
62.990 16.331436
62.995 16.463614
63.000 16.513884
63.005 16.281752
63.010 17.294706
63.015 17.413637
63.020 16.964956
63.025 17.566401
63.030 17.897638
63.035 18.698372
63.040 19.195629
63.045 18.510319
63.050 19.054876
63.055 19.135046
63.060 18.803148
63.065 18.326872
63.070 18.006033
63.075 17.797382
63.080 17.548952
63.085 17.000418
63.090 17.184437
63.095 17.000137
63.100 17.412491
63.105 17.394978
63.110 17.824533
63.115 18.288589
63.120 18.781233
63.125 18.259878
63.130 17.850338
63.135 17.760584
63.140 17.813841
63.145 17.068769
63.150 16.736403
63.155 16.527916
63.160 17.17268
63.165 17.593281
63.170 17.646181
63.175 17.592585
63.180 17.989996
63.185 17.449547
63.190 17.561615
63.195 16.922598
63.200 16.707012
63.205 16.484253
63.210 16.50625
63.215 16.564018
63.220 17.001774
63.225 17.094088
63.230 17.150902
63.235 17.324245
63.240 17.258396
63.245 17.243567
63.250 17.027695
63.255 16.909609
63.260 16.886616
63.265 17.468622
63.270 17.373983
63.275 17.560944
63.280 17.539227
63.285 17.873384
63.290 17.818274
63.295 17.90712
63.300 17.950418
63.305 18.294991
63.310 18.275143
63.315 18.183971
63.320 17.975708
63.325 18.094982
63.330 17.934704
63.335 17.667034
63.340 17.542284
63.345 17.40975
63.350 17.688749
63.355 17.633196
63.360 17.468029
63.365 17.422552
63.370 17.51314
63.375 17.427303
63.380 17.449671
63.385 16.766443
63.390 16.384186
63.395 16.697939
63.400 17.06134
63.405 17.020878
63.410 17.22028
63.415 17.050785
63.420 17.407017
63.425 17.84486
63.430 17.628719
63.435 17.094061
63.440 16.743244
63.445 16.955992
63.450 17.321362
63.455 17.465982
63.460 17.400747
63.465 17.695562
63.470 18.140043
63.475 18.181562
63.480 18.505491
63.485 18.669207
63.490 19.1152
63.495 19.616196
63.500 19.275591
63.505 19.351011
63.510 19.490257
63.515 18.674738
63.520 18.161581
63.525 17.201826
63.530 16.449673
63.535 16.439186
63.540 16.716969
63.545 16.838211
63.550 16.732187
63.555 16.650654
63.560 16.624258
63.565 16.795006
63.570 16.224907
63.575 15.964324
63.580 16.169991
63.585 16.397379
63.590 16.531054
63.595 16.250019
63.600 15.75533
63.605 16.064131
63.610 15.726901
63.615 15.482828
63.620 15.153106
63.625 15.221178
63.630 15.908674
63.635 16.584974
63.640 16.705708
63.645 16.710995
63.650 16.703135
63.655 16.81428
63.660 17.258162
63.665 17.793154
63.670 18.257545
63.675 18.633205
63.680 18.575033
63.685 18.896057
63.690 19.358646
63.695 19.134169
63.700 18.944691
63.705 18.611952
63.710 18.504677
63.715 18.370701
63.720 18.16363
63.725 17.817621
63.730 17.836569
63.735 18.177856
63.740 18.237675
63.745 18.070795
63.750 18.465685
63.755 18.31604
63.760 18.757326
63.765 18.403135
63.770 17.685432
63.775 17.721849
63.780 17.909769
63.785 17.652773
63.790 17.273689
63.795 16.991064
63.800 17.160347
63.805 17.124804
63.810 16.455826
63.815 16.558016
63.820 16.535883
63.825 17.276754
63.830 17.333151
63.835 17.254145
63.840 17.543285
63.845 18.495678
63.850 18.101215
63.855 18.484959
63.860 18.238916
63.865 18.002037
63.870 18.198917
63.875 18.246943
63.880 18.040491
63.885 19.003485
63.890 18.749544
63.895 18.652081
63.900 18.612635
63.905 18.080036
63.910 17.510969
63.915 17.320021
63.920 16.103157
63.925 15.849764
63.930 16.021221
63.935 16.342695
63.940 16.778627
63.945 16.519979
63.950 16.578348
63.955 17.009222
63.960 16.926521
63.965 17.361691
63.970 17.429918
63.975 17.282995
63.980 17.373781
63.985 17.63835
63.990 17.894827
63.995 18.058079
64.000 17.402411
64.005 17.315458
64.010 17.543081
64.015 18.222363
64.020 18.584171
64.025 19.322624
64.030 19.216194
64.035 19.382885
64.040 18.850489
64.045 18.900595
64.050 19.194986
64.055 18.275465
64.060 17.64468
64.065 17.85619
64.070 18.208637
64.075 18.895185
64.080 18.853085
64.085 18.595531
64.090 19.009886
64.095 18.377731
64.100 18.255087
64.105 18.276537
64.110 17.920343
64.115 18.297148
64.120 18.425121
64.125 18.261824
64.130 18.61911
64.135 18.865324
64.140 18.847029
64.145 19.207716
64.150 18.663534
64.155 18.149529
64.160 18.375299
64.165 18.755598
64.170 18.972731
64.175 18.655497
64.180 18.371332
64.185 18.309591
64.190 18.40209
64.195 17.704607
64.200 16.877289
64.205 16.778889
64.210 17.098885
64.215 16.980474
64.220 17.194136
64.225 17.73683
64.230 18.360882
64.235 18.694336
64.240 18.968849
64.245 18.685236
64.250 18.605185
64.255 18.173111
64.260 17.989677
64.265 18.049282
64.270 17.962749
64.275 17.67083
64.280 17.769312
64.285 17.270744
64.290 17.722
64.295 17.540243
64.300 16.762814
64.305 16.577847
64.310 16.838902
64.315 17.024746
64.320 17.88789
64.325 17.439487
64.330 17.131004
64.335 17.711246
64.340 18.034733
64.345 18.32308
64.350 18.465082
64.355 18.510666
64.360 18.732374
64.365 18.997015
64.370 18.914806
64.375 19.055298
64.380 18.567299
64.385 18.482941
64.390 18.051519
64.395 17.894773
64.400 17.851522
64.405 17.834608
64.410 17.541897
64.415 17.255337
64.420 17.075178
64.425 17.457958
64.430 17.936266
64.435 18.24744
64.440 18.602327
64.445 18.852484
64.450 19.271231
64.455 19.456566
64.460 19.394865
64.465 18.915709
64.470 19.145529
64.475 19.079794
64.480 18.841351
64.485 18.575815
64.490 19.440802
64.495 19.164101
64.500 19.055622
64.505 18.771307
64.510 18.388527
64.515 18.170973
64.520 17.729544
64.525 16.838745
64.530 16.481359
64.535 16.519644
64.540 16.087532
64.545 16.34409
64.550 16.333637
64.555 16.654734
64.560 16.818659
64.565 17.534422
64.570 17.738024
64.575 18.0966
64.580 18.170134
64.585 18.243267
64.590 18.486273
64.595 18.722126
64.600 18.01836
64.605 17.685404
64.610 17.668688
64.615 17.817192
64.620 18.032494
64.625 17.330303
64.630 17.161127
64.635 18.012762
64.640 18.841568
64.645 19.05134
64.650 18.733305
64.655 18.736773
64.660 19.294125
64.665 19.085295
64.670 18.859602
64.675 18.048267
64.680 17.905828
64.685 18.393559
64.690 18.174406
64.695 18.090065
64.700 18.504671
64.705 18.42486
64.710 18.50592
64.715 18.672697
64.720 17.949739
64.725 18.548124
64.730 19.100588
64.735 18.782721
64.740 18.724995
64.745 18.468914
64.750 18.835239
64.755 19.646908
64.760 19.280628
64.765 19.39817
64.770 20.066893
64.775 20.453184
64.780 21.134254
64.785 21.337063
64.790 21.650715
64.795 21.860992
64.800 21.885269
64.805 21.707663
64.810 21.304171
64.815 20.910301
64.820 20.349585
64.825 20.275253
64.830 20.401499
64.835 20.126818
64.840 20.237183
64.845 20.684803
64.850 21.425238
64.855 22.153791
64.860 21.751339
64.865 21.357983
64.870 21.293139
64.875 21.664732
64.880 21.939091
64.885 21.792894
64.890 21.297283
64.895 21.145321
64.900 21.190571
64.905 21.059355
64.910 20.891808
64.915 20.897581
64.920 20.884909
64.925 20.983166
64.930 20.880926
64.935 20.720802
64.940 21.106634
64.945 20.736109
64.950 20.406536
64.955 19.92079
64.960 19.818901
64.965 19.981977
64.970 20.088259
64.975 20.19289
64.980 19.982777
64.985 20.047686
64.990 20.534782
64.995 20.450203
65.000 20.469866
65.005 20.876045
65.010 20.641386
65.015 20.708601
65.020 21.232994
65.025 21.269867
65.030 21.762623
65.035 21.90626
65.040 21.28965
65.045 21.462034
65.050 22.074862
65.055 22.009212
65.060 21.943106
65.065 21.906803
65.070 21.904703
65.075 22.210876
65.080 22.55954
65.085 22.690626
65.090 22.668686
65.095 23.251732
65.100 23.181498
65.105 23.313576
65.110 23.079004
65.115 22.870161
65.120 22.185196
65.125 22.205364
65.130 21.887913
65.135 21.900621
65.140 22.205332
65.145 22.023653
65.150 22.054293
65.155 22.180782
65.160 22.429777
65.165 22.690367
65.170 23.070526
65.175 23.114141
65.180 23.520809
65.185 23.799343
65.190 23.773502
65.195 23.619974
65.200 23.474627
65.205 23.408165
65.210 23.305811
65.215 23.054913
65.220 22.806774
65.225 23.016495
65.230 22.939384
65.235 23.406399
65.240 23.232656
65.245 22.688286
65.250 22.172863
65.255 22.290375
65.260 22.076435
65.265 21.912193
65.270 21.792574
65.275 22.045618
65.280 22.554329
65.285 23.083126
65.290 23.043562
65.295 23.026064
65.300 22.833952
65.305 22.378307
65.310 22.277388
65.315 22.626051
65.320 22.725317
65.325 22.812092
65.330 23.105864
65.335 23.209255
65.340 23.784405
65.345 24.232738
65.350 24.334562
65.355 24.767504
65.360 24.869083
65.365 24.885359
65.370 24.576252
65.375 23.641493
65.380 22.945692
65.385 22.833994
65.390 22.702106
65.395 22.822359
65.400 22.84115
65.405 23.317059
65.410 23.442831
65.415 24.11278
65.420 24.602201
65.425 24.258181
65.430 24.024626
65.435 23.903856
65.440 23.694298
65.445 24.540155
65.450 24.298824
65.455 23.792328
65.460 24.127148
65.465 24.204117
65.470 23.856541
65.475 23.63069
65.480 23.752331
65.485 23.947403
65.490 24.01178
65.495 24.368189
65.500 24.941305
65.505 25.669016
65.510 26.514849
65.515 26.172573
65.520 25.836933
65.525 25.47715
65.530 25.014053
65.535 25.174278
65.540 24.859102
65.545 24.787043
65.550 24.936544
65.555 25.457962
65.560 26.019938
65.565 26.333799
65.570 26.778559
65.575 27.363361
65.580 27.678864
65.585 28.056431
65.590 28.689625
65.595 29.42514
65.600 29.532459
65.605 29.325396
65.610 28.871878
65.615 28.874674
65.620 28.720608
65.625 28.850327
65.630 28.892374
65.635 28.919498
65.640 28.695261
65.645 28.784445
65.650 29.508125
65.655 29.870611
65.660 29.889271
65.665 30.5329
65.670 31.248552
65.675 31.398308
65.680 32.302006
65.685 32.00045
65.690 32.183342
65.695 32.845047
65.700 33.102432
65.705 33.24744
65.710 33.417175
65.715 33.349094
65.720 33.630714
65.725 33.753613
65.730 33.247757
65.735 32.452038
65.740 32.271046
65.745 32.332855
65.750 32.313374
65.755 32.947468
65.760 32.947018
65.765 33.582253
65.770 34.3241
65.775 35.097366
65.780 35.617535
65.785 36.463997
65.790 36.571819
65.795 36.835285
65.800 36.331398
65.805 36.138546
65.810 35.45052
65.815 35.909157
65.820 36.092522
65.825 37.158104
65.830 38.280685
65.835 38.570656
65.840 39.147999
65.845 39.499046
65.850 39.23904
65.855 38.976257
65.860 38.096886
65.865 37.09642
65.870 36.961864
65.875 37.704472
65.880 38.96814
65.885 38.675121
65.890 38.732574
65.895 39.292912
65.900 39.445728
65.905 39.32505
65.910 38.064541
65.915 37.051025
65.920 37.422112
65.925 37.125477
65.930 37.366917
65.935 37.805649
65.940 38.658955
65.945 39.081276
65.950 39.265446
65.955 39.419418
65.960 39.888489
65.965 39.969391
65.970 39.840736
65.975 39.150948
65.980 39.296902
65.985 39.684708
65.990 39.935425
65.995 39.452068
66.000 38.905785
66.005 38.925186
66.010 39.617004
66.015 39.820408
66.020 39.673279
66.025 39.60408
66.030 39.233845
66.035 39.842899
66.040 40.426575
66.045 40.213032
66.050 39.529438
66.055 39.416256
66.060 39.858162
66.065 40.099834
66.070 39.580219
66.075 39.330292
66.080 39.559292
66.085 40.237843
66.090 40.530975
66.095 40.01646
66.100 40.473526
66.105 39.842106
66.110 38.858051
66.115 37.764053
66.120 36.827816
66.125 36.533607
66.130 36.663189
66.135 36.523499
66.140 37.125572
66.145 37.638767
66.150 38.882919
66.155 39.148178
66.160 38.694859
66.165 38.451935
66.170 38.535858
66.175 38.721889
66.180 37.933655
66.185 37.93911
66.190 38.367069
66.195 38.665314
66.200 38.331364
66.205 37.601364
66.210 36.979935
66.215 37.079422
66.220 36.751804
66.225 36.4772
66.230 35.992359
66.235 35.955502
66.240 36.626728
66.245 36.568722
66.250 36.345551
66.255 35.413208
66.260 34.985748
66.265 35.161968
66.270 34.473274
66.275 33.35228
66.280 33.461792
66.285 33.921631
66.290 34.136124
66.295 33.318172
66.300 32.784184
66.305 32.767406
66.310 32.862682
66.315 32.541134
66.320 32.117371
66.325 32.191887
66.330 32.859623
66.335 33.358803
66.340 34.009686
66.345 34.284218
66.350 34.807335
66.355 35.03373
66.360 34.926304
66.365 34.52446
66.370 34.539635
66.375 33.831505
66.380 32.920582
66.385 31.794958
66.390 30.867481
66.395 31.34305
66.400 31.693724
66.405 31.655865
66.410 31.354429
66.415 30.992355
66.420 30.595524
66.425 30.821493
66.430 30.320187
66.435 29.703466
66.440 29.492657
66.445 29.814821
66.450 30.245115
66.455 30.117836
66.460 29.607466
66.465 29.17808
66.470 29.054018
66.475 28.517704
66.480 29.210888
66.485 29.446747
66.490 29.775431
66.495 29.46633
66.500 29.001677
66.505 29.401625
66.510 29.464806
66.515 27.733124
66.520 27.394592
66.525 27.413166
66.530 27.880646
66.535 27.971581
66.540 27.74692
66.545 27.257877
66.550 26.892855
66.555 27.030338
66.560 26.710934
66.565 26.063166
66.570 26.479513
66.575 26.345196
66.580 26.447491
66.585 26.437241
66.590 26.058451
66.595 25.931021
66.600 25.877617
66.605 25.747335
66.610 25.352211
66.615 25.408873
66.620 25.879148
66.625 26.236084
66.630 26.120668
66.635 26.295662
66.640 25.262939
66.645 24.955698
66.650 24.718428
66.655 24.582855
66.660 24.429983
66.665 23.466967
66.670 22.82251
66.675 22.772402
66.680 22.613035
66.685 22.238117
66.690 22.116009
66.695 21.917542
66.700 22.946041
66.705 23.246483
66.710 23.700417
66.715 23.826374
66.720 23.973301
66.725 23.545893
66.730 23.057245
66.735 22.820799
66.740 22.891163
66.745 22.788752
66.750 23.082829
66.755 23.555368
66.760 23.691273
66.765 24.093851
66.770 24.433565
66.775 24.644135
66.780 25.035637
66.785 24.983307
66.790 23.933691
66.795 23.60705
66.800 23.137318
66.805 22.933371
66.810 22.686872
66.815 22.594379
66.820 22.35523
66.825 22.387037
66.830 22.341461
66.835 22.558481
66.840 22.425783
66.845 22.439295
66.850 22.59639
66.855 22.548317
66.860 22.982578
66.865 23.043337
66.870 22.913296
66.875 22.812128
66.880 22.68755
66.885 22.585478
66.890 22.041773
66.895 21.851185
66.900 21.590752
66.905 21.547672
66.910 21.548479
66.915 21.762945
66.920 21.742893
66.925 22.295395
66.930 22.299637
66.935 22.030613
66.940 22.190046
66.945 22.636021
66.950 22.242878
66.955 22.283438
66.960 21.86282
66.965 21.547836
66.970 22.735991
66.975 21.77607
66.980 21.39567
66.985 21.209215
66.990 21.604027
66.995 22.304316
67.000 22.794559
67.005 22.542925
67.010 23.759176
67.015 24.158888
67.020 23.977636
67.025 24.171972
67.030 23.630533
67.035 23.512323
67.040 23.17308
67.045 21.89646
67.050 21.172361
67.055 21.008799
67.060 20.104681
67.065 19.94762
67.070 19.996462
67.075 21.194588
67.080 22.727753
67.085 23.303875
67.090 23.597166
67.095 23.896585
67.100 23.974012
67.105 23.438322
67.110 22.693741
67.115 22.45326
67.120 22.548771
67.125 22.57774
67.130 22.852997
67.135 23.089361
67.140 23.128056
67.145 22.231863
67.150 21.500858
67.155 21.270618
67.160 20.885227
67.165 20.480076
67.170 20.10647
67.175 20.47965
67.180 20.501286
67.185 20.775366
67.190 20.802578
67.195 20.77462
67.200 20.853916
67.205 20.95886
67.210 20.490368
67.215 20.616655
67.220 20.491741
67.225 20.617327
67.230 20.502558
67.235 20.615561
67.240 20.762718
67.245 21.419954
67.250 21.683491
67.255 21.878349
67.260 21.429241
67.265 21.554281
67.270 21.611242
67.275 21.615551
67.280 20.88138
67.285 20.873247
67.290 21.12104
67.295 21.4772
67.300 22.111763
67.305 22.24033
67.310 22.1394
67.315 22.394316
67.320 21.846399
67.325 21.178581
67.330 21.026033
67.335 20.323389
67.340 20.110342
67.345 20.430555
67.350 19.947817
67.355 20.246407
67.360 20.542368
67.365 20.923599
67.370 21.034979
67.375 21.293295
67.380 21.420559
67.385 21.987423
67.390 22.042177
67.395 21.942818
67.400 21.640438
67.405 21.846546
67.410 21.312874
67.415 21.460083
67.420 21.56904
67.425 21.12874
67.430 21.029312
67.435 20.598507
67.440 20.700611
67.445 21.079124
67.450 20.72917
67.455 20.897976
67.460 20.876976
67.465 20.878925
67.470 21.019663
67.475 20.411865
67.480 20.029305
67.485 19.874775
67.490 19.580412
67.495 19.546289
67.500 19.629684
67.505 19.809942
67.510 20.133837
67.515 19.958612
67.520 19.659817
67.525 19.971027
67.530 20.435221
67.535 20.241482
67.540 20.546246
67.545 21.145355
67.550 21.975645
67.555 22.452965
67.560 22.505648
67.565 22.634888
67.570 23.017729
67.575 22.765924
67.580 21.810614
67.585 21.235676
67.590 20.737825
67.595 20.075737
67.600 20.217012
67.605 20.265032
67.610 20.163298
67.615 20.624292
67.620 21.301327
67.625 21.453325
67.630 21.094105
67.635 20.873747
67.640 20.608639
67.645 20.728289
67.650 20.462654
67.655 19.942856
67.660 19.988491
67.665 20.054783
67.670 19.566465
67.675 19.502535
67.680 18.939764
67.685 18.95129
67.690 18.966518
67.695 18.923986
67.700 19.74975
67.705 20.259106
67.710 20.383659
67.715 20.943537
67.720 20.974588
67.725 21.090673
67.730 21.078232
67.735 20.669481
67.740 20.43026
67.745 20.714039
67.750 20.376505
67.755 19.82897
67.760 19.911001
67.765 20.241009
67.770 20.315184
67.775 20.370411
67.780 20.627148
67.785 21.218239
67.790 21.767223
67.795 21.832228
67.800 22.336588
67.805 22.473591
67.810 22.529211
67.815 22.582996
67.820 22.303478
67.825 22.293528
67.830 21.934429
67.835 21.325495
67.840 21.221056
67.845 20.712782
67.850 20.67206
67.855 21.011965
67.860 21.065117
67.865 21.151655
67.870 20.871864
67.875 20.842829
67.880 20.898956
67.885 20.072775
67.890 20.33481
67.895 20.464725
67.900 20.512583
67.905 20.5686
67.910 20.325888
67.915 20.729572
67.920 21.059011
67.925 20.505518
67.930 20.12002
67.935 20.083055
67.940 20.057014
67.945 20.492966
67.950 20.596876
67.955 20.444065
67.960 20.674078
67.965 20.690607
67.970 20.410357
67.975 20.467957
67.980 20.555269
67.985 20.686295
67.990 21.026085
67.995 20.66399
68.000 21.086826
68.005 21.655048
68.010 21.691605
68.015 21.109404
68.020 20.85693
68.025 20.826387
68.030 21.020281
68.035 21.172558
68.040 21.227472
68.045 21.411354
68.050 21.572769
68.055 21.855352
68.060 21.627434
68.065 21.59016
68.070 21.319386
68.075 20.434706
68.080 20.039972
68.085 19.776785
68.090 19.337599
68.095 19.766544
68.100 19.984745
68.105 19.971323
68.110 20.884706
68.115 20.65765
68.120 20.640581
68.125 20.437853
68.130 20.320887
68.135 20.454006
68.140 20.650908
68.145 20.633781
68.150 21.123104
68.155 20.604988
68.160 20.715614
68.165 20.324409
68.170 20.243307
68.175 19.946642
68.180 19.907623
68.185 20.158903
68.190 20.731272
68.195 20.30987
68.200 19.765804
68.205 19.119061
68.210 18.913713
68.215 18.803221
68.220 19.048323
68.225 19.381824
68.230 19.810276
68.235 20.424122
68.240 20.573448
68.245 21.139418
68.250 21.26148
68.255 20.749922
68.260 20.534472
68.265 20.617477
68.270 20.754271
68.275 21.261608
68.280 21.241556
68.285 21.215548
68.290 21.078539
68.295 21.072454
68.300 20.786901
68.305 21.200075
68.310 21.186926
68.315 20.924568
68.320 20.742992
68.325 20.913021
68.330 20.980558
68.335 21.542242
68.340 21.205809
68.345 21.363651
68.350 21.254147
68.355 21.725401
68.360 21.489174
68.365 20.447807
68.370 19.795448
68.375 19.570616
68.380 19.200109
68.385 19.37941
68.390 19.563887
68.395 20.390261
68.400 20.853973
68.405 21.237417
68.410 21.075079
68.415 21.20635
68.420 21.067505
68.425 20.106657
68.430 19.393961
68.435 18.888727
68.440 18.630348
68.445 18.322474
68.450 18.179415
68.455 18.300882
68.460 18.574705
68.465 19.16255
68.470 19.319654
68.475 19.091156
68.480 19.137732
68.485 18.981491
68.490 19.255859
68.495 19.420439
68.500 19.272348
68.505 19.594183
68.510 19.584629
68.515 19.74345
68.520 19.772463
68.525 19.414162
68.530 19.388285
68.535 18.930929
68.540 18.819942
68.545 18.721371
68.550 18.479115
68.555 18.571095
68.560 19.585743
68.565 20.150604
68.570 20.828382
68.575 21.368576
68.580 21.924904
68.585 22.341911
68.590 22.589563
68.595 21.958885
68.600 21.703089
68.605 21.478971
68.610 21.032982
68.615 21.536652
68.620 21.595005
68.625 21.533016
68.630 21.485994
68.635 21.605635
68.640 21.498228
68.645 21.296503
68.650 21.325714
68.655 21.004761
68.660 20.681194
68.665 20.364262
68.670 20.547937
68.675 20.823853
68.680 21.018242
68.685 20.445091
68.690 20.253145
68.695 20.571486
68.700 21.040489
68.705 21.075251
68.710 21.152172
68.715 20.87751
68.720 21.130745
68.725 21.471272
68.730 20.672379
68.735 19.984961
68.740 19.548151
68.745 19.48789
68.750 19.588934
68.755 19.542173
68.760 19.562603
68.765 20.416731
68.770 20.847822
68.775 21.213778
68.780 21.915955
68.785 22.051594
68.790 22.322731
68.795 22.291859
68.800 21.682743
68.805 21.732397
68.810 21.650723
68.815 21.574696
68.820 21.523119
68.825 20.799267
68.830 21.053192
68.835 21.368
68.840 20.809906
68.845 20.775902
68.850 20.892166
68.855 21.37779
68.860 22.281309
68.865 22.707184
68.870 23.338688
68.875 23.328739
68.880 23.107746
68.885 22.757429
68.890 22.378542
68.895 22.614988
68.900 22.349087
68.905 22.02743
68.910 22.120653
68.915 21.731985
68.920 21.662811
68.925 21.15634
68.930 20.610754
68.935 21.470741
68.940 22.144251
68.945 22.419117
68.950 23.00771
68.955 23.360247
68.960 23.605145
68.965 23.386709
68.970 22.565592
68.975 22.690887
68.980 22.721806
68.985 22.430664
68.990 22.231876
68.995 22.581903
69.000 23.207996
69.005 23.455406
69.010 23.214924
69.015 23.653
69.020 23.712076
69.025 23.850132
69.030 23.419622
69.035 22.991028
69.040 22.702871
69.045 22.223091
69.050 22.563387
69.055 23.335976
69.060 23.625589
69.065 23.903246
69.070 23.775904
69.075 24.413216
69.080 24.519085
69.085 24.048672
69.090 24.710003
69.095 24.869673
69.100 25.636482
69.105 26.122833
69.110 26.256742
69.115 26.662237
69.120 26.612652
69.125 25.780172
69.130 26.010401
69.135 26.17416
69.140 26.35598
69.145 26.491968
69.150 26.423822
69.155 26.453724
69.160 26.535433
69.165 26.250462
69.170 25.541082
69.175 25.941553
69.180 25.830772
69.185 25.997017
69.190 25.769087
69.195 26.046865
69.200 25.820543
69.205 25.700089
69.210 25.060402
69.215 25.541304
69.220 25.738926
69.225 25.948092
69.230 25.338099
69.235 25.650154
69.240 26.700895
69.245 27.306107
69.250 27.130535
69.255 27.949999
69.260 28.772121
69.265 29.495781
69.270 29.525682
69.275 28.281855
69.280 27.772406
69.285 27.922396
69.290 27.340063
69.295 27.393742
69.300 27.28546
69.305 27.565645
69.310 28.25305
69.315 28.004217
69.320 28.154873
69.325 27.11577
69.330 26.39473
69.335 26.632067
69.340 26.004194
69.345 26.063446
69.350 26.560217
69.355 27.271502
69.360 28.014511
69.365 28.466206
69.370 28.241434
69.375 28.031988
69.380 27.733042
69.385 28.028915
69.390 27.606319
69.395 27.651691
69.400 27.812395
69.405 28.287725
69.410 29.151869
69.415 29.116447
69.420 28.084547
69.425 28.317659
69.430 28.391392
69.435 28.695213
69.440 29.203947
69.445 29.630768
69.450 30.359882
69.455 30.860271
69.460 30.28928
69.465 29.478588
69.470 29.040638
69.475 29.446127
69.480 29.294512
69.485 28.886877
69.490 28.802378
69.495 29.113255
69.500 29.2917
69.505 29.675241
69.510 29.373171
69.515 29.362579
69.520 30.574238
69.525 31.560196
69.530 31.638784
69.535 32.048058
69.540 31.430626
69.545 31.105858
69.550 31.23035
69.555 30.514812
69.560 29.886669
69.565 29.485092
69.570 29.674246
69.575 29.529501
69.580 29.127583
69.585 28.608101
69.590 28.348583
69.595 28.588938
69.600 28.432997
69.605 28.223604
69.610 28.073238
69.615 27.99419
69.620 28.644636
69.625 29.117388
69.630 29.332399
69.635 30.225611
69.640 30.272957
69.645 30.659414
69.650 30.282728
69.655 29.614088
69.660 29.730661
69.665 29.551411
69.670 29.757874
69.675 29.580994
69.680 30.031218
69.685 30.379026
69.690 29.684038
69.695 29.711466
69.700 30.255812
69.705 29.975346
69.710 29.239138
69.715 28.657921
69.720 28.512081
69.725 28.373102
69.730 27.761532
69.735 27.297054
69.740 27.139999
69.745 27.513674
69.750 27.379059
69.755 27.427425
69.760 27.288361
69.765 26.640909
69.770 25.920692
69.775 25.294189
69.780 25.406897
69.785 25.757431
69.790 26.101557
69.795 26.080215
69.800 26.142113
69.805 26.167128
69.810 26.411749
69.815 26.297337
69.820 26.070189
69.825 25.678719
69.830 26.012318
69.835 26.025835
69.840 25.590376
69.845 25.095572
69.850 25.089825
69.855 25.087364
69.860 24.684124
69.865 24.246771
69.870 23.80047
69.875 24.03561
69.880 24.392
69.885 24.527212
69.890 24.540394
69.895 25.023668
69.900 24.596954
69.905 24.644335
69.910 24.579004
69.915 23.759327
69.920 23.277536
69.925 23.099771
69.930 22.967394
69.935 23.49456
69.940 23.597481
69.945 23.116255
69.950 23.05274
69.955 22.92382
69.960 22.234177
69.965 22.161917
69.970 21.11911
69.975 21.235289
69.980 21.622313
69.985 21.588173
69.990 21.347788
69.995 21.450583
70.000 21.87005
70.005 22.636175
70.010 22.176338
70.015 22.21298
70.020 22.415375
70.025 22.746172
70.030 22.600395
70.035 22.605085
70.040 22.033154
70.045 22.287781
70.050 21.838539
70.055 21.343058
70.060 21.011208
70.065 20.614946
70.070 19.979116
70.075 20.116543
70.080 20.202175
70.085 20.494671
70.090 20.677237
70.095 20.625679
70.100 20.589645
70.105 21.036301
70.110 21.502516
70.115 21.711422
70.120 21.69039
70.125 21.646975
70.130 21.84614
70.135 21.452547
70.140 20.889957
70.145 20.829121
70.150 20.46933
70.155 20.365202
70.160 20.110823
70.165 19.252604
70.170 19.241039
70.175 18.481535
70.180 17.593237
70.185 18.023186
70.190 18.049099
70.195 18.755793
70.200 19.352032
70.205 19.857149
70.210 20.445608
70.215 20.521429
70.220 19.972229
70.225 19.414028
70.230 19.23963
70.235 18.976601
70.240 18.168434
70.245 17.829641
70.250 18.443132
70.255 19.04298
70.260 19.280197
70.265 19.695217
70.270 20.102015
70.275 20.720825
70.280 20.971058
70.285 20.940285
70.290 20.85079
70.295 20.438747
70.300 20.288837
70.305 19.658188
70.310 19.651003
70.315 19.529202
70.320 19.25531
70.325 18.933491
70.330 18.845411
70.335 18.190971
70.340 18.949591
70.345 18.855196
70.350 19.363661
70.355 19.394075
70.360 20.013468
70.365 20.320057
70.370 20.621086
70.375 20.240627
70.380 19.669851
70.385 19.508877
70.390 20.005222
70.395 19.971399
70.400 20.491739
70.405 20.698799
70.410 21.035156
70.415 21.096485
70.420 20.871334
70.425 20.21245
70.430 19.892235
70.435 19.29735
70.440 18.952757
70.445 18.27626
70.450 18.468094
70.455 18.284639
70.460 18.065065
70.465 18.142145
70.470 18.558054
70.475 19.472073
70.480 20.033619
70.485 20.087862
70.490 19.894861
70.495 20.054846
70.500 20.24305
70.505 20.205753
70.510 19.520832
70.515 19.832287
70.520 19.78978
70.525 19.932775
70.530 20.208998
70.535 20.224539
70.540 20.482141
70.545 20.490099
70.550 19.967859
70.555 20.457098
70.560 21.156208
70.565 20.830797
70.570 20.864632
70.575 20.225384
70.580 20.512871
70.585 20.740343
70.590 20.343853
70.595 19.574343
70.600 19.632517
70.605 19.631962
70.610 19.965157
70.615 20.012358
70.620 19.690718
70.625 20.077093
70.630 20.243587
70.635 20.52964
70.640 20.652044
70.645 20.7288
70.650 20.338629
70.655 20.082905
70.660 19.911467
70.665 19.435598
70.670 18.917374
70.675 19.426676
70.680 19.499102
70.685 19.454933
70.690 19.603819
70.695 19.670326
70.700 20.376873
70.705 20.501072
70.710 19.692327
70.715 19.687174
70.720 19.808681
70.725 19.73324
70.730 19.624792
70.735 19.111547
70.740 18.662682
70.745 18.382532
70.750 18.576241
70.755 18.877428
70.760 18.993895
70.765 18.601509
70.770 18.788673
70.775 18.978661
70.780 19.000267
70.785 18.317556
70.790 18.109367
70.795 18.118073
70.800 18.051342
70.805 17.922937
70.810 17.615755
70.815 17.788116
70.820 17.489456
70.825 17.157761
70.830 17.239784
70.835 17.387531
70.840 17.353455
70.845 17.617929
70.850 17.850197
70.855 18.574335
70.860 19.413593
70.865 19.532164
70.870 19.720503
70.875 20.388094
70.880 20.374092
70.885 20.446451
70.890 20.271973
70.895 19.972538
70.900 20.036785
70.905 20.04225
70.910 20.127071
70.915 19.920935
70.920 19.559586
70.925 19.052706
70.930 18.611359
70.935 18.789007
70.940 18.275339
70.945 18.192297
70.950 18.537064
70.955 19.195288
70.960 19.208866
70.965 19.404013
70.970 19.399916
70.975 19.375336
70.980 19.118744
70.985 18.930241
70.990 18.780413
70.995 18.970318
71.000 19.164858
71.005 18.991898
71.010 18.804073
71.015 19.003345
71.020 18.978746
71.025 18.204075
71.030 17.969515
71.035 17.306316
71.040 17.318121
71.045 16.910109
71.050 16.802122
71.055 17.185995
71.060 17.816471
71.065 17.676208
71.070 18.302866
71.075 18.76289
71.080 19.436213
71.085 19.317104
71.090 19.184139
71.095 18.958
71.100 18.625851
71.105 18.521698
71.110 18.122786
71.115 18.098139
71.120 17.974062
71.125 17.796364
71.130 18.054811
71.135 18.252417
71.140 18.104853
71.145 17.842619
71.150 17.945724
71.155 17.947243
71.160 18.81208
71.165 18.686357
71.170 18.938749
71.175 18.976713
71.180 18.420961
71.185 18.65066
71.190 18.64255
71.195 18.727734
71.200 19.133268
71.205 19.291893
71.210 20.38134
71.215 20.890274
71.220 20.472055
71.225 19.835079
71.230 19.058207
71.235 19.008217
71.240 18.405458
71.245 17.821943
71.250 18.05673
71.255 18.629923
71.260 18.84836
71.265 20.040758
71.270 20.109739
71.275 20.735996
71.280 21.017742
71.285 20.624926
71.290 20.493944
71.295 20.5399
71.300 19.347239
71.305 18.870079
71.310 18.57024
71.315 18.678625
71.320 18.71233
71.325 19.032419
71.330 19.019806
71.335 19.497784
71.340 19.528339
71.345 19.154373
71.350 18.823061
71.355 18.863945
71.360 18.77206
71.365 19.019146
71.370 19.189604
71.375 19.943357
71.380 20.354633
71.385 20.370104
71.390 20.612429
71.395 20.246063
71.400 20.111221
71.405 20.01915
71.410 19.80592
71.415 19.79677
71.420 19.38892
71.425 19.448366
71.430 19.793846
71.435 20.225796
71.440 20.31329
71.445 20.334337
71.450 20.616226
71.455 20.810244
71.460 20.557919
71.465 20.303679
71.470 19.495195
71.475 19.145926
71.480 18.881039
71.485 18.783531
71.490 18.779705
71.495 18.62719
71.500 18.214491
71.505 18.49349
71.510 18.691769
71.515 19.02293
71.520 18.966049
71.525 19.45859
71.530 19.673548
71.535 19.949368
71.540 19.767336
71.545 19.940157
71.550 19.925137
71.555 19.812429
71.560 19.153229
71.565 19.298285
71.570 19.352867
71.575 18.701328
71.580 17.728962
71.585 17.477507
71.590 17.29442
71.595 17.986856
71.600 17.744453
71.605 17.764038
71.610 18.432304
71.615 18.737761
71.620 18.887587
71.625 18.394363
71.630 17.487755
71.635 17.895561
71.640 18.063396
71.645 18.063377
71.650 17.986443
71.655 17.625086
71.660 17.642782
71.665 18.215828
71.670 17.968752
71.675 17.91787
71.680 17.701603
71.685 17.83366
71.690 17.739172
71.695 17.542576
71.700 17.458467
71.705 17.612875
71.710 17.419123
71.715 17.533552
71.720 17.378162
71.725 17.854149
71.730 18.501543
71.735 18.709108
71.740 18.639317
71.745 18.458044
71.750 18.856094
71.755 19.1924
71.760 19.069199
71.765 18.354149
71.770 17.941765
71.775 18.443092
71.780 18.803989
71.785 18.85248
71.790 18.135735
71.795 18.254343
71.800 18.666727
71.805 18.679043
71.810 18.273092
71.815 17.897726
71.820 18.052055
71.825 18.216501
71.830 18.789406
71.835 18.8153
71.840 18.788074
71.845 19.472799
71.850 19.640358
71.855 19.532089
71.860 18.95368
71.865 18.485023
71.870 18.174065
71.875 18.186256
71.880 17.747303
71.885 17.877396
71.890 18.301426
71.895 18.208927
71.900 18.375401
71.905 19.042515
71.910 18.718952
71.915 18.333529
71.920 17.988653
71.925 18.630863
71.930 18.769894
71.935 18.920897
71.940 18.562756
71.945 18.53558
71.950 19.015581
71.955 19.098015
71.960 18.573162
71.965 18.728992
71.970 18.431423
71.975 18.844814
71.980 19.772169
71.985 19.801043
71.990 19.851267
71.995 19.888638
72.000 19.853966
72.005 20.163116
72.010 20.106276
72.015 19.504272
72.020 18.948032
72.025 18.9561
72.030 19.318012
72.035 19.44849
72.040 19.432272
72.045 19.097021
72.050 19.148508
72.055 18.972874
72.060 18.250763
72.065 17.608818
72.070 17.123396
72.075 16.814487
72.080 16.592983
72.085 16.700848
72.090 17.039164
72.095 17.109871
72.100 17.526775
72.105 17.998293
72.110 17.942154
72.115 17.41725
72.120 17.832218
72.125 18.42849
72.130 19.079206
72.135 19.481812
72.140 19.303324
72.145 19.486721
72.150 19.283146
72.155 19.095619
72.160 19.022202
72.165 19.103333
72.170 18.766111
72.175 18.142855
72.180 19.413015
72.185 20.642879
72.190 20.832918
72.195 21.327097
72.200 21.198732
72.205 21.610996
72.210 21.651346
72.215 21.297239
72.220 20.814871
72.225 20.210108
72.230 19.634745
72.235 19.544916
72.240 19.671482
72.245 20.147741
72.250 19.512476
72.255 19.272295
72.260 18.902554
72.265 19.168642
72.270 18.913652
72.275 18.580557
72.280 17.971914
72.285 17.074287
72.290 17.074877
72.295 17.334812
72.300 17.229074
72.305 17.229805
72.310 17.727213
72.315 18.346703
72.320 18.982222
72.325 19.49301
72.330 19.885317
72.335 20.374613
72.340 19.988171
72.345 19.383055
72.350 19.648476
72.355 19.805016
72.360 19.780169
72.365 19.311972
72.370 18.8946
72.375 18.973694
72.380 19.33353
72.385 18.869478
72.390 18.475636
72.395 18.00946
72.400 17.511276
72.405 17.42005
72.410 17.549263
72.415 17.40867
72.420 17.529121
72.425 17.590712
72.430 18.146032
72.435 18.600216
72.440 18.789927
72.445 18.911871
72.450 18.654716
72.455 18.490479
72.460 18.336838
72.465 18.222704
72.470 18.233225
72.475 18.086308
72.480 17.965092
72.485 17.785875
72.490 17.608343
72.495 17.606628
72.500 17.346172
72.505 17.363544
72.510 17.206627
72.515 17.370289
72.520 17.415533
72.525 17.787998
72.530 18.256109
72.535 18.265722
72.540 18.433064
72.545 18.379866
72.550 18.545555
72.555 19.279942
72.560 19.021282
72.565 18.278202
72.570 17.850122
72.575 17.929117
72.580 17.789335
72.585 17.637774
72.590 17.266275
72.595 17.323364
72.600 17.811514
72.605 18.433519
72.610 18.726112
72.615 19.176981
72.620 19.402014
72.625 19.293219
72.630 19.436703
72.635 18.978409
72.640 17.684505
72.645 17.139051
72.650 17.152304
72.655 16.659481
72.660 16.832111
72.665 16.810909
72.670 17.189098
72.675 17.484447
72.680 16.733143
72.685 16.553337
72.690 16.889374
72.695 17.238434
72.700 17.696978
72.705 17.743216
72.710 18.534824
72.715 18.685059
72.720 18.398453
72.725 17.930935
72.730 17.194347
72.735 16.474012
72.740 16.42712
72.745 15.747468
72.750 15.742555
72.755 16.029724
72.760 16.166449
72.765 16.437679
72.770 16.171762
72.775 16.151674
72.780 16.635212
72.785 16.371651
72.790 15.985185
72.795 15.870669
72.800 16.082129
72.805 16.293764
72.810 16.714436
72.815 17.109371
72.820 17.426762
72.825 17.275217
72.830 16.72822
72.835 16.840714
72.840 16.71203
72.845 15.979455
72.850 15.797372
72.855 15.841955
72.860 15.593336
72.865 15.655722
72.870 15.32905
72.875 15.626536
72.880 15.48069
72.885 15.336415
72.890 15.20452
72.895 15.655416
72.900 16.00968
72.905 15.886081
72.910 16.287666
72.915 16.250631
72.920 16.981777
72.925 17.441519
72.930 17.10108
72.935 17.156893
72.940 17.484016
72.945 17.072409
72.950 16.731152
72.955 16.468651
72.960 16.908861
72.965 16.840391
72.970 16.487259
72.975 17.001762
72.980 16.858042
72.985 16.879253
72.990 16.358322
72.995 16.085194
73.000 15.839182
