!@!!GADDS PLOTSO FILE: Chi integration type
!@!!Title/SampleName: map-da
!@!!Comment: ?
!@!!User: Bruker Instrument Administrator
!@!!Site: University of Illinois Chicago
!@!!Frame: map-da_01_000.gfrm
!@!!Wavelengths    1.54184   1.54056   1.54439
!@!!Frame angles: 2Theta: 63.000 Omega: 50.000 Phi: 0.000 Chi: 90.000
!@!!Integration range: 2Theta: 53.000 to 73.000  Gamma: -105.000 to -75.000
!@!!Integration method: bin normalized
!@!N
!@!SS
!@!M
!@!L 0.0 0.0 0.0 0.0
!@!XDegrees
!@!YCounts
53.000 7.307472
53.005 7.229712
53.010 6.973062
53.015 6.427082
53.020 6.365789
53.025 6.750808
53.030 6.925258
53.035 7.413176
53.040 7.542083
53.045 7.976252
53.050 8.366076
53.055 8.516303
53.060 8.287671
53.065 7.859944
53.070 7.839705
53.075 7.773092
53.080 7.53721
53.085 7.244669
53.090 7.476954
53.095 8.152694
53.100 8.740024
53.105 8.8805
53.110 9.116427
53.115 9.613388
53.120 9.703282
53.125 9.703206
53.130 9.640968
53.135 8.814641
53.140 8.254717
53.145 8.15032
53.150 8.337652
53.155 8.374743
53.160 8.03587
53.165 8.034306
53.170 8.09377
53.175 7.982285
53.180 7.775989
53.185 7.565682
53.190 7.401243
53.195 7.53489
53.200 8.085568
53.205 8.235263
53.210 8.37598
53.215 7.98059
53.220 7.721697
53.225 7.855197
53.230 7.432221
53.235 7.517842
53.240 8.132112
53.245 8.581399
53.250 9.363115
53.255 9.37196
53.260 9.232113
53.265 9.468433
53.270 9.19643
53.275 9.112506
53.280 9.197598
53.285 9.096021
53.290 9.374938
53.295 9.120298
53.300 8.704317
53.305 8.331911
53.310 7.986002
53.315 7.63501
53.320 7.365918
53.325 7.33284
53.330 7.491778
53.335 7.497168
53.340 7.580185
53.345 7.505368
53.350 7.728943
53.355 7.772514
53.360 7.578226
53.365 7.732787
53.370 7.757311
53.375 7.89597
53.380 7.947741
53.385 7.996178
53.390 8.382804
53.395 8.77503
53.400 9.181585
53.405 9.432076
53.410 9.378627
53.415 9.346134
53.420 9.25177
53.425 8.829608
53.430 8.290764
53.435 7.648065
53.440 7.9499
53.445 8.250134
53.450 8.234776
53.455 7.972114
53.460 8.011211
53.465 8.354111
53.470 8.518241
53.475 8.604296
53.480 9.092225
53.485 9.429929
53.490 10.023343
53.495 10.036341
53.500 10.24598
53.505 10.486118
53.510 10.413566
53.515 10.092988
53.520 9.998595
53.525 9.924639
53.530 10.035151
53.535 9.61752
53.540 9.253375
53.545 9.178417
53.550 9.090418
53.555 9.645215
53.560 9.826098
53.565 9.669252
53.570 9.918294
53.575 9.582025
53.580 9.330405
53.585 9.088544
53.590 8.762842
53.595 8.701092
53.600 8.893628
53.605 9.163087
53.610 9.385652
53.615 9.322289
53.620 8.872313
53.625 8.875462
53.630 9.06349
53.635 9.089575
53.640 9.003658
53.645 8.676573
53.650 8.903024
53.655 9.267567
53.660 8.792803
53.665 8.583034
53.670 8.400043
53.675 9.092028
53.680 9.407859
53.685 9.402106
53.690 9.819281
53.695 9.6239
53.700 9.453978
53.705 9.200538
53.710 8.921068
53.715 8.895799
53.720 9.115775
53.725 8.752373
53.730 8.875393
53.735 9.213675
53.740 9.503541
53.745 9.515862
53.750 9.29459
53.755 9.193942
53.760 9.972055
53.765 10.201916
53.770 10.030747
53.775 9.8532
53.780 10.396504
53.785 10.873332
53.790 10.968336
53.795 10.718942
53.800 10.863035
53.805 10.966812
53.810 11.311441
53.815 10.536995
53.820 10.576197
53.825 10.589762
53.830 10.212968
53.835 10.09619
53.840 9.992061
53.845 9.684277
53.850 9.615935
53.855 9.341201
53.860 9.344192
53.865 9.343335
53.870 9.061666
53.875 8.851205
53.880 8.882438
53.885 8.985627
53.890 8.756631
53.895 8.716479
53.900 8.642048
53.905 8.757958
53.910 9.235426
53.915 9.833186
53.920 9.691934
53.925 9.727139
53.930 9.714506
53.935 10.101446
53.940 10.310026
53.945 9.930505
53.950 9.783387
53.955 9.924849
53.960 10.108119
53.965 9.861346
53.970 9.253425
53.975 8.934087
53.980 9.198618
53.985 8.908788
53.990 8.856183
53.995 9.037264
54.000 9.642943
54.005 10.389724
54.010 10.461658
54.015 10.829519
54.020 11.197756
54.025 11.259149
54.030 11.199823
54.035 10.755011
54.040 10.673312
54.045 10.767789
54.050 10.411044
54.055 10.488546
54.060 10.368313
54.065 10.588826
54.070 11.180112
54.075 11.145132
54.080 10.814836
54.085 10.671174
54.090 10.54442
54.095 10.723108
54.100 10.802171
54.105 10.419146
54.110 10.348881
54.115 10.582525
54.120 10.968925
54.125 11.014848
54.130 10.461098
54.135 10.250976
54.140 9.910317
54.145 9.6461
54.150 9.434027
54.155 9.182487
54.160 9.672959
54.165 9.581948
54.170 9.520672
54.175 10.021148
54.180 10.30977
54.185 10.322989
54.190 10.268747
54.195 9.820758
54.200 9.680058
54.205 9.854498
54.210 9.903441
54.215 9.895064
54.220 10.049801
54.225 10.002684
54.230 10.517031
54.235 10.867019
54.240 11.098827
54.245 11.359209
54.250 11.352915
54.255 11.366367
54.260 11.247446
54.265 11.200115
54.270 11.003675
54.275 10.228021
54.280 9.788571
54.285 9.410631
54.290 9.340401
54.295 9.271073
54.300 8.833443
54.305 8.578984
54.310 8.482332
54.315 8.163629
54.320 8.353165
54.325 8.251479
54.330 8.269959
54.335 8.623129
54.340 8.773087
54.345 9.405803
54.350 10.174144
54.355 10.149537
54.360 9.717666
54.365 9.854321
54.370 10.425629
54.375 10.946858
54.380 10.64587
54.385 10.513554
54.390 11.007988
54.395 11.703257
54.400 11.366323
54.405 10.882372
54.410 10.560018
54.415 10.356003
54.420 10.431726
54.425 10.022463
54.430 9.667915
54.435 9.289649
54.440 9.415671
54.445 9.665863
54.450 9.878918
54.455 9.946324
54.460 10.498436
54.465 11.082081
54.470 11.811916
54.475 11.974494
54.480 12.136828
54.485 12.115506
54.490 11.572392
54.495 10.940123
54.500 10.6373
54.505 10.042126
54.510 9.875104
54.515 10.00394
54.520 9.822173
54.525 9.602121
54.530 9.777451
54.535 9.899582
54.540 9.800071
54.545 9.188292
54.550 8.683439
54.555 8.928876
54.560 9.208431
54.565 9.005085
54.570 8.722346
54.575 8.718459
54.580 9.138563
54.585 9.950371
54.590 10.744056
54.595 11.022324
54.600 11.385813
54.605 11.895889
54.610 11.690115
54.615 11.40195
54.620 10.992991
54.625 10.665998
54.630 10.429138
54.635 10.062482
54.640 9.579088
54.645 10.081931
54.650 10.064745
54.655 9.911182
54.660 9.686941
54.665 9.613047
54.670 9.781169
54.675 10.063439
54.680 10.245334
54.685 10.624124
54.690 10.36301
54.695 10.067978
54.700 10.170247
54.705 10.557995
54.710 10.685725
54.715 10.18762
54.720 9.773695
54.725 10.204314
54.730 10.721415
54.735 10.62002
54.740 10.344909
54.745 10.259761
54.750 10.434183
54.755 10.917887
54.760 10.935346
54.765 10.994381
54.770 11.045122
54.775 10.987878
54.780 10.803726
54.785 10.460255
54.790 9.935485
54.795 9.781139
54.800 9.698874
54.805 9.627542
54.810 9.864907
54.815 10.166877
54.820 10.329999
54.825 10.159417
54.830 10.104953
54.835 10.007659
54.840 10.214057
54.845 10.53302
54.850 10.64669
54.855 10.688447
54.860 10.573165
54.865 10.570343
54.870 10.742998
54.875 10.58454
54.880 10.273523
54.885 10.659402
54.890 10.764505
54.895 11.122136
54.900 11.833329
54.905 11.743625
54.910 11.689189
54.915 11.724829
54.920 11.075431
54.925 11.169108
54.930 10.851494
54.935 10.399043
54.940 10.741187
54.945 10.603522
54.950 11.00353
54.955 11.237079
54.960 11.503097
54.965 11.921558
54.970 12.206038
54.975 12.052303
54.980 12.492725
54.985 12.492068
54.990 12.148937
54.995 12.10945
55.000 11.39149
55.005 10.794834
55.010 10.716091
55.015 10.283672
55.020 10.09266
55.025 10.287154
55.030 10.227971
55.035 10.77967
55.040 10.891815
55.045 11.214371
55.050 11.45637
55.055 11.917813
55.060 12.165232
55.065 12.211014
55.070 12.621711
55.075 12.825964
55.080 12.565078
55.085 12.411162
55.090 11.836549
55.095 11.437257
55.100 10.997313
55.105 10.752617
55.110 10.973352
55.115 11.360487
55.120 12.019966
55.125 12.335638
55.130 12.555283
55.135 12.634978
55.140 12.304937
55.145 11.786514
55.150 10.99274
55.155 10.518812
55.160 10.679894
55.165 10.755523
55.170 11.057243
55.175 11.08494
55.180 11.170049
55.185 11.721266
55.190 11.609245
55.195 11.342336
55.200 11.294622
55.205 10.895351
55.210 10.981586
55.215 11.400151
55.220 11.289067
55.225 10.959875
55.230 10.912486
55.235 11.18581
55.240 11.596997
55.245 11.660553
55.250 11.385489
55.255 11.537771
55.260 12.169533
55.265 12.741994
55.270 12.577364
55.275 12.433011
55.280 12.234089
55.285 11.883519
55.290 11.86519
55.295 11.168706
55.300 10.24102
55.305 10.165153
55.310 10.082154
55.315 10.81665
55.320 11.367168
55.325 11.073153
55.330 11.42336
55.335 11.67449
55.340 11.678789
55.345 11.436279
55.350 10.708968
55.355 10.593996
55.360 10.88004
55.365 11.007105
55.370 11.147115
55.375 11.314165
55.380 11.805154
55.385 12.006157
55.390 12.344281
55.395 13.133205
55.400 12.74916
55.405 12.488826
55.410 12.367085
55.415 12.164404
55.420 12.336778
55.425 11.248046
55.430 10.378763
55.435 10.59726
55.440 10.570294
55.445 10.570929
55.450 10.35006
55.455 9.965283
55.460 10.316975
55.465 10.931312
55.470 11.115288
55.475 11.312272
55.480 11.188747
55.485 11.17431
55.490 11.563315
55.495 11.792435
55.500 11.014443
55.505 10.705367
55.510 10.389227
55.515 10.203798
55.520 9.956686
55.525 10.028581
55.530 9.962844
55.535 10.194074
55.540 10.323527
55.545 10.952674
55.550 11.655565
55.555 12.268029
55.560 12.439043
55.565 12.48312
55.570 12.663421
55.575 12.759736
55.580 12.430092
55.585 12.416541
55.590 12.359736
55.595 12.135831
55.600 11.893574
55.605 11.872648
55.610 12.150369
55.615 12.207021
55.620 11.581642
55.625 11.506758
55.630 11.90341
55.635 12.124043
55.640 11.801474
55.645 11.758484
55.650 11.902874
55.655 11.672152
55.660 11.180961
55.665 11.000527
55.670 11.135402
55.675 11.328042
55.680 11.097166
55.685 11.309852
55.690 11.723193
55.695 11.669505
55.700 11.809537
55.705 11.836259
55.710 12.459163
55.715 12.713618
55.720 12.499454
55.725 12.977372
55.730 13.602955
55.735 13.317369
55.740 13.124019
55.745 12.520308
55.750 12.572238
55.755 12.649457
55.760 11.988252
55.765 11.94914
55.770 12.379333
55.775 12.670725
55.780 12.471919
55.785 12.366197
55.790 12.416655
55.795 12.289963
55.800 12.21587
55.805 12.061132
55.810 11.810692
55.815 11.639237
55.820 11.263685
55.825 11.18512
55.830 11.75883
55.835 11.650186
55.840 11.216995
55.845 11.146302
55.850 11.824678
55.855 12.65355
55.860 12.658858
55.865 12.368917
55.870 12.452118
55.875 12.969203
55.880 13.394665
55.885 12.95999
55.890 12.945649
55.895 13.098094
55.900 12.980072
55.905 12.613834
55.910 12.795837
55.915 12.461021
55.920 12.239543
55.925 11.568126
55.930 11.207313
55.935 11.551679
55.940 11.973396
55.945 12.054573
55.950 12.126486
55.955 12.561935
55.960 12.309064
55.965 11.843143
55.970 11.698138
55.975 11.37921
55.980 11.344261
55.985 11.363482
55.990 10.795787
55.995 11.483222
56.000 12.015197
56.005 11.62646
56.010 11.741229
56.015 11.851473
56.020 11.82524
56.025 11.813733
56.030 11.832129
56.035 11.7833
56.040 11.908132
56.045 11.747739
56.050 11.662042
56.055 11.868779
56.060 12.314791
56.065 12.054239
56.070 12.292116
56.075 12.757994
56.080 12.438765
56.085 12.67871
56.090 12.59563
56.095 12.73872
56.100 12.553779
56.105 12.374826
56.110 12.387081
56.115 12.913041
56.120 12.329622
56.125 12.03633
56.130 11.458943
56.135 12.004366
56.140 12.006567
56.145 11.466539
56.150 11.075177
56.155 11.811138
56.160 12.07497
56.165 12.48868
56.170 12.048562
56.175 11.921336
56.180 12.103284
56.185 12.530452
56.190 12.013275
56.195 11.969727
56.200 12.137309
56.205 12.261264
56.210 12.321191
56.215 12.492453
56.220 11.955573
56.225 12.211987
56.230 11.958266
56.235 11.733335
56.240 11.877514
56.245 12.392271
56.250 12.55877
56.255 12.527966
56.260 12.035547
56.265 12.172091
56.270 12.344614
56.275 12.15072
56.280 11.904611
56.285 12.044322
56.290 12.544844
56.295 13.067048
56.300 13.00898
56.305 13.031941
56.310 13.372318
56.315 13.253849
56.320 13.424582
56.325 13.186351
56.330 13.476718
56.335 13.955655
56.340 14.042324
56.345 13.950217
56.350 13.923447
56.355 13.761733
56.360 13.74806
56.365 13.650382
56.370 13.583065
56.375 13.371824
56.380 13.080007
56.385 12.844695
56.390 12.767017
56.395 12.448747
56.400 12.349275
56.405 11.809288
56.410 11.772833
56.415 11.96107
56.420 12.394996
56.425 12.328685
56.430 12.671265
56.435 12.687659
56.440 12.920053
56.445 12.761494
56.450 12.605365
56.455 12.65993
56.460 12.588212
56.465 12.483513
56.470 12.460952
56.475 12.582185
56.480 13.148847
56.485 13.434996
56.490 14.378614
56.495 14.760039
56.500 14.602281
56.505 14.562306
56.510 14.677706
56.515 14.710007
56.520 14.947159
56.525 14.085314
56.530 13.871222
56.535 14.463002
56.540 14.630601
56.545 14.861676
56.550 14.770164
56.555 14.505859
56.560 14.650454
56.565 14.55479
56.570 14.207301
56.575 13.395514
56.580 13.101592
56.585 12.707457
56.590 12.24803
56.595 12.869893
56.600 12.867172
56.605 12.783874
56.610 12.872663
56.615 12.958466
56.620 12.997665
56.625 13.263873
56.630 12.548309
56.635 13.130141
56.640 13.711116
56.645 14.294227
56.650 14.184599
56.655 14.064102
56.660 14.047686
56.665 14.186833
56.670 13.410327
56.675 12.887882
56.680 12.664706
56.685 12.845798
56.690 13.528403
56.695 13.691171
56.700 14.395265
56.705 15.052071
56.710 15.08126
56.715 15.02158
56.720 14.983557
56.725 14.710804
56.730 14.287368
56.735 14.025189
56.740 14.07884
56.745 14.474617
56.750 14.382417
56.755 14.133655
56.760 14.084738
56.765 14.062528
56.770 14.06444
56.775 14.319677
56.780 14.15541
56.785 14.154874
56.790 13.959911
56.795 13.855162
56.800 13.711504
56.805 13.785126
56.810 13.711193
56.815 13.95475
56.820 14.120521
56.825 14.852155
56.830 14.925032
56.835 14.532494
56.840 14.101187
56.845 13.739165
56.850 13.686706
56.855 13.143725
56.860 12.447496
56.865 12.780588
56.870 13.57598
56.875 13.983109
56.880 14.260867
56.885 14.321728
56.890 14.774384
56.895 15.154179
56.900 15.149961
56.905 14.820796
56.910 14.561461
56.915 14.347718
56.920 14.119089
56.925 14.252186
56.930 14.273665
56.935 13.971179
56.940 13.711248
56.945 13.5382
56.950 13.332339
56.955 13.291718
56.960 12.724738
56.965 12.619369
56.970 12.997326
56.975 12.907753
56.980 12.437858
56.985 12.602879
56.990 13.061286
56.995 14.281379
57.000 14.379891
57.005 14.071697
57.010 14.49982
57.015 14.980064
57.020 15.878132
57.025 15.951059
57.030 15.475305
57.035 15.444634
57.040 15.793786
57.045 15.418086
57.050 15.024549
57.055 14.493086
57.060 14.478069
57.065 14.112118
57.070 13.886391
57.075 13.95375
57.080 13.844301
57.085 13.618405
57.090 13.602847
57.095 13.764227
57.100 13.800433
57.105 13.789733
57.110 13.525092
57.115 14.358793
57.120 14.782763
57.125 14.52609
57.130 13.973605
57.135 13.965467
57.140 14.2909
57.145 14.964588
57.150 14.55724
57.155 14.539145
57.160 14.545639
57.165 14.62372
57.170 14.121977
57.175 13.739762
57.180 12.983948
57.185 12.687113
57.190 12.596168
57.195 12.995482
57.200 13.166802
57.205 13.773319
57.210 13.356506
57.215 13.661651
57.220 14.097069
57.225 13.902277
57.230 13.427755
57.235 12.966876
57.240 12.664544
57.245 13.087033
57.250 12.840135
57.255 12.616455
57.260 12.404017
57.265 12.487678
57.270 12.64434
57.275 12.914505
57.280 13.123412
57.285 13.513718
57.290 13.374688
57.295 13.834437
57.300 14.622499
57.305 14.94196
57.310 14.955379
57.315 15.050493
57.320 15.201787
57.325 15.37431
57.330 14.994397
57.335 14.638368
57.340 14.540297
57.345 14.320965
57.350 13.77783
57.355 13.621086
57.360 13.852839
57.365 14.094729
57.370 14.173441
57.375 14.308413
57.380 14.82668
57.385 14.954743
57.390 15.350089
57.395 15.246105
57.400 14.966726
57.405 14.714247
57.410 14.659737
57.415 14.732387
57.420 14.465921
57.425 14.3585
57.430 14.293772
57.435 14.256303
57.440 14.631316
57.445 14.85827
57.450 14.420218
57.455 14.65923
57.460 14.564301
57.465 14.7642
57.470 14.826896
57.475 14.427948
57.480 14.41674
57.485 14.863675
57.490 14.994231
57.495 14.951314
57.500 15.337186
57.505 15.63485
57.510 15.698461
57.515 15.661457
57.520 15.678688
57.525 15.862497
57.530 15.558954
57.535 14.768395
57.540 14.935052
57.545 14.855836
57.550 14.620592
57.555 14.156687
57.560 13.641021
57.565 13.677759
57.570 13.89396
57.575 13.704689
57.580 14.09575
57.585 14.092596
57.590 14.041168
57.595 13.733622
57.600 14.199696
57.605 14.631067
57.610 14.669787
57.615 14.85466
57.620 14.898973
57.625 15.220906
57.630 15.826959
57.635 15.495485
57.640 14.894666
57.645 14.651885
57.650 14.366582
57.655 14.463954
57.660 14.059218
57.665 13.665973
57.670 13.72855
57.675 14.012429
57.680 14.304699
57.685 14.441133
57.690 14.324386
57.695 14.61805
57.700 15.25491
57.705 15.924326
57.710 16.22127
57.715 15.962125
57.720 15.666415
57.725 15.527472
57.730 15.109124
57.735 15.084759
57.740 14.23638
57.745 13.881794
57.750 14.190809
57.755 14.181809
57.760 14.567614
57.765 14.904183
57.770 14.980502
57.775 15.622586
57.780 15.571476
57.785 15.183848
57.790 14.926394
57.795 14.455567
57.800 14.307344
57.805 13.366933
57.810 12.604651
57.815 12.787772
57.820 13.275509
57.825 13.690113
57.830 13.868896
57.835 14.244742
57.840 14.892942
57.845 15.358343
57.850 15.005417
57.855 14.402541
57.860 14.232304
57.865 14.438866
57.870 14.212546
57.875 14.220857
57.880 14.203911
57.885 14.871714
57.890 15.454658
57.895 15.359139
57.900 15.099576
57.905 15.333928
57.910 15.309362
57.915 15.454512
57.920 15.342268
57.925 14.861436
57.930 15.009347
57.935 15.353395
57.940 15.041602
57.945 15.145064
57.950 14.666138
57.955 14.454033
57.960 14.525047
57.965 14.556867
57.970 14.918695
57.975 15.050004
57.980 14.730202
57.985 15.414534
57.990 15.505858
57.995 15.72574
58.000 15.771631
58.005 15.281208
58.010 15.407926
58.015 15.790953
58.020 15.041224
58.025 14.924737
58.030 14.965456
58.035 15.339502
58.040 16.396626
58.045 16.530418
58.050 16.433475
58.055 16.848133
58.060 16.806417
58.065 17.056112
58.070 16.531118
58.075 15.383471
58.080 15.227315
58.085 14.909714
58.090 15.190075
58.095 15.22156
58.100 14.812247
58.105 15.037317
58.110 14.662312
58.115 14.674901
58.120 15.33194
58.125 15.643748
58.130 15.807362
58.135 15.618402
58.140 15.61663
58.145 16.278055
58.150 16.248606
58.155 15.58045
58.160 14.917616
58.165 15.363835
58.170 16.161432
58.175 15.571065
58.180 14.980137
58.185 14.663942
58.190 14.519349
58.195 14.507549
58.200 13.882605
58.205 13.633427
58.210 14.63693
58.215 15.662522
58.220 15.680603
58.225 15.856094
58.230 16.007786
58.235 15.714741
58.240 15.312369
58.245 14.632519
58.250 13.376829
58.255 13.410052
58.260 13.732233
58.265 14.074813
58.270 14.161524
58.275 14.153291
58.280 14.638832
58.285 15.126818
58.290 14.865843
58.295 14.37594
58.300 13.947846
58.305 14.4725
58.310 14.794882
58.315 14.736159
58.320 14.673656
58.325 14.57446
58.330 14.909783
58.335 14.781288
58.340 14.342142
58.345 14.03382
58.350 13.836171
58.355 14.13973
58.360 14.440917
58.365 14.429417
58.370 15.167542
58.375 15.563681
58.380 15.119628
58.385 15.172269
58.390 15.241683
58.395 15.398135
58.400 15.306158
58.405 14.4683
58.410 14.591651
58.415 15.172146
58.420 15.518471
58.425 15.849135
58.430 15.57985
58.435 15.667671
58.440 16.006475
58.445 15.734892
58.450 15.845085
58.455 15.820564
58.460 16.079426
58.465 16.1122
58.470 16.181505
58.475 15.944264
58.480 16.368914
58.485 16.735279
58.490 16.175722
58.495 16.455421
58.500 16.255613
58.505 16.039711
58.510 16.305786
58.515 15.813955
58.520 14.965185
58.525 14.434892
58.530 14.171282
58.535 14.39222
58.540 14.27502
58.545 14.167309
58.550 14.339259
58.555 14.9241
58.560 15.565659
58.565 15.255244
58.570 15.509098
58.575 15.806861
58.580 15.67609
58.585 15.851386
58.590 15.50843
58.595 14.703725
58.600 15.12223
58.605 15.080425
58.610 14.94503
58.615 15.030166
58.620 15.085898
58.625 15.66947
58.630 16.50214
58.635 15.6823
58.640 15.688637
58.645 15.437704
58.650 15.100673
58.655 14.726758
58.660 14.647408
58.665 14.887826
58.670 15.51117
58.675 15.680406
58.680 15.923422
58.685 16.053551
58.690 15.859977
58.695 15.998864
58.700 15.991611
58.705 16.055658
58.710 16.273226
58.715 16.185904
58.720 16.666037
58.725 17.113205
58.730 16.790796
58.735 16.030087
58.740 15.670434
58.745 16.065884
58.750 15.876904
58.755 15.892435
58.760 16.215883
58.765 15.950845
58.770 16.570614
58.775 17.020279
58.780 16.220648
58.785 16.179901
58.790 15.816143
58.795 15.063874
58.800 15.919321
58.805 15.489712
58.810 15.560432
58.815 16.015196
58.820 16.322979
58.825 16.454092
58.830 16.2633
58.835 15.309867
58.840 15.461282
58.845 14.694571
58.850 14.674948
58.855 14.73586
58.860 14.671312
58.865 15.191869
58.870 15.492626
58.875 15.096664
58.880 15.211236
58.885 15.327841
58.890 15.036452
58.895 15.229665
58.900 15.592481
58.905 15.923626
58.910 16.263399
58.915 16.454496
58.920 16.345751
58.925 15.98575
58.930 15.565924
58.935 15.353201
58.940 15.742812
58.945 15.975316
58.950 16.490387
58.955 16.783447
58.960 17.484276
58.965 18.025087
58.970 17.911123
58.975 17.186375
58.980 16.437742
58.985 15.575666
58.990 15.345706
58.995 15.515162
59.000 15.539546
59.005 15.551349
59.010 16.234774
59.015 16.503437
59.020 16.97776
59.025 17.368635
59.030 17.589058
59.035 17.713339
59.040 18.383289
59.045 18.546227
59.050 18.002304
59.055 17.045763
59.060 16.967222
59.065 16.804474
59.070 16.788359
59.075 16.584711
59.080 16.462524
59.085 16.907314
59.090 17.357376
59.095 17.283113
59.100 16.774492
59.105 16.319353
59.110 16.404352
59.115 17.210699
59.120 17.526724
59.125 17.892395
59.130 17.71434
59.135 17.597948
59.140 17.465614
59.145 17.561651
59.150 17.444159
59.155 17.540665
59.160 17.657785
59.165 17.568996
59.170 17.727594
59.175 17.624578
59.180 17.210489
59.185 16.902946
59.190 17.553791
59.195 17.83622
59.200 18.173346
59.205 18.152874
59.210 18.018013
59.215 18.289255
59.220 17.892841
59.225 16.849869
59.230 16.084616
59.235 15.961284
59.240 16.130211
59.245 16.74991
59.250 16.032953
59.255 16.165535
59.260 16.310207
59.265 16.41099
59.270 16.805393
59.275 16.994574
59.280 16.813681
59.285 17.498081
59.290 17.731081
59.295 17.585173
59.300 17.465784
59.305 17.320177
59.310 16.80916
59.315 16.366716
59.320 15.44601
59.325 15.140387
59.330 15.358212
59.335 15.488572
59.340 15.263141
59.345 15.709102
59.350 15.991446
59.355 16.75915
59.360 16.94327
59.365 17.161995
59.370 17.748432
59.375 18.044531
59.380 17.640574
59.385 17.709242
59.390 18.15119
59.395 18.467045
59.400 18.684446
59.405 18.07563
59.410 18.058125
59.415 18.137005
59.420 17.681774
59.425 16.919653
59.430 16.792591
59.435 16.581009
59.440 16.745495
59.445 16.268452
59.450 16.297905
59.455 16.914816
59.460 17.454519
59.465 17.766928
59.470 17.981663
59.475 18.163054
59.480 18.867735
59.485 18.988552
59.490 18.817366
59.495 18.799967
59.500 18.573389
59.505 18.213818
59.510 18.001841
59.515 17.773914
59.520 17.722866
59.525 17.71837
59.530 17.244171
59.535 17.625727
59.540 17.805029
59.545 17.807541
59.550 17.805338
59.555 17.659836
59.560 17.577753
59.565 18.326263
59.570 18.155338
59.575 18.267239
59.580 18.693617
59.585 18.775784
59.590 18.831484
59.595 18.917076
59.600 18.366835
59.605 18.473307
59.610 18.846453
59.615 19.504774
59.620 19.246191
59.625 19.540926
59.630 20.331121
59.635 20.09161
59.640 19.781422
59.645 19.620522
59.650 19.39156
59.655 19.656807
59.660 19.67065
59.665 19.613138
59.670 20.105967
59.675 20.51627
59.680 20.122244
59.685 19.71253
59.690 19.501787
59.695 18.978128
59.700 19.547558
59.705 19.864151
59.710 19.804054
59.715 20.29007
59.720 20.602854
59.725 21.086426
59.730 21.466785
59.735 21.384533
59.740 21.549599
59.745 21.610609
59.750 22.034472
59.755 21.648695
59.760 21.421627
59.765 21.325382
59.770 20.354992
59.775 19.972338
59.780 19.795317
59.785 19.41906
59.790 19.66004
59.795 19.875252
59.800 20.546198
59.805 20.877735
59.810 21.209623
59.815 21.530878
59.820 21.527857
59.825 22.030275
59.830 22.129499
59.835 21.55278
59.840 21.513588
59.845 21.35738
59.850 20.981945
59.855 20.978729
59.860 20.491678
59.865 20.363441
59.870 20.302011
59.875 20.487226
59.880 20.672321
59.885 21.056641
59.890 21.45191
59.895 21.71257
59.900 21.802446
59.905 21.997828
59.910 22.111767
59.915 22.094442
59.920 21.827705
59.925 21.841557
59.930 22.355885
59.935 22.653376
59.940 22.643599
59.945 22.168621
59.950 22.060354
59.955 22.304749
59.960 22.419298
59.965 22.102139
59.970 21.981676
59.975 21.552877
59.980 20.689859
59.985 20.312981
59.990 19.99802
59.995 19.584093
60.000 19.421797
60.005 18.883661
60.010 20.16041
60.015 21.669374
60.020 22.134724
60.025 22.15134
60.030 22.439573
60.035 22.265495
60.040 22.300903
60.045 22.365477
60.050 22.221455
60.055 22.6555
60.060 22.918995
60.065 22.624641
60.070 23.741919
60.075 24.394825
60.080 23.94717
60.085 23.725548
60.090 23.444408
60.095 22.85869
60.100 22.918365
60.105 21.904137
60.110 21.838879
60.115 21.934881
60.120 21.834234
60.125 21.715097
60.130 21.941267
60.135 21.961191
60.140 22.060215
60.145 21.632456
60.150 21.724617
60.155 21.758858
60.160 21.998007
60.165 21.544308
60.170 21.661861
60.175 21.871946
60.180 21.945354
60.185 22.012756
60.190 21.968182
60.195 22.050777
60.200 22.471409
60.205 22.757944
60.210 22.594936
60.215 22.062223
60.220 22.187538
60.225 22.605492
60.230 22.645325
60.235 22.98023
60.240 22.373415
60.245 22.921043
60.250 23.721657
60.255 23.500593
60.260 22.94034
60.265 22.781805
60.270 22.586416
60.275 22.676453
60.280 22.75836
60.285 22.952991
60.290 22.395025
60.295 22.508673
60.300 21.738853
60.305 21.0548
60.310 21.339832
60.315 20.866858
60.320 20.456339
60.325 21.466721
60.330 21.931114
60.335 22.826546
60.340 22.962664
60.345 23.401031
60.350 23.782955
60.355 23.449728
60.360 22.682528
60.365 22.626268
60.370 22.330379
60.375 22.250048
60.380 21.860767
60.385 21.645908
60.390 21.677511
60.395 20.911734
60.400 20.541504
60.405 21.186945
60.410 21.184465
60.415 21.358318
60.420 20.996712
60.425 21.146303
60.430 22.139948
60.435 22.058741
60.440 21.276834
60.445 21.243515
60.450 20.740021
60.455 20.861868
60.460 20.78989
60.465 20.677347
60.470 20.927395
60.475 21.516815
60.480 22.445179
60.485 22.586735
60.490 22.267632
60.495 22.515656
60.500 22.309864
60.505 22.347141
60.510 22.398712
60.515 21.87122
60.520 21.636854
60.525 21.701206
60.530 21.222336
60.535 21.423738
60.540 21.363075
60.545 20.549402
60.550 20.052151
60.555 19.961546
60.560 20.229683
60.565 20.313965
60.570 19.570303
60.575 19.237436
60.580 19.657925
60.585 19.922832
60.590 19.879969
60.595 19.876549
60.600 19.85873
60.605 20.637804
60.610 21.005167
60.615 21.519089
60.620 21.799215
60.625 21.899803
60.630 21.502335
60.635 20.912638
60.640 20.729351
60.645 20.53441
60.650 20.000515
60.655 19.804907
60.660 19.783663
60.665 19.978298
60.670 20.489288
60.675 20.8228
60.680 20.457006
60.685 20.420696
60.690 20.654488
60.695 20.606279
60.700 20.647972
60.705 20.405991
60.710 19.708956
60.715 19.68294
60.720 19.043777
60.725 18.743563
60.730 19.228954
60.735 19.267975
60.740 19.438644
60.745 19.435598
60.750 19.484556
60.755 19.685734
60.760 19.510759
60.765 19.803526
60.770 19.82255
60.775 19.35586
60.780 19.077511
60.785 19.067976
60.790 18.856615
60.795 19.11413
60.800 18.247034
60.805 18.076508
60.810 17.975712
60.815 17.859869
60.820 17.308338
60.825 18.191216
60.830 18.400417
60.835 18.449604
60.840 18.437757
60.845 18.766262
60.850 19.277037
60.855 19.654455
60.860 19.047874
60.865 18.787497
60.870 18.694279
60.875 19.053148
60.880 19.285126
60.885 19.519907
60.890 20.04657
60.895 20.243525
60.900 20.507952
60.905 20.819553
60.910 20.689253
60.915 20.287104
60.920 20.31142
60.925 19.745228
60.930 19.61759
60.935 19.242264
60.940 19.000767
60.945 18.636168
60.950 18.370779
60.955 18.153761
60.960 18.757133
60.965 18.533033
60.970 18.706881
60.975 19.081163
60.980 19.462917
60.985 19.680185
60.990 20.113792
60.995 19.923664
61.000 19.78525
61.005 19.799299
61.010 19.747404
61.015 19.13055
61.020 18.869064
61.025 17.958338
61.030 17.722794
61.035 17.861376
61.040 17.49015
61.045 17.371685
61.050 17.269062
61.055 17.038017
61.060 17.439075
61.065 17.512255
61.070 17.657185
61.075 17.812067
61.080 17.701395
61.085 17.687592
61.090 17.99272
61.095 18.003326
61.100 18.227095
61.105 17.744638
61.110 17.42573
61.115 17.780403
61.120 18.212774
61.125 18.294506
61.130 17.918793
61.135 18.127008
61.140 18.490133
61.145 19.01738
61.150 19.005165
61.155 19.318682
61.160 19.653715
61.165 19.597971
61.170 19.142147
61.175 19.214336
61.180 18.984531
61.185 19.036348
61.190 18.709171
61.195 18.146946
61.200 18.855963
61.205 19.280037
61.210 18.910866
61.215 18.770292
61.220 18.262791
61.225 18.34026
61.230 18.29509
61.235 16.93688
61.240 16.308891
61.245 16.477528
61.250 16.814653
61.255 16.979939
61.260 16.468861
61.265 16.173008
61.270 16.533806
61.275 17.00775
61.280 16.985369
61.285 16.75964
61.290 16.99654
61.295 17.295315
61.300 17.78653
61.305 17.895466
61.310 17.746645
61.315 17.741369
61.320 17.582222
61.325 16.998222
61.330 16.667448
61.335 16.431864
61.340 16.720881
61.345 16.387142
61.350 16.182426
61.355 16.239521
61.360 16.623835
61.365 16.720715
61.370 16.513885
61.375 16.646322
61.380 16.902597
61.385 17.286627
61.390 17.64134
61.395 17.719446
61.400 17.994234
61.405 17.861177
61.410 17.475792
61.415 17.444777
61.420 17.203079
61.425 16.852716
61.430 16.74527
61.435 16.529774
61.440 16.763723
61.445 17.047415
61.450 17.581238
61.455 17.684811
61.460 17.993525
61.465 18.397007
61.470 19.114265
61.475 18.833153
61.480 18.193537
61.485 17.401478
61.490 17.031002
61.495 16.565264
61.500 16.434219
61.505 16.147268
61.510 16.409636
61.515 16.884703
61.520 17.62606
61.525 17.950474
61.530 18.322792
61.535 18.3004
61.540 18.262791
61.545 18.048592
61.550 18.065395
61.555 17.600634
61.560 17.790697
61.565 17.254433
61.570 16.987846
61.575 17.334248
61.580 18.184219
61.585 18.579763
61.590 18.498407
61.595 18.624979
61.600 19.166899
61.605 18.867804
61.610 18.562994
61.615 17.781982
61.620 17.511238
61.625 17.907158
61.630 18.149078
61.635 18.14609
61.640 18.592167
61.645 18.784269
61.650 18.815094
61.655 18.328949
61.660 17.916805
61.665 17.284252
61.670 17.379192
61.675 17.555313
61.680 16.978626
61.685 16.723072
61.690 16.996067
61.695 17.053846
61.700 17.669094
61.705 17.799999
61.710 17.861881
61.715 18.182203
61.720 18.131493
61.725 17.98823
61.730 17.760473
61.735 16.802742
61.740 16.192787
61.745 16.113226
61.750 16.065971
61.755 16.506706
61.760 16.748159
61.765 17.473213
61.770 18.306072
61.775 19.099361
61.780 18.760538
61.785 19.039831
61.790 19.259172
61.795 19.364254
61.800 19.042721
61.805 18.612633
61.810 18.65023
61.815 18.899858
61.820 18.988777
61.825 18.894943
61.830 18.566742
61.835 18.944765
61.840 19.147102
61.845 18.491043
61.850 18.454494
61.855 18.563377
61.860 18.159128
61.865 18.081017
61.870 17.555943
61.875 17.253035
61.880 17.611502
61.885 17.730118
61.890 18.444508
61.895 18.413849
61.900 18.43651
61.905 18.021683
61.910 17.681728
61.915 17.48509
61.920 17.251474
61.925 16.184198
61.930 15.975472
61.935 16.382271
61.940 17.209097
61.945 17.818213
61.950 17.95195
61.955 17.78656
61.960 18.219547
61.965 18.759802
61.970 19.135389
61.975 19.276949
61.980 19.335321
61.985 19.425703
61.990 19.617243
61.995 19.41287
62.000 19.343681
62.005 18.607836
62.010 18.330936
62.015 17.692259
62.020 17.944756
62.025 18.244896
62.030 18.004951
62.035 18.425255
62.040 18.23797
62.045 18.418745
62.050 18.452808
62.055 17.949648
62.060 17.986832
62.065 18.322138
62.070 18.132524
62.075 18.017544
62.080 17.995096
62.085 18.411335
62.090 18.367561
62.095 18.061071
62.100 17.658836
62.105 17.713493
62.110 17.945286
62.115 17.727348
62.120 17.791134
62.125 17.978613
62.130 17.77536
62.135 17.634336
62.140 17.849285
62.145 18.30105
62.150 18.458275
62.155 18.111963
62.160 18.243563
62.165 18.831547
62.170 19.385609
62.175 19.793686
62.180 19.751329
62.185 20.228333
62.190 20.031425
62.195 20.107355
62.200 19.826878
62.205 19.798307
62.210 19.044367
62.215 18.582531
62.220 17.891613
62.225 18.156078
62.230 18.09852
62.235 17.446871
62.240 17.135275
62.245 17.500891
62.250 17.679846
62.255 17.780087
62.260 17.479736
62.265 17.308048
62.270 17.87706
62.275 17.359371
62.280 16.980568
62.285 17.309071
62.290 17.058361
62.295 17.086159
62.300 16.830658
62.305 16.350008
62.310 16.571146
62.315 16.498825
62.320 16.177492
62.325 16.081158
62.330 15.796356
62.335 15.437227
62.340 15.670068
62.345 15.536403
62.350 15.367567
62.355 15.478644
62.360 16.299725
62.365 16.91795
62.370 17.756557
62.375 17.502556
62.380 17.505215
62.385 17.318996
62.390 17.189913
62.395 16.674143
62.400 16.822512
62.405 16.52916
62.410 17.76556
62.415 18.969175
62.420 19.706747
62.425 19.845205
62.430 19.83077
62.435 19.515688
62.440 19.716515
62.445 19.020378
62.450 18.854458
62.455 18.853638
62.460 19.137911
62.465 19.488001
62.470 19.889954
62.475 19.763914
62.480 19.652029
62.485 18.974695
62.490 18.338881
62.495 17.747511
62.500 17.558453
62.505 16.73159
62.510 16.635241
62.515 16.738464
62.520 16.62464
62.525 17.243109
62.530 17.16317
62.535 16.959896
62.540 17.820564
62.545 17.89016
62.550 17.946352
62.555 18.449158
62.560 17.815784
62.565 18.059467
62.570 18.365591
62.575 18.088884
62.580 17.643471
62.585 16.847532
62.590 16.442469
62.595 16.779671
62.600 16.979181
62.605 17.180304
62.610 17.229403
62.615 17.692467
62.620 18.331278
62.625 18.566595
62.630 19.080305
62.635 18.571695
62.640 18.614788
62.645 18.514503
62.650 18.560625
62.655 18.792969
62.660 18.863791
62.665 18.618116
62.670 18.786489
62.675 18.665689
62.680 18.325104
62.685 18.118328
62.690 17.653305
62.695 17.34453
62.700 16.973093
62.705 17.039362
62.710 16.8615
62.715 17.693285
62.720 18.322788
62.725 18.129253
62.730 18.176439
62.735 18.616293
62.740 18.948536
62.745 18.878986
62.750 18.658495
62.755 18.413605
62.760 18.800732
62.765 19.045364
62.770 18.828804
62.775 18.219599
62.780 18.008717
62.785 17.543032
62.790 17.379917
62.795 17.383453
62.800 17.825348
62.805 18.161762
62.810 18.272224
62.815 18.211626
62.820 18.012798
62.825 18.266386
62.830 18.665703
62.835 17.952076
62.840 17.840609
62.845 18.354128
62.850 19.033255
62.855 19.321657
62.860 19.339067
62.865 19.178993
62.870 19.195282
62.875 19.313751
62.880 19.163273
62.885 18.446878
62.890 17.709873
62.895 17.211626
62.900 16.96998
62.905 16.8123
62.910 16.649029
62.915 16.89262
62.920 17.172165
62.925 17.93807
62.930 17.874857
62.935 17.566395
62.940 17.851767
62.945 17.394413
62.950 17.219841
62.955 17.586372
62.960 17.648003
62.965 17.684883
62.970 18.491722
62.975 18.783529
62.980 19.100679
62.985 18.464157
62.990 18.381838
62.995 18.385689
63.000 18.385004
63.005 17.823067
63.010 17.415564
63.015 17.341202
63.020 17.686394
63.025 17.469925
63.030 17.361814
63.035 17.246683
63.040 16.881006
63.045 16.87179
63.050 16.780506
63.055 16.94343
63.060 16.975466
63.065 17.022047
63.070 16.963381
63.075 17.764915
63.080 17.916042
63.085 18.592606
63.090 18.861065
63.095 18.91157
63.100 18.768162
63.105 19.440687
63.110 19.57066
63.115 19.647066
63.120 19.292448
63.125 18.571999
63.130 18.649536
63.135 18.587856
63.140 17.931507
63.145 16.623138
63.150 16.557697
63.155 16.730762
63.160 17.045254
63.165 17.208565
63.170 16.990654
63.175 17.577116
63.180 19.011333
63.185 18.683292
63.190 18.682472
63.195 18.858999
63.200 19.208775
63.205 19.69162
63.210 19.826077
63.215 19.338028
63.220 19.951754
63.225 19.917051
63.230 19.947386
63.235 19.677937
63.240 19.169847
63.245 18.889011
63.250 19.341213
63.255 19.176785
63.260 19.226973
63.265 18.755577
63.270 18.716801
63.275 19.316761
63.280 19.532417
63.285 19.404852
63.290 19.783705
63.295 19.591948
63.300 19.387945
63.305 19.336611
63.310 19.385361
63.315 19.477903
63.320 19.327431
63.325 19.055809
63.330 19.509321
63.335 19.873125
63.340 20.140226
63.345 20.34263
63.350 19.649
63.355 19.600328
63.360 19.800043
63.365 20.107286
63.370 19.948875
63.375 19.554344
63.380 19.167233
63.385 19.262072
63.390 19.361473
63.395 18.711294
63.400 18.663645
63.405 18.854973
63.410 18.598085
63.415 18.180941
63.420 17.747326
63.425 17.338276
63.430 17.520979
63.435 17.489746
63.440 17.540934
63.445 17.55755
63.450 17.61315
63.455 18.733822
63.460 18.623562
63.465 18.606871
63.470 18.519096
63.475 18.266632
63.480 18.300575
63.485 18.418179
63.490 17.979605
63.495 19.044512
63.500 18.989485
63.505 18.858507
63.510 19.24626
63.515 19.102776
63.520 19.282234
63.525 18.397268
63.530 17.146645
63.535 17.237635
63.540 17.20277
63.545 16.816257
63.550 16.887991
63.555 16.678839
63.560 17.270523
63.565 17.669207
63.570 17.454487
63.575 17.594137
63.580 17.677574
63.585 17.61915
63.590 17.768448
63.595 17.46813
63.600 17.833649
63.605 17.909252
63.610 17.877729
63.615 18.133789
63.620 18.257013
63.625 18.245602
63.630 18.814224
63.635 18.430698
63.640 18.5972
63.645 18.647545
63.650 18.915848
63.655 19.001698
63.660 19.476437
63.665 20.012548
63.670 19.662825
63.675 19.337994
63.680 18.859005
63.685 18.517717
63.690 18.726204
63.695 18.678141
63.700 18.940521
63.705 19.407934
63.710 19.797184
63.715 20.154194
63.720 20.245512
63.725 20.218349
63.730 19.979319
63.735 19.521805
63.740 19.678324
63.745 19.84034
63.750 19.836683
63.755 20.369251
63.760 20.283091
63.765 20.074825
63.770 19.714617
63.775 19.13665
63.780 19.082655
63.785 18.966129
63.790 18.487757
63.795 18.129402
63.800 18.44906
63.805 18.831278
63.810 19.275751
63.815 19.255682
63.820 19.103685
63.825 18.987051
63.830 18.898275
63.835 18.660007
63.840 18.903542
63.845 18.631353
63.850 18.880592
63.855 18.615179
63.860 18.507986
63.865 18.530365
63.870 18.18355
63.875 18.216047
63.880 18.193727
63.885 18.365328
63.890 18.891483
63.895 19.422716
63.900 19.452351
63.905 19.871109
63.910 19.679716
63.915 19.578432
63.920 19.109415
63.925 19.200541
63.930 18.606712
63.935 18.467638
63.940 18.014957
63.945 17.474239
63.950 17.2736
63.955 17.227594
63.960 17.628363
63.965 18.346478
63.970 18.717585
63.975 18.903194
63.980 19.535664
63.985 19.990465
63.990 19.814215
63.995 19.315228
64.000 19.602192
64.005 19.335258
64.010 19.480991
64.015 19.231426
64.020 19.679148
64.025 19.996744
64.030 20.05925
64.035 19.851744
64.040 19.942995
64.045 19.950687
64.050 19.513048
64.055 18.317795
64.060 18.256128
64.065 18.188166
64.070 17.956478
64.075 18.231421
64.080 18.543907
64.085 19.247501
64.090 19.752451
64.095 19.930651
64.100 20.143625
64.105 20.261604
64.110 19.492212
64.115 19.155468
64.120 18.541241
64.125 18.425617
64.130 17.718155
64.135 16.965908
64.140 17.066557
64.145 17.482254
64.150 17.633131
64.155 17.981308
64.160 17.643488
64.165 17.900522
64.170 18.00185
64.175 17.867836
64.180 17.78717
64.185 17.684647
64.190 18.106194
64.195 18.746958
64.200 18.562014
64.205 18.53611
64.210 18.670387
64.215 18.505207
64.220 18.554125
64.225 17.913448
64.230 18.101229
64.235 18.432402
64.240 18.917313
64.245 19.068434
64.250 19.021521
64.255 19.49658
64.260 19.783655
64.265 19.911827
64.270 20.122831
64.275 19.905697
64.280 19.25741
64.285 18.946508
64.290 18.378998
64.295 18.271957
64.300 18.29352
64.305 17.636425
64.310 17.468161
64.315 18.309526
64.320 18.463322
64.325 18.835836
64.330 18.657419
64.335 18.274477
64.340 18.788527
64.345 18.919403
64.350 18.345289
64.355 18.651335
64.360 18.227577
64.365 17.905268
64.370 18.124592
64.375 18.257137
64.380 18.73333
64.385 19.299904
64.390 19.427288
64.395 20.180578
64.400 20.459507
64.405 21.028654
64.410 21.074581
64.415 20.582897
64.420 19.99188
64.425 19.706686
64.430 19.416302
64.435 19.374575
64.440 19.077175
64.445 18.962839
64.450 18.923813
64.455 18.98171
64.460 19.291313
64.465 19.530161
64.470 19.872591
64.475 19.900721
64.480 20.421114
64.485 20.713097
64.490 21.067904
64.495 21.51895
64.500 21.561932
64.505 21.098948
64.510 20.32445
64.515 19.913361
64.520 19.531075
64.525 19.406775
64.530 19.079592
64.535 19.64521
64.540 20.262861
64.545 20.425747
64.550 20.724611
64.555 21.526321
64.560 21.757864
64.565 21.644232
64.570 21.668747
64.575 21.667517
64.580 21.893833
64.585 21.509914
64.590 20.949442
64.595 20.203266
64.600 19.847248
64.605 19.833448
64.610 20.382763
64.615 19.923315
64.620 20.077475
64.625 19.998289
64.630 20.418774
64.635 20.255356
64.640 18.882215
64.645 18.565859
64.650 18.774429
64.655 18.579306
64.660 18.995014
64.665 18.752972
64.670 18.64106
64.675 19.484671
64.680 18.956757
64.685 19.411669
64.690 19.470192
64.695 19.530857
64.700 20.009901
64.705 20.306477
64.710 20.23959
64.715 20.403465
64.720 20.30488
64.725 20.481859
64.730 20.648249
64.735 20.972189
64.740 20.511444
64.745 20.567333
64.750 21.014324
64.755 20.931492
64.760 20.745165
64.765 20.511627
64.770 19.994249
64.775 20.64341
64.780 20.386751
64.785 20.023266
64.790 20.280195
64.795 20.472801
64.800 20.49361
64.805 20.882561
64.810 20.839977
64.815 21.139853
64.820 21.56477
64.825 21.695477
64.830 22.105526
64.835 22.350962
64.840 22.034334
64.845 21.84803
64.850 21.792353
64.855 21.992577
64.860 21.653833
64.865 21.207254
64.870 21.017996
64.875 20.822765
64.880 21.067202
64.885 20.898134
64.890 20.656826
64.895 21.113405
64.900 21.416489
64.905 22.377392
64.910 22.475134
64.915 23.497227
64.920 24.653708
64.925 24.444403
64.930 24.192823
64.935 24.29698
64.940 23.945612
64.945 23.67399
64.950 22.893852
64.955 22.446741
64.960 22.230627
64.965 22.056908
64.970 21.531172
64.975 21.693298
64.980 23.035395
64.985 23.373262
64.990 23.456228
64.995 24.075539
65.000 24.679426
65.005 24.810156
65.010 24.550369
65.015 24.181658
65.020 24.72975
65.025 24.862267
65.030 24.848272
65.035 24.961109
65.040 25.02644
65.045 25.008402
65.050 24.235188
65.055 23.370081
65.060 23.279448
65.065 22.70643
65.070 22.583334
65.075 22.565939
65.080 22.356272
65.085 22.888559
65.090 23.376286
65.095 23.103727
65.100 22.928194
65.105 22.810656
65.110 22.95023
65.115 22.871601
65.120 22.693325
65.125 22.583609
65.130 22.883152
65.135 23.83824
65.140 24.08581
65.145 24.359541
65.150 24.649094
65.155 24.48827
65.160 24.638855
65.165 25.021524
65.170 25.218374
65.175 25.161755
65.180 25.037241
65.185 25.274693
65.190 25.285425
65.195 25.581617
65.200 25.857418
65.205 25.670837
65.210 25.294395
65.215 25.398178
65.220 24.809023
65.225 24.462214
65.230 23.860641
65.235 22.638716
65.240 22.399166
65.245 22.337465
65.250 22.012178
65.255 22.27973
65.260 22.641319
65.265 22.124031
65.270 22.713715
65.275 23.269257
65.280 24.046085
65.285 24.712339
65.290 25.143711
65.295 25.402309
65.300 25.842575
65.305 25.553759
65.310 24.528946
65.315 23.570616
65.320 23.371672
65.325 22.983538
65.330 22.74502
65.335 23.417116
65.340 23.845089
65.345 24.332872
65.350 24.61573
65.355 24.084328
65.360 23.812708
65.365 23.962
65.370 23.788555
65.375 24.221874
65.380 24.332359
65.385 24.608412
65.390 25.057926
65.395 25.58197
65.400 25.228838
65.405 24.276016
65.410 23.484486
65.415 23.500858
65.420 23.937582
65.425 23.97291
65.430 23.457714
65.435 23.388088
65.440 24.119404
65.445 24.878361
65.450 24.422356
65.455 24.071295
65.460 24.578932
65.465 24.872196
65.470 25.026146
65.475 25.144659
65.480 25.657892
65.485 26.054592
65.490 25.874058
65.495 26.530302
65.500 27.317913
65.505 27.902912
65.510 28.469908
65.515 28.167126
65.520 28.536833
65.525 28.412691
65.530 27.925152
65.535 27.999413
65.540 27.932146
65.545 28.566704
65.550 28.69713
65.555 29.535463
65.560 29.485296
65.565 29.511597
65.570 29.659248
65.575 30.278585
65.580 30.167173
65.585 29.954794
65.590 29.747995
65.595 30.495323
65.600 31.224846
65.605 31.165836
65.610 30.825199
65.615 30.754108
65.620 30.996174
65.625 31.670883
65.630 31.981304
65.635 32.001141
65.640 32.065556
65.645 32.864182
65.650 33.599163
65.655 33.809196
65.660 33.234509
65.665 33.153763
65.670 33.259502
65.675 33.368702
65.680 32.859161
65.685 33.324917
65.690 34.28537
65.695 34.815372
65.700 34.692215
65.705 34.29015
65.710 34.822567
65.715 34.493641
65.720 33.700478
65.725 33.654888
65.730 33.801796
65.735 34.504963
65.740 34.99202
65.745 35.109161
65.750 35.728371
65.755 35.910763
65.760 35.115971
65.765 34.782688
65.770 35.285698
65.775 35.622643
65.780 35.997692
65.785 36.081287
65.790 36.779938
65.795 36.901058
65.800 36.780647
65.805 36.633343
65.810 36.504692
65.815 36.282825
65.820 37.622261
65.825 37.987484
65.830 39.160553
65.835 39.924236
65.840 40.442059
65.845 40.800331
65.850 40.802784
65.855 40.192631
65.860 40.008263
65.865 39.206295
65.870 38.775818
65.875 38.434982
65.880 38.009605
65.885 37.94173
65.890 37.872517
65.895 37.376713
65.900 37.192223
65.905 36.928162
65.910 36.926136
65.915 37.610733
65.920 38.200012
65.925 38.970848
65.930 39.965637
65.935 40.658298
65.940 40.641033
65.945 40.631683
65.950 39.752449
65.955 39.695354
65.960 39.624828
65.965 39.547245
65.970 39.468792
65.975 39.885693
65.980 40.635067
65.985 41.471737
65.990 40.749512
65.995 39.566093
66.000 39.793381
66.005 39.889362
66.010 40.076485
66.015 39.101753
66.020 38.979439
66.025 39.663555
66.030 40.248734
66.035 40.037197
66.040 39.630028
66.045 39.309216
66.050 40.302181
66.055 40.106033
66.060 39.205822
66.065 39.346355
66.070 39.385551
66.075 39.412697
66.080 39.767693
66.085 38.90934
66.090 38.527042
66.095 39.256008
66.100 39.257244
66.105 39.269421
66.110 39.500702
66.115 39.39677
66.120 39.32724
66.125 40.030552
66.130 40.345604
66.135 40.381756
66.140 40.399757
66.145 40.579346
66.150 40.2257
66.155 40.273102
66.160 40.167374
66.165 40.424183
66.170 40.109486
66.175 39.170563
66.180 38.302761
66.185 38.081608
66.190 38.108994
66.195 38.5741
66.200 38.15033
66.205 37.830582
66.210 38.65292
66.215 38.671013
66.220 39.150749
66.225 39.200214
66.230 38.566715
66.235 37.666431
66.240 37.437065
66.245 37.815453
66.250 38.156178
66.255 38.26347
66.260 38.106728
66.265 37.704296
66.270 37.980148
66.275 37.91991
66.280 37.385345
66.285 36.413963
66.290 35.637547
66.295 36.01778
66.300 36.830616
66.305 36.813549
66.310 37.525532
66.315 37.235954
66.320 37.360023
66.325 37.318687
66.330 36.649708
66.335 35.603874
66.340 34.382042
66.345 33.878002
66.350 34.18008
66.355 34.236679
66.360 34.515533
66.365 34.341881
66.370 34.26355
66.375 34.723019
66.380 34.775185
66.385 34.192123
66.390 33.770664
66.395 32.478138
66.400 31.639069
66.405 31.303442
66.410 31.075876
66.415 30.849056
66.420 30.908119
66.425 31.243448
66.430 31.659775
66.435 31.401228
66.440 31.752174
66.445 32.066242
66.450 31.62606
66.455 31.624868
66.460 31.332609
66.465 31.501993
66.470 31.709661
66.475 31.240499
66.480 30.677641
66.485 30.722265
66.490 30.812954
66.495 30.936768
66.500 31.269279
66.505 31.727652
66.510 31.297844
66.515 30.77747
66.520 29.766983
66.525 28.8934
66.530 28.093664
66.535 27.431347
66.540 26.853827
66.545 27.209841
66.550 27.586548
66.555 27.456627
66.560 27.719563
66.565 27.756863
66.570 28.09239
66.575 28.06212
66.580 27.393507
66.585 26.330847
66.590 26.928284
66.595 26.70702
66.600 26.54335
66.605 26.497587
66.610 26.970034
66.615 28.014547
66.620 29.092299
66.625 28.991047
66.630 28.661404
66.635 28.720215
66.640 28.47344
66.645 27.769909
66.650 26.808744
66.655 25.676931
66.660 25.166864
66.665 25.329792
66.670 25.235643
66.675 24.898758
66.680 25.014982
66.685 24.898867
66.690 24.930813
66.695 24.910843
66.700 24.429398
66.705 23.928432
66.710 24.093454
66.715 24.22975
66.720 24.452063
66.725 24.745007
66.730 24.756916
66.735 25.800589
66.740 26.66024
66.745 26.2934
66.750 26.162809
66.755 26.678104
66.760 26.439924
66.765 26.786983
66.770 26.088512
66.775 25.404728
66.780 25.507227
66.785 25.059296
66.790 24.489754
66.795 24.669607
66.800 24.592913
66.805 24.896278
66.810 24.726763
66.815 24.533695
66.820 24.520496
66.825 23.757547
66.830 22.761864
66.835 21.908545
66.840 21.38299
66.845 21.770153
66.850 22.100967
66.855 22.516397
66.860 22.975981
66.865 23.60523
66.870 24.033833
66.875 24.002964
66.880 23.56813
66.885 23.858482
66.890 23.304426
66.895 23.546459
66.900 23.664904
66.905 24.249266
66.910 24.174025
66.915 23.879484
66.920 23.387386
66.925 23.310427
66.930 23.209446
66.935 23.445784
66.940 23.808573
66.945 24.883848
66.950 24.791946
66.955 24.581675
66.960 24.635252
66.965 25.055807
66.970 24.715866
66.975 24.049648
66.980 23.048851
66.985 22.775562
66.990 22.461386
66.995 22.087952
67.000 21.104301
67.005 21.153822
67.010 21.059258
67.015 21.715397
67.020 22.326811
67.025 23.024803
67.030 23.687634
67.035 24.266674
67.040 23.8594
67.045 23.859779
67.050 23.726711
67.055 23.436047
67.060 23.705704
67.065 23.121023
67.070 22.778856
67.075 23.376284
67.080 23.190866
67.085 23.086826
67.090 22.983784
67.095 23.040573
67.100 23.716221
67.105 23.535284
67.110 23.267904
67.115 23.1742
67.120 23.850782
67.125 23.963745
67.130 23.638403
67.135 23.17835
67.140 23.114136
67.145 23.25802
67.150 22.936514
67.155 21.99474
67.160 21.811369
67.165 21.544605
67.170 21.537998
67.175 21.945137
67.180 22.234312
67.185 22.62591
67.190 22.996077
67.195 23.228598
67.200 22.985592
67.205 22.900227
67.210 22.448561
67.215 22.504141
67.220 22.892208
67.225 22.666958
67.230 22.457909
67.235 22.350637
67.240 22.168556
67.245 22.448408
67.250 22.333838
67.255 22.847355
67.260 23.78373
67.265 24.384897
67.270 24.774622
67.275 24.496944
67.280 23.870562
67.285 23.303429
67.290 22.749483
67.295 22.505604
67.300 22.524097
67.305 22.635082
67.310 23.08086
67.315 22.897346
67.320 22.399427
67.325 21.963928
67.330 21.584812
67.335 21.064844
67.340 21.277973
67.345 21.339289
67.350 22.074881
67.355 22.539427
67.360 22.913383
67.365 22.570417
67.370 23.323177
67.375 23.27746
67.380 23.26511
67.385 22.891146
67.390 22.531422
67.395 22.852169
67.400 22.727293
67.405 21.846251
67.410 21.984749
67.415 21.761244
67.420 21.63265
67.425 21.67947
67.430 21.441067
67.435 21.511709
67.440 21.59918
67.445 21.400101
67.450 21.644236
67.455 21.497862
67.460 21.264645
67.465 21.148403
67.470 21.205345
67.475 20.918142
67.480 20.682741
67.485 21.114227
67.490 22.193886
67.495 22.527136
67.500 22.902998
67.505 23.276022
67.510 24.033438
67.515 24.73093
67.520 24.677794
67.525 24.14467
67.530 24.123875
67.535 24.250923
67.540 24.415295
67.545 24.08639
67.550 23.823154
67.555 24.0333
67.560 24.02075
67.565 24.645599
67.570 24.812349
67.575 24.079863
67.580 24.176857
67.585 24.371712
67.590 23.779783
67.595 23.780647
67.600 23.146452
67.605 22.906206
67.610 23.388353
67.615 23.150742
67.620 22.452364
67.625 21.981945
67.630 21.538794
67.635 20.863073
67.640 19.890715
67.645 19.966715
67.650 19.790993
67.655 20.522982
67.660 21.003305
67.665 21.779736
67.670 22.524359
67.675 22.930519
67.680 22.353468
67.685 22.305836
67.690 21.6847
67.695 21.793219
67.700 20.91868
67.705 20.950825
67.710 21.003847
67.715 21.313648
67.720 21.478304
67.725 21.584566
67.730 21.387854
67.735 21.834028
67.740 21.8563
67.745 21.875158
67.750 21.845476
67.755 21.68812
67.760 21.312202
67.765 21.069752
67.770 20.501848
67.775 20.126375
67.780 19.599401
67.785 19.365425
67.790 19.788786
67.795 19.603146
67.800 19.274124
67.805 19.456038
67.810 19.476223
67.815 19.766293
67.820 19.595421
67.825 19.421612
67.830 19.584076
67.835 19.809916
67.840 20.131653
67.845 20.332655
67.850 20.079329
67.855 20.051819
67.860 20.063145
67.865 19.874928
67.870 19.798677
67.875 19.832026
67.880 19.678686
67.885 19.696404
67.890 19.534088
67.895 19.098804
67.900 19.979113
67.905 20.416534
67.910 19.970341
67.915 20.455877
67.920 20.514551
67.925 20.923862
67.930 21.765585
67.935 21.462839
67.940 21.191339
67.945 21.643015
67.950 21.678505
67.955 21.977449
67.960 21.736691
67.965 21.388824
67.970 21.304724
67.975 21.355328
67.980 21.203192
67.985 21.559025
67.990 21.225117
67.995 21.551588
68.000 21.400227
68.005 21.897377
68.010 21.682713
68.015 21.616344
68.020 21.337595
68.025 21.303257
68.030 21.236519
68.035 20.877434
68.040 20.107935
68.045 20.000031
68.050 19.500807
68.055 19.893713
68.060 20.651846
68.065 21.082975
68.070 21.534819
68.075 22.028366
68.080 22.655191
68.085 23.396154
68.090 23.216171
68.095 23.213522
68.100 22.951214
68.105 23.819696
68.110 24.065706
68.115 23.843292
68.120 23.026623
68.125 22.890856
68.130 23.00943
68.135 22.972143
68.140 21.917278
68.145 21.282562
68.150 21.567137
68.155 21.86009
68.160 21.681551
68.165 21.280039
68.170 21.980942
68.175 22.554564
68.180 22.356762
68.185 22.099314
68.190 22.085596
68.195 21.983101
68.200 21.582939
68.205 21.443756
68.210 21.16514
68.215 21.037344
68.220 21.101933
68.225 20.992561
68.230 20.84971
68.235 20.806957
68.240 20.307959
68.245 20.72197
68.250 21.759657
68.255 21.879648
68.260 22.464033
68.265 22.89637
68.270 22.710419
68.275 21.864256
68.280 21.7274
68.285 21.528149
68.290 21.252796
68.295 21.11949
68.300 20.891289
68.305 20.751022
68.310 21.223227
68.315 20.828785
68.320 20.275644
68.325 20.592051
68.330 20.871147
68.335 20.642159
68.340 20.632778
68.345 20.927855
68.350 21.552258
68.355 21.822235
68.360 21.366409
68.365 20.762638
68.370 21.369032
68.375 21.393139
68.380 21.367508
68.385 21.465176
68.390 21.244846
68.395 21.690092
68.400 21.779533
68.405 22.180283
68.410 22.55945
68.415 22.013987
68.420 22.106777
68.425 22.103214
68.430 21.928329
68.435 21.639412
68.440 21.310175
68.445 21.342211
68.450 21.306273
68.455 21.249628
68.460 21.139071
68.465 21.605173
68.470 21.659489
68.475 21.893436
68.480 22.136021
68.485 22.616282
68.490 21.955276
68.495 21.966957
68.500 21.880314
68.505 21.962797
68.510 21.617743
68.515 21.781395
68.520 21.369308
68.525 22.119152
68.530 21.908386
68.535 21.835295
68.540 21.581015
68.545 21.396038
68.550 20.894779
68.555 20.355627
68.560 20.09096
68.565 20.242348
68.570 20.370995
68.575 20.948309
68.580 21.063747
68.585 21.424931
68.590 21.979692
68.595 22.097469
68.600 21.997396
68.605 22.006723
68.610 21.857176
68.615 21.677326
68.620 21.93907
68.625 22.079521
68.630 22.283772
68.635 22.482494
68.640 22.433025
68.645 22.104977
68.650 22.392548
68.655 22.441317
68.660 22.097092
68.665 21.574045
68.670 21.774632
68.675 22.100674
68.680 22.269844
68.685 22.687017
68.690 22.691219
68.695 23.603893
68.700 24.137014
68.705 24.236963
68.710 23.758692
68.715 23.054087
68.720 22.464645
68.725 22.624399
68.730 22.54055
68.735 22.729094
68.740 22.917484
68.745 23.679485
68.750 24.286409
68.755 24.300974
68.760 23.808907
68.765 23.589302
68.770 22.855871
68.775 22.434071
68.780 21.623857
68.785 21.412464
68.790 21.454819
68.795 21.348778
68.800 21.481758
68.805 21.714863
68.810 21.609825
68.815 22.681475
68.820 22.883808
68.825 22.906733
68.830 23.280916
68.835 23.269833
68.840 23.203165
68.845 23.241604
68.850 23.063305
68.855 22.9095
68.860 23.102514
68.865 23.0499
68.870 23.818874
68.875 23.948345
68.880 23.752136
68.885 23.558119
68.890 23.679514
68.895 23.164936
68.900 22.987915
68.905 21.877071
68.910 22.013771
68.915 22.483074
68.920 22.866228
68.925 23.658939
68.930 24.135921
68.935 24.031929
68.940 24.541698
68.945 24.913191
68.950 24.491852
68.955 23.9011
68.960 23.22015
68.965 23.750954
68.970 23.955263
68.975 23.604567
68.980 23.489353
68.985 23.805838
68.990 23.747601
68.995 23.707527
69.000 23.509336
69.005 24.219263
69.010 24.990818
69.015 24.40823
69.020 24.450737
69.025 24.860571
69.030 25.149891
69.035 24.152723
69.040 23.488762
69.045 23.131107
69.050 23.589664
69.055 23.894289
69.060 23.646889
69.065 23.732086
69.070 24.81883
69.075 24.998369
69.080 25.27696
69.085 25.888273
69.090 26.146715
69.095 25.987202
69.100 26.412844
69.105 26.386169
69.110 26.253315
69.115 25.794115
69.120 25.866159
69.125 25.972137
69.130 26.341616
69.135 25.53196
69.140 24.899027
69.145 25.077473
69.150 25.478909
69.155 25.359179
69.160 24.762091
69.165 25.156893
69.170 25.915903
69.175 27.340115
69.180 27.374975
69.185 27.709337
69.190 28.412352
69.195 29.092417
69.200 28.551193
69.205 28.728907
69.210 27.856415
69.215 27.907738
69.220 27.490459
69.225 27.100845
69.230 26.801685
69.235 27.212234
69.240 26.886293
69.245 27.184324
69.250 26.937759
69.255 26.87384
69.260 26.870367
69.265 26.913319
69.270 27.177544
69.275 27.853916
69.280 28.357208
69.285 29.032305
69.290 28.986044
69.295 29.549013
69.300 29.966461
69.305 29.572838
69.310 29.285311
69.315 29.139832
69.320 28.574179
69.325 28.791618
69.330 28.837074
69.335 28.681044
69.340 28.966078
69.345 29.17914
69.350 29.848825
69.355 29.833824
69.360 29.860989
69.365 29.761284
69.370 29.80442
69.375 29.735727
69.380 29.328665
69.385 28.833927
69.390 29.683052
69.395 30.175421
69.400 30.344883
69.405 29.600168
69.410 29.443737
69.415 30.152193
69.420 30.673819
69.425 30.258144
69.430 30.013313
69.435 30.01289
69.440 31.136223
69.445 32.25499
69.450 31.982426
69.455 32.104286
69.460 30.917688
69.465 30.161537
69.470 30.283157
69.475 29.249142
69.480 28.628593
69.485 28.278006
69.490 28.662039
69.495 29.607046
69.500 30.034609
69.505 30.889406
69.510 31.499304
69.515 31.441574
69.520 31.056177
69.525 31.452421
69.530 31.817995
69.535 31.702902
69.540 30.918581
69.545 30.646885
69.550 31.294487
69.555 32.143539
69.560 31.79669
69.565 31.524513
69.570 32.050781
69.575 32.286694
69.580 32.970238
69.585 32.887486
69.590 31.531261
69.595 31.28174
69.600 31.480833
69.605 31.771885
69.610 31.352327
69.615 30.57958
69.620 29.932976
69.625 29.935446
69.630 30.055553
69.635 29.639238
69.640 28.857101
69.645 28.752264
69.650 28.946701
69.655 29.075462
69.660 28.921413
69.665 28.615122
69.670 28.067064
69.675 28.04355
69.680 27.746464
69.685 27.333406
69.690 26.922453
69.695 27.617306
69.700 28.06369
69.705 28.584827
69.710 28.680267
69.715 29.227053
69.720 29.571939
69.725 28.936604
69.730 28.21236
69.735 27.803165
69.740 27.472185
69.745 27.25754
69.750 26.79434
69.755 26.45434
69.760 26.863153
69.765 26.397636
69.770 26.161371
69.775 25.632126
69.780 25.29353
69.785 25.469805
69.790 26.002626
69.795 26.688318
69.800 27.212276
69.805 27.235476
69.810 27.612652
69.815 27.840893
69.820 27.631348
69.825 27.041807
69.830 26.321989
69.835 26.233402
69.840 26.73171
69.845 26.665775
69.850 26.048843
69.855 25.257786
69.860 25.477196
69.865 25.618717
69.870 24.863111
69.875 24.273169
69.880 23.664869
69.885 23.754477
69.890 24.377062
69.895 23.976679
69.900 24.126667
69.905 24.688568
69.910 24.10083
69.915 23.989483
69.920 23.481482
69.925 22.925375
69.930 23.025204
69.935 22.266171
69.940 21.73171
69.945 22.08024
69.950 22.595741
69.955 23.265242
69.960 23.896927
69.965 23.955757
69.970 23.961637
69.975 24.574389
69.980 24.805216
69.985 24.536562
69.990 23.916807
69.995 24.005997
70.000 23.711826
70.005 23.745413
70.010 23.571957
70.015 23.437939
70.020 23.693167
70.025 23.551376
70.030 23.167068
70.035 23.046383
70.040 22.689634
70.045 22.157656
70.050 22.226572
70.055 22.672398
70.060 22.290739
70.065 21.981266
70.070 22.579096
70.075 22.572319
70.080 23.455242
70.085 23.446541
70.090 23.668446
70.095 24.465809
70.100 24.434038
70.105 24.023975
70.110 23.915785
70.115 23.137669
70.120 22.726822
70.125 22.577995
70.130 22.708
70.135 23.016802
70.140 23.188332
70.145 23.206123
70.150 23.762478
70.155 23.342161
70.160 22.680773
70.165 21.957277
70.170 21.020365
70.175 20.97982
70.180 20.65881
70.185 20.872393
70.190 21.714052
70.195 22.375694
70.200 23.234734
70.205 23.048054
70.210 23.364082
70.215 23.693947
70.220 22.974607
70.225 22.666958
70.230 21.961338
70.235 21.554268
70.240 22.188301
70.245 22.04796
70.250 21.918234
70.255 21.777088
70.260 22.096159
70.265 22.471081
70.270 22.348398
70.275 21.501328
70.280 21.56465
70.285 22.01622
70.290 22.245087
70.295 21.590191
70.300 21.325085
70.305 21.592398
70.310 21.854132
70.315 21.705639
70.320 21.332659
70.325 21.265314
70.330 21.197247
70.335 20.708586
70.340 20.877205
70.345 21.312149
70.350 20.607382
70.355 20.573404
70.360 21.01343
70.365 21.422413
70.370 21.719509
70.375 21.737799
70.380 21.52173
70.385 21.844036
70.390 21.727755
70.395 21.570444
70.400 21.445704
70.405 21.559401
70.410 21.19364
70.415 20.833574
70.420 21.016296
70.425 20.683022
70.430 20.257854
70.435 20.509197
70.440 20.972082
70.445 21.5709
70.450 21.776321
70.455 21.69282
70.460 21.82568
70.465 21.644854
70.470 21.291836
70.475 20.553154
70.480 20.060755
70.485 19.805235
70.490 19.700916
70.495 20.071993
70.500 20.779116
70.505 20.968805
70.510 21.339983
70.515 21.49745
70.520 21.384411
70.525 21.318214
70.530 21.107615
70.535 20.481052
70.540 19.997095
70.545 19.913124
70.550 19.969931
70.555 20.083624
70.560 20.349775
70.565 20.156462
70.570 20.113018
70.575 20.27487
70.580 20.619692
70.585 20.901199
70.590 21.120001
70.595 21.158283
70.600 21.25931
70.605 21.325815
70.610 20.899694
70.615 20.687433
70.620 20.436777
70.625 20.148113
70.630 20.364716
70.635 20.176695
70.640 20.29838
70.645 20.302153
70.650 20.48786
70.655 20.692463
70.660 20.441496
70.665 19.989294
70.670 19.948624
70.675 20.350056
70.680 20.094433
70.685 19.829201
70.690 19.454481
70.695 19.931236
70.700 20.117479
70.705 20.141657
70.710 20.053286
70.715 20.124266
70.720 19.92013
70.725 19.51016
70.730 19.428728
70.735 19.422939
70.740 19.51359
70.745 19.416685
70.750 20.0606
70.755 20.745972
70.760 21.032295
70.765 20.660463
70.770 21.090942
70.775 20.714224
70.780 20.083902
70.785 19.565939
70.790 19.275898
70.795 19.267971
70.800 19.18667
70.805 18.636293
70.810 18.694801
70.815 19.112394
70.820 19.274574
70.825 19.418777
70.830 19.937374
70.835 19.987316
70.840 19.628685
70.845 19.212057
70.850 18.904171
70.855 18.569723
70.860 18.179865
70.865 17.530634
70.870 17.642735
70.875 18.64395
70.880 19.127279
70.885 19.722038
70.890 20.359941
70.895 20.776369
70.900 21.505192
70.905 21.778883
70.910 22.2904
70.915 22.358807
70.920 21.358076
70.925 20.388971
70.930 19.547691
70.935 18.967573
70.940 18.738411
70.945 18.538321
70.950 18.350111
70.955 18.936749
70.960 19.216249
70.965 19.500345
70.970 19.86348
70.975 19.869427
70.980 19.854717
70.985 19.76473
70.990 20.512222
70.995 20.598902
71.000 20.9205
71.005 21.043436
71.010 20.64065
71.015 20.535782
71.020 21.485394
71.025 20.771532
71.030 20.421736
71.035 19.916431
71.040 19.684452
71.045 19.941133
71.050 19.988306
71.055 19.302135
71.060 19.325136
71.065 19.333456
71.070 19.688854
71.075 19.260077
71.080 19.07523
71.085 18.738665
71.090 18.71512
71.095 19.559273
71.100 20.403563
71.105 20.254469
71.110 20.646952
71.115 20.968225
71.120 20.747589
71.125 20.791706
71.130 20.187294
71.135 20.53751
71.140 20.972836
71.145 21.016068
71.150 21.405321
71.155 21.420528
71.160 21.327658
71.165 21.221508
71.170 21.197807
71.175 21.336761
71.180 21.198164
71.185 21.318464
71.190 21.613979
71.195 21.104853
71.200 21.063267
71.205 20.183634
71.210 20.367956
71.215 20.281401
71.220 20.416067
71.225 20.434679
71.230 20.127863
71.235 19.97197
71.240 20.26915
71.245 19.72226
71.250 19.465218
71.255 18.969656
71.260 19.550077
71.265 20.352268
71.270 20.280079
71.275 20.402763
71.280 20.382774
71.285 20.25841
71.290 20.329523
71.295 19.948042
71.300 19.857004
71.305 19.482834
71.310 19.255758
71.315 18.913221
71.320 18.633863
71.325 18.26388
71.330 19.214552
71.335 19.51199
71.340 20.291796
71.345 20.724745
71.350 21.077093
71.355 21.287949
71.360 21.038952
71.365 20.20133
71.370 19.846079
71.375 19.552664
71.380 19.640175
71.385 19.886274
71.390 20.372038
71.395 20.675068
71.400 20.193624
71.405 20.861076
71.410 20.913633
71.415 20.949657
71.420 21.049414
71.425 20.923609
71.430 20.871559
71.435 20.931293
71.440 20.223007
71.445 19.732853
71.450 19.136917
71.455 19.258734
71.460 19.265446
71.465 19.725714
71.470 19.646084
71.475 19.293871
71.480 19.283484
71.485 19.361656
71.490 19.280344
71.495 18.887753
71.500 18.411972
71.505 18.567972
71.510 19.043081
71.515 19.194941
71.520 18.819117
71.525 18.314533
71.530 18.534781
71.535 18.31262
71.540 18.430584
71.545 18.209713
71.550 17.764702
71.555 17.826611
71.560 17.844673
71.565 17.555422
71.570 17.663996
71.575 17.470024
71.580 17.640299
71.585 17.714842
71.590 18.040525
71.595 17.964647
71.600 17.825771
71.605 17.856018
71.610 18.069815
71.615 18.190895
71.620 18.719322
71.625 18.94138
71.630 19.260576
71.635 19.229181
71.640 19.1738
71.645 18.869165
71.650 19.138338
71.655 19.075209
71.660 18.434692
71.665 18.348448
71.670 18.634981
71.675 18.737461
71.680 18.264824
71.685 17.410728
71.690 17.376785
71.695 17.626112
71.700 18.149397
71.705 18.205286
71.710 18.058361
71.715 19.001141
71.720 19.823757
71.725 19.871994
71.730 19.670156
71.735 19.725538
71.740 20.597538
71.745 20.84972
71.750 20.142334
71.755 20.012083
71.760 20.244411
71.765 20.320299
71.770 19.687613
71.775 19.637218
71.780 19.838659
71.785 19.959305
71.790 19.853033
71.795 19.826502
71.800 20.041033
71.805 19.75174
71.810 18.875273
71.815 18.494251
71.820 18.592213
71.825 18.699915
71.830 19.170481
71.835 19.241217
71.840 19.323591
71.845 20.085407
71.850 21.004204
71.855 20.711935
71.860 20.559059
71.865 19.744411
71.870 19.738562
71.875 20.248095
71.880 19.734983
71.885 19.380337
71.890 19.112747
71.895 19.033947
71.900 19.603933
71.905 19.752819
71.910 19.397081
71.915 19.550266
71.920 20.196674
71.925 20.793507
71.930 20.408531
71.935 19.997639
71.940 20.141855
71.945 20.061077
71.950 19.820051
71.955 19.192636
71.960 19.357891
71.965 19.649569
71.970 19.478853
71.975 19.580765
71.980 19.765417
71.985 20.221106
71.990 20.530323
71.995 20.322449
72.000 20.128977
72.005 19.766672
72.010 19.595434
72.015 18.731134
72.020 17.853476
72.025 17.512909
72.030 17.594877
72.035 18.087433
72.040 18.33445
72.045 18.488478
72.050 19.120436
72.055 19.777626
72.060 20.276304
72.065 20.176998
72.070 19.562218
72.075 18.887648
72.080 18.813089
72.085 18.850782
72.090 18.679974
72.095 18.479664
72.100 18.812258
72.105 19.07358
72.110 19.528971
72.115 19.009285
72.120 18.548574
72.125 18.673399
72.130 18.593199
72.135 18.651047
72.140 18.487709
72.145 19.009085
72.150 19.721828
72.155 19.543484
72.160 18.870201
72.165 18.86764
72.170 18.522066
72.175 18.324602
72.180 17.573898
72.185 18.073164
72.190 18.523693
72.195 18.834974
72.200 19.024626
72.205 19.626667
72.210 19.527231
72.215 19.35713
72.220 18.394321
72.225 18.504015
72.230 19.063017
72.235 18.971972
72.240 19.11013
72.245 19.633631
72.250 19.392712
72.255 19.267101
72.260 18.643354
72.265 18.074505
72.270 18.187916
72.275 17.835442
72.280 17.411192
72.285 17.192881
72.290 17.309591
72.295 17.742105
72.300 17.805229
72.305 17.57865
72.310 17.6703
72.315 18.409012
72.320 18.494017
72.325 18.654398
72.330 18.584301
72.335 18.509205
72.340 18.283403
72.345 18.158724
72.350 18.022591
72.355 17.623571
72.360 17.479053
72.365 16.964563
72.370 17.108435
72.375 17.218283
72.380 16.976151
72.385 17.057114
72.390 17.390108
72.395 17.576254
72.400 17.655453
72.405 17.705698
72.410 17.607981
72.415 18.175747
72.420 18.586002
72.425 19.125881
72.430 18.785015
72.435 19.093149
72.440 19.521006
72.445 20.077026
72.450 20.246635
72.455 19.469313
72.460 18.755692
72.465 18.96088
72.470 18.325657
72.475 18.097303
72.480 17.579514
72.485 17.497751
72.490 18.248896
72.495 18.454418
72.500 18.633499
72.505 18.451157
72.510 18.116253
72.515 18.027407
72.520 18.446358
72.525 17.931993
72.530 17.969076
72.535 17.823774
72.540 18.120424
72.545 18.177151
72.550 18.397093
72.555 18.516577
72.560 18.660233
72.565 19.408104
72.570 19.604017
72.575 19.794418
72.580 20.252476
72.585 20.45229
72.590 19.719002
72.595 19.404436
72.600 19.188375
72.605 19.425098
72.610 19.53829
72.615 18.943846
72.620 18.46579
72.625 18.860744
72.630 18.392914
72.635 18.034649
72.640 18.222677
72.645 17.62904
72.650 17.230309
72.655 17.297581
72.660 17.691277
72.665 17.918547
72.670 18.311306
72.675 17.79991
72.680 17.843435
72.685 17.649137
72.690 17.467258
72.695 17.67251
72.700 17.518024
72.705 16.888226
72.710 17.08588
72.715 17.323975
72.720 17.610533
72.725 17.440367
72.730 16.647305
72.735 16.516254
72.740 16.743481
72.745 16.71912
72.750 16.429436
72.755 16.855793
72.760 17.776287
72.765 18.252052
72.770 17.850788
72.775 17.766365
72.780 18.011612
72.785 18.047766
72.790 17.115179
72.795 16.612465
72.800 16.745899
72.805 17.103582
72.810 17.394203
72.815 17.891344
72.820 18.096865
72.825 18.524712
72.830 18.798096
72.835 18.977863
72.840 18.748611
72.845 18.102825
72.850 18.546537
72.855 18.704771
72.860 18.370644
72.865 18.185709
72.870 18.34881
72.875 18.743839
72.880 18.870865
72.885 18.06217
72.890 17.731413
72.895 18.618366
72.900 18.692337
72.905 18.690193
72.910 19.133926
72.915 19.804461
72.920 19.894871
72.925 19.582384
72.930 19.343029
72.935 19.178909
72.940 18.473423
72.945 17.743326
72.950 17.456831
72.955 17.465799
72.960 17.777105
72.965 18.002136
72.970 17.976675
72.975 18.197821
72.980 17.719158
72.985 17.776354
72.990 18.160196
72.995 17.732674
73.000 17.346838
