!@!!GADDS PLOTSO FILE: Chi integration type
!@!!Title/SampleName: map-d6
!@!!Comment: ?
!@!!User: Bruker Instrument Administrator
!@!!Site: University of Illinois Chicago
!@!!Frame: map-d6_01_000.gfrm
!@!!Wavelengths    1.54184   1.54056   1.54439
!@!!Frame angles: 2Theta: 63.000 Omega: 50.000 Phi: 0.000 Chi: 90.000
!@!!Integration range: 2Theta: 53.000 to 73.000  Gamma: -105.000 to -75.000
!@!!Integration method: bin normalized
!@!N
!@!SS
!@!M
!@!L 0.0 0.0 0.0 0.0
!@!XDegrees
!@!YCounts
53.000 8.399442
53.005 8.524859
53.010 8.970796
53.015 8.921494
53.020 8.389714
53.025 8.278508
53.030 8.669233
53.035 9.105643
53.040 8.900952
53.045 8.639837
53.050 8.978438
53.055 9.039495
53.060 9.028337
53.065 9.17047
53.070 9.35334
53.075 9.384783
53.080 8.952559
53.085 8.894828
53.090 8.490876
53.095 8.214938
53.100 7.679094
53.105 7.490653
53.110 7.436465
53.115 7.432542
53.120 7.649704
53.125 8.359598
53.130 8.531643
53.135 9.052444
53.140 9.1803
53.145 9.279049
53.150 9.237888
53.155 8.907254
53.160 9.055992
53.165 9.284115
53.170 9.123234
53.175 9.054281
53.180 8.976892
53.185 9.080419
53.190 8.912732
53.195 8.59573
53.200 8.411892
53.205 8.271438
53.210 8.670124
53.215 9.04141
53.220 9.158703
53.225 8.80125
53.230 8.845869
53.235 8.759828
53.240 8.803806
53.245 8.394089
53.250 7.983825
53.255 7.931149
53.260 7.88951
53.265 7.678618
53.270 7.493011
53.275 7.387401
53.280 7.63114
53.285 7.593563
53.290 7.925896
53.295 8.209699
53.300 8.236691
53.305 7.962631
53.310 8.552735
53.315 8.729536
53.320 8.712431
53.325 8.077228
53.330 7.833952
53.335 8.410336
53.340 8.719378
53.345 8.257952
53.350 8.44829
53.355 8.574336
53.360 8.959041
53.365 8.921168
53.370 8.884176
53.375 8.745989
53.380 9.005418
53.385 8.764051
53.390 9.079392
53.395 9.675723
53.400 9.332264
53.405 9.241376
53.410 9.440522
53.415 9.5236
53.420 9.844144
53.425 9.448753
53.430 8.866295
53.435 9.107938
53.440 9.273434
53.445 9.291329
53.450 8.815846
53.455 8.66888
53.460 8.424607
53.465 8.943532
53.470 8.850877
53.475 8.514963
53.480 8.351566
53.485 8.584257
53.490 8.869868
53.495 9.388529
53.500 9.893242
53.505 10.191812
53.510 10.418043
53.515 10.379638
53.520 10.892527
53.525 10.613069
53.530 10.39883
53.535 9.86265
53.540 9.807091
53.545 9.491327
53.550 9.496691
53.555 9.394838
53.560 9.842649
53.565 9.990721
53.570 10.086881
53.575 9.956331
53.580 9.959792
53.585 9.737166
53.590 9.973986
53.595 9.458346
53.600 9.436306
53.605 9.610888
53.610 9.737906
53.615 9.998079
53.620 9.943857
53.625 9.269009
53.630 9.06961
53.635 8.671054
53.640 8.600952
53.645 8.503451
53.650 8.322322
53.655 8.587849
53.660 9.053468
53.665 9.191545
53.670 9.484084
53.675 9.727599
53.680 10.035874
53.685 9.964536
53.690 9.742016
53.695 9.822199
53.700 9.782359
53.705 9.400984
53.710 9.429589
53.715 9.342644
53.720 9.789879
53.725 10.192253
53.730 10.217687
53.735 10.145751
53.740 9.93292
53.745 9.679779
53.750 9.63123
53.755 9.597323
53.760 9.123287
53.765 9.284125
53.770 9.93856
53.775 10.314258
53.780 10.608087
53.785 10.359875
53.790 10.139718
53.795 10.175889
53.800 9.957023
53.805 9.425979
53.810 9.099109
53.815 8.958761
53.820 8.935619
53.825 8.391223
53.830 8.561421
53.835 8.575301
53.840 9.006324
53.845 8.821787
53.850 8.806011
53.855 9.067022
53.860 9.765111
53.865 9.703376
53.870 9.359373
53.875 9.199486
53.880 9.63434
53.885 9.919788
53.890 9.685703
53.895 9.510307
53.900 9.265881
53.905 9.49595
53.910 9.278615
53.915 8.930661
53.920 8.817057
53.925 8.398664
53.930 8.69464
53.935 9.511784
53.940 9.393514
53.945 9.611649
53.950 9.726625
53.955 10.004009
53.960 10.712408
53.965 10.651237
53.970 10.576329
53.975 11.046211
53.980 11.062722
53.985 11.376856
53.990 11.209011
53.995 10.728229
54.000 10.326041
54.005 9.872787
54.010 9.503904
54.015 9.021967
54.020 8.856048
54.025 8.8814
54.030 8.95819
54.035 9.120516
54.040 9.455504
54.045 9.591606
54.050 9.753518
54.055 9.797738
54.060 9.958175
54.065 10.504708
54.070 10.13989
54.075 9.941433
54.080 10.112717
54.085 10.236609
54.090 10.195225
54.095 9.68435
54.100 9.425807
54.105 9.705649
54.110 9.893549
54.115 9.72565
54.120 9.530501
54.125 9.906836
54.130 9.95638
54.135 10.122524
54.140 10.623185
54.145 10.437492
54.150 10.698331
54.155 10.346048
54.160 10.392685
54.165 10.283422
54.170 10.26937
54.175 10.105783
54.180 10.170914
54.185 10.07157
54.190 10.408188
54.195 10.652409
54.200 11.281564
54.205 11.086676
54.210 11.002587
54.215 10.904792
54.220 10.925663
54.225 10.698265
54.230 10.545376
54.235 10.613203
54.240 10.429987
54.245 10.107628
54.250 10.574471
54.255 10.69092
54.260 10.57456
54.265 10.412064
54.270 10.182214
54.275 10.495752
54.280 10.175489
54.285 9.863969
54.290 10.226274
54.295 10.244747
54.300 9.979384
54.305 10.478023
54.310 10.525396
54.315 10.900994
54.320 10.773425
54.325 10.872019
54.330 10.855671
54.335 11.222421
54.340 11.085685
54.345 11.099534
54.350 10.573284
54.355 10.49787
54.360 10.38553
54.365 10.182978
54.370 9.471136
54.375 9.229954
54.380 9.551349
54.385 9.882556
54.390 10.3732
54.395 10.675476
54.400 10.918765
54.405 11.426589
54.410 11.253352
54.415 10.942176
54.420 10.824099
54.425 10.316564
54.430 10.29497
54.435 10.001412
54.440 9.956746
54.445 10.412484
54.450 10.803462
54.455 10.850729
54.460 10.611611
54.465 10.495896
54.470 11.441342
54.475 11.441223
54.480 11.422807
54.485 11.483937
54.490 11.751158
54.495 12.093326
54.500 11.794039
54.505 11.049187
54.510 10.937771
54.515 11.175733
54.520 10.932884
54.525 11.366948
54.530 11.212186
54.535 11.429685
54.540 11.321978
54.545 11.234021
54.550 11.362727
54.555 11.123041
54.560 10.566262
54.565 10.259336
54.570 10.602184
54.575 11.569886
54.580 11.347618
54.585 11.194795
54.590 10.931031
54.595 11.135915
54.600 11.434635
54.605 10.900768
54.610 10.486351
54.615 10.362101
54.620 10.581415
54.625 10.664259
54.630 10.217896
54.635 10.240329
54.640 9.999598
54.645 9.792897
54.650 9.78046
54.655 9.992938
54.660 10.187415
54.665 10.803736
54.670 10.749417
54.675 10.991012
54.680 11.675029
54.685 11.597441
54.690 11.630527
54.695 11.909456
54.700 11.050623
54.705 10.777802
54.710 10.572975
54.715 9.940348
54.720 9.804397
54.725 9.8078
54.730 9.982193
54.735 10.519237
54.740 10.981225
54.745 11.041713
54.750 11.179746
54.755 11.069542
54.760 10.793232
54.765 10.740044
54.770 10.676977
54.775 10.601159
54.780 10.480904
54.785 10.152966
54.790 10.155465
54.795 9.992968
54.800 9.847284
54.805 9.792681
54.810 9.960894
54.815 10.442072
54.820 10.574297
54.825 10.714612
54.830 10.595878
54.835 10.652555
54.840 10.331772
54.845 9.692554
54.850 9.648514
54.855 10.028389
54.860 10.226974
54.865 10.333383
54.870 10.185708
54.875 10.49979
54.880 10.384585
54.885 10.416552
54.890 10.647548
54.895 10.299917
54.900 10.040174
54.905 9.907693
54.910 10.223977
54.915 10.575555
54.920 10.592504
54.925 10.20568
54.930 10.697137
54.935 11.063244
54.940 11.273146
54.945 10.904121
54.950 11.27456
54.955 11.229206
54.960 10.803389
54.965 10.609825
54.970 10.492426
54.975 10.586074
54.980 11.011006
54.985 10.917141
54.990 11.093583
54.995 11.735986
55.000 12.315879
55.005 12.319955
55.010 12.215863
55.015 11.778913
55.020 11.486769
55.025 11.62329
55.030 11.453853
55.035 11.271875
55.040 11.211652
55.045 11.178852
55.050 11.05615
55.055 10.814948
55.060 10.374614
55.065 9.762648
55.070 9.625401
55.075 9.668178
55.080 9.593021
55.085 9.88659
55.090 9.736755
55.095 10.058053
55.100 10.451887
55.105 10.451649
55.110 10.274296
55.115 10.16345
55.120 10.306606
55.125 10.757439
55.130 10.592946
55.135 10.585182
55.140 10.697812
55.145 11.243021
55.150 11.440963
55.155 11.299204
55.160 11.213281
55.165 11.054015
55.170 11.173351
55.175 11.294704
55.180 11.317883
55.185 11.432514
55.190 11.32036
55.195 11.431771
55.200 11.28577
55.205 11.351664
55.210 11.354446
55.215 11.175855
55.220 11.031802
55.225 11.011688
55.230 11.044001
55.235 11.079303
55.240 10.866582
55.245 11.015087
55.250 10.889489
55.255 10.283043
55.260 10.224536
55.265 10.335592
55.270 10.655919
55.275 10.588943
55.280 10.31208
55.285 10.783356
55.290 11.52534
55.295 11.486903
55.300 11.223112
55.305 11.17595
55.310 11.269209
55.315 11.401075
55.320 11.474898
55.325 11.686169
55.330 11.745546
55.335 12.175141
55.340 12.439196
55.345 12.501533
55.350 12.561067
55.355 12.536205
55.360 12.710047
55.365 12.959711
55.370 12.615214
55.375 11.983047
55.380 11.742325
55.385 11.610538
55.390 11.602025
55.395 11.488442
55.400 11.415586
55.405 11.62576
55.410 11.966384
55.415 12.155222
55.420 12.093957
55.425 11.899203
55.430 12.249791
55.435 12.33343
55.440 12.413616
55.445 12.738481
55.450 12.836873
55.455 12.538287
55.460 12.541162
55.465 12.481012
55.470 12.398051
55.475 11.690503
55.480 11.220883
55.485 10.913798
55.490 10.733416
55.495 9.977922
55.500 9.958371
55.505 10.476295
55.510 10.952194
55.515 11.03491
55.520 11.231553
55.525 11.519211
55.530 11.583677
55.535 11.225561
55.540 10.754697
55.545 10.66455
55.550 11.131557
55.555 11.450127
55.560 11.82768
55.565 12.380772
55.570 12.955071
55.575 13.773813
55.580 14.152463
55.585 13.634049
55.590 13.240911
55.595 12.859895
55.600 12.43405
55.605 11.828815
55.610 11.263561
55.615 11.283711
55.620 11.391153
55.625 11.644047
55.630 11.805434
55.635 12.000094
55.640 12.090278
55.645 12.050177
55.650 11.971285
55.655 11.986341
55.660 11.960124
55.665 11.803277
55.670 11.517353
55.675 10.987493
55.680 10.476033
55.685 10.551491
55.690 10.45979
55.695 10.408999
55.700 10.460422
55.705 10.428413
55.710 10.771684
55.715 11.296277
55.720 11.615404
55.725 11.967869
55.730 12.142944
55.735 12.25021
55.740 12.335008
55.745 12.36224
55.750 12.038929
55.755 11.78251
55.760 11.204956
55.765 10.780159
55.770 10.501533
55.775 10.175272
55.780 10.272797
55.785 10.16981
55.790 10.516806
55.795 10.870498
55.800 11.556142
55.805 11.686411
55.810 11.745027
55.815 12.134034
55.820 12.492155
55.825 12.135887
55.830 11.858191
55.835 11.628541
55.840 11.622203
55.845 11.855995
55.850 11.355207
55.855 11.211501
55.860 11.263886
55.865 11.143546
55.870 11.329609
55.875 12.169069
55.880 12.416133
55.885 12.430417
55.890 12.307796
55.895 12.976695
55.900 13.823874
55.905 13.91243
55.910 14.119584
55.915 13.778925
55.920 13.678197
55.925 13.982905
55.930 13.424702
55.935 12.802585
55.940 11.913399
55.945 11.701563
55.950 12.071804
55.955 12.582338
55.960 12.162529
55.965 11.989987
55.970 11.980997
55.975 12.229007
55.980 12.211764
55.985 12.313663
55.990 12.062336
55.995 11.714252
56.000 11.838946
56.005 11.804186
56.010 11.691648
56.015 10.997377
56.020 10.449394
56.025 10.482553
56.030 11.046475
56.035 10.671866
56.040 10.684319
56.045 10.498853
56.050 10.617099
56.055 10.819442
56.060 11.008506
56.065 11.187686
56.070 11.55315
56.075 11.879088
56.080 11.912076
56.085 11.781814
56.090 11.918494
56.095 11.832434
56.100 11.875128
56.105 12.274965
56.110 11.889498
56.115 12.086584
56.120 12.067666
56.125 11.497351
56.130 11.652071
56.135 11.177801
56.140 10.681463
56.145 11.268319
56.150 11.234368
56.155 11.800722
56.160 12.184856
56.165 12.03776
56.170 12.370564
56.175 12.084326
56.180 11.493403
56.185 11.418912
56.190 10.724829
56.195 10.235595
56.200 10.68917
56.205 10.932017
56.210 11.464143
56.215 12.19712
56.220 12.694825
56.225 13.592411
56.230 14.350672
56.235 14.149856
56.240 14.30291
56.245 14.132598
56.250 13.737871
56.255 13.349881
56.260 12.379508
56.265 11.928009
56.270 11.431187
56.275 11.619905
56.280 12.066454
56.285 12.02364
56.290 12.447194
56.295 12.922531
56.300 13.094691
56.305 13.359908
56.310 13.191678
56.315 12.846741
56.320 12.626979
56.325 12.012897
56.330 11.663496
56.335 11.386939
56.340 11.444066
56.345 11.334837
56.350 11.335773
56.355 11.524323
56.360 11.555649
56.365 11.581313
56.370 11.555869
56.375 11.731757
56.380 11.961277
56.385 12.612517
56.390 12.673099
56.395 13.050712
56.400 13.366484
56.405 13.174781
56.410 13.093209
56.415 12.593892
56.420 12.055851
56.425 11.657845
56.430 11.274282
56.435 11.167629
56.440 11.319216
56.445 10.897438
56.450 11.40411
56.455 11.687512
56.460 12.460982
56.465 13.043671
56.470 12.958711
56.475 13.205213
56.480 13.128501
56.485 12.802608
56.490 13.336808
56.495 13.256735
56.500 13.008843
56.505 13.118845
56.510 12.969747
56.515 13.331955
56.520 13.266595
56.525 13.033191
56.530 12.94276
56.535 13.319645
56.540 13.260913
56.545 13.179795
56.550 12.982483
56.555 13.07639
56.560 13.02737
56.565 12.887308
56.570 12.568745
56.575 12.701768
56.580 12.749557
56.585 12.721354
56.590 12.438342
56.595 12.111294
56.600 12.087495
56.605 11.847897
56.610 11.499465
56.615 11.558982
56.620 11.371711
56.625 11.611496
56.630 12.061292
56.635 12.270742
56.640 12.497873
56.645 12.838131
56.650 13.218725
56.655 13.340662
56.660 13.366613
56.665 13.15021
56.670 12.77787
56.675 12.89254
56.680 12.767322
56.685 12.62811
56.690 12.835676
56.695 13.485916
56.700 13.990211
56.705 14.616627
56.710 14.507647
56.715 14.528019
56.720 14.470963
56.725 14.694207
56.730 14.501179
56.735 14.142566
56.740 14.045738
56.745 14.26617
56.750 14.66992
56.755 15.165705
56.760 15.020344
56.765 14.454438
56.770 14.48285
56.775 15.003827
56.780 14.753823
56.785 14.560541
56.790 14.011014
56.795 13.933049
56.800 14.405629
56.805 14.375698
56.810 14.250078
56.815 14.386491
56.820 14.398499
56.825 14.494054
56.830 14.104877
56.835 13.796866
56.840 13.932025
56.845 13.817749
56.850 13.633252
56.855 13.640676
56.860 13.565993
56.865 13.904016
56.870 13.869716
56.875 13.27434
56.880 13.513067
56.885 13.313594
56.890 13.369077
56.895 12.903912
56.900 12.495159
56.905 12.749983
56.910 12.656194
56.915 12.185059
56.920 12.053102
56.925 12.131663
56.930 12.501245
56.935 12.914193
56.940 12.809061
56.945 13.225433
56.950 13.445328
56.955 13.565399
56.960 13.199961
56.965 13.040674
56.970 12.819148
56.975 12.984125
56.980 12.82357
56.985 13.064573
56.990 13.412332
56.995 13.789865
57.000 14.106916
57.005 14.064883
57.010 13.730613
57.015 13.529466
57.020 13.09999
57.025 12.721357
57.030 12.574144
57.035 12.53106
57.040 12.691927
57.045 13.022899
57.050 13.367794
57.055 13.377021
57.060 13.385634
57.065 13.617588
57.070 12.941039
57.075 12.551285
57.080 12.42389
57.085 12.420215
57.090 12.858356
57.095 12.949865
57.100 12.99696
57.105 13.791881
57.110 13.957101
57.115 13.509581
57.120 13.314985
57.125 13.244627
57.130 13.073642
57.135 13.129363
57.140 13.402631
57.145 13.979788
57.150 15.127153
57.155 15.473757
57.160 15.212664
57.165 14.96559
57.170 14.763571
57.175 14.006473
57.180 13.384541
57.185 12.96591
57.190 12.633192
57.195 12.634659
57.200 12.804337
57.205 12.764617
57.210 13.168845
57.215 12.876051
57.220 12.47113
57.225 12.194114
57.230 12.44039
57.235 12.254245
57.240 12.292958
57.245 12.028264
57.250 11.875552
57.255 11.993133
57.260 12.199756
57.265 12.375334
57.270 12.573718
57.275 12.428682
57.280 12.615983
57.285 13.001729
57.290 13.481675
57.295 13.493666
57.300 13.464593
57.305 13.54285
57.310 13.591893
57.315 13.642263
57.320 13.563177
57.325 12.759062
57.330 12.484839
57.335 12.861459
57.340 12.400558
57.345 12.354542
57.350 11.91833
57.355 12.076186
57.360 12.427431
57.365 12.226319
57.370 11.882355
57.375 12.796473
57.380 12.736336
57.385 12.668234
57.390 12.452187
57.395 13.196026
57.400 13.38803
57.405 13.33682
57.410 12.805594
57.415 13.002765
57.420 13.471084
57.425 13.643621
57.430 12.925056
57.435 13.080564
57.440 13.130978
57.445 13.145641
57.450 13.292836
57.455 12.815634
57.460 12.968063
57.465 13.614241
57.470 13.540178
57.475 13.215747
57.480 13.558826
57.485 13.438271
57.490 13.727492
57.495 13.151254
57.500 12.601131
57.505 12.805361
57.510 12.912791
57.515 12.593417
57.520 12.460025
57.525 12.190755
57.530 12.797709
57.535 13.049133
57.540 13.328041
57.545 13.460882
57.550 14.210312
57.555 14.665693
57.560 14.902108
57.565 15.103977
57.570 14.650301
57.575 14.419204
57.580 14.353431
57.585 13.934139
57.590 14.594439
57.595 14.846942
57.600 14.74323
57.605 15.128838
57.610 15.376139
57.615 15.38889
57.620 15.055999
57.625 14.576152
57.630 14.190839
57.635 14.157207
57.640 13.953045
57.645 13.660329
57.650 13.49628
57.655 13.729033
57.660 13.555807
57.665 14.097275
57.670 14.159693
57.675 13.81791
57.680 14.144952
57.685 14.366597
57.690 14.762351
57.695 14.634607
57.700 14.195065
57.705 14.184937
57.710 14.322321
57.715 14.346498
57.720 14.196989
57.725 14.211155
57.730 14.319266
57.735 14.240664
57.740 14.18352
57.745 14.247388
57.750 14.048139
57.755 14.139897
57.760 13.549916
57.765 13.743563
57.770 13.560054
57.775 14.069123
57.780 14.073549
57.785 14.322595
57.790 14.511261
57.795 15.325351
57.800 16.005407
57.805 16.40892
57.810 16.633478
57.815 16.690393
57.820 16.891193
57.825 16.482229
57.830 16.28834
57.835 16.587271
57.840 16.24062
57.845 15.516635
57.850 15.59636
57.855 14.934396
57.860 14.878847
57.865 14.43138
57.870 14.068085
57.875 14.384642
57.880 14.507429
57.885 14.09818
57.890 14.426217
57.895 14.616633
57.900 14.35222
57.905 13.659418
57.910 13.157339
57.915 13.048611
57.920 13.597857
57.925 13.621989
57.930 13.389893
57.935 13.588911
57.940 13.857749
57.945 13.704529
57.950 13.743505
57.955 13.595863
57.960 13.44811
57.965 13.48313
57.970 12.897588
57.975 12.835164
57.980 13.233893
57.985 12.893412
57.990 12.531625
57.995 12.081689
58.000 11.716485
58.005 12.105618
58.010 12.294551
58.015 12.381393
58.020 12.654098
58.025 12.879138
58.030 13.376006
58.035 14.00099
58.040 14.128965
58.045 13.900744
58.050 13.660531
58.055 13.37084
58.060 13.736619
58.065 14.057919
58.070 14.028399
58.075 13.658813
58.080 14.134114
58.085 14.272382
58.090 14.515598
58.095 14.343523
58.100 14.03983
58.105 14.115132
58.110 13.961617
58.115 13.560719
58.120 13.308088
58.125 13.198253
58.130 12.841599
58.135 12.902871
58.140 13.090769
58.145 13.820136
58.150 13.821054
58.155 13.81768
58.160 13.917991
58.165 14.378945
58.170 14.335479
58.175 13.94269
58.180 13.502093
58.185 13.2974
58.190 13.414672
58.195 13.322227
58.200 12.620473
58.205 13.129706
58.210 13.23939
58.215 12.999527
58.220 13.197646
58.225 13.633332
58.230 14.599049
58.235 15.502562
58.240 15.578638
58.245 15.280018
58.250 15.614533
58.255 16.719967
58.260 16.492233
58.265 15.713814
58.270 15.045027
58.275 14.814693
58.280 15.674892
58.285 15.932805
58.290 15.011333
58.295 15.074145
58.300 15.218045
58.305 15.27498
58.310 15.231105
58.315 15.202128
58.320 14.809824
58.325 14.533598
58.330 14.145959
58.335 13.916319
58.340 14.047064
58.345 13.445917
58.350 13.241257
58.355 13.320181
58.360 12.984351
58.365 13.120668
58.370 13.013957
58.375 12.978451
58.380 13.440958
58.385 13.265148
58.390 13.527144
58.395 14.660921
58.400 15.433386
58.405 15.714216
58.410 15.384848
58.415 15.300021
58.420 15.5343
58.425 15.789977
58.430 15.56596
58.435 14.916926
58.440 14.494357
58.445 14.283068
58.450 14.262855
58.455 14.483189
58.460 14.308315
58.465 13.933094
58.470 14.08278
58.475 14.828788
58.480 15.188316
58.485 15.286914
58.490 14.981574
58.495 14.508711
58.500 14.72406
58.505 14.435507
58.510 14.202358
58.515 14.315218
58.520 14.355581
58.525 14.31901
58.530 14.990933
58.535 15.422137
58.540 15.603792
58.545 15.437201
58.550 15.427375
58.555 15.488672
58.560 15.503334
58.565 15.363391
58.570 14.673884
58.575 14.817184
58.580 15.046916
58.585 15.204653
58.590 15.085699
58.595 14.854307
58.600 15.132975
58.605 15.65497
58.610 15.230856
58.615 14.724819
58.620 14.457079
58.625 14.400483
58.630 14.821944
58.635 14.65299
58.640 14.476184
58.645 14.407113
58.650 14.230683
58.655 14.331965
58.660 14.919617
58.665 14.630304
58.670 14.419835
58.675 14.563372
58.680 15.006811
58.685 15.493174
58.690 15.375395
58.695 15.288995
58.700 15.621957
58.705 15.790888
58.710 15.628134
58.715 15.612201
58.720 15.419975
58.725 15.487083
58.730 15.845185
58.735 15.405478
58.740 15.642816
58.745 15.689198
58.750 16.341267
58.755 16.994308
58.760 17.060604
58.765 16.827316
58.770 16.70697
58.775 16.314905
58.780 16.458529
58.785 16.146879
58.790 16.069235
58.795 15.66512
58.800 15.863627
58.805 15.381452
58.810 14.805522
58.815 14.621086
58.820 14.373344
58.825 14.621391
58.830 14.675741
58.835 14.331281
58.840 15.050602
58.845 15.225026
58.850 14.825096
58.855 14.87201
58.860 14.4831
58.865 14.340643
58.870 15.012787
58.875 15.53131
58.880 15.844447
58.885 15.507775
58.890 15.114279
58.895 15.327081
58.900 15.365528
58.905 14.404098
58.910 14.12368
58.915 14.616869
58.920 15.517323
58.925 15.571251
58.930 15.25947
58.935 15.47067
58.940 16.364214
58.945 15.689303
58.950 15.303774
58.955 14.842946
58.960 14.575304
58.965 14.847054
58.970 14.781678
58.975 14.452476
58.980 14.92607
58.985 15.405756
58.990 15.556086
58.995 15.722914
59.000 15.650614
59.005 15.28729
59.010 15.414683
59.015 15.222143
59.020 14.35541
59.025 14.380836
59.030 14.358536
59.035 13.904442
59.040 14.33068
59.045 14.051293
59.050 14.143549
59.055 14.634078
59.060 15.084925
59.065 15.233188
59.070 15.533516
59.075 15.026855
59.080 15.281353
59.085 15.776396
59.090 15.862465
59.095 15.731349
59.100 16.224867
59.105 16.535994
59.110 16.937695
59.115 16.426311
59.120 15.906998
59.125 15.969372
59.130 15.728726
59.135 15.43017
59.140 15.451546
59.145 15.445953
59.150 15.805758
59.155 15.569051
59.160 15.59921
59.165 15.728415
59.170 15.618596
59.175 15.130191
59.180 15.086478
59.185 15.403065
59.190 15.517754
59.195 15.230243
59.200 15.085818
59.205 15.215082
59.210 15.855967
59.215 15.952706
59.220 15.874102
59.225 16.015635
59.230 16.428062
59.235 16.37273
59.240 16.122734
59.245 16.113241
59.250 16.172293
59.255 16.01845
59.260 15.742077
59.265 15.179069
59.270 15.549974
59.275 16.119484
59.280 15.709087
59.285 15.837101
59.290 16.131445
59.295 16.475685
59.300 16.550333
59.305 15.844614
59.310 15.191048
59.315 15.413588
59.320 15.09227
59.325 15.1798
59.330 15.097916
59.335 15.340863
59.340 15.712293
59.345 15.678487
59.350 15.364737
59.355 15.642403
59.360 15.334452
59.365 15.551875
59.370 15.549264
59.375 15.691086
59.380 16.10294
59.385 16.532467
59.390 17.142614
59.395 17.842257
59.400 18.32412
59.405 18.953295
59.410 19.028189
59.415 19.207178
59.420 19.167278
59.425 18.277102
59.430 17.418709
59.435 16.78693
59.440 16.871519
59.445 16.492378
59.450 16.293856
59.455 16.146963
59.460 16.263229
59.465 16.590651
59.470 16.330685
59.475 15.892442
59.480 15.839629
59.485 15.2895
59.490 15.295877
59.495 15.767259
59.500 15.396368
59.505 15.198876
59.510 15.819335
59.515 16.129772
59.520 16.887094
59.525 17.354479
59.530 16.862246
59.535 17.469601
59.540 17.784113
59.545 17.417408
59.550 17.219254
59.555 16.805185
59.560 16.649452
59.565 16.722069
59.570 16.135782
59.575 15.683247
59.580 15.582582
59.585 16.022995
59.590 15.707136
59.595 15.891065
59.600 16.243294
59.605 16.515114
59.610 16.767326
59.615 17.04109
59.620 16.964663
59.625 17.614292
59.630 17.849884
59.635 17.58427
59.640 17.697163
59.645 17.936665
59.650 17.932888
59.655 17.76071
59.660 17.709589
59.665 17.624628
59.670 17.828001
59.675 17.554529
59.680 17.159027
59.685 16.94022
59.690 17.172869
59.695 17.034819
59.700 17.20916
59.705 17.375799
59.710 18.174608
59.715 18.596359
59.720 18.499289
59.725 18.167004
59.730 17.628176
59.735 17.195219
59.740 17.190933
59.745 16.468534
59.750 16.265652
59.755 16.2346
59.760 16.777617
59.765 17.188284
59.770 17.283659
59.775 17.167038
59.780 17.912003
59.785 18.315731
59.790 18.48358
59.795 18.318237
59.800 18.672489
59.805 18.649975
59.810 19.129347
59.815 18.597462
59.820 18.431768
59.825 18.822878
59.830 18.784645
59.835 18.783817
59.840 19.172935
59.845 18.915318
59.850 18.890018
59.855 18.660135
59.860 18.461512
59.865 18.594917
59.870 18.588573
59.875 18.209032
59.880 18.35244
59.885 19.103762
59.890 20.312378
59.895 20.475702
59.900 20.352051
59.905 20.228359
59.910 20.133326
59.915 19.990623
59.920 19.762005
59.925 18.974722
59.930 19.204906
59.935 19.212976
59.940 19.004362
59.945 18.730598
59.950 19.182129
59.955 19.247488
59.960 19.511948
59.965 19.48415
59.970 19.471962
59.975 20.01881
59.980 20.441629
59.985 19.617727
59.990 19.153824
59.995 18.577089
60.000 18.289946
60.005 18.383133
60.010 18.201994
60.015 18.041765
60.020 18.771679
60.025 19.271708
60.030 19.235115
60.035 19.480293
60.040 20.233564
60.045 20.999472
60.050 21.498734
60.055 20.98337
60.060 20.798616
60.065 21.445406
60.070 21.021261
60.075 20.247475
60.080 19.71504
60.085 20.096891
60.090 20.919823
60.095 21.062408
60.100 20.965498
60.105 21.126919
60.110 21.512239
60.115 21.513876
60.120 21.316343
60.125 21.340483
60.130 21.134531
60.135 21.073526
60.140 21.217319
60.145 21.156055
60.150 20.88245
60.155 20.896193
60.160 20.661018
60.165 21.242449
60.170 22.009665
60.175 21.824728
60.180 21.713116
60.185 21.635437
60.190 21.452618
60.195 20.87989
60.200 20.591906
60.205 19.771303
60.210 19.723604
60.215 19.827402
60.220 19.258251
60.225 19.51609
60.230 20.229166
60.235 19.919975
60.240 20.240614
60.245 20.550108
60.250 20.553528
60.255 21.346849
60.260 20.988447
60.265 20.85611
60.270 21.561895
60.275 21.600912
60.280 21.629675
60.285 21.312336
60.290 20.533396
60.295 20.275312
60.300 19.676315
60.305 18.660656
60.310 18.414068
60.315 18.483252
60.320 19.003654
60.325 19.112915
60.330 19.134008
60.335 20.096502
60.340 20.802637
60.345 20.727802
60.350 20.908468
60.355 20.810125
60.360 20.825274
60.365 20.54714
60.370 20.02985
60.375 19.692253
60.380 19.252726
60.385 19.078138
60.390 18.82165
60.395 20.53163
60.400 21.552931
60.405 21.334301
60.410 21.021269
60.415 21.344704
60.420 21.582317
60.425 21.547735
60.430 20.236691
60.435 19.34606
60.440 19.335264
60.445 19.719925
60.450 19.865593
60.455 19.438204
60.460 19.61367
60.465 19.586683
60.470 19.948376
60.475 19.946451
60.480 19.96888
60.485 19.815416
60.490 20.399427
60.495 20.743174
60.500 21.126921
60.505 22.008856
60.510 22.243963
60.515 22.034821
60.520 21.677212
60.525 21.203478
60.530 20.921118
60.535 19.994129
60.540 18.949295
60.545 18.530678
60.550 18.580233
60.555 18.450075
60.560 18.654026
60.565 19.117123
60.570 19.480515
60.575 19.464834
60.580 19.94585
60.585 19.988207
60.590 20.245455
60.595 20.309305
60.600 20.168736
60.605 20.747221
60.610 21.679527
60.615 21.599937
60.620 21.737078
60.625 21.33062
60.630 20.663084
60.635 19.903206
60.640 18.909451
60.645 18.426544
60.650 18.294998
60.655 18.165974
60.660 18.221905
60.665 18.577026
60.670 19.31942
60.675 20.151043
60.680 19.990015
60.685 20.0105
60.690 19.91382
60.695 19.93848
60.700 20.037409
60.705 19.536182
60.710 19.154736
60.715 18.308802
60.720 17.815416
60.725 17.7038
60.730 17.469095
60.735 17.858904
60.740 18.369699
60.745 18.145775
60.750 18.646744
60.755 19.215733
60.760 19.646099
60.765 19.715708
60.770 19.267168
60.775 18.636314
60.780 18.416237
60.785 18.416611
60.790 17.706015
60.795 17.658239
60.800 17.233423
60.805 16.906336
60.810 16.994083
60.815 16.778896
60.820 16.651093
60.825 16.839676
60.830 16.903347
60.835 17.10063
60.840 17.131689
60.845 17.462545
60.850 17.853416
60.855 18.675655
60.860 19.097231
60.865 19.362507
60.870 19.220385
60.875 19.156454
60.880 18.951725
60.885 18.199547
60.890 17.494242
60.895 17.04188
60.900 17.228418
60.905 17.912703
60.910 17.67975
60.915 17.418177
60.920 18.3269
60.925 18.58584
60.930 18.440189
60.935 17.792145
60.940 16.98773
60.945 17.046227
60.950 16.710381
60.955 16.46871
60.960 16.548651
60.965 16.592239
60.970 17.080317
60.975 17.489285
60.980 17.49519
60.985 18.23341
60.990 17.647066
60.995 17.663319
61.000 17.931337
61.005 17.536293
61.010 17.884142
61.015 17.768618
61.020 17.307123
61.025 17.47403
61.030 17.162552
61.035 16.723476
61.040 17.20298
61.045 16.825714
61.050 16.959616
61.055 16.585258
61.060 16.639532
61.065 15.987089
61.070 16.115652
61.075 15.873926
61.080 15.767385
61.085 16.117546
61.090 17.032207
61.095 17.457106
61.100 18.215071
61.105 18.058979
61.110 18.046484
61.115 18.296587
61.120 17.968807
61.125 17.420799
61.130 16.621088
61.135 16.807968
61.140 17.013729
61.145 17.277779
61.150 17.335142
61.155 17.144073
61.160 17.654671
61.165 18.090403
61.170 17.837835
61.175 17.747917
61.180 17.210766
61.185 17.147116
61.190 17.221521
61.195 16.7873
61.200 16.665987
61.205 16.657116
61.210 16.461279
61.215 16.476402
61.220 17.011599
61.225 17.56883
61.230 18.154825
61.235 18.610189
61.240 18.240587
61.245 18.48489
61.250 18.978743
61.255 18.259779
61.260 17.926767
61.265 17.719622
61.270 18.08831
61.275 18.492529
61.280 18.608999
61.285 18.541658
61.290 18.635857
61.295 18.523535
61.300 18.127733
61.305 17.477255
61.310 17.134523
61.315 17.174433
61.320 16.791157
61.325 17.327442
61.330 17.261366
61.335 17.802011
61.340 17.860352
61.345 17.985464
61.350 17.542118
61.355 17.218557
61.360 16.562849
61.365 16.15164
61.370 15.40096
61.375 15.268923
61.380 15.632166
61.385 15.896173
61.390 16.380613
61.395 16.360613
61.400 16.691652
61.405 17.104284
61.410 17.445303
61.415 17.314396
61.420 17.401093
61.425 17.497803
61.430 17.550686
61.435 17.497662
61.440 18.113243
61.445 17.989023
61.450 17.519121
61.455 17.187166
61.460 17.663578
61.465 17.946896
61.470 17.815376
61.475 16.772392
61.480 16.774696
61.485 16.804569
61.490 17.028278
61.495 16.118202
61.500 15.917951
61.505 15.879142
61.510 16.191719
61.515 16.279881
61.520 16.36215
61.525 16.285921
61.530 16.816236
61.535 17.184052
61.540 16.798576
61.545 17.344694
61.550 17.176355
61.555 17.459307
61.560 17.734022
61.565 17.408173
61.570 17.016928
61.575 17.245716
61.580 16.40992
61.585 16.003744
61.590 15.759945
61.595 15.283278
61.600 15.613327
61.605 16.221125
61.610 16.075214
61.615 16.576525
61.620 17.146929
61.625 17.279011
61.630 17.244249
61.635 17.250942
61.640 17.3214
61.645 17.689812
61.650 17.524044
61.655 17.685064
61.660 17.882301
61.665 17.362629
61.670 17.345945
61.675 16.8916
61.680 16.79871
61.685 17.233667
61.690 16.712393
61.695 16.541578
61.700 17.051479
61.705 16.807079
61.710 16.8892
61.715 16.398554
61.720 15.989933
61.725 16.596914
61.730 16.827118
61.735 17.075233
61.740 17.089706
61.745 17.117573
61.750 16.691879
61.755 16.585833
61.760 16.378159
61.765 16.353535
61.770 16.053829
61.775 15.97766
61.780 16.370747
61.785 16.854591
61.790 17.062311
61.795 16.543661
61.800 16.141712
61.805 15.95013
61.810 15.609507
61.815 15.29239
61.820 15.771155
61.825 15.892853
61.830 16.031382
61.835 16.359118
61.840 16.398703
61.845 16.718311
61.850 16.862541
61.855 17.044857
61.860 17.228823
61.865 17.705233
61.870 17.984804
61.875 18.700808
61.880 19.213629
61.885 18.88855
61.890 19.090574
61.895 19.418734
61.900 19.19367
61.905 19.190983
61.910 18.464544
61.915 18.057524
61.920 18.20558
61.925 17.525949
61.930 16.727915
61.935 17.027225
61.940 16.82115
61.945 17.025753
61.950 17.334072
61.955 17.191469
61.960 17.692066
61.965 17.840778
61.970 17.795702
61.975 17.689501
61.980 17.778559
61.985 17.860415
61.990 17.985548
61.995 17.550095
62.000 17.422853
62.005 17.077778
62.010 17.313656
62.015 17.203918
62.020 16.663357
62.025 16.079933
62.030 15.848158
62.035 15.563495
62.040 15.637765
62.045 15.199986
62.050 15.450854
62.055 15.745558
62.060 16.098494
62.065 15.834277
62.070 15.926149
62.075 16.15344
62.080 16.337959
62.085 15.943644
62.090 16.239162
62.095 16.20174
62.100 16.66404
62.105 16.718391
62.110 16.249872
62.115 16.056761
62.120 15.886597
62.125 15.646763
62.130 15.645081
62.135 15.96762
62.140 16.095793
62.145 16.451731
62.150 17.161993
62.155 17.33667
62.160 17.920267
62.165 18.892668
62.170 18.859928
62.175 18.848259
62.180 18.714418
62.185 18.382668
62.190 18.070131
62.195 17.386742
62.200 16.213463
62.205 15.150504
62.210 15.147761
62.215 14.66683
62.220 14.058936
62.225 14.57464
62.230 14.554371
62.235 14.97397
62.240 15.327234
62.245 15.295799
62.250 16.236267
62.255 16.738255
62.260 16.726473
62.265 16.540438
62.270 16.675192
62.275 16.571253
62.280 16.447453
62.285 16.338562
62.290 16.339832
62.295 16.072803
62.300 15.870094
62.305 15.873392
62.310 16.226467
62.315 16.416101
62.320 16.117622
62.325 16.230829
62.330 16.85232
62.335 17.377905
62.340 17.052017
62.345 17.085438
62.350 17.121519
62.355 17.489943
62.360 17.353474
62.365 16.885649
62.370 16.750301
62.375 16.670025
62.380 16.809156
62.385 16.669897
62.390 16.215994
62.395 16.07155
62.400 16.268238
62.405 15.899312
62.410 15.960194
62.415 15.800783
62.420 16.148851
62.425 16.934511
62.430 17.366158
62.435 17.519131
62.440 17.857338
62.445 18.265066
62.450 18.548571
62.455 18.297192
62.460 17.78384
62.465 17.716461
62.470 17.728794
62.475 17.931187
62.480 17.698765
62.485 17.352964
62.490 17.186628
62.495 16.514185
62.500 16.607813
62.505 16.550381
62.510 16.474052
62.515 16.688986
62.520 16.383078
62.525 16.610804
62.530 16.834045
62.535 16.241486
62.540 15.662663
62.545 15.901992
62.550 15.751899
62.555 16.003931
62.560 16.205656
62.565 16.297371
62.570 16.397043
62.575 16.496902
62.580 16.213629
62.585 15.919509
62.590 15.774165
62.595 15.667753
62.600 15.709166
62.605 15.86114
62.610 15.905152
62.615 16.14423
62.620 16.799591
62.625 16.899343
62.630 16.886608
62.635 17.181519
62.640 17.214024
62.645 16.930042
62.650 16.840595
62.655 17.203577
62.660 17.244413
62.665 17.020313
62.670 16.518887
62.675 16.668604
62.680 16.694817
62.685 16.794853
62.690 16.935678
62.695 17.275948
62.700 17.167456
62.705 17.766882
62.710 18.586369
62.715 19.378119
62.720 18.937422
62.725 18.620251
62.730 18.930906
62.735 19.298603
62.740 18.876175
62.745 18.327431
62.750 17.723703
62.755 17.247147
62.760 16.511906
62.765 15.751779
62.770 15.555798
62.775 15.764634
62.780 15.587122
62.785 15.941762
62.790 16.518511
62.795 16.648108
62.800 16.571661
62.805 17.022263
62.810 17.210789
62.815 17.62219
62.820 17.76597
62.825 17.59486
62.830 17.673237
62.835 18.023514
62.840 17.411234
62.845 16.693436
62.850 16.483437
62.855 16.258198
62.860 15.875218
62.865 15.39274
62.870 14.719259
62.875 15.309521
62.880 15.021558
62.885 14.844124
62.890 14.69901
62.895 15.197339
62.900 16.388807
62.905 16.639147
62.910 16.346533
62.915 16.794394
62.920 16.781797
62.925 16.986502
62.930 17.080492
62.935 16.841848
62.940 16.97978
62.945 17.07266
62.950 16.965212
62.955 16.857462
62.960 16.869959
62.965 16.700798
62.970 16.977659
62.975 16.997293
62.980 16.775841
62.985 16.527977
62.990 16.67448
62.995 16.563141
63.000 16.221903
63.005 15.385961
63.010 15.82553
63.015 16.716946
63.020 17.188183
63.025 17.764608
63.030 17.841562
63.035 18.178473
63.040 18.311829
63.045 18.022087
63.050 17.732952
63.055 16.719036
63.060 16.270548
63.065 16.548031
63.070 16.172943
63.075 15.99119
63.080 15.797236
63.085 15.833277
63.090 16.491272
63.095 16.505751
63.100 16.444027
63.105 17.096933
63.110 17.689459
63.115 17.149719
63.120 16.615334
63.125 16.755087
63.130 16.567783
63.135 16.635544
63.140 17.038671
63.145 17.525558
63.150 18.419266
63.155 19.226273
63.160 19.243708
63.165 19.599297
63.170 19.354387
63.175 18.298414
63.180 17.900358
63.185 17.637989
63.190 16.91493
63.195 16.77775
63.200 16.962034
63.205 17.719706
63.210 18.464409
63.215 17.987244
63.220 17.668697
63.225 17.756067
63.230 17.851206
63.235 17.240398
63.240 16.819876
63.245 16.778879
63.250 17.31711
63.255 17.708141
63.260 17.896036
63.265 18.076378
63.270 18.018532
63.275 17.37092
63.280 17.226879
63.285 17.600435
63.290 17.517481
63.295 17.397217
63.300 17.182522
63.305 17.397305
63.310 17.600758
63.315 17.112059
63.320 16.222303
63.325 16.043379
63.330 16.267698
63.335 16.239756
63.340 16.082104
63.345 15.938894
63.350 15.689067
63.355 15.737111
63.360 15.311832
63.365 15.120229
63.370 15.626833
63.375 16.222143
63.380 16.575693
63.385 16.929337
63.390 16.875584
63.395 17.702328
63.400 18.093019
63.405 17.183815
63.410 17.009777
63.415 16.802433
63.420 16.947683
63.425 17.761862
63.430 18.029732
63.435 18.075659
63.440 18.613396
63.445 18.289173
63.450 18.11339
63.455 18.147434
63.460 17.693104
63.465 17.318668
63.470 17.229563
63.475 17.349808
63.480 17.42804
63.485 17.448368
63.490 17.3018
63.495 17.601183
63.500 17.745535
63.505 17.700346
63.510 18.231125
63.515 18.407095
63.520 18.516624
63.525 18.821896
63.530 18.465937
63.535 18.294956
63.540 18.224657
63.545 17.849953
63.550 17.859329
63.555 17.675837
63.560 17.415752
63.565 17.445337
63.570 17.459061
63.575 17.412943
63.580 17.279722
63.585 17.383055
63.590 17.825922
63.595 18.389896
63.600 18.406981
63.605 18.305206
63.610 18.379601
63.615 18.09544
63.620 18.02146
63.625 17.669779
63.630 17.543242
63.635 17.702251
63.640 18.396698
63.645 18.532799
63.650 18.999716
63.655 19.369513
63.660 19.706182
63.665 19.644251
63.670 19.552532
63.675 18.583893
63.680 17.895937
63.685 17.263744
63.690 16.891958
63.695 16.677624
63.700 16.219044
63.705 15.886074
63.710 16.312443
63.715 16.590925
63.720 16.859447
63.725 17.203915
63.730 17.215618
63.735 17.567917
63.740 18.299614
63.745 18.099812
63.750 17.921431
63.755 18.001659
63.760 17.78586
63.765 18.015358
63.770 17.370373
63.775 16.645723
63.780 16.865593
63.785 17.287041
63.790 17.300585
63.795 17.347008
63.800 17.324734
63.805 18.081131
63.810 18.706373
63.815 19.089897
63.820 19.121876
63.825 19.117136
63.830 19.006773
63.835 19.11908
63.840 19.343624
63.845 19.422806
63.850 19.424835
63.855 19.676451
63.860 19.977295
63.865 20.000343
63.870 19.356062
63.875 18.783123
63.880 18.163361
63.885 17.796089
63.890 18.064953
63.895 17.831108
63.900 17.674036
63.905 17.785353
63.910 17.015995
63.915 16.661057
63.920 15.722184
63.925 14.772149
63.930 14.753955
63.935 14.668644
63.940 15.151268
63.945 16.211788
63.950 16.440411
63.955 17.431389
63.960 17.787676
63.965 17.901852
63.970 17.83168
63.975 17.538774
63.980 17.169712
63.985 16.978069
63.990 16.657499
63.995 16.687363
64.000 16.81011
64.005 17.511232
64.010 18.481209
64.015 19.475981
64.020 19.653826
64.025 19.638187
64.030 19.942335
64.035 20.063654
64.040 19.59337
64.045 19.056524
64.050 18.737267
64.055 19.003391
64.060 18.753952
64.065 18.237438
64.070 17.850079
64.075 17.601347
64.080 17.436928
64.085 17.124998
64.090 17.022936
64.095 17.10886
64.100 17.347797
64.105 17.420034
64.110 17.787357
64.115 18.025097
64.120 18.201864
64.125 18.188793
64.130 18.074015
64.135 17.636333
64.140 17.362221
64.145 16.609337
64.150 15.958325
64.155 15.812967
64.160 15.38538
64.165 15.248508
64.170 15.46819
64.175 15.683634
64.180 15.634589
64.185 16.64522
64.190 17.034979
64.195 17.054039
64.200 16.872139
64.205 17.032204
64.210 16.856104
64.215 17.227297
64.220 16.677219
64.225 16.037048
64.230 16.400951
64.235 16.87315
64.240 17.102234
64.245 17.598499
64.250 17.808756
64.255 17.952028
64.260 18.011408
64.265 18.069887
64.270 18.513199
64.275 18.316038
64.280 18.027994
64.285 17.721176
64.290 17.532564
64.295 17.977047
64.300 18.154425
64.305 18.506428
64.310 18.361704
64.315 18.445717
64.320 18.152702
64.325 17.889469
64.330 17.773607
64.335 17.603872
64.340 16.905621
64.345 17.423336
64.350 17.170233
64.355 17.129255
64.360 17.446215
64.365 17.595882
64.370 17.424402
64.375 17.675482
64.380 17.924664
64.385 18.830355
64.390 19.850384
64.395 20.030909
64.400 20.067846
64.405 20.35911
64.410 19.960396
64.415 19.408747
64.420 18.780817
64.425 18.167557
64.430 17.739145
64.435 18.225214
64.440 18.27331
64.445 18.72197
64.450 18.865961
64.455 18.688862
64.460 18.658981
64.465 19.350729
64.470 19.041035
64.475 18.71686
64.480 18.775871
64.485 18.585205
64.490 18.353359
64.495 18.188356
64.500 18.450418
64.505 18.129377
64.510 18.42874
64.515 17.876619
64.520 18.120573
64.525 18.448845
64.530 18.413111
64.535 18.173929
64.540 18.055916
64.545 17.970503
64.550 18.560797
64.555 18.950977
64.560 19.137642
64.565 19.397053
64.570 20.072065
64.575 20.824656
64.580 21.118301
64.585 20.59271
64.590 20.05971
64.595 19.821482
64.600 19.671518
64.605 19.192575
64.610 18.467562
64.615 17.865444
64.620 17.654003
64.625 17.766386
64.630 17.977102
64.635 18.346832
64.640 18.096819
64.645 18.136864
64.650 18.152889
64.655 18.703547
64.660 19.319075
64.665 19.226122
64.670 18.951565
64.675 18.593754
64.680 18.477398
64.685 18.653009
64.690 17.955412
64.695 17.489399
64.700 17.632599
64.705 17.341179
64.710 17.787359
64.715 18.495659
64.720 18.593813
64.725 18.756498
64.730 18.916672
64.735 18.965454
64.740 18.878428
64.745 18.880754
64.750 18.644361
64.755 18.449354
64.760 18.990017
64.765 18.816856
64.770 18.95191
64.775 19.521008
64.780 19.365969
64.785 19.080761
64.790 19.411209
64.795 19.192659
64.800 19.052618
64.805 18.856081
64.810 19.466969
64.815 19.935442
64.820 20.404261
64.825 20.464521
64.830 20.079571
64.835 20.123035
64.840 20.338583
64.845 19.645277
64.850 19.628719
64.855 19.590977
64.860 19.653053
64.865 20.037823
64.870 20.308411
64.875 19.904562
64.880 19.807365
64.885 19.004528
64.890 18.918253
64.895 19.204206
64.900 18.952394
64.905 18.733553
64.910 18.764254
64.915 18.648228
64.920 18.973963
64.925 18.659353
64.930 18.287277
64.935 18.59409
64.940 18.69393
64.945 18.850845
64.950 18.91806
64.955 19.219059
64.960 19.127645
64.965 19.210138
64.970 19.162209
64.975 19.389128
64.980 19.869135
64.985 20.308077
64.990 21.224895
64.995 21.63863
65.000 21.627016
65.005 22.297516
65.010 22.575998
65.015 22.38085
65.020 22.799065
65.025 22.515327
65.030 22.134794
65.035 22.479952
65.040 22.063318
65.045 22.082552
65.050 22.003923
65.055 21.684469
65.060 21.777224
65.065 21.496698
65.070 20.625019
65.075 20.531496
65.080 20.878584
65.085 20.778887
65.090 20.375294
65.095 19.893879
65.100 20.732988
65.105 21.137142
65.110 21.115639
65.115 20.449646
65.120 20.554556
65.125 21.291346
65.130 21.30131
65.135 21.162987
65.140 21.640366
65.145 21.96052
65.150 22.609673
65.155 23.209032
65.160 23.493746
65.165 24.668867
65.170 24.950516
65.175 25.320574
65.180 25.573036
65.185 25.178608
65.190 24.594082
65.195 24.095901
65.200 23.331535
65.205 22.985561
65.210 22.376591
65.215 22.243313
65.220 22.368135
65.225 22.627052
65.230 22.232204
65.235 22.365005
65.240 22.736767
65.245 22.607298
65.250 21.713688
65.255 21.774261
65.260 21.462023
65.265 21.313906
65.270 21.29472
65.275 21.584093
65.280 21.788626
65.285 22.118164
65.290 21.764162
65.295 21.538637
65.300 21.410032
65.305 21.179722
65.310 20.783201
65.315 21.103827
65.320 21.487677
65.325 21.783985
65.330 22.148716
65.335 22.615309
65.340 22.930014
65.345 22.858089
65.350 22.619097
65.355 22.330837
65.360 22.038139
65.365 22.068323
65.370 21.684105
65.375 21.987328
65.380 21.660965
65.385 21.614643
65.390 22.193432
65.395 22.586103
65.400 22.886513
65.405 23.25061
65.410 23.573475
65.415 24.355101
65.420 24.394896
65.425 24.08902
65.430 24.642891
65.435 24.580011
65.440 24.692713
65.445 24.171507
65.450 24.067284
65.455 24.322971
65.460 24.396772
65.465 24.716879
65.470 24.495514
65.475 24.676565
65.480 24.66559
65.485 24.788626
65.490 24.994293
65.495 25.221415
65.500 25.050756
65.505 25.858826
65.510 26.129843
65.515 26.32478
65.520 25.966757
65.525 26.143072
65.530 26.268095
65.535 26.607727
65.540 26.732925
65.545 27.72221
65.550 27.673273
65.555 28.20417
65.560 28.327169
65.565 28.192324
65.570 28.068605
65.575 26.905674
65.580 26.394314
65.585 26.607122
65.590 26.028772
65.595 25.770861
65.600 26.709513
65.605 27.46727
65.610 28.728933
65.615 29.057871
65.620 29.650311
65.625 30.70719
65.630 31.084545
65.635 30.870068
65.640 30.927864
65.645 31.409805
65.650 31.528708
65.655 30.91604
65.660 30.560518
65.665 30.428194
65.670 29.620447
65.675 29.897963
65.680 30.676039
65.685 31.606228
65.690 32.02441
65.695 32.047417
65.700 32.285217
65.705 32.50983
65.710 32.119907
65.715 30.948084
65.720 30.476847
65.725 30.917784
65.730 30.97113
65.735 30.96492
65.740 31.429737
65.745 31.29331
65.750 31.657017
65.755 32.093395
65.760 32.813808
65.765 33.990112
65.770 34.882118
65.775 34.997814
65.780 35.440952
65.785 35.36488
65.790 36.215385
65.795 36.571064
65.800 36.570194
65.805 36.719894
65.810 36.91127
65.815 36.973915
65.820 37.442997
65.825 36.91853
65.830 36.632122
65.835 36.24469
65.840 36.333191
65.845 36.118145
65.850 36.151363
65.855 36.216167
65.860 37.024055
65.865 37.302975
65.870 37.138374
65.875 37.44997
65.880 38.136776
65.885 38.266399
65.890 38.839737
65.895 38.564678
65.900 37.696213
65.905 37.97467
65.910 37.123943
65.915 36.797535
65.920 37.341953
65.925 37.388603
65.930 37.073586
65.935 37.469444
65.940 36.707054
65.945 36.984398
65.950 37.360905
65.955 37.370579
65.960 37.577293
65.965 36.999611
65.970 37.571674
65.975 37.549221
65.980 37.738216
65.985 36.784531
65.990 36.112862
65.995 35.421246
66.000 35.842907
66.005 35.564415
66.010 35.159275
66.015 34.743793
66.020 35.317207
66.025 34.93354
66.030 35.038689
66.035 34.868431
66.040 34.800701
66.045 35.947258
66.050 35.696007
66.055 35.317696
66.060 35.428436
66.065 35.312016
66.070 35.047878
66.075 35.190899
66.080 34.435261
66.085 34.811039
66.090 34.736073
66.095 34.573879
66.100 35.096035
66.105 35.162773
66.110 35.06739
66.115 35.393665
66.120 35.041077
66.125 35.157871
66.130 35.343189
66.135 35.220043
66.140 35.551907
66.145 35.428066
66.150 35.485809
66.155 36.301823
66.160 36.346233
66.165 35.684822
66.170 35.412544
66.175 35.105324
66.180 35.259884
66.185 34.53558
66.190 33.618507
66.195 33.269802
66.200 33.417976
66.205 33.533386
66.210 33.082806
66.215 32.66222
66.220 33.404182
66.225 33.530403
66.230 33.158852
66.235 32.841129
66.240 31.93063
66.245 32.624252
66.250 32.789436
66.255 32.709496
66.260 32.479382
66.265 32.595047
66.270 32.723164
66.275 32.987713
66.280 32.281883
66.285 31.690918
66.290 30.9715
66.295 30.949776
66.300 31.001696
66.305 30.234554
66.310 29.570766
66.315 29.761248
66.320 29.434326
66.325 29.406025
66.330 29.524549
66.335 28.877031
66.340 29.359571
66.345 29.597542
66.350 29.436073
66.355 30.463955
66.360 30.91847
66.365 30.374302
66.370 30.685671
66.375 30.875578
66.380 30.953941
66.385 30.646183
66.390 30.295597
66.395 29.961227
66.400 30.438576
66.405 30.748936
66.410 30.37359
66.415 30.246218
66.420 29.993505
66.425 29.417253
66.430 29.065754
66.435 28.542274
66.440 27.850166
66.445 27.183575
66.450 26.480761
66.455 26.218672
66.460 26.196585
66.465 26.738241
66.470 26.857927
66.475 27.103041
66.480 27.956686
66.485 28.822599
66.490 29.274935
66.495 29.191437
66.500 29.029022
66.505 29.194824
66.510 28.979954
66.515 28.296509
66.520 27.745996
66.525 27.373659
66.530 27.416046
66.535 26.899618
66.540 26.292778
66.545 26.606533
66.550 26.544186
66.555 26.871407
66.560 27.014515
66.565 26.98826
66.570 27.631407
66.575 28.020555
66.580 28.307207
66.585 28.363684
66.590 28.164227
66.595 27.819878
66.600 27.206919
66.605 26.799179
66.610 26.726284
66.615 26.084696
66.620 26.036818
66.625 26.274029
66.630 26.66308
66.635 26.991804
66.640 27.004744
66.645 26.396584
66.650 25.778667
66.655 25.283571
66.660 24.898731
66.665 24.846928
66.670 25.03532
66.675 24.902136
66.680 25.192175
66.685 25.09511
66.690 24.619379
66.695 24.632542
66.700 23.87978
66.705 23.153326
66.710 22.700476
66.715 22.804161
66.720 22.939484
66.725 23.463768
66.730 23.63489
66.735 23.931643
66.740 24.198601
66.745 24.632242
66.750 24.607044
66.755 24.84351
66.760 25.299234
66.765 25.433426
66.770 26.161755
66.775 26.476601
66.780 25.784021
66.785 25.690527
66.790 25.466982
66.795 24.946695
66.800 24.748018
66.805 24.174292
66.810 24.416689
66.815 24.854168
66.820 24.722708
66.825 24.676498
66.830 24.314276
66.835 23.98317
66.840 23.648022
66.845 23.583761
66.850 23.401087
66.855 23.131756
66.860 23.268764
66.865 23.304083
66.870 23.57151
66.875 23.472513
66.880 23.640751
66.885 23.796335
66.890 23.901146
66.895 23.964293
66.900 23.89369
66.905 23.768721
66.910 23.513262
66.915 23.052744
66.920 22.498108
66.925 21.922878
66.930 21.643682
66.935 21.697483
66.940 21.347834
66.945 21.090837
66.950 21.127638
66.955 21.593094
66.960 22.078176
66.965 21.790392
66.970 21.933573
66.975 22.203566
66.980 22.253574
66.985 22.68545
66.990 22.938383
66.995 23.549328
67.000 23.435221
67.005 23.387566
67.010 23.783733
67.015 24.593866
67.020 24.479549
67.025 24.464554
67.030 24.594614
67.035 24.979458
67.040 24.393093
67.045 24.266624
67.050 23.625517
67.055 23.175161
67.060 22.462973
67.065 22.022352
67.070 22.011902
67.075 22.889902
67.080 22.403288
67.085 22.338181
67.090 22.659613
67.095 22.783163
67.100 22.664618
67.105 22.85606
67.110 22.630301
67.115 23.418306
67.120 24.143833
67.125 24.460855
67.130 24.568378
67.135 23.924961
67.140 23.567951
67.145 23.211493
67.150 22.409401
67.155 21.472546
67.160 21.187586
67.165 20.928659
67.170 21.467342
67.175 21.291574
67.180 21.128048
67.185 21.490011
67.190 22.07741
67.195 22.269236
67.200 22.480457
67.205 21.811504
67.210 21.407125
67.215 21.839628
67.220 21.311646
67.225 20.83279
67.230 20.934383
67.235 21.238724
67.240 22.008593
67.245 22.197186
67.250 22.077005
67.255 22.204895
67.260 22.128477
67.265 22.176279
67.270 22.367243
67.275 22.168123
67.280 22.251902
67.285 22.467545
67.290 22.726192
67.295 22.006966
67.300 21.49369
67.305 21.007051
67.310 21.193893
67.315 21.120594
67.320 20.987629
67.325 21.0459
67.330 21.483198
67.335 21.611601
67.340 21.496813
67.345 21.324636
67.350 20.88529
67.355 20.447025
67.360 20.079878
67.365 20.217245
67.370 20.610712
67.375 20.774651
67.380 20.512053
67.385 19.994204
67.390 20.052876
67.395 20.456505
67.400 20.747211
67.405 20.536001
67.410 20.434727
67.415 20.516947
67.420 20.943861
67.425 20.828314
67.430 20.489901
67.435 20.499191
67.440 20.736235
67.445 20.899637
67.450 21.064381
67.455 21.697701
67.460 22.126429
67.465 22.008453
67.470 22.166449
67.475 21.846033
67.480 21.860954
67.485 22.112005
67.490 21.601183
67.495 21.724174
67.500 22.013876
67.505 21.208071
67.510 21.399107
67.515 21.417507
67.520 21.122223
67.525 20.890364
67.530 20.0606
67.535 19.901575
67.540 20.09837
67.545 19.792196
67.550 20.046467
67.555 19.999739
67.560 20.165792
67.565 20.832916
67.570 20.52939
67.575 20.23687
67.580 20.008514
67.585 19.581684
67.590 20.140123
67.595 20.277025
67.600 20.55756
67.605 21.019468
67.610 21.537731
67.615 21.616842
67.620 21.623333
67.625 21.22662
67.630 20.988903
67.635 20.553576
67.640 20.052666
67.645 19.899694
67.650 19.962667
67.655 20.179277
67.660 20.833675
67.665 21.405878
67.670 21.388449
67.675 21.796024
67.680 22.052425
67.685 22.030357
67.690 22.089994
67.695 21.632187
67.700 21.498297
67.705 21.365852
67.710 20.861303
67.715 20.559576
67.720 20.111324
67.725 20.156662
67.730 20.34934
67.735 20.681213
67.740 21.042536
67.745 20.73455
67.750 21.093418
67.755 21.421707
67.760 20.960615
67.765 20.699398
67.770 19.658876
67.775 19.417173
67.780 19.983231
67.785 19.838223
67.790 19.693111
67.795 19.835796
67.800 19.694159
67.805 20.414494
67.810 20.42734
67.815 20.390795
67.820 20.487331
67.825 20.582781
67.830 20.96649
67.835 21.02161
67.840 20.792875
67.845 20.592402
67.850 20.292587
67.855 20.141409
67.860 19.725636
67.865 19.167995
67.870 19.495337
67.875 19.860935
67.880 19.853762
67.885 19.563389
67.890 19.259148
67.895 18.700071
67.900 18.581638
67.905 19.034498
67.910 18.963974
67.915 19.524443
67.920 20.120361
67.925 20.553957
67.930 21.824188
67.935 22.003531
67.940 21.339058
67.945 21.624285
67.950 21.829494
67.955 22.443525
67.960 22.91227
67.965 22.615074
67.970 23.029045
67.975 23.328871
67.980 22.779333
67.985 22.754402
67.990 21.938074
67.995 21.651289
68.000 21.179363
68.005 20.767815
68.010 20.717913
68.015 20.587774
68.020 20.569351
68.025 20.850676
68.030 20.769522
68.035 20.951765
68.040 20.989609
68.045 20.724525
68.050 20.542776
68.055 20.343597
68.060 20.335421
68.065 20.295763
68.070 20.196657
68.075 20.322128
68.080 20.273163
68.085 20.649248
68.090 20.889879
68.095 21.399405
68.100 21.619848
68.105 21.895084
68.110 22.143438
68.115 22.394859
68.120 21.842081
68.125 21.861078
68.130 21.087473
68.135 20.608765
68.140 20.043982
68.145 19.818604
68.150 20.025436
68.155 20.111591
68.160 19.792385
68.165 19.898157
68.170 20.040121
68.175 20.346092
68.180 19.893934
68.185 19.615988
68.190 19.223263
68.195 19.591246
68.200 19.770672
68.205 20.187275
68.210 20.055923
68.215 20.472698
68.220 20.865767
68.225 21.294472
68.230 21.029999
68.235 21.354519
68.240 21.118692
68.245 21.158749
68.250 21.437351
68.255 21.202391
68.260 21.813423
68.265 22.1113
68.270 22.055288
68.275 22.435278
68.280 22.586369
68.285 22.528162
68.290 22.394838
68.295 21.937866
68.300 21.668869
68.305 21.177223
68.310 20.836048
68.315 20.556042
68.320 20.257044
68.325 20.210623
68.330 20.733725
68.335 21.079876
68.340 20.948038
68.345 21.276522
68.350 21.693102
68.355 21.571653
68.360 21.848577
68.365 21.53816
68.370 21.114668
68.375 21.173756
68.380 21.167212
68.385 21.262772
68.390 21.791306
68.395 21.315868
68.400 21.097345
68.405 21.61747
68.410 22.123417
68.415 21.470325
68.420 21.132017
68.425 21.039793
68.430 21.269604
68.435 21.249695
68.440 20.958549
68.445 20.435904
68.450 19.433929
68.455 18.923986
68.460 18.825533
68.465 18.631824
68.470 18.652231
68.475 18.561281
68.480 18.943769
68.485 20.477785
68.490 21.345615
68.495 21.476036
68.500 21.373953
68.505 20.809965
68.510 21.04291
68.515 21.127298
68.520 21.252539
68.525 21.077681
68.530 20.742737
68.535 20.477358
68.540 20.721626
68.545 21.105968
68.550 21.012554
68.555 21.307978
68.560 21.054647
68.565 21.431509
68.570 22.146049
68.575 22.413862
68.580 22.09199
68.585 21.928055
68.590 21.045677
68.595 20.955875
68.600 20.451023
68.605 20.634541
68.610 20.698677
68.615 20.811693
68.620 21.156374
68.625 21.445688
68.630 21.530657
68.635 21.975674
68.640 22.369188
68.645 22.288319
68.650 21.984842
68.655 21.936357
68.660 22.863279
68.665 22.898336
68.670 22.494614
68.675 21.717009
68.680 21.980671
68.685 21.672678
68.690 21.349237
68.695 20.736324
68.700 20.468937
68.705 20.539669
68.710 20.512878
68.715 20.632225
68.720 21.331919
68.725 21.544508
68.730 20.593174
68.735 20.665464
68.740 20.798223
68.745 20.586845
68.750 20.593884
68.755 20.229597
68.760 20.468437
68.765 21.277889
68.770 21.878191
68.775 21.710812
68.780 21.824747
68.785 21.907244
68.790 22.1182
68.795 22.289965
68.800 21.977333
68.805 21.974846
68.810 21.88055
68.815 21.204849
68.820 20.75547
68.825 20.45373
68.830 20.662874
68.835 21.96916
68.840 22.076342
68.845 22.699566
68.850 23.78834
68.855 24.267475
68.860 24.332767
68.865 24.069773
68.870 23.127167
68.875 23.110157
68.880 23.228416
68.885 22.247465
68.890 21.905176
68.895 21.995371
68.900 22.01589
68.905 22.216259
68.910 22.268003
68.915 22.33186
68.920 22.761927
68.925 23.038519
68.930 22.98398
68.935 23.056437
68.940 22.472937
68.945 22.620085
68.950 22.783003
68.955 23.046074
68.960 23.205645
68.965 23.116129
68.970 22.946426
68.975 23.623222
68.980 23.372995
68.985 23.204529
68.990 23.093847
68.995 22.851311
69.000 22.467817
69.005 22.458324
69.010 22.590424
69.015 22.361958
69.020 21.777979
69.025 21.647295
69.030 21.46274
69.035 21.622446
69.040 21.702602
69.045 21.402037
69.050 21.823708
69.055 22.433182
69.060 22.675116
69.065 23.023027
69.070 23.498613
69.075 24.086096
69.080 24.13131
69.085 24.070902
69.090 24.038815
69.095 24.043327
69.100 24.997475
69.105 25.102812
69.110 25.463554
69.115 25.412395
69.120 25.446236
69.125 25.946882
69.130 26.276718
69.135 26.065659
69.140 25.984716
69.145 26.378328
69.150 26.845768
69.155 27.460651
69.160 27.044674
69.165 26.663054
69.170 26.372499
69.175 25.553144
69.180 25.57402
69.185 25.868418
69.190 25.259319
69.195 25.204662
69.200 25.411442
69.205 25.450932
69.210 26.349798
69.215 25.879528
69.220 25.989771
69.225 26.538107
69.230 27.231941
69.235 27.163887
69.240 27.294941
69.245 26.998323
69.250 26.659782
69.255 26.541281
69.260 27.101528
69.265 27.296926
69.270 27.731998
69.275 27.942955
69.280 28.312191
69.285 28.193058
69.290 27.787258
69.295 27.083809
69.300 26.660135
69.305 26.182167
69.310 26.877829
69.315 26.834816
69.320 27.475023
69.325 27.311014
69.330 27.21533
69.335 26.933578
69.340 26.673641
69.345 25.994802
69.350 25.821787
69.355 25.555935
69.360 25.918371
69.365 25.915295
69.370 26.00276
69.375 26.240406
69.380 26.196297
69.385 26.440689
69.390 26.836287
69.395 27.38195
69.400 27.690538
69.405 27.82831
69.410 28.833668
69.415 28.794834
69.420 28.788807
69.425 28.087296
69.430 27.613998
69.435 27.808224
69.440 28.166124
69.445 27.68647
69.450 28.42618
69.455 28.490507
69.460 29.007093
69.465 29.57246
69.470 29.11343
69.475 29.13443
69.480 29.271093
69.485 29.593494
69.490 30.09145
69.495 29.837454
69.500 29.463915
69.505 30.053385
69.510 30.768721
69.515 30.628191
69.520 30.231049
69.525 29.420603
69.530 29.496443
69.535 29.305038
69.540 29.137634
69.545 28.178986
69.550 27.413296
69.555 27.556562
69.560 27.766428
69.565 27.087009
69.570 26.370569
69.575 26.096241
69.580 26.599726
69.585 27.254711
69.590 27.270155
69.595 27.560793
69.600 28.796988
69.605 29.566931
69.610 29.659515
69.615 28.975163
69.620 28.171045
69.625 28.111418
69.630 28.347248
69.635 27.169096
69.640 26.819748
69.645 26.411383
69.650 26.565657
69.655 27.073698
69.660 27.157179
69.665 27.102274
69.670 27.81044
69.675 28.345366
69.680 28.675915
69.685 28.694555
69.690 27.647804
69.695 27.623009
69.700 27.020267
69.705 26.406254
69.710 25.663227
69.715 25.659172
69.720 25.856323
69.725 26.25209
69.730 26.30838
69.735 26.610243
69.740 26.901247
69.745 26.678196
69.750 26.821213
69.755 26.572886
69.760 26.100653
69.765 24.952164
69.770 25.047508
69.775 24.958681
69.780 24.909655
69.785 24.646622
69.790 24.664471
69.795 25.153116
69.800 25.372753
69.805 24.706734
69.810 24.546656
69.815 24.504303
69.820 23.90913
69.825 23.271433
69.830 22.918911
69.835 22.766783
69.840 22.748711
69.845 22.971966
69.850 23.098026
69.855 23.396212
69.860 23.235165
69.865 23.756498
69.870 24.086309
69.875 24.207579
69.880 24.00214
69.885 24.266663
69.890 24.285574
69.895 24.00478
69.900 23.466795
69.905 23.300409
69.910 23.093388
69.915 22.477266
69.920 22.390051
69.925 22.603662
69.930 22.263784
69.935 22.20047
69.940 22.191288
69.945 22.266779
69.950 22.422865
69.955 22.151766
69.960 22.306658
69.965 23.40432
69.970 23.101168
69.975 23.202396
69.980 22.61779
69.985 22.387341
69.990 22.252405
69.995 22.311317
70.000 22.359093
70.005 22.028942
70.010 21.711302
70.015 21.693138
70.020 21.401176
70.025 21.69809
70.030 20.766705
70.035 20.881149
70.040 21.1017
70.045 21.239073
70.050 21.15934
70.055 21.024612
70.060 20.848333
70.065 21.021868
70.070 20.941399
70.075 21.39068
70.080 21.612717
70.085 21.641117
70.090 21.659182
70.095 21.851446
70.100 21.590603
70.105 21.447876
70.110 21.07563
70.115 20.89661
70.120 21.593945
70.125 21.977655
70.130 21.862232
70.135 21.355724
70.140 21.512369
70.145 21.641308
70.150 21.882929
70.155 21.238995
70.160 20.776768
70.165 20.57976
70.170 19.437227
70.175 18.210266
70.180 17.616138
70.185 17.757114
70.190 18.117348
70.195 18.751089
70.200 19.150324
70.205 19.985838
70.210 20.685209
70.215 21.050039
70.220 20.893875
70.225 20.630901
70.230 20.256502
70.235 20.164658
70.240 19.752367
70.245 19.304802
70.250 19.501825
70.255 19.049231
70.260 19.857693
70.265 20.036882
70.270 19.691187
70.275 20.291525
70.280 20.481638
70.285 20.768211
70.290 21.29665
70.295 20.613804
70.300 21.376417
70.305 21.749384
70.310 21.630747
70.315 21.896629
70.320 21.944584
70.325 21.847204
70.330 21.506605
70.335 21.36883
70.340 21.13117
70.345 20.842829
70.350 20.360989
70.355 19.380865
70.360 19.294067
70.365 19.253839
70.370 19.209433
70.375 19.331087
70.380 19.200573
70.385 19.437927
70.390 19.577482
70.395 19.042093
70.400 18.828985
70.405 18.532419
70.410 19.0338
70.415 18.966793
70.420 19.261547
70.425 19.504118
70.430 19.921146
70.435 20.369598
70.440 20.742859
70.445 20.187634
70.450 20.263369
70.455 20.023737
70.460 19.898592
70.465 19.622311
70.470 19.331577
70.475 19.714571
70.480 20.392349
70.485 20.367722
70.490 19.924974
70.495 19.385439
70.500 18.805645
70.505 18.515623
70.510 17.731113
70.515 16.996351
70.520 16.970045
70.525 17.724363
70.530 18.499533
70.535 19.287804
70.540 19.843266
70.545 20.493843
70.550 20.668148
70.555 19.94936
70.560 19.802906
70.565 19.508482
70.570 19.542929
70.575 19.162354
70.580 19.074354
70.585 19.221394
70.590 19.631704
70.595 19.699657
70.600 19.439131
70.605 18.809296
70.610 18.328184
70.615 18.29015
70.620 18.28763
70.625 18.110386
70.630 18.378424
70.635 18.982273
70.640 19.41729
70.645 19.937872
70.650 20.044785
70.655 20.197027
70.660 20.631927
70.665 20.358343
70.670 19.856512
70.675 19.846279
70.680 20.042946
70.685 20.018684
70.690 19.948004
70.695 19.470583
70.700 19.22648
70.705 19.372231
70.710 19.468325
70.715 19.108101
70.720 19.121555
70.725 19.176468
70.730 20.304356
70.735 20.683525
70.740 20.375954
70.745 19.970795
70.750 20.207308
70.755 19.919413
70.760 19.524229
70.765 18.67387
70.770 18.82375
70.775 18.779249
70.780 18.049419
70.785 17.278652
70.790 17.011679
70.795 16.580111
70.800 16.721466
70.805 16.697126
70.810 16.567322
70.815 17.13117
70.820 17.709875
70.825 18.268278
70.830 18.517279
70.835 18.434895
70.840 19.142786
70.845 19.218002
70.850 19.803646
70.855 19.435463
70.860 19.539417
70.865 19.404045
70.870 18.838625
70.875 19.12031
70.880 19.53352
70.885 19.240902
70.890 19.268108
70.895 18.96105
70.900 19.595228
70.905 19.561045
70.910 18.957352
70.915 19.178699
70.920 19.391369
70.925 19.484201
70.930 19.210926
70.935 19.168259
70.940 19.704264
70.945 20.039888
70.950 19.548033
70.955 19.526844
70.960 19.302898
70.965 18.993183
70.970 18.586432
70.975 18.041025
70.980 17.842943
70.985 18.574799
70.990 18.04011
70.995 18.379751
71.000 18.922335
71.005 19.253042
71.010 19.078239
71.015 18.992258
71.020 18.610355
71.025 18.14942
71.030 17.801151
71.035 17.309275
71.040 17.127123
71.045 17.417246
71.050 17.585409
71.055 17.658892
71.060 17.739302
71.065 17.947067
71.070 18.237907
71.075 18.119894
71.080 17.877613
71.085 17.899923
71.090 18.237473
71.095 18.692669
71.100 19.057335
71.105 18.972132
71.110 18.998919
71.115 19.234833
71.120 19.296534
71.125 19.871466
71.130 19.948168
71.135 19.465302
71.140 19.679001
71.145 19.458109
71.150 19.004396
71.155 18.870064
71.160 17.953205
71.165 17.356499
71.170 17.1392
71.175 17.235788
71.180 17.045202
71.185 17.003107
71.190 16.973141
71.195 17.06868
71.200 17.614943
71.205 17.8318
71.210 17.884626
71.215 18.036846
71.220 17.950083
71.225 18.470732
71.230 19.114216
71.235 18.713558
71.240 18.614553
71.245 18.499231
71.250 18.360888
71.255 18.624683
71.260 18.281103
71.265 18.650824
71.270 19.081919
71.275 18.904442
71.280 19.082607
71.285 19.142498
71.290 19.156626
71.295 19.21241
71.300 19.022825
71.305 19.334829
71.310 20.158056
71.315 20.558222
71.320 21.017454
71.325 21.331532
71.330 21.370836
71.335 21.117432
71.340 20.526373
71.345 20.58429
71.350 20.368921
71.355 20.059113
71.360 19.507391
71.365 19.254364
71.370 19.355511
71.375 19.509224
71.380 19.014553
71.385 19.344791
71.390 19.197527
71.395 18.992355
71.400 18.766817
71.405 19.096296
71.410 19.807587
71.415 19.817736
71.420 19.960314
71.425 20.309101
71.430 20.981274
71.435 21.951265
71.440 21.378195
71.445 21.38393
71.450 21.220016
71.455 20.920664
71.460 21.282234
71.465 21.40267
71.470 21.247969
71.475 21.191256
71.480 20.506689
71.485 20.378326
71.490 19.685192
71.495 19.280621
71.500 18.690929
71.505 18.039148
71.510 17.442892
71.515 17.839966
71.520 18.479864
71.525 18.821812
71.530 18.889191
71.535 18.826714
71.540 19.081106
71.545 19.844997
71.550 19.729923
71.555 19.355125
71.560 19.533947
71.565 19.623726
71.570 19.655064
71.575 19.388643
71.580 18.508818
71.585 18.486593
71.590 18.255209
71.595 17.857494
71.600 17.526825
71.605 17.738266
71.610 17.862783
71.615 18.398769
71.620 18.757324
71.625 19.045673
71.630 19.437151
71.635 19.440105
71.640 19.525221
71.645 19.23185
71.650 18.409582
71.655 17.733833
71.660 17.112406
71.665 16.927858
71.670 16.642473
71.675 16.834217
71.680 16.998707
71.685 17.307785
71.690 17.633762
71.695 18.263975
71.700 18.426155
71.705 19.031445
71.710 18.810572
71.715 19.177183
71.720 19.714643
71.725 19.149332
71.730 19.068445
71.735 18.996777
71.740 19.409204
71.745 19.439117
71.750 19.472168
71.755 19.711468
71.760 19.983728
71.765 19.733761
71.770 18.828552
71.775 18.587103
71.780 18.048346
71.785 17.481215
71.790 16.896929
71.795 16.85708
71.800 17.309668
71.805 17.758181
71.810 17.996435
71.815 18.352804
71.820 17.905157
71.825 18.320583
71.830 18.512569
71.835 18.658619
71.840 18.729618
71.845 18.79652
71.850 19.131252
71.855 19.641832
71.860 19.814598
71.865 19.430466
71.870 19.575253
71.875 19.989946
71.880 20.068861
71.885 20.728384
71.890 20.696388
71.895 20.910295
71.900 20.878283
71.905 20.393591
71.910 20.032772
71.915 20.085958
71.920 19.566425
71.925 19.141745
71.930 18.656704
71.935 19.081635
71.940 19.326841
71.945 18.937017
71.950 18.231934
71.955 17.826178
71.960 18.187098
71.965 18.143572
71.970 17.698841
71.975 17.598289
71.980 18.245844
71.985 18.93363
71.990 18.601881
71.995 18.619467
72.000 18.891098
72.005 18.645826
72.010 18.062613
72.015 17.493633
72.020 17.70911
72.025 18.130287
72.030 18.404539
72.035 18.560509
72.040 19.282734
72.045 20.148474
72.050 20.434185
72.055 20.495808
72.060 19.624195
72.065 19.789314
72.070 19.427465
72.075 18.938587
72.080 18.172329
72.085 17.762262
72.090 17.490664
72.095 17.792067
72.100 17.602755
72.105 18.471151
72.110 18.759317
72.115 18.833799
72.120 19.275169
72.125 19.724195
72.130 19.851061
72.135 19.789583
72.140 19.443653
72.145 19.205004
72.150 18.837254
72.155 19.017752
72.160 18.902334
72.165 19.137875
72.170 18.781946
72.175 18.689207
72.180 19.29735
72.185 19.620668
72.190 19.374958
72.195 19.314615
72.200 18.98419
72.205 19.105339
72.210 18.980251
72.215 19.024456
72.220 18.984541
72.225 19.133356
72.230 19.25206
72.235 18.980247
72.240 18.981939
72.245 19.001965
72.250 18.707407
72.255 18.482679
72.260 17.633659
72.265 17.464161
72.270 17.674358
72.275 17.569012
72.280 17.108175
72.285 17.102316
72.290 17.009012
72.295 17.414499
72.300 17.125807
72.305 17.117468
72.310 16.965733
72.315 16.791624
72.320 16.536453
72.325 16.961472
72.330 17.193678
72.335 17.883141
72.340 18.129513
72.345 18.38035
72.350 17.916708
72.355 18.550827
72.360 18.234207
72.365 18.182901
72.370 17.908773
72.375 17.944101
72.380 18.092424
72.385 17.98984
72.390 17.439276
72.395 17.323107
72.400 17.412014
72.405 17.097004
72.410 17.32847
72.415 17.045216
72.420 17.020166
72.425 17.345377
72.430 17.415928
72.435 17.124367
72.440 17.319418
72.445 17.530254
72.450 17.459253
72.455 17.23155
72.460 16.988935
72.465 16.856697
72.470 17.065653
72.475 16.806261
72.480 16.384716
72.485 17.187763
72.490 17.206554
72.495 17.393036
72.500 17.176186
72.505 16.55872
72.510 15.900357
72.515 15.859344
72.520 16.10644
72.525 16.355251
72.530 16.157164
72.535 16.52898
72.540 17.061094
72.545 17.753502
72.550 17.80736
72.555 17.60331
72.560 17.426861
72.565 17.77504
72.570 17.527369
72.575 17.972851
72.580 18.276993
72.585 18.410437
72.590 18.635721
72.595 18.937843
72.600 19.24522
72.605 19.355162
72.610 19.134708
72.615 19.072596
72.620 19.072966
72.625 19.890453
72.630 19.992783
72.635 19.885199
72.640 19.701384
72.645 19.821133
72.650 20.189386
72.655 20.215715
72.660 19.260191
72.665 19.090574
72.670 18.945833
72.675 18.604555
72.680 18.195631
72.685 17.615393
72.690 17.35182
72.695 17.389437
72.700 17.529652
72.705 17.65942
72.710 18.23357
72.715 18.267237
72.720 18.449871
72.725 18.739986
72.730 18.587637
72.735 18.405046
72.740 18.566788
72.745 18.225496
72.750 17.747105
72.755 17.954964
72.760 18.205999
72.765 18.884523
72.770 19.167454
72.775 19.139956
72.780 18.908962
72.785 19.061602
72.790 18.528593
72.795 18.143654
72.800 17.584635
72.805 17.344406
72.810 17.887709
72.815 18.241863
72.820 17.920591
72.825 18.19808
72.830 18.004272
72.835 18.005638
72.840 17.305588
72.845 16.952719
72.850 16.792871
72.855 17.361103
72.860 17.612011
72.865 18.259655
72.870 17.865139
72.875 18.338402
72.880 18.742863
72.885 18.93029
72.890 18.120552
72.895 17.553677
72.900 16.886477
72.905 17.077036
72.910 16.729769
72.915 16.765696
72.920 17.162603
72.925 17.895891
72.930 17.976284
72.935 18.717249
72.940 18.429523
72.945 17.800098
72.950 17.746155
72.955 17.040129
72.960 16.78277
72.965 16.44067
72.970 16.54418
72.975 16.782167
72.980 17.175856
72.985 17.044186
72.990 17.25392
72.995 16.847963
73.000 16.445383
