!@!!GADDS PLOTSO FILE: Chi integration type
!@!!Title/SampleName: map-ad
!@!!Comment: ?
!@!!User: Bruker Instrument Administrator
!@!!Site: University of Illinois Chicago
!@!!Frame: map-ad_01_000.gfrm
!@!!Wavelengths    1.54184   1.54056   1.54439
!@!!Frame angles: 2Theta: 63.000 Omega: 50.000 Phi: 0.000 Chi: 90.000
!@!!Integration range: 2Theta: 53.000 to 73.000  Gamma: -105.000 to -75.000
!@!!Integration method: bin normalized
!@!N
!@!SS
!@!M
!@!L 0.0 0.0 0.0 0.0
!@!XDegrees
!@!YCounts
53.000 8.226424
53.005 7.968222
53.010 7.814985
53.015 7.824528
53.020 8.205482
53.025 8.669225
53.030 8.97193
53.035 8.860887
53.040 8.789297
53.045 8.915705
53.050 8.548156
53.055 8.45217
53.060 8.194417
53.065 8.208759
53.070 7.94734
53.075 8.136049
53.080 8.291735
53.085 8.789195
53.090 8.80293
53.095 8.805509
53.100 8.983755
53.105 8.734118
53.110 8.252846
53.115 8.074145
53.120 7.6213
53.125 7.281568
53.130 7.315564
53.135 7.561424
53.140 8.098413
53.145 8.291129
53.150 8.41836
53.155 8.981836
53.160 9.018804
53.165 8.964595
53.170 8.433259
53.175 8.431841
53.180 8.506742
53.185 8.614342
53.190 8.545965
53.195 8.405977
53.200 8.512454
53.205 8.606482
53.210 8.724976
53.215 8.645563
53.220 8.446372
53.225 8.41907
53.230 8.35245
53.235 8.415642
53.240 8.849532
53.245 8.762126
53.250 8.735298
53.255 8.557789
53.260 8.682781
53.265 8.746135
53.270 8.475031
53.275 7.935391
53.280 7.657623
53.285 8.056001
53.290 8.265807
53.295 8.250733
53.300 8.734253
53.305 9.189167
53.310 9.665475
53.315 10.020794
53.320 9.390758
53.325 9.3673
53.330 9.132736
53.335 8.587562
53.340 8.42379
53.345 8.310946
53.350 8.224864
53.355 8.39304
53.360 8.458344
53.365 8.63605
53.370 8.8096
53.375 8.971198
53.380 8.674492
53.385 9.277186
53.390 9.626858
53.395 9.716886
53.400 9.871376
53.405 9.814384
53.410 9.825116
53.415 9.940788
53.420 9.639551
53.425 9.574861
53.430 9.421718
53.435 9.490533
53.440 9.72203
53.445 9.842995
53.450 10.059956
53.455 10.214039
53.460 10.345922
53.465 10.689946
53.470 10.657641
53.475 10.488837
53.480 10.324904
53.485 10.089906
53.490 9.702194
53.495 9.315166
53.500 8.817925
53.505 8.477809
53.510 8.008984
53.515 7.62241
53.520 7.319654
53.525 8.001179
53.530 8.071301
53.535 8.332087
53.540 8.579479
53.545 8.816876
53.550 8.949188
53.555 8.97409
53.560 8.332044
53.565 8.220984
53.570 8.659548
53.575 9.272297
53.580 9.789957
53.585 10.056179
53.590 10.172184
53.595 10.184198
53.600 10.18888
53.605 9.557038
53.610 8.919934
53.615 8.396038
53.620 8.494095
53.625 8.651184
53.630 8.617404
53.635 8.568875
53.640 8.75545
53.645 9.335399
53.650 9.791364
53.655 9.484955
53.660 9.207813
53.665 9.701571
53.670 9.726603
53.675 9.665321
53.680 9.242094
53.685 9.054225
53.690 9.31913
53.695 9.507667
53.700 8.977631
53.705 8.709419
53.710 8.828332
53.715 9.007175
53.720 9.314476
53.725 8.908278
53.730 9.188898
53.735 9.365334
53.740 9.664602
53.745 9.837922
53.750 9.448071
53.755 9.473907
53.760 9.784499
53.765 9.853023
53.770 9.969734
53.775 9.279244
53.780 9.193299
53.785 9.331255
53.790 9.012405
53.795 9.221047
53.800 9.129004
53.805 9.300643
53.810 9.374263
53.815 9.158545
53.820 8.954651
53.825 9.174633
53.830 8.905387
53.835 8.973251
53.840 8.483329
53.845 8.844282
53.850 8.875299
53.855 9.034522
53.860 9.343469
53.865 9.293053
53.870 9.541074
53.875 10.074121
53.880 10.20711
53.885 10.664005
53.890 10.850518
53.895 10.566326
53.900 10.646586
53.905 10.917402
53.910 10.530569
53.915 10.555521
53.920 10.10022
53.925 9.649154
53.930 9.475801
53.935 9.412073
53.940 9.459029
53.945 9.277569
53.950 9.474425
53.955 9.682137
53.960 9.832069
53.965 10.297314
53.970 10.102169
53.975 10.371468
53.980 10.415528
53.985 10.258898
53.990 10.510135
53.995 9.957706
54.000 9.521229
54.005 9.391265
54.010 8.971745
54.015 8.921429
54.020 9.26305
54.025 9.255502
54.030 10.090464
54.035 10.480195
54.040 10.58449
54.045 10.732889
54.050 10.392197
54.055 9.714999
54.060 9.631563
54.065 9.416964
54.070 9.439746
54.075 9.408731
54.080 9.671384
54.085 9.721797
54.090 9.938484
54.095 10.171236
54.100 10.119144
54.105 10.0702
54.110 9.638205
54.115 9.573814
54.120 10.028556
54.125 9.711944
54.130 9.44706
54.135 9.602787
54.140 9.860485
54.145 9.934608
54.150 9.935748
54.155 9.80625
54.160 9.856455
54.165 9.522774
54.170 8.868624
54.175 8.814181
54.180 9.395219
54.185 9.24831
54.190 9.3438
54.195 9.637074
54.200 10.255325
54.205 10.639469
54.210 10.147342
54.215 9.815947
54.220 9.896959
54.225 9.811779
54.230 10.0391
54.235 10.070802
54.240 10.195563
54.245 10.733813
54.250 10.811285
54.255 10.650842
54.260 10.642354
54.265 10.59119
54.270 10.583084
54.275 10.681539
54.280 10.52869
54.285 10.868462
54.290 10.846391
54.295 10.657317
54.300 10.346023
54.305 9.907224
54.310 9.817244
54.315 9.879807
54.320 9.498046
54.325 9.755364
54.330 9.716642
54.335 9.961249
54.340 9.816784
54.345 9.962368
54.350 9.902308
54.355 9.925241
54.360 10.024199
54.365 9.881625
54.370 9.759163
54.375 10.054294
54.380 9.719409
54.385 9.780861
54.390 9.682721
54.395 9.745105
54.400 9.871539
54.405 9.891064
54.410 9.869917
54.415 9.895753
54.420 10.160089
54.425 10.057353
54.430 10.073115
54.435 10.472567
54.440 10.203626
54.445 9.922673
54.450 9.650236
54.455 9.359769
54.460 9.499376
54.465 9.417785
54.470 8.935105
54.475 9.040321
54.480 9.208625
54.485 9.401406
54.490 9.625098
54.495 9.23951
54.500 9.116287
54.505 9.767726
54.510 10.05311
54.515 10.059648
54.520 9.992701
54.525 9.868185
54.530 10.438954
54.535 10.605365
54.540 10.75532
54.545 10.93298
54.550 10.962909
54.555 11.000767
54.560 10.654119
54.565 10.096689
54.570 9.881257
54.575 9.933518
54.580 10.074319
54.585 10.004279
54.590 10.453321
54.595 11.000806
54.600 11.516748
54.605 11.109959
54.610 10.663174
54.615 10.634677
54.620 11.120482
54.625 10.862553
54.630 10.570941
54.635 10.51749
54.640 10.54598
54.645 10.225093
54.650 10.049444
54.655 10.157132
54.660 10.520244
54.665 10.527047
54.670 10.180145
54.675 10.234295
54.680 10.5941
54.685 10.816229
54.690 10.362467
54.695 10.169161
54.700 10.53472
54.705 10.797094
54.710 11.525231
54.715 11.837461
54.720 11.962084
54.725 12.280086
54.730 12.395218
54.735 12.648522
54.740 12.904452
54.745 12.260626
54.750 11.822896
54.755 11.546966
54.760 11.365042
54.765 11.072762
54.770 10.863573
54.775 10.358082
54.780 10.134017
54.785 9.638779
54.790 9.557405
54.795 9.218973
54.800 9.607926
54.805 9.893141
54.810 9.934966
54.815 9.980782
54.820 10.273837
54.825 10.3271
54.830 10.520267
54.835 10.501567
54.840 10.451515
54.845 10.773433
54.850 11.155598
54.855 11.403495
54.860 11.20391
54.865 10.870179
54.870 10.307048
54.875 10.379881
54.880 10.368869
54.885 10.17004
54.890 10.040501
54.895 10.38397
54.900 10.856665
54.905 11.172501
54.910 10.989539
54.915 11.296396
54.920 11.357031
54.925 11.62972
54.930 11.722024
54.935 11.349109
54.940 11.08064
54.945 10.969685
54.950 10.793115
54.955 10.80997
54.960 11.048943
54.965 10.852639
54.970 10.77432
54.975 11.493503
54.980 11.752451
54.985 11.473619
54.990 11.201873
54.995 10.5621
55.000 10.59103
55.005 10.64428
55.010 10.092638
55.015 10.078964
55.020 10.301749
55.025 10.432583
55.030 10.654958
55.035 10.929232
55.040 11.07092
55.045 11.050565
55.050 10.553778
55.055 10.844514
55.060 10.555232
55.065 10.505325
55.070 10.449583
55.075 10.713109
55.080 10.675653
55.085 10.79835
55.090 10.635051
55.095 11.09897
55.100 11.679755
55.105 11.586649
55.110 11.320883
55.115 11.614374
55.120 12.109663
55.125 12.206252
55.130 11.765468
55.135 11.29536
55.140 10.978156
55.145 10.842552
55.150 10.5996
55.155 9.84673
55.160 9.746533
55.165 10.092852
55.170 10.281283
55.175 10.687853
55.180 11.32556
55.185 11.878774
55.190 12.201064
55.195 11.871369
55.200 11.576696
55.205 11.191467
55.210 10.81906
55.215 10.566257
55.220 10.035756
55.225 10.272118
55.230 10.682015
55.235 10.905112
55.240 11.124117
55.245 10.511427
55.250 10.40142
55.255 10.174829
55.260 9.8976
55.265 10.312116
55.270 10.964635
55.275 11.756826
55.280 12.628407
55.285 12.791255
55.290 13.465823
55.295 13.677653
55.300 13.443304
55.305 13.630766
55.310 13.154979
55.315 13.217452
55.320 13.376253
55.325 13.775176
55.330 13.570395
55.335 13.040954
55.340 12.556367
55.345 12.724233
55.350 12.508596
55.355 11.941187
55.360 11.464005
55.365 11.944568
55.370 12.351879
55.375 12.476197
55.380 12.346237
55.385 12.094669
55.390 12.017082
55.395 12.199978
55.400 11.844069
55.405 11.982107
55.410 11.80448
55.415 11.929216
55.420 12.240049
55.425 12.619971
55.430 12.244653
55.435 12.4275
55.440 11.776298
55.445 11.730826
55.450 11.312939
55.455 11.454198
55.460 11.628268
55.465 11.830523
55.470 11.759788
55.475 11.881043
55.480 11.983567
55.485 12.155302
55.490 12.27246
55.495 11.932115
55.500 11.602236
55.505 11.681748
55.510 11.696624
55.515 11.803905
55.520 11.612804
55.525 11.048642
55.530 11.670331
55.535 11.807053
55.540 11.477059
55.545 11.612183
55.550 11.47287
55.555 11.59971
55.560 11.511827
55.565 11.436714
55.570 11.639385
55.575 11.97548
55.580 12.047604
55.585 12.272741
55.590 12.36025
55.595 12.358245
55.600 12.326796
55.605 11.930993
55.610 12.125234
55.615 12.06737
55.620 12.192746
55.625 12.272704
55.630 11.811658
55.635 11.511699
55.640 11.857097
55.645 11.418296
55.650 11.314811
55.655 11.063622
55.660 11.293196
55.665 11.473236
55.670 11.505257
55.675 11.20645
55.680 11.424981
55.685 11.39191
55.690 11.278723
55.695 11.396871
55.700 11.785842
55.705 12.070407
55.710 12.037745
55.715 12.265306
55.720 12.647181
55.725 12.971823
55.730 13.011023
55.735 12.576364
55.740 12.188716
55.745 12.150323
55.750 11.753489
55.755 11.505437
55.760 11.326674
55.765 11.276281
55.770 11.900165
55.775 12.021189
55.780 12.553824
55.785 12.905603
55.790 12.53205
55.795 12.567265
55.800 12.5046
55.805 12.51681
55.810 12.677285
55.815 12.222729
55.820 12.132441
55.825 12.763146
55.830 12.510772
55.835 13.005325
55.840 13.062149
55.845 13.048998
55.850 13.246046
55.855 13.143661
55.860 12.48021
55.865 12.457919
55.870 12.490636
55.875 12.258675
55.880 12.059696
55.885 11.767277
55.890 11.852082
55.895 12.709388
55.900 12.646873
55.905 12.429179
55.910 12.734023
55.915 12.840871
55.920 12.900486
55.925 12.954775
55.930 13.061424
55.935 13.246453
55.940 13.741481
55.945 13.473873
55.950 13.526643
55.955 13.466099
55.960 13.199286
55.965 12.515522
55.970 12.361831
55.975 12.241972
55.980 12.529258
55.985 12.523555
55.990 12.513768
55.995 12.42926
56.000 12.494485
56.005 12.283157
56.010 12.129478
56.015 11.731263
56.020 11.366142
56.025 11.445617
56.030 11.403827
56.035 11.422545
56.040 11.405064
56.045 11.402095
56.050 11.711845
56.055 11.859582
56.060 11.816156
56.065 11.652245
56.070 11.456406
56.075 11.256817
56.080 10.799602
56.085 10.282307
56.090 10.28428
56.095 10.249387
56.100 10.59101
56.105 10.620658
56.110 10.693837
56.115 11.24908
56.120 11.774936
56.125 11.97953
56.130 11.744802
56.135 11.493653
56.140 11.826568
56.145 11.874535
56.150 11.702523
56.155 11.285096
56.160 11.17436
56.165 11.619702
56.170 12.250597
56.175 11.73709
56.180 11.680911
56.185 11.568726
56.190 11.810489
56.195 11.757593
56.200 11.361557
56.205 11.371734
56.210 12.051239
56.215 12.527656
56.220 12.733518
56.225 12.941792
56.230 12.949433
56.235 13.424178
56.240 13.004999
56.245 12.554963
56.250 12.560028
56.255 12.772673
56.260 12.436145
56.265 12.952385
56.270 12.652422
56.275 12.779004
56.280 12.651196
56.285 12.441661
56.290 12.548117
56.295 12.79312
56.300 12.320022
56.305 12.365485
56.310 12.814734
56.315 13.026215
56.320 12.979582
56.325 12.892317
56.330 12.972404
56.335 13.269114
56.340 13.288865
56.345 12.6752
56.350 12.290107
56.355 11.851251
56.360 11.746242
56.365 11.340672
56.370 11.145405
56.375 11.323995
56.380 11.409891
56.385 11.092863
56.390 11.398763
56.395 12.161922
56.400 12.739919
56.405 12.81094
56.410 12.682761
56.415 12.998734
56.420 13.528543
56.425 13.022313
56.430 12.377666
56.435 11.841721
56.440 11.471838
56.445 11.143062
56.450 11.327748
56.455 11.684059
56.460 11.933277
56.465 11.769315
56.470 11.728431
56.475 12.187025
56.480 12.889771
56.485 12.45856
56.490 12.878739
56.495 13.390634
56.500 14.096719
56.505 14.192608
56.510 14.217987
56.515 13.803042
56.520 14.002457
56.525 13.62817
56.530 12.987453
56.535 12.822133
56.540 12.96191
56.545 12.684756
56.550 12.705634
56.555 12.482087
56.560 12.398661
56.565 12.662152
56.570 12.878614
56.575 13.268774
56.580 13.439322
56.585 13.148264
56.590 13.09477
56.595 12.934691
56.600 12.741187
56.605 12.148704
56.610 11.975552
56.615 11.8375
56.620 12.269251
56.625 12.497745
56.630 13.012132
56.635 13.4823
56.640 13.289093
56.645 12.822145
56.650 12.94838
56.655 13.088216
56.660 13.521926
56.665 12.996595
56.670 13.390896
56.675 14.349469
56.680 14.674789
56.685 14.675429
56.690 14.242717
56.695 14.334167
56.700 14.63935
56.705 14.393723
56.710 14.314555
56.715 14.127625
56.720 14.23197
56.725 14.576055
56.730 14.734647
56.735 14.913304
56.740 14.75957
56.745 14.65225
56.750 14.989584
56.755 15.205575
56.760 15.320134
56.765 14.699005
56.770 14.364701
56.775 13.93899
56.780 14.137786
56.785 13.972308
56.790 13.289586
56.795 12.961725
56.800 13.05959
56.805 13.61034
56.810 14.138836
56.815 13.888796
56.820 13.999769
56.825 14.316474
56.830 14.379479
56.835 14.555691
56.840 14.064658
56.845 13.669765
56.850 13.513153
56.855 13.481811
56.860 13.398124
56.865 13.553939
56.870 13.613441
56.875 13.68612
56.880 13.631783
56.885 14.0574
56.890 14.221966
56.895 14.043234
56.900 13.626525
56.905 13.615189
56.910 13.527589
56.915 14.069571
56.920 13.820056
56.925 13.721064
56.930 13.858889
56.935 13.700797
56.940 13.393703
56.945 12.762407
56.950 12.253116
56.955 12.387686
56.960 12.808619
56.965 13.110055
56.970 13.178979
56.975 13.579332
56.980 14.013946
56.985 14.311178
56.990 13.904615
56.995 13.635863
57.000 13.140489
57.005 13.118568
57.010 12.910449
57.015 12.85113
57.020 12.301444
57.025 12.440849
57.030 12.155733
57.035 12.548886
57.040 12.880863
57.045 13.281982
57.050 13.61725
57.055 13.860951
57.060 13.850187
57.065 14.27121
57.070 14.011817
57.075 14.494476
57.080 14.606441
57.085 14.413131
57.090 14.568557
57.095 14.816792
57.100 14.717395
57.105 14.784539
57.110 13.853694
57.115 13.766422
57.120 13.44693
57.125 13.640206
57.130 13.485249
57.135 13.435159
57.140 13.645227
57.145 14.183999
57.150 13.915402
57.155 13.852288
57.160 13.624472
57.165 14.277129
57.170 13.905565
57.175 13.63273
57.180 13.463939
57.185 13.985611
57.190 14.201484
57.195 13.748491
57.200 13.500544
57.205 13.809059
57.210 13.282431
57.215 12.964362
57.220 13.116576
57.225 13.090518
57.230 13.001819
57.235 12.687708
57.240 12.531201
57.245 13.418883
57.250 13.383111
57.255 12.923712
57.260 12.92113
57.265 13.242605
57.270 13.421148
57.275 13.753179
57.280 14.005451
57.285 13.750753
57.290 13.951427
57.295 14.037129
57.300 13.426858
57.305 13.135655
57.310 13.065352
57.315 12.426171
57.320 12.920178
57.325 13.35541
57.330 13.467163
57.335 14.205968
57.340 14.604393
57.345 14.91503
57.350 14.690795
57.355 14.658938
57.360 14.975665
57.365 15.355533
57.370 15.045839
57.375 15.138108
57.380 14.802057
57.385 15.22761
57.390 15.018014
57.395 14.6142
57.400 14.382166
57.405 14.643339
57.410 14.30511
57.415 14.50803
57.420 14.709552
57.425 14.784069
57.430 14.178106
57.435 13.634049
57.440 13.524517
57.445 13.597398
57.450 13.697088
57.455 13.524001
57.460 13.604441
57.465 14.106274
57.470 14.362607
57.475 13.853619
57.480 13.31454
57.485 13.049529
57.490 13.027219
57.495 12.68067
57.500 12.179485
57.505 11.83555
57.510 11.821686
57.515 12.432377
57.520 12.552277
57.525 12.079419
57.530 12.335964
57.535 12.68045
57.540 12.594494
57.545 12.779406
57.550 12.093556
57.555 12.229814
57.560 12.445613
57.565 12.644689
57.570 13.016877
57.575 13.527727
57.580 13.821142
57.585 14.413868
57.590 14.966778
57.595 15.492261
57.600 15.184765
57.605 14.512694
57.610 14.083722
57.615 14.263386
57.620 14.397065
57.625 14.325236
57.630 13.901589
57.635 14.251087
57.640 15.169755
57.645 15.630054
57.650 15.173982
57.655 15.010387
57.660 14.312186
57.665 14.291982
57.670 14.571051
57.675 14.773037
57.680 14.667447
57.685 14.605222
57.690 14.706332
57.695 15.463487
57.700 15.49736
57.705 15.22865
57.710 15.085948
57.715 15.624488
57.720 16.214989
57.725 16.094822
57.730 15.857727
57.735 15.902901
57.740 15.406097
57.745 15.159282
57.750 14.701065
57.755 13.841347
57.760 13.476937
57.765 13.466352
57.770 13.173482
57.775 13.274511
57.780 13.697515
57.785 14.396288
57.790 14.904325
57.795 14.674899
57.800 14.326447
57.805 13.937876
57.810 13.824853
57.815 13.691256
57.820 13.622173
57.825 13.491272
57.830 13.935626
57.835 14.325812
57.840 14.677498
57.845 14.540125
57.850 14.042287
57.855 14.102242
57.860 13.913688
57.865 13.591494
57.870 13.940766
57.875 14.143216
57.880 14.372945
57.885 14.455953
57.890 14.044025
57.895 14.188724
57.900 13.884628
57.905 13.131975
57.910 12.886861
57.915 12.860538
57.920 12.471721
57.925 12.653022
57.930 13.178005
57.935 13.865007
57.940 13.908226
57.945 14.498534
57.950 14.566257
57.955 14.634848
57.960 14.609245
57.965 14.222517
57.970 14.596248
57.975 14.554201
57.980 14.363648
57.985 14.240008
57.990 14.506168
57.995 14.810551
58.000 15.014981
58.005 14.828842
58.010 15.2197
58.015 15.052674
58.020 15.190437
58.025 15.197906
58.030 15.029024
58.035 14.745344
58.040 14.532944
58.045 14.31937
58.050 14.183023
58.055 14.358292
58.060 14.585213
58.065 14.653428
58.070 15.086075
58.075 15.239257
58.080 15.656418
58.085 15.683152
58.090 15.33807
58.095 14.846292
58.100 14.643933
58.105 14.395331
58.110 14.433353
58.115 14.142183
58.120 14.116762
58.125 13.53383
58.130 13.155891
58.135 13.532728
58.140 13.456755
58.145 13.523942
58.150 14.08918
58.155 13.968546
58.160 14.666728
58.165 15.020132
58.170 14.662069
58.175 14.935211
58.180 14.877409
58.185 14.680098
58.190 15.253354
58.195 15.459534
58.200 15.430378
58.205 15.759512
58.210 15.493913
58.215 15.768229
58.220 15.60658
58.225 15.115574
58.230 14.835544
58.235 14.722653
58.240 14.561618
58.245 14.340078
58.250 14.203138
58.255 14.370663
58.260 14.763021
58.265 15.073744
58.270 15.132697
58.275 15.33393
58.280 15.290797
58.285 14.758336
58.290 14.400143
58.295 14.53175
58.300 14.422569
58.305 14.354346
58.310 14.129682
58.315 14.237264
58.320 14.274014
58.325 14.556388
58.330 14.191188
58.335 14.257866
58.340 13.532906
58.345 13.51343
58.350 13.735272
58.355 14.125602
58.360 13.669394
58.365 13.428876
58.370 13.079162
58.375 13.376842
58.380 13.443532
58.385 13.823643
58.390 13.823462
58.395 14.028607
58.400 14.235744
58.405 15.377594
58.410 15.840975
58.415 15.389268
58.420 14.895646
58.425 14.819042
58.430 15.374569
58.435 15.435849
58.440 15.006389
58.445 14.922544
58.450 15.050248
58.455 15.371199
58.460 15.53574
58.465 15.079942
58.470 14.96116
58.475 15.028023
58.480 15.757643
58.485 15.913622
58.490 15.644922
58.495 15.778103
58.500 15.760858
58.505 15.641989
58.510 15.518708
58.515 14.997019
58.520 15.171522
58.525 14.895742
58.530 14.589214
58.535 14.336084
58.540 14.128116
58.545 14.335996
58.550 14.381928
58.555 14.214314
58.560 14.29839
58.565 14.821949
58.570 15.252068
58.575 15.039735
58.580 14.825301
58.585 14.783115
58.590 15.088083
58.595 15.595265
58.600 15.668741
58.605 15.870829
58.610 16.00034
58.615 15.555758
58.620 15.254223
58.625 15.428035
58.630 15.413007
58.635 15.01688
58.640 15.231828
58.645 15.03664
58.650 15.929584
58.655 16.183971
58.660 15.896129
58.665 15.523425
58.670 15.700316
58.675 15.480432
58.680 15.601325
58.685 15.070269
58.690 14.564089
58.695 14.612966
58.700 14.845129
58.705 14.632818
58.710 15.047045
58.715 15.470975
58.720 15.412538
58.725 15.776147
58.730 15.733383
58.735 15.065695
58.740 15.010495
58.745 14.630705
58.750 14.096093
58.755 14.607885
58.760 14.798526
58.765 15.097301
58.770 15.903447
58.775 16.249317
58.780 16.14403
58.785 16.079048
58.790 15.84601
58.795 16.097982
58.800 16.135973
58.805 16.234043
58.810 16.173971
58.815 16.530548
58.820 17.106037
58.825 17.638838
58.830 17.335346
58.835 17.072605
58.840 16.545105
58.845 16.597103
58.850 16.397858
58.855 15.672822
58.860 15.038621
58.865 14.867401
58.870 15.119254
58.875 15.404368
58.880 15.119419
58.885 15.402098
58.890 15.89324
58.895 15.912588
58.900 16.176659
58.905 15.548343
58.910 15.47519
58.915 15.901978
58.920 15.683893
58.925 15.800933
58.930 15.799478
58.935 15.425092
58.940 15.71628
58.945 15.938847
58.950 15.605651
58.955 15.596435
58.960 14.913073
58.965 15.272435
58.970 15.842183
58.975 16.134521
58.980 15.810688
58.985 15.834478
58.990 16.001089
58.995 16.238375
59.000 15.793895
59.005 15.961612
59.010 16.38509
59.015 16.462812
59.020 16.424973
59.025 16.837751
59.030 17.08532
59.035 17.320311
59.040 17.0751
59.045 17.000607
59.050 17.169928
59.055 17.332449
59.060 16.983564
59.065 16.940239
59.070 16.883097
59.075 16.755888
59.080 16.469959
59.085 15.98109
59.090 15.822904
59.095 15.454849
59.100 15.180678
59.105 15.227156
59.110 15.359188
59.115 15.658644
59.120 16.320204
59.125 16.498657
59.130 16.907526
59.135 17.18503
59.140 17.154823
59.145 17.632395
59.150 17.293636
59.155 17.012161
59.160 16.503452
59.165 16.027943
59.170 15.876365
59.175 15.822551
59.180 15.439488
59.185 15.827341
59.190 16.029221
59.195 15.929369
59.200 16.102591
59.205 15.821171
59.210 15.567394
59.215 14.95334
59.220 14.423612
59.225 14.013045
59.230 14.222166
59.235 14.626391
59.240 14.686694
59.245 15.17746
59.250 15.935174
59.255 16.21884
59.260 16.986862
59.265 16.959854
59.270 17.072083
59.275 17.397255
59.280 17.68965
59.285 17.277872
59.290 17.277456
59.295 17.194485
59.300 17.158545
59.305 17.340137
59.310 17.008348
59.315 16.779198
59.320 16.891415
59.325 16.602627
59.330 16.477648
59.335 16.107635
59.340 16.147808
59.345 16.881325
59.350 16.953495
59.355 17.585972
59.360 18.530401
59.365 19.014303
59.370 19.540314
59.375 19.021652
59.380 18.248764
59.385 18.252916
59.390 17.752758
59.395 17.14465
59.400 16.687649
59.405 16.222946
59.410 16.447243
59.415 17.321959
59.420 17.456488
59.425 17.577503
59.430 17.656446
59.435 17.438068
59.440 18.066111
59.445 17.817032
59.450 17.654495
59.455 17.724342
59.460 17.73554
59.465 18.231249
59.470 18.793182
59.475 19.147551
59.480 18.725777
59.485 17.950901
59.490 17.691212
59.495 17.48353
59.500 17.477741
59.505 17.96137
59.510 17.378233
59.515 17.821354
59.520 18.379564
59.525 18.863569
59.530 18.708004
59.535 17.852962
59.540 17.609211
59.545 17.783241
59.550 18.209143
59.555 18.329708
59.560 18.46591
59.565 18.887989
59.570 19.111071
59.575 18.192814
59.580 17.913214
59.585 17.755869
59.590 17.76766
59.595 17.607679
59.600 17.79442
59.605 18.199207
59.610 18.955664
59.615 18.971796
59.620 18.721792
59.625 18.537832
59.630 18.606775
59.635 18.873068
59.640 18.825439
59.645 19.326311
59.650 19.116961
59.655 18.626463
59.660 18.323244
59.665 18.515915
59.670 18.571085
59.675 18.807974
59.680 18.341337
59.685 18.986166
59.690 19.881332
59.695 20.254219
59.700 20.89274
59.705 20.799463
59.710 21.026232
59.715 20.693645
59.720 20.067831
59.725 20.073185
59.730 20.72431
59.735 20.131313
59.740 20.443586
59.745 20.860237
59.750 21.791155
59.755 22.054138
59.760 21.504446
59.765 20.774551
59.770 20.899166
59.775 21.139414
59.780 20.551727
59.785 20.158665
59.790 19.949955
59.795 20.148788
59.800 20.270254
59.805 19.931158
59.810 19.406912
59.815 19.333694
59.820 19.142824
59.825 19.433714
59.830 19.553621
59.835 19.556168
59.840 19.798311
59.845 20.051569
59.850 20.677849
59.855 21.4272
59.860 21.497881
59.865 21.013885
59.870 20.897346
59.875 20.898464
59.880 20.536795
59.885 20.077263
59.890 20.522015
59.895 20.846849
59.900 21.501438
59.905 21.563744
59.910 20.863493
59.915 20.988935
59.920 20.764473
59.925 20.765736
59.930 20.827061
59.935 20.489197
59.940 20.454849
59.945 21.311945
59.950 21.242645
59.955 21.531946
59.960 21.291546
59.965 21.510452
59.970 22.101477
59.975 22.623131
59.980 22.486034
59.985 22.299427
59.990 22.126728
59.995 21.590595
60.000 21.388775
60.005 21.25902
60.010 21.137047
60.015 21.249809
60.020 21.776308
60.025 22.073275
60.030 22.481022
60.035 22.357233
60.040 21.976048
60.045 21.657375
60.050 21.146585
60.055 20.790546
60.060 20.258312
60.065 20.581549
60.070 20.900385
60.075 21.152279
60.080 20.862926
60.085 20.891357
60.090 21.333218
60.095 22.147181
60.100 21.793056
60.105 21.664017
60.110 21.522427
60.115 21.859119
60.120 22.32159
60.125 22.176205
60.130 21.462606
60.135 21.160654
60.140 21.309643
60.145 22.131605
60.150 23.178104
60.155 23.97953
60.160 24.255333
60.165 24.212334
60.170 24.552656
60.175 24.151558
60.180 23.55085
60.185 22.646297
60.190 21.678301
60.195 21.653265
60.200 21.670033
60.205 21.508421
60.210 21.804653
60.215 21.742617
60.220 21.934963
60.225 22.656765
60.230 22.251337
60.235 22.441643
60.240 22.196774
60.245 21.72596
60.250 22.063581
60.255 22.016691
60.260 21.204924
60.265 21.178514
60.270 21.042171
60.275 21.075134
60.280 21.664282
60.285 21.100491
60.290 20.882275
60.295 21.103258
60.300 20.347542
60.305 20.042528
60.310 20.365501
60.315 20.376965
60.320 20.759052
60.325 20.611595
60.330 20.547754
60.335 20.95532
60.340 21.105024
60.345 20.513626
60.350 19.804781
60.355 19.588039
60.360 19.655479
60.365 19.859135
60.370 19.731194
60.375 19.52529
60.380 19.991451
60.385 20.032097
60.390 19.971844
60.395 20.429016
60.400 20.07847
60.405 21.108946
60.410 21.590946
60.415 21.581125
60.420 22.210957
60.425 22.239542
60.430 21.633291
60.435 22.171972
60.440 21.727566
60.445 21.781797
60.450 21.533298
60.455 20.834152
60.460 20.769094
60.465 21.077728
60.470 21.049122
60.475 20.83787
60.480 20.483124
60.485 20.474257
60.490 20.365562
60.495 19.939125
60.500 19.342806
60.505 18.993631
60.510 19.001528
60.515 19.035667
60.520 18.92399
60.525 19.27416
60.530 19.165949
60.535 19.053148
60.540 18.910112
60.545 18.69297
60.550 19.03277
60.555 19.223669
60.560 19.358553
60.565 19.214443
60.570 19.049803
60.575 18.834372
60.580 18.99612
60.585 19.114454
60.590 19.156467
60.595 19.640223
60.600 20.196651
60.605 20.322206
60.610 21.083641
60.615 20.888233
60.620 20.480911
60.625 20.141327
60.630 19.577349
60.635 18.703856
60.640 18.655699
60.645 18.442511
60.650 18.8349
60.655 18.704084
60.660 18.956802
60.665 19.202705
60.670 19.569731
60.675 19.432333
60.680 19.254627
60.685 18.602638
60.690 18.190674
60.695 17.495771
60.700 17.240572
60.705 17.127928
60.710 16.289406
60.715 15.740314
60.720 15.944417
60.725 16.592766
60.730 16.946152
60.735 17.100124
60.740 17.818167
60.745 18.626749
60.750 18.886774
60.755 19.067137
60.760 18.441593
60.765 18.08148
60.770 17.655626
60.775 16.971931
60.780 16.644899
60.785 16.65896
60.790 16.658232
60.795 17.202946
60.800 17.626938
60.805 17.883387
60.810 18.611992
60.815 18.824848
60.820 18.598837
60.825 18.324041
60.830 17.952641
60.835 17.337578
60.840 17.446783
60.845 16.631767
60.850 16.421034
60.855 17.016171
60.860 16.881523
60.865 17.310251
60.870 17.675217
60.875 17.147165
60.880 17.349209
60.885 17.845501
60.890 18.040056
60.895 18.150938
60.900 18.07818
60.905 17.751282
60.910 17.896685
60.915 17.64205
60.920 17.076614
60.925 16.526569
60.930 16.808107
60.935 16.629139
60.940 16.898804
60.945 16.5378
60.950 17.105553
60.955 17.348013
60.960 17.174776
60.965 17.151548
60.970 17.335867
60.975 17.330769
60.980 17.30282
60.985 16.82847
60.990 16.750797
60.995 16.536873
61.000 16.192863
61.005 16.015903
61.010 16.120798
61.015 16.62644
61.020 16.384684
61.025 16.338293
61.030 16.35223
61.035 16.520464
61.040 16.52762
61.045 16.181185
61.050 15.98029
61.055 16.172964
61.060 15.992335
61.065 16.18045
61.070 16.225428
61.075 16.527367
61.080 17.049004
61.085 17.420164
61.090 17.516033
61.095 18.11087
61.100 18.003738
61.105 17.991127
61.110 18.0277
61.115 18.120996
61.120 17.966942
61.125 17.715467
61.130 17.276711
61.135 17.015596
61.140 16.709316
61.145 16.321264
61.150 15.592603
61.155 15.669393
61.160 15.712209
61.165 15.64195
61.170 15.485342
61.175 15.459041
61.180 15.83411
61.185 16.222435
61.190 16.165211
61.195 16.389652
61.200 16.68277
61.205 16.493523
61.210 16.311069
61.215 16.127974
61.220 16.282745
61.225 16.700737
61.230 16.809061
61.235 16.532425
61.240 16.730642
61.245 16.43598
61.250 16.087891
61.255 16.424646
61.260 16.680546
61.265 16.383152
61.270 16.400217
61.275 16.280897
61.280 16.827139
61.285 16.771912
61.290 15.952584
61.295 15.430358
61.300 15.204926
61.305 15.609586
61.310 16.55496
61.315 16.649904
61.320 16.561199
61.325 16.854441
61.330 17.234034
61.335 17.08765
61.340 16.392248
61.345 16.236942
61.350 16.200178
61.355 16.469473
61.360 16.568689
61.365 16.198538
61.370 16.50436
61.375 16.456194
61.380 15.584301
61.385 15.297894
61.390 15.455274
61.395 15.16969
61.400 15.049433
61.405 15.129386
61.410 15.609928
61.415 16.134779
61.420 16.1954
61.425 15.827703
61.430 15.995727
61.435 16.415609
61.440 16.58461
61.445 16.5926
61.450 17.371359
61.455 18.037378
61.460 17.911177
61.465 18.151421
61.470 17.753595
61.475 17.418068
61.480 17.214006
61.485 17.240515
61.490 17.019909
61.495 17.493713
61.500 17.270346
61.505 17.451527
61.510 17.91486
61.515 17.940826
61.520 17.396212
61.525 17.017038
61.530 16.76458
61.535 16.911736
61.540 16.862108
61.545 16.94903
61.550 17.149933
61.555 17.574268
61.560 17.680271
61.565 17.267279
61.570 16.695456
61.575 17.143654
61.580 17.263618
61.585 17.426794
61.590 17.359476
61.595 17.576462
61.600 17.9112
61.605 18.17635
61.610 18.146946
61.615 17.554731
61.620 17.241644
61.625 17.267153
61.630 17.575459
61.635 17.777655
61.640 18.023132
61.645 17.51017
61.650 17.624298
61.655 17.412907
61.660 16.951332
61.665 16.578665
61.670 16.709133
61.675 16.47901
61.680 16.784592
61.685 16.956163
61.690 16.89072
61.695 16.659645
61.700 16.402754
61.705 15.764619
61.710 15.702737
61.715 15.631401
61.720 15.032883
61.725 14.377694
61.730 13.980964
61.735 13.808401
61.740 13.897901
61.745 13.698871
61.750 13.540498
61.755 14.231063
61.760 14.964925
61.765 15.727684
61.770 16.33025
61.775 16.502726
61.780 16.73522
61.785 16.847021
61.790 17.190432
61.795 16.932594
61.800 17.118362
61.805 16.888062
61.810 16.863897
61.815 16.707602
61.820 16.929373
61.825 16.971083
61.830 17.393661
61.835 17.175026
61.840 17.37886
61.845 17.205568
61.850 17.402901
61.855 17.755016
61.860 17.683954
61.865 17.583807
61.870 17.775023
61.875 18.154398
61.880 19.003418
61.885 19.313311
61.890 19.076986
61.895 19.108126
61.900 19.134672
61.905 19.354221
61.910 19.206638
61.915 19.047682
61.920 19.042229
61.925 18.390909
61.930 17.752464
61.935 17.774292
61.940 17.490019
61.945 17.372187
61.950 16.921446
61.955 16.33309
61.960 16.256159
61.965 16.911903
61.970 16.642645
61.975 16.511906
61.980 16.542788
61.985 16.566772
61.990 16.574562
61.995 16.257219
62.000 16.318815
62.005 16.512531
62.010 16.358236
62.015 16.387747
62.020 16.76454
62.025 16.97813
62.030 17.206038
62.035 16.904974
62.040 16.917543
62.045 17.003687
62.050 16.855684
62.055 16.787771
62.060 16.623934
62.065 16.780579
62.070 16.797445
62.075 16.400547
62.080 16.702988
62.085 16.670855
62.090 16.407532
62.095 16.370327
62.100 15.711006
62.105 15.238663
62.110 15.183455
62.115 14.651782
62.120 14.573291
62.125 14.402076
62.130 14.239445
62.135 14.623739
62.140 15.161972
62.145 15.161127
62.150 15.526121
62.155 15.747259
62.160 15.784839
62.165 16.440283
62.170 16.872211
62.175 16.417467
62.180 16.380322
62.185 16.0298
62.190 16.013214
62.195 16.301764
62.200 15.414601
62.205 15.502346
62.210 15.906545
62.215 15.981101
62.220 16.002085
62.225 16.074545
62.230 16.41481
62.235 16.879143
62.240 16.220085
62.245 15.964132
62.250 15.882943
62.255 15.63738
62.260 15.381504
62.265 15.241282
62.270 15.127043
62.275 15.694088
62.280 15.519542
62.285 14.953766
62.290 14.749273
62.295 14.70303
62.300 14.247884
62.305 14.360546
62.310 14.705081
62.315 15.790584
62.320 17.007435
62.325 17.37126
62.330 17.301922
62.335 17.493494
62.340 17.885687
62.345 17.838594
62.350 17.424221
62.355 17.131279
62.360 17.79813
62.365 18.232752
62.370 18.098724
62.375 17.693213
62.380 16.883776
62.385 16.705784
62.390 16.568953
62.395 16.194691
62.400 15.967504
62.405 15.798462
62.410 16.273403
62.415 16.6642
62.420 16.712925
62.425 16.911648
62.430 16.876085
62.435 17.347536
62.440 17.705381
62.445 17.387897
62.450 17.735527
62.455 18.315216
62.460 18.642378
62.465 18.819611
62.470 19.015432
62.475 19.175663
62.480 19.307495
62.485 18.858795
62.490 18.567556
62.495 18.163031
62.500 18.080414
62.505 17.403278
62.510 16.8974
62.515 16.622522
62.520 16.380747
62.525 16.20001
62.530 16.265848
62.535 16.070995
62.540 16.214172
62.545 16.296539
62.550 15.98127
62.555 16.175312
62.560 16.01816
62.565 16.234156
62.570 15.976345
62.575 15.617085
62.580 15.673541
62.585 15.369477
62.590 14.82453
62.595 14.464073
62.600 14.686608
62.605 14.456005
62.610 14.484056
62.615 14.55665
62.620 15.317656
62.625 16.116369
62.630 16.427628
62.635 16.143688
62.640 16.525831
62.645 16.92066
62.650 16.947052
62.655 16.922968
62.660 16.649181
62.665 16.278948
62.670 16.407372
62.675 16.570784
62.680 16.248695
62.685 16.388056
62.690 16.858549
62.695 17.103699
62.700 17.239609
62.705 16.586115
62.710 16.386374
62.715 16.680868
62.720 16.493908
62.725 16.302921
62.730 16.800039
62.735 17.580711
62.740 18.288433
62.745 18.326059
62.750 18.232216
62.755 17.964838
62.760 17.733656
62.765 17.081497
62.770 16.381294
62.775 16.012943
62.780 15.833853
62.785 15.994037
62.790 16.332956
62.795 16.609444
62.800 17.236778
62.805 17.520079
62.810 18.374723
62.815 18.914701
62.820 18.483793
62.825 18.370872
62.830 18.058449
62.835 17.602062
62.840 16.916439
62.845 16.443233
62.850 16.203894
62.855 16.320208
62.860 16.204229
62.865 15.495581
62.870 15.319328
62.875 15.355615
62.880 15.091623
62.885 15.162624
62.890 15.078377
62.895 14.774673
62.900 14.976201
62.905 15.348055
62.910 15.380257
62.915 14.958664
62.920 14.868373
62.925 15.179191
62.930 15.401808
62.935 14.93214
62.940 15.046316
62.945 15.591985
62.950 15.953217
62.955 16.044273
62.960 16.220463
62.965 16.546795
62.970 17.309744
62.975 17.517487
62.980 17.10125
62.985 17.529074
62.990 17.523054
62.995 17.860905
63.000 18.291893
63.005 18.550497
63.010 19.075726
63.015 19.918049
63.020 20.180738
63.025 19.632694
63.030 18.764524
63.035 18.290354
63.040 17.399797
63.045 16.437538
63.050 15.342598
63.055 14.756428
63.060 15.217887
63.065 15.538135
63.070 16.009438
63.075 17.197718
63.080 17.309208
63.085 17.375128
63.090 17.641659
63.095 18.536736
63.100 18.764723
63.105 18.490627
63.110 17.981976
63.115 18.451502
63.120 19.148542
63.125 18.843235
63.130 17.908991
63.135 17.985247
63.140 18.031996
63.145 17.95141
63.150 17.553341
63.155 16.874647
63.160 16.945448
63.165 16.737982
63.170 16.683243
63.175 17.384541
63.180 17.502621
63.185 17.516996
63.190 17.788492
63.195 17.609959
63.200 17.839678
63.205 17.355711
63.210 17.081902
63.215 16.922001
63.220 16.778872
63.225 16.947144
63.230 17.525091
63.235 17.629686
63.240 17.829716
63.245 17.516962
63.250 17.556385
63.255 16.92852
63.260 16.481867
63.265 15.53601
63.270 15.15394
63.275 15.093567
63.280 15.230909
63.285 15.8006
63.290 16.369114
63.295 16.761599
63.300 17.663527
63.305 18.440645
63.310 18.421972
63.315 18.298681
63.320 18.07526
63.325 17.88945
63.330 17.974447
63.335 17.405567
63.340 16.822706
63.345 16.954185
63.350 17.053148
63.355 17.429678
63.360 18.031357
63.365 18.277166
63.370 18.421167
63.375 18.530493
63.380 18.252855
63.385 18.075665
63.390 17.526548
63.395 17.499744
63.400 17.032841
63.405 16.540953
63.410 16.892969
63.415 17.180073
63.420 17.33
63.425 17.806894
63.430 17.624012
63.435 17.713469
63.440 17.937782
63.445 17.776096
63.450 17.641823
63.455 17.619955
63.460 16.873518
63.465 16.950012
63.470 17.365631
63.475 18.141792
63.480 18.301302
63.485 18.255322
63.490 17.925339
63.495 17.976393
63.500 17.770983
63.505 17.906279
63.510 17.655416
63.515 16.842665
63.520 16.576397
63.525 16.830843
63.530 16.590429
63.535 17.272594
63.540 17.524921
63.545 18.084
63.550 18.624672
63.555 18.433552
63.560 19.141739
63.565 20.075087
63.570 20.061113
63.575 19.694544
63.580 19.392975
63.585 19.122055
63.590 19.3699
63.595 19.000565
63.600 18.076183
63.605 17.72768
63.610 17.50285
63.615 17.444267
63.620 18.040409
63.625 18.160892
63.630 17.914616
63.635 17.962223
63.640 17.556658
63.645 17.968674
63.650 18.268446
63.655 18.22991
63.660 18.498659
63.665 18.807392
63.670 18.492601
63.675 18.148676
63.680 17.395725
63.685 16.938046
63.690 16.780079
63.695 16.682438
63.700 16.697458
63.705 17.473408
63.710 17.817848
63.715 18.153734
63.720 18.404486
63.725 18.31126
63.730 17.845131
63.735 16.922436
63.740 16.684454
63.745 16.776043
63.750 17.043304
63.755 16.986464
63.760 17.148489
63.765 17.581722
63.770 18.134041
63.775 18.017933
63.780 17.725513
63.785 17.985636
63.790 17.676052
63.795 17.564423
63.800 17.971504
63.805 18.008434
63.810 18.447834
63.815 18.911465
63.820 18.675152
63.825 18.872648
63.830 18.931335
63.835 18.802526
63.840 18.839035
63.845 18.388115
63.850 17.727905
63.855 17.915205
63.860 17.946617
63.865 18.302774
63.870 18.43338
63.875 18.914392
63.880 19.324465
63.885 19.429985
63.890 19.077911
63.895 18.907433
63.900 18.613426
63.905 18.17281
63.910 17.537338
63.915 17.070515
63.920 17.351795
63.925 17.574812
63.930 17.890167
63.935 18.120804
63.940 17.940374
63.945 18.099947
63.950 18.74428
63.955 18.83106
63.960 18.763266
63.965 18.69829
63.970 18.514801
63.975 18.699223
63.980 18.77766
63.985 18.50625
63.990 18.016865
63.995 17.577541
64.000 17.109674
64.005 17.197889
64.010 17.186602
64.015 17.93792
64.020 17.961971
64.025 17.913242
64.030 18.320705
64.035 18.587585
64.040 18.475151
64.045 18.645159
64.050 18.778097
64.055 19.115263
64.060 19.304087
64.065 19.563688
64.070 19.655542
64.075 19.523119
64.080 19.260864
64.085 18.375601
64.090 18.195787
64.095 18.362009
64.100 18.288649
64.105 18.281595
64.110 18.438
64.115 18.312799
64.120 18.428186
64.125 18.29706
64.130 17.89658
64.135 17.588743
64.140 17.327471
64.145 17.185802
64.150 16.663467
64.155 16.15414
64.160 15.739295
64.165 15.909157
64.170 16.57913
64.175 17.188126
64.180 17.559999
64.185 18.829029
64.190 19.089449
64.195 19.586876
64.200 19.40519
64.205 18.724665
64.210 18.573751
64.215 18.449471
64.220 17.767038
64.225 17.902515
64.230 18.148514
64.235 17.974388
64.240 18.001486
64.245 17.976377
64.250 17.881741
64.255 18.060455
64.260 18.051506
64.265 17.924238
64.270 18.504236
64.275 18.784626
64.280 18.795826
64.285 18.808174
64.290 18.809671
64.295 19.321644
64.300 19.529583
64.305 19.501011
64.310 19.280954
64.315 19.504713
64.320 19.839233
64.325 20.663511
64.330 20.357548
64.335 20.024519
64.340 19.993727
64.345 19.775669
64.350 19.46332
64.355 19.006237
64.360 18.596878
64.365 18.318699
64.370 18.293453
64.375 17.859922
64.380 18.491468
64.385 18.660656
64.390 18.771759
64.395 18.153776
64.400 18.304626
64.405 18.734072
64.410 19.405672
64.415 19.073442
64.420 19.114889
64.425 19.099007
64.430 19.108515
64.435 19.376221
64.440 19.696266
64.445 19.585423
64.450 19.494516
64.455 18.788769
64.460 18.723671
64.465 18.731291
64.470 18.682024
64.475 18.418222
64.480 18.118595
64.485 18.162828
64.490 18.572803
64.495 18.93297
64.500 19.010782
64.505 18.59078
64.510 18.326517
64.515 18.341999
64.520 18.432116
64.525 18.680567
64.530 19.042717
64.535 19.345636
64.540 19.726904
64.545 19.815706
64.550 19.667992
64.555 19.934059
64.560 19.712042
64.565 18.883097
64.570 18.751202
64.575 18.975784
64.580 19.209551
64.585 19.553757
64.590 19.200529
64.595 19.061216
64.600 19.557184
64.605 19.682491
64.610 19.415415
64.615 19.405716
64.620 19.832273
64.625 20.166586
64.630 20.141006
64.635 19.800238
64.640 20.259563
64.645 19.805035
64.650 19.663345
64.655 18.691605
64.660 18.671814
64.665 19.077745
64.670 19.191095
64.675 18.655748
64.680 18.967928
64.685 18.574041
64.690 18.970886
64.695 18.850771
64.700 18.899183
64.705 18.957253
64.710 19.348627
64.715 19.898762
64.720 20.199871
64.725 20.066229
64.730 19.706482
64.735 19.805937
64.740 19.823217
64.745 19.499998
64.750 19.415403
64.755 19.263927
64.760 19.592936
64.765 20.326288
64.770 20.582937
64.775 20.576181
64.780 20.552013
64.785 20.172836
64.790 21.128426
64.795 21.480171
64.800 21.329704
64.805 21.134983
64.810 21.431168
64.815 21.709547
64.820 22.104862
64.825 21.829781
64.830 21.850597
64.835 21.640774
64.840 21.545452
64.845 21.197083
64.850 21.093756
64.855 21.031387
64.860 20.592733
64.865 19.778023
64.870 19.629337
64.875 19.718817
64.880 19.733801
64.885 19.895761
64.890 20.606455
64.895 21.444298
64.900 22.550863
64.905 22.498604
64.910 22.53178
64.915 22.601273
64.920 22.178297
64.925 21.839451
64.930 21.101013
64.935 20.555616
64.940 20.409939
64.945 19.93103
64.950 19.659517
64.955 19.553728
64.960 19.62887
64.965 19.369804
64.970 19.424601
64.975 19.765245
64.980 20.330359
64.985 20.644775
64.990 19.855209
64.995 19.202715
65.000 19.480482
65.005 19.502653
65.010 19.889626
65.015 19.480625
65.020 20.202677
65.025 20.920675
65.030 21.056267
65.035 21.177065
65.040 21.422832
65.045 21.119141
65.050 21.51973
65.055 21.236555
65.060 21.361795
65.065 21.715816
65.070 21.883307
65.075 21.895079
65.080 21.977228
65.085 21.661154
65.090 21.937273
65.095 22.343229
65.100 22.592731
65.105 23.253193
65.110 23.132067
65.115 23.318874
65.120 23.298784
65.125 23.27232
65.130 23.208242
65.135 23.358944
65.140 22.731113
65.145 22.423807
65.150 22.271379
65.155 22.743519
65.160 23.022446
65.165 22.257778
65.170 21.696533
65.175 21.909294
65.180 22.014715
65.185 21.402824
65.190 20.932865
65.195 20.593632
65.200 21.266695
65.205 21.634567
65.210 21.602232
65.215 22.651915
65.220 23.512405
65.225 23.775019
65.230 24.283943
65.235 24.614704
65.240 24.194717
65.245 24.158195
65.250 23.730503
65.255 23.549828
65.260 24.169088
65.265 23.77865
65.270 23.310131
65.275 23.020844
65.280 22.928158
65.285 23.023409
65.290 22.73777
65.295 22.075195
65.300 22.142284
65.305 22.504208
65.310 22.895386
65.315 23.22007
65.320 23.493551
65.325 23.645813
65.330 24.016481
65.335 24.043245
65.340 24.359297
65.345 24.359861
65.350 24.18796
65.355 24.422705
65.360 24.286324
65.365 23.993923
65.370 24.039898
65.375 23.985849
65.380 24.222151
65.385 24.446354
65.390 24.436371
65.395 24.936966
65.400 25.643579
65.405 25.549526
65.410 24.994118
65.415 25.454712
65.420 25.466345
65.425 25.242945
65.430 25.32901
65.435 25.111546
65.440 26.063845
65.445 26.550581
65.450 25.898008
65.455 25.760391
65.460 26.084759
65.465 26.3743
65.470 26.959965
65.475 26.415491
65.480 26.206894
65.485 26.187164
65.490 26.626827
65.495 26.805357
65.500 26.627598
65.505 26.207802
65.510 26.880268
65.515 27.627758
65.520 28.286161
65.525 28.186157
65.530 28.303404
65.535 28.401217
65.540 28.218418
65.545 27.319559
65.550 26.652519
65.555 26.638962
65.560 27.155176
65.565 27.994482
65.570 28.680059
65.575 29.449644
65.580 30.653189
65.585 31.737564
65.590 31.780685
65.595 31.2286
65.600 30.353212
65.605 29.912607
65.610 30.037514
65.615 30.284866
65.620 30.390778
65.625 30.268738
65.630 29.612661
65.635 29.754784
65.640 29.437996
65.645 29.366646
65.650 29.673431
65.655 29.4498
65.660 30.284046
65.665 31.414251
65.670 31.649744
65.675 32.267708
65.680 32.480408
65.685 32.201351
65.690 32.316074
65.695 32.168671
65.700 31.916147
65.705 31.734215
65.710 32.071484
65.715 32.205769
65.720 32.50948
65.725 33.088108
65.730 32.428844
65.735 32.733509
65.740 33.982632
65.745 33.593639
65.750 33.226627
65.755 34.191475
65.760 34.03965
65.765 34.456047
65.770 34.410236
65.775 33.150829
65.780 33.368412
65.785 33.446365
65.790 32.23381
65.795 32.478561
65.800 33.43779
65.805 33.793205
65.810 33.930248
65.815 34.540161
65.820 35.321499
65.825 36.844631
65.830 37.175209
65.835 36.988087
65.840 37.461773
65.845 37.86694
65.850 37.282825
65.855 37.587505
65.860 36.809887
65.865 37.172935
65.870 37.116768
65.875 37.006428
65.880 37.409756
65.885 38.289379
65.890 38.488735
65.895 38.69672
65.900 37.958328
65.905 38.09449
65.910 38.392265
65.915 37.834587
65.920 37.571739
65.925 37.603729
65.930 38.473259
65.935 39.053402
65.940 38.972572
65.945 38.184311
65.950 38.065514
65.955 37.69286
65.960 37.584236
65.965 37.161518
65.970 37.755524
65.975 38.493546
65.980 38.626846
65.985 39.103275
65.990 39.207413
65.995 38.789654
66.000 38.904362
66.005 38.472809
66.010 37.933376
66.015 38.615269
66.020 39.447178
66.025 39.902966
66.030 40.122662
66.035 40.732346
66.040 41.052334
66.045 41.470078
66.050 41.60368
66.055 41.585484
66.060 40.931393
66.065 40.440594
66.070 39.037338
66.075 38.683353
66.080 39.169338
66.085 38.708302
66.090 37.967014
66.095 38.540348
66.100 39.162453
66.105 38.853458
66.110 38.816154
66.115 38.123238
66.120 37.689091
66.125 38.145218
66.130 38.046719
66.135 38.12027
66.140 38.699421
66.145 38.778801
66.150 38.841114
66.155 38.829887
66.160 38.390774
66.165 37.921429
66.170 37.657387
66.175 37.291458
66.180 37.080067
66.185 36.897331
66.190 36.57486
66.195 36.909893
66.200 37.549728
66.205 37.286617
66.210 37.903786
66.215 38.150002
66.220 38.47303
66.225 39.047623
66.230 38.325081
66.235 37.391087
66.240 37.287899
66.245 37.063046
66.250 36.390831
66.255 35.455353
66.260 35.429996
66.265 35.509834
66.270 35.442234
66.275 34.537388
66.280 33.887962
66.285 34.32431
66.290 34.770828
66.295 35.103344
66.300 36.509781
66.305 36.60997
66.310 36.929943
66.315 36.702564
66.320 35.925888
66.325 36.040531
66.330 35.722866
66.335 34.346394
66.340 34.095383
66.345 34.313633
66.350 34.49609
66.355 34.641296
66.360 34.184643
66.365 34.007355
66.370 34.07172
66.375 33.727234
66.380 33.063831
66.385 33.414169
66.390 33.668255
66.395 33.248165
66.400 32.654438
66.405 32.512882
66.410 32.650627
66.415 33.26862
66.420 32.951672
66.425 33.159122
66.430 33.454975
66.435 33.976105
66.440 33.800732
66.445 33.098221
66.450 31.842737
66.455 31.121536
66.460 30.112438
66.465 29.867966
66.470 29.831121
66.475 29.265345
66.480 30.135233
66.485 30.294262
66.490 29.583347
66.495 29.395342
66.500 28.35276
66.505 27.297234
66.510 27.719053
66.515 27.029667
66.520 27.086624
66.525 27.553062
66.530 27.568102
66.535 27.890135
66.540 28.091442
66.545 27.796038
66.550 26.787615
66.555 26.176731
66.560 25.790085
66.565 25.937717
66.570 26.073565
66.575 26.250992
66.580 25.852215
66.585 26.348618
66.590 27.311249
66.595 27.513588
66.600 27.270029
66.605 27.019985
66.610 26.815897
66.615 27.274366
66.620 27.324396
66.625 26.832277
66.630 26.128277
66.635 25.32201
66.640 25.335964
66.645 25.539915
66.650 25.436274
66.655 24.790922
66.660 24.537233
66.665 24.797707
66.670 24.97357
66.675 24.726994
66.680 24.482355
66.685 23.19508
66.690 22.934975
66.695 22.732407
66.700 23.113472
66.705 23.051985
66.710 22.44482
66.715 22.731703
66.720 23.735779
66.725 23.907137
66.730 23.427046
66.735 22.69759
66.740 22.749969
66.745 22.54427
66.750 22.091398
66.755 22.051659
66.760 22.61175
66.765 22.880541
66.770 23.385672
66.775 24.281799
66.780 24.779451
66.785 24.496088
66.790 24.028633
66.795 23.231321
66.800 22.928661
66.805 23.26524
66.810 22.951029
66.815 22.052084
66.820 21.97086
66.825 22.445826
66.830 22.677444
66.835 23.070272
66.840 22.376654
66.845 22.161205
66.850 22.643244
66.855 22.483181
66.860 22.052734
66.865 22.154984
66.870 21.866545
66.875 22.158194
66.880 22.276234
66.885 22.278034
66.890 22.297527
66.895 22.155983
66.900 22.232159
66.905 21.657499
66.910 21.33345
66.915 20.94556
66.920 20.956921
66.925 21.204184
66.930 21.446924
66.935 21.661463
66.940 22.525988
66.945 22.443136
66.950 22.907555
66.955 23.121855
66.960 22.496849
66.965 21.812338
66.970 21.524504
66.975 21.115517
66.980 21.19957
66.985 20.845766
66.990 20.798103
66.995 21.123743
67.000 21.436005
67.005 21.546045
67.010 21.536779
67.015 21.64448
67.020 21.620899
67.025 21.596315
67.030 21.263617
67.035 21.080894
67.040 21.084179
67.045 20.680305
67.050 20.254723
67.055 20.636799
67.060 21.510799
67.065 22.13489
67.070 22.044621
67.075 22.040262
67.080 22.623722
67.085 22.68911
67.090 22.611814
67.095 22.858423
67.100 22.925591
67.105 22.720701
67.110 22.641182
67.115 23.133635
67.120 24.174746
67.125 24.072443
67.130 23.196577
67.135 22.946426
67.140 23.032681
67.145 22.718483
67.150 21.536427
67.155 20.882568
67.160 20.632082
67.165 20.517019
67.170 20.600863
67.175 20.647024
67.180 20.946173
67.185 20.891613
67.190 21.031662
67.195 21.213785
67.200 21.287264
67.205 20.939667
67.210 20.785297
67.215 21.520008
67.220 22.270443
67.225 22.537418
67.230 22.682261
67.235 22.597954
67.240 23.153635
67.245 23.132307
67.250 22.86553
67.255 22.636637
67.260 21.864819
67.265 21.568796
67.270 21.838818
67.275 21.533672
67.280 21.636396
67.285 21.145229
67.290 20.970545
67.295 21.040499
67.300 20.647057
67.305 20.168039
67.310 20.097893
67.315 19.854979
67.320 19.272223
67.325 19.272808
67.330 18.881689
67.335 19.753107
67.340 19.859339
67.345 19.60988
67.350 20.04224
67.355 20.676823
67.360 21.454922
67.365 22.147127
67.370 21.69471
67.375 22.050922
67.380 22.769375
67.385 22.781984
67.390 22.076803
67.395 21.181141
67.400 21.059492
67.405 21.028055
67.410 21.04698
67.415 20.966682
67.420 20.804634
67.425 21.310598
67.430 21.055521
67.435 20.963663
67.440 21.493757
67.445 20.95895
67.450 20.652142
67.455 20.997772
67.460 20.695406
67.465 20.379168
67.470 19.999067
67.475 19.963749
67.480 20.238916
67.485 20.685558
67.490 20.400118
67.495 20.616919
67.500 20.976706
67.505 20.94253
67.510 20.47011
67.515 19.971024
67.520 19.73679
67.525 19.763411
67.530 19.876747
67.535 20.150398
67.540 20.138735
67.545 20.690981
67.550 21.377361
67.555 21.405554
67.560 21.344055
67.565 21.23089
67.570 21.139606
67.575 21.326572
67.580 21.164406
67.585 20.41474
67.590 20.287556
67.595 20.244608
67.600 20.595383
67.605 20.794727
67.610 20.865364
67.615 20.80957
67.620 20.680588
67.625 20.862629
67.630 21.015738
67.635 20.824549
67.640 20.840923
67.645 21.13192
67.650 21.198568
67.655 21.3946
67.660 21.985205
67.665 22.3608
67.670 21.877148
67.675 21.836359
67.680 21.861425
67.685 22.420584
67.690 21.839062
67.695 21.354643
67.700 21.13917
67.705 20.970503
67.710 20.936495
67.715 20.570488
67.720 20.104067
67.725 20.046291
67.730 19.931736
67.735 20.412909
67.740 20.670364
67.745 20.283323
67.750 20.099201
67.755 20.279415
67.760 21.231247
67.765 20.988802
67.770 20.361311
67.775 20.273354
67.780 19.866739
67.785 19.882631
67.790 19.983557
67.795 19.702431
67.800 19.934462
67.805 20.279362
67.810 20.051119
67.815 20.49596
67.820 20.855619
67.825 20.582283
67.830 20.760263
67.835 20.159492
67.840 20.280323
67.845 20.626268
67.850 20.507296
67.855 20.289379
67.860 19.650595
67.865 19.241972
67.870 19.811499
67.875 19.620897
67.880 20.042088
67.885 19.875031
67.890 19.935125
67.895 20.330963
67.900 20.651609
67.905 20.75844
67.910 20.843597
67.915 20.949444
67.920 21.419327
67.925 21.860498
67.930 22.189274
67.935 22.149313
67.940 22.376242
67.945 22.889511
67.950 22.943798
67.955 22.485262
67.960 22.290781
67.965 22.111546
67.970 22.481787
67.975 22.027258
67.980 21.696138
67.985 21.71785
67.990 21.891821
67.995 21.943077
68.000 21.432072
68.005 20.180937
68.010 20.098156
68.015 19.905754
68.020 20.100677
68.025 20.059959
68.030 19.962845
68.035 20.104523
68.040 20.418596
68.045 20.749546
68.050 20.845295
68.055 20.070963
68.060 20.000957
68.065 19.812149
68.070 19.631985
68.075 19.76967
68.080 19.801683
68.085 19.805988
68.090 20.095198
68.095 20.085495
68.100 20.490511
68.105 21.119736
68.110 21.581991
68.115 21.266394
68.120 21.387089
68.125 21.428148
68.130 21.142647
68.135 21.469477
68.140 21.669333
68.145 21.485838
68.150 21.409033
68.155 21.05061
68.160 20.793552
68.165 20.334423
68.170 19.21554
68.175 18.086483
68.180 17.464499
68.185 18.283373
68.190 18.505886
68.195 18.767675
68.200 19.648924
68.205 20.146151
68.210 20.686068
68.215 21.541611
68.220 20.724325
68.225 21.157671
68.230 21.53054
68.235 21.818619
68.240 22.344271
68.245 22.788473
68.250 22.583843
68.255 22.85022
68.260 23.156698
68.265 23.262852
68.270 23.003796
68.275 22.406092
68.280 22.12948
68.285 22.196041
68.290 22.198376
68.295 21.786325
68.300 21.737991
68.305 22.183115
68.310 22.370516
68.315 22.08943
68.320 22.05349
68.325 21.847355
68.330 21.446831
68.335 20.963278
68.340 20.498255
68.345 20.185066
68.350 19.706739
68.355 19.620136
68.360 19.912699
68.365 19.506037
68.370 19.542307
68.375 19.690128
68.380 19.300451
68.385 19.703363
68.390 19.410547
68.395 19.318205
68.400 20.050581
68.405 19.66114
68.410 19.235037
68.415 19.853313
68.420 19.937197
68.425 20.986921
68.430 20.94615
68.435 20.746794
68.440 20.893044
68.445 21.369255
68.450 21.034019
68.455 20.338921
68.460 19.864923
68.465 19.774334
68.470 19.962233
68.475 20.036798
68.480 19.626982
68.485 20.102365
68.490 20.681177
68.495 20.864916
68.500 21.213692
68.505 21.679461
68.510 21.834976
68.515 22.351843
68.520 22.00778
68.525 21.631029
68.530 21.235081
68.535 20.886923
68.540 20.292955
68.545 20.566549
68.550 20.260448
68.555 20.484865
68.560 20.930277
68.565 21.259541
68.570 20.911444
68.575 20.644499
68.580 20.457558
68.585 20.714701
68.590 20.967224
68.595 20.57415
68.600 20.864977
68.605 21.49156
68.610 21.658213
68.615 21.538662
68.620 21.54085
68.625 21.682367
68.630 21.085871
68.635 20.511772
68.640 20.035116
68.645 20.314472
68.650 20.341312
68.655 19.873819
68.660 19.134924
68.665 19.138987
68.670 19.722025
68.675 20.008648
68.680 19.750319
68.685 19.817236
68.690 19.883781
68.695 20.614973
68.700 21.166607
68.705 20.686865
68.710 21.156363
68.715 21.925974
68.720 21.954363
68.725 22.247377
68.730 22.261532
68.735 22.600775
68.740 23.138824
68.745 23.047314
68.750 22.383703
68.755 22.781366
68.760 22.770153
68.765 21.915321
68.770 21.365894
68.775 21.177652
68.780 21.335909
68.785 21.300983
68.790 21.089647
68.795 21.233519
68.800 21.664148
68.805 22.115629
68.810 21.868156
68.815 21.582298
68.820 21.969812
68.825 21.804686
68.830 21.913734
68.835 22.473204
68.840 22.029594
68.845 21.539194
68.850 21.488997
68.855 21.752455
68.860 22.046078
68.865 22.304909
68.870 21.838047
68.875 21.682333
68.880 22.184738
68.885 22.360703
68.890 22.463478
68.895 22.163031
68.900 21.931784
68.905 21.96249
68.910 22.496151
68.915 22.893282
68.920 22.735817
68.925 22.973127
68.930 23.808218
68.935 23.929087
68.940 23.912056
68.945 23.567827
68.950 23.657661
68.955 23.487198
68.960 23.029285
68.965 22.353825
68.970 22.067616
68.975 22.341682
68.980 22.248999
68.985 21.859339
68.990 21.853895
68.995 22.071035
69.000 22.241373
69.005 22.684404
69.010 23.323982
69.015 23.211357
69.020 23.185287
69.025 22.755291
69.030 22.723936
69.035 22.665888
69.040 22.560104
69.045 22.261759
69.050 22.946976
69.055 23.66456
69.060 24.286312
69.065 24.156076
69.070 23.962894
69.075 24.42243
69.080 24.337694
69.085 24.124567
69.090 24.402218
69.095 25.10445
69.100 26.324989
69.105 26.600945
69.110 26.258778
69.115 26.43959
69.120 26.332054
69.125 25.565487
69.130 24.867443
69.135 23.792381
69.140 23.520903
69.145 23.4939
69.150 23.635931
69.155 23.772823
69.160 23.841467
69.165 23.893749
69.170 24.744337
69.175 25.101053
69.180 25.080793
69.185 24.839636
69.190 24.715225
69.195 24.411234
69.200 24.373974
69.205 24.231165
69.210 24.321688
69.215 24.906706
69.220 25.256351
69.225 25.03026
69.230 25.168879
69.235 24.992382
69.240 24.960014
69.245 24.870676
69.250 25.742975
69.255 26.490263
69.260 27.113295
69.265 27.451469
69.270 27.757984
69.275 28.075672
69.280 27.451351
69.285 25.803144
69.290 24.980959
69.295 24.841946
69.300 24.918076
69.305 24.814741
69.310 25.293715
69.315 26.037939
69.320 26.492317
69.325 26.954956
69.330 27.427969
69.335 27.628365
69.340 27.394165
69.345 27.077595
69.350 27.842737
69.355 29.138311
69.360 29.513113
69.365 29.602947
69.370 29.968344
69.375 30.243423
69.380 30.753372
69.385 30.214796
69.390 29.402699
69.395 29.169588
69.400 29.004871
69.405 28.723124
69.410 28.740389
69.415 28.480066
69.420 29.118202
69.425 29.111637
69.430 29.798841
69.435 29.959909
69.440 30.45439
69.445 30.604456
69.450 29.974302
69.455 30.087742
69.460 30.411545
69.465 30.066193
69.470 29.790373
69.475 29.314245
69.480 29.903149
69.485 30.416021
69.490 30.51959
69.495 30.748869
69.500 30.748501
69.505 31.142433
69.510 31.650383
69.515 31.429409
69.520 31.322241
69.525 31.249285
69.530 31.143618
69.535 32.011517
69.540 31.734573
69.545 32.268009
69.550 32.945778
69.555 32.940014
69.560 32.250729
69.565 32.090462
69.570 32.020622
69.575 31.743774
69.580 31.328346
69.585 30.851286
69.590 30.392553
69.595 30.522717
69.600 29.754854
69.605 29.185957
69.610 28.903357
69.615 28.219563
69.620 28.180244
69.625 28.700415
69.630 28.700701
69.635 28.913961
69.640 29.153955
69.645 29.541941
69.650 29.367592
69.655 29.17942
69.660 29.480198
69.665 29.346952
69.670 29.173578
69.675 29.092302
69.680 29.832737
69.685 30.889313
69.690 31.752083
69.695 32.177242
69.700 32.992992
69.705 33.007595
69.710 33.149914
69.715 32.832569
69.720 32.87933
69.725 32.595749
69.730 31.788307
69.735 31.849352
69.740 32.024212
69.745 31.460934
69.750 30.84123
69.755 29.858274
69.760 29.025141
69.765 29.278271
69.770 28.886631
69.775 28.542089
69.780 28.218262
69.785 28.140455
69.790 28.261515
69.795 27.132551
69.800 26.392424
69.805 25.835041
69.810 26.312368
69.815 27.198992
69.820 26.941133
69.825 27.424023
69.830 28.218954
69.835 28.841198
69.840 29.070278
69.845 28.25168
69.850 27.604235
69.855 27.126831
69.860 26.764393
69.865 26.10603
69.870 25.216352
69.875 25.771048
69.880 26.379026
69.885 26.821619
69.890 27.159735
69.895 26.889585
69.900 26.965345
69.905 26.554077
69.910 25.482445
69.915 25.120148
69.920 24.924904
69.925 24.572514
69.930 24.314003
69.935 24.77132
69.940 24.772385
69.945 24.901442
69.950 24.720734
69.955 24.748236
69.960 24.516542
69.965 24.39045
69.970 23.864397
69.975 23.453962
69.980 22.656708
69.985 22.384268
69.990 21.890217
69.995 21.654457
70.000 21.52212
70.005 21.438452
70.010 21.48871
70.015 21.693375
70.020 21.377243
70.025 21.556694
70.030 22.103806
70.035 22.463606
70.040 22.421307
70.045 22.506353
70.050 22.373674
70.055 22.211502
70.060 22.174847
70.065 21.906387
70.070 21.438059
70.075 21.201847
70.080 20.872854
70.085 20.764011
70.090 20.675426
70.095 20.322514
70.100 20.573198
70.105 20.792704
70.110 21.505779
70.115 22.670385
70.120 23.166309
70.125 24.254375
70.130 24.757595
70.135 24.992414
70.140 24.760548
70.145 24.107166
70.150 23.253456
70.155 22.895922
70.160 22.101686
70.165 21.084782
70.170 20.088411
70.175 20.085541
70.180 20.321356
70.185 20.301289
70.190 19.80657
70.195 19.548506
70.200 19.745237
70.205 19.515364
70.210 19.242664
70.215 19.117367
70.220 19.112387
70.225 18.979141
70.230 18.495811
70.235 18.782902
70.240 19.145714
70.245 19.036255
70.250 19.190092
70.255 19.041788
70.260 19.080418
70.265 19.599161
70.270 18.908545
70.275 18.688232
70.280 18.586607
70.285 18.41876
70.290 18.271608
70.295 18.637615
70.300 18.615837
70.305 19.217447
70.310 19.522423
70.315 19.50635
70.320 19.911995
70.325 20.34576
70.330 20.27924
70.335 20.846779
70.340 21.126375
70.345 21.961134
70.350 22.346605
70.355 21.929871
70.360 21.605738
70.365 21.36096
70.370 21.247375
70.375 20.83617
70.380 20.130512
70.385 20.075827
70.390 20.090658
70.395 20.103132
70.400 19.986202
70.405 20.070414
70.410 20.200035
70.415 19.3176
70.420 18.622841
70.425 18.459923
70.430 18.635027
70.435 18.512138
70.440 18.407661
70.445 18.325171
70.450 18.98867
70.455 19.604803
70.460 20.211603
70.465 20.416245
70.470 20.448351
70.475 20.343021
70.480 20.762386
70.485 20.764683
70.490 20.686642
70.495 20.566166
70.500 20.546143
70.505 20.768778
70.510 20.641235
70.515 20.451906
70.520 20.851883
70.525 20.750269
70.530 20.625511
70.535 20.596996
70.540 20.604776
70.545 20.678976
70.550 20.272348
70.555 19.770096
70.560 19.737562
70.565 20.286051
70.570 20.263754
70.575 19.741594
70.580 19.514473
70.585 19.652035
70.590 20.20203
70.595 20.319767
70.600 19.674173
70.605 19.621698
70.610 19.962473
70.615 20.342817
70.620 20.62781
70.625 20.480854
70.630 20.386253
70.635 20.275063
70.640 19.997854
70.645 19.716011
70.650 19.583509
70.655 19.773447
70.660 19.691172
70.665 19.906292
70.670 20.122866
70.675 20.155661
70.680 20.366156
70.685 20.427191
70.690 20.461855
70.695 20.359484
70.700 19.878494
70.705 20.338535
70.710 20.298193
70.715 20.200357
70.720 20.032009
70.725 19.425285
70.730 19.89674
70.735 19.594925
70.740 18.871906
70.745 18.567272
70.750 18.332079
70.755 18.286118
70.760 18.002872
70.765 17.651987
70.770 18.157047
70.775 18.687414
70.780 19.208794
70.785 19.104429
70.790 19.084496
70.795 18.972477
70.800 18.839329
70.805 18.460913
70.810 18.618828
70.815 18.681738
70.820 19.628025
70.825 20.005228
70.830 20.427435
70.835 20.650694
70.840 20.776291
70.845 20.179028
70.850 20.302856
70.855 19.541731
70.860 19.249678
70.865 18.631908
70.870 18.529047
70.875 19.027643
70.880 18.929695
70.885 18.60725
70.890 18.810385
70.895 18.966105
70.900 19.413731
70.905 19.66156
70.910 19.133261
70.915 19.400629
70.920 19.169968
70.925 18.471636
70.930 18.040627
70.935 17.633442
70.940 17.600357
70.945 17.254438
70.950 16.8181
70.955 17.396849
70.960 17.601831
70.965 17.826038
70.970 18.330107
70.975 18.243643
70.980 18.659157
70.985 19.170057
70.990 19.02264
70.995 19.596104
71.000 19.684219
71.005 19.884699
71.010 19.759947
71.015 19.511589
71.020 19.220238
71.025 18.64666
71.030 18.511297
71.035 18.084517
71.040 17.768694
71.045 17.808689
71.050 17.576662
71.055 18.292669
71.060 19.148743
71.065 19.18869
71.070 19.189846
71.075 19.594288
71.080 19.441425
71.085 19.265461
71.090 19.210112
71.095 18.794895
71.100 19.078465
71.105 19.021418
71.110 18.967146
71.115 19.860371
71.120 19.825125
71.125 18.988501
71.130 18.642418
71.135 18.291603
71.140 18.313498
71.145 18.341934
71.150 18.401466
71.155 18.700985
71.160 18.847887
71.165 19.657543
71.170 20.153509
71.175 20.081665
71.180 19.751171
71.185 19.453121
71.190 20.050894
71.195 20.037474
71.200 19.435453
71.205 18.609732
71.210 18.684484
71.215 18.475805
71.220 18.599596
71.225 17.979046
71.230 17.795156
71.235 17.453028
71.240 17.895094
71.245 18.444496
71.250 18.676504
71.255 18.528587
71.260 18.426586
71.265 18.296652
71.270 18.395483
71.275 18.399202
71.280 17.550867
71.285 17.325222
71.290 17.583269
71.295 19.040188
71.300 19.838537
71.305 20.156233
71.310 19.577709
71.315 20.055141
71.320 20.335943
71.325 19.632055
71.330 18.16593
71.335 17.782488
71.340 18.035591
71.345 18.64913
71.350 18.409624
71.355 18.061834
71.360 18.720606
71.365 18.794893
71.370 18.890657
71.375 18.769817
71.380 18.232288
71.385 18.127655
71.390 18.429817
71.395 18.234835
71.400 18.427149
71.405 18.932285
71.410 18.698864
71.415 19.049442
71.420 19.083809
71.425 18.889492
71.430 18.912977
71.435 18.472912
71.440 17.827854
71.445 17.601311
71.450 17.674551
71.455 17.732416
71.460 17.700642
71.465 17.474476
71.470 17.964428
71.475 18.903133
71.480 19.392103
71.485 19.609095
71.490 19.805323
71.495 20.303345
71.500 20.75848
71.505 20.443756
71.510 19.893732
71.515 19.768343
71.520 19.307966
71.525 18.985579
71.530 18.763458
71.535 18.710661
71.540 18.238937
71.545 18.28294
71.550 18.166019
71.555 18.40358
71.560 18.725637
71.565 18.706387
71.570 18.689835
71.575 18.737934
71.580 19.039675
71.585 19.132471
71.590 19.602337
71.595 20.069269
71.600 20.564077
71.605 21.348732
71.610 21.248587
71.615 20.952566
71.620 20.586361
71.625 20.327946
71.630 19.716318
71.635 19.043758
71.640 18.591597
71.645 18.840641
71.650 18.979443
71.655 19.051247
71.660 18.685371
71.665 18.718517
71.670 18.934736
71.675 19.09219
71.680 18.746944
71.685 18.814447
71.690 18.664635
71.695 18.885683
71.700 19.142181
71.705 19.250666
71.710 19.220213
71.715 19.807537
71.720 19.711414
71.725 19.834686
71.730 19.537334
71.735 19.378332
71.740 19.233561
71.745 19.276014
71.750 19.300375
71.755 19.143036
71.760 19.097231
71.765 18.940659
71.770 18.636545
71.775 18.891665
71.780 18.924488
71.785 18.684307
71.790 19.00053
71.795 19.098249
71.800 19.872787
71.805 20.33919
71.810 20.039459
71.815 19.969749
71.820 19.924143
71.825 19.60157
71.830 19.821648
71.835 19.533623
71.840 19.299574
71.845 19.354406
71.850 18.67524
71.855 18.486843
71.860 18.240807
71.865 18.036148
71.870 18.271265
71.875 18.318188
71.880 18.203587
71.885 19.474344
71.890 19.642521
71.895 19.852316
71.900 19.753084
71.905 19.516598
71.910 19.533022
71.915 19.382942
71.920 18.403805
71.925 18.174524
71.930 18.15823
71.935 17.946999
71.940 17.680975
71.945 17.082968
71.950 17.345963
71.955 17.691229
71.960 17.511492
71.965 17.330725
71.970 17.939192
71.975 17.982269
71.980 18.161629
71.985 18.257071
71.990 18.952816
71.995 19.417458
72.000 19.390442
72.005 19.362225
72.010 19.048676
72.015 18.645041
72.020 18.134991
72.025 17.393
72.030 17.576262
72.035 17.372643
72.040 17.470911
72.045 17.846785
72.050 18.257462
72.055 18.774014
72.060 18.644894
72.065 18.00149
72.070 18.13085
72.075 18.477327
72.080 18.955143
72.085 18.962877
72.090 19.554487
72.095 20.578751
72.100 20.660938
72.105 20.193689
72.110 19.67934
72.115 19.75036
72.120 19.269903
72.125 18.941586
72.130 18.394215
72.135 18.376469
72.140 18.699856
72.145 18.810122
72.150 19.069775
72.155 18.976559
72.160 18.313868
72.165 18.220581
72.170 18.105473
72.175 17.671444
72.180 17.263685
72.185 16.714666
72.190 16.862049
72.195 17.764563
72.200 18.087969
72.205 19.014587
72.210 19.369013
72.215 19.429548
72.220 19.510788
72.225 19.006783
72.230 18.922247
72.235 18.406063
72.240 17.981724
72.245 17.95015
72.250 17.96434
72.255 18.215004
72.260 18.13088
72.265 18.113323
72.270 18.005775
72.275 17.42939
72.280 17.108597
72.285 17.26783
72.290 17.328432
72.295 17.398788
72.300 17.220142
72.305 17.556948
72.310 17.233416
72.315 16.95752
72.320 16.908213
72.325 16.723255
72.330 16.548473
72.335 16.692347
72.340 16.856043
72.345 17.448055
72.350 17.124548
72.355 16.77697
72.360 16.835752
72.365 16.467598
72.370 16.190184
72.375 16.391226
72.380 16.572659
72.385 17.049063
72.390 16.412178
72.395 16.265776
72.400 16.354286
72.405 16.640474
72.410 16.937977
72.415 17.01128
72.420 17.005156
72.425 17.612389
72.430 18.176378
72.435 18.258472
72.440 18.0777
72.445 17.747822
72.450 17.90143
72.455 17.890659
72.460 18.11215
72.465 18.226034
72.470 18.124214
72.475 17.762369
72.480 17.077097
72.485 17.03878
72.490 16.876129
72.495 16.541302
72.500 16.854357
72.505 16.971096
72.510 17.667368
72.515 18.046349
72.520 17.985075
72.525 17.897842
72.530 17.564978
72.535 17.44495
72.540 17.112947
72.545 16.961958
72.550 17.406429
72.555 17.711483
72.560 17.953106
72.565 18.139637
72.570 18.23702
72.575 18.049955
72.580 18.533319
72.585 18.953644
72.590 19.252411
72.595 19.183588
72.600 18.894705
72.605 19.063669
72.610 19.325634
72.615 18.903404
72.620 19.214586
72.625 18.985039
72.630 19.252745
72.635 18.943102
72.640 18.720137
72.645 18.395321
72.650 18.033524
72.655 17.546328
72.660 17.21533
72.665 17.340902
72.670 17.09536
72.675 17.255346
72.680 17.551228
72.685 16.869186
72.690 16.803621
72.695 16.754923
72.700 16.708744
72.705 16.752552
72.710 16.758921
72.715 16.611391
72.720 17.201107
72.725 17.382961
72.730 17.651419
72.735 18.317665
72.740 18.671694
72.745 18.52846
72.750 18.261257
72.755 18.648607
72.760 18.64852
72.765 18.516237
72.770 18.190699
72.775 17.594534
72.780 17.366594
72.785 17.623674
72.790 16.619606
72.795 16.416307
72.800 16.533091
72.805 16.0534
72.810 16.252546
72.815 16.331152
72.820 15.777175
72.825 15.697985
72.830 15.321593
72.835 15.301312
72.840 15.627221
72.845 15.590785
72.850 16.169266
72.855 16.382614
72.860 16.513433
72.865 16.669416
72.870 16.702509
72.875 17.294472
72.880 17.39447
72.885 17.669977
72.890 17.887491
72.895 17.587729
72.900 17.501259
72.905 17.596947
72.910 17.162144
72.915 16.619251
72.920 16.236443
72.925 16.923134
72.930 16.53326
72.935 16.470543
72.940 17.180162
72.945 17.354948
72.950 17.465611
72.955 17.429918
72.960 17.38607
72.965 18.123507
72.970 17.452663
72.975 17.488203
72.980 18.093916
72.985 18.123175
72.990 17.912498
72.995 17.594887
73.000 17.588404
