!@!!GADDS PLOTSO FILE: Chi integration type
!@!!Title/SampleName: map-df
!@!!Comment: ?
!@!!User: Bruker Instrument Administrator
!@!!Site: University of Illinois Chicago
!@!!Frame: map-df_01_000.gfrm
!@!!Wavelengths    1.54184   1.54056   1.54439
!@!!Frame angles: 2Theta: 63.000 Omega: 50.000 Phi: 0.000 Chi: 90.000
!@!!Integration range: 2Theta: 53.000 to 73.000  Gamma: -105.000 to -75.000
!@!!Integration method: bin normalized
!@!N
!@!SS
!@!M
!@!L 0.0 0.0 0.0 0.0
!@!XDegrees
!@!YCounts
53.000 5.822567
53.005 5.728015
53.010 5.534003
53.015 5.584243
53.020 5.728916
53.025 5.821982
53.030 5.756754
53.035 5.603439
53.040 5.442933
53.045 5.369801
53.050 5.411025
53.055 5.458561
53.060 5.764399
53.065 5.63605
53.070 5.990695
53.075 6.40824
53.080 6.431481
53.085 6.388473
53.090 6.002551
53.095 5.940051
53.100 5.967496
53.105 5.89055
53.110 5.899877
53.115 6.029335
53.120 5.875809
53.125 5.935049
53.130 6.106923
53.135 6.221735
53.140 6.317862
53.145 6.361528
53.150 6.306645
53.155 6.497072
53.160 6.638081
53.165 6.369043
53.170 6.190773
53.175 6.063663
53.180 6.098847
53.185 5.961108
53.190 5.896693
53.195 5.776191
53.200 5.529629
53.205 5.45221
53.210 5.292047
53.215 5.179238
53.220 5.511035
53.225 5.56879
53.230 5.526096
53.235 5.865516
53.240 5.827235
53.245 5.991111
53.250 5.92818
53.255 5.852643
53.260 5.903108
53.265 6.116087
53.270 6.199928
53.275 6.252046
53.280 6.154927
53.285 6.276005
53.290 6.162258
53.295 6.359711
53.300 6.106455
53.305 6.3392
53.310 6.464568
53.315 6.555232
53.320 6.400483
53.325 6.521188
53.330 6.533144
53.335 6.68687
53.340 6.275637
53.345 6.290612
53.350 6.541398
53.355 6.79897
53.360 6.530118
53.365 6.687671
53.370 6.834668
53.375 6.601651
53.380 6.327068
53.385 6.242261
53.390 6.263061
53.395 6.23836
53.400 6.349458
53.405 6.444799
53.410 6.868479
53.415 6.877733
53.420 6.838076
53.425 6.921174
53.430 6.676807
53.435 6.287169
53.440 5.867147
53.445 5.646577
53.450 5.756099
53.455 6.05971
53.460 6.320051
53.465 6.559818
53.470 6.629369
53.475 6.914448
53.480 6.826576
53.485 6.702124
53.490 6.375822
53.495 6.381387
53.500 6.669273
53.505 6.915483
53.510 6.629651
53.515 6.633373
53.520 6.91651
53.525 7.275585
53.530 7.173207
53.535 6.761544
53.540 6.483507
53.545 6.369998
53.550 6.64412
53.555 6.437061
53.560 6.209158
53.565 6.378767
53.570 6.658318
53.575 7.280038
53.580 7.621715
53.585 6.969289
53.590 6.884974
53.595 6.970955
53.600 6.582048
53.605 6.238669
53.610 6.062584
53.615 6.127061
53.620 6.294059
53.625 5.939015
53.630 5.868756
53.635 6.487231
53.640 6.566471
53.645 6.358632
53.650 6.184336
53.655 6.249382
53.660 6.709926
53.665 6.977878
53.670 6.61738
53.675 6.656176
53.680 6.679871
53.685 6.56163
53.690 6.262105
53.695 5.969089
53.700 5.779072
53.705 5.836106
53.710 5.760231
53.715 5.855362
53.720 5.957373
53.725 6.262347
53.730 6.592677
53.735 6.599313
53.740 6.712595
53.745 6.901742
53.750 6.9969
53.755 6.77342
53.760 6.583211
53.765 6.221152
53.770 6.388096
53.775 6.34853
53.780 6.363124
53.785 6.538176
53.790 7.06333
53.795 7.333472
53.800 7.660045
53.805 7.839603
53.810 7.971927
53.815 8.140256
53.820 8.074066
53.825 7.718653
53.830 7.608415
53.835 7.119722
53.840 7.139264
53.845 7.086343
53.850 7.207541
53.855 7.55667
53.860 7.68236
53.865 7.808164
53.870 7.788217
53.875 8.054808
53.880 8.021149
53.885 7.793811
53.890 7.902443
53.895 7.827184
53.900 7.863037
53.905 7.821497
53.910 7.524847
53.915 7.10712
53.920 6.875834
53.925 6.581159
53.930 6.272592
53.935 6.313469
53.940 6.153192
53.945 6.302317
53.950 6.927486
53.955 7.307046
53.960 7.391496
53.965 7.902937
53.970 7.872564
53.975 8.224803
53.980 7.936048
53.985 7.673334
53.990 7.642608
53.995 7.942418
54.000 7.652667
54.005 7.35535
54.010 7.380874
54.015 7.972038
54.020 7.982413
54.025 7.813515
54.030 7.676073
54.035 7.994855
54.040 8.48225
54.045 8.823971
54.050 8.892852
54.055 8.998279
54.060 9.082761
54.065 9.56775
54.070 9.520442
54.075 9.154486
54.080 8.70436
54.085 8.49861
54.090 8.515131
54.095 8.446738
54.100 7.697481
54.105 7.728778
54.110 8.201506
54.115 8.265221
54.120 8.556529
54.125 9.026444
54.130 8.871243
54.135 8.871981
54.140 8.127681
54.145 7.240619
54.150 7.032587
54.155 6.374813
54.160 6.004781
54.165 5.865312
54.170 6.110333
54.175 6.604326
54.180 7.367692
54.185 7.83172
54.190 7.992449
54.195 8.000653
54.200 8.354096
54.205 8.472529
54.210 8.115709
54.215 8.059202
54.220 7.942025
54.225 7.869579
54.230 8.223289
54.235 7.854824
54.240 7.799819
54.245 8.128714
54.250 7.908436
54.255 7.898381
54.260 7.94215
54.265 7.812633
54.270 7.995531
54.275 7.721673
54.280 7.412118
54.285 7.209375
54.290 7.17477
54.295 7.15976
54.300 7.282069
54.305 7.815135
54.310 8.085001
54.315 8.268466
54.320 8.206417
54.325 8.047039
54.330 7.893039
54.335 7.887688
54.340 8.289407
54.345 8.508781
54.350 8.871133
54.355 9.249369
54.360 9.358015
54.365 9.3373
54.370 9.299993
54.375 8.82121
54.380 8.909899
54.385 8.574368
54.390 8.21228
54.395 8.607382
54.400 8.696223
54.405 8.567142
54.410 8.569602
54.415 7.927538
54.420 8.090619
54.425 8.233603
54.430 8.062309
54.435 7.730061
54.440 7.442974
54.445 7.679697
54.450 8.083791
54.455 7.958274
54.460 8.009167
54.465 7.557203
54.470 7.613095
54.475 7.494991
54.480 6.854058
54.485 6.797692
54.490 6.886564
54.495 6.952265
54.500 7.159795
54.505 7.488997
54.510 7.825696
54.515 7.86984
54.520 7.421852
54.525 7.444001
54.530 7.53128
54.535 8.029765
54.540 7.936633
54.545 8.005774
54.550 8.487931
54.555 8.519116
54.560 8.570749
54.565 8.564323
54.570 8.266705
54.575 8.21907
54.580 8.336705
54.585 8.228499
54.590 8.299365
54.595 8.40537
54.600 8.456567
54.605 8.406903
54.610 8.156343
54.615 7.50102
54.620 7.612043
54.625 7.487606
54.630 7.198021
54.635 7.309904
54.640 7.766261
54.645 7.979249
54.650 8.411775
54.655 8.465572
54.660 8.633586
54.665 8.379372
54.670 7.886047
54.675 7.638629
54.680 7.879888
54.685 7.990238
54.690 8.182607
54.695 8.095773
54.700 8.210705
54.705 8.471527
54.710 8.445134
54.715 8.064424
54.720 8.181032
54.725 7.828046
54.730 7.871838
54.735 7.762979
54.740 7.715193
54.745 7.821964
54.750 8.080853
54.755 8.088556
54.760 8.457853
54.765 8.563506
54.770 8.85835
54.775 9.003065
54.780 9.476987
54.785 9.291059
54.790 8.913204
54.795 8.897463
54.800 8.687724
54.805 8.351658
54.810 8.015403
54.815 7.487197
54.820 7.947005
54.825 8.493545
54.830 8.574268
54.835 9.196331
54.840 9.41025
54.845 9.472872
54.850 9.335342
54.855 8.731055
54.860 8.464352
54.865 8.330315
54.870 8.203469
54.875 8.299004
54.880 8.481188
54.885 8.655184
54.890 8.717968
54.895 8.916848
54.900 9.466302
54.905 9.555942
54.910 9.644818
54.915 9.783539
54.920 9.887712
54.925 9.721311
54.930 9.768952
54.935 9.399711
54.940 9.360318
54.945 9.240127
54.950 9.609704
54.955 9.68996
54.960 9.890441
54.965 9.465832
54.970 9.241055
54.975 8.960826
54.980 8.98155
54.985 9.504867
54.990 9.510197
54.995 9.564164
55.000 9.527172
55.005 9.573336
55.010 9.607763
55.015 9.318024
55.020 8.673804
55.025 8.686474
55.030 8.71321
55.035 8.937126
55.040 9.040378
55.045 9.588305
55.050 9.689026
55.055 9.869889
55.060 9.89554
55.065 9.435912
55.070 9.450221
55.075 9.481784
55.080 9.224984
55.085 9.240724
55.090 9.020757
55.095 8.959407
55.100 9.314363
55.105 9.480119
55.110 9.572906
55.115 9.733707
55.120 9.954707
55.125 9.93242
55.130 9.840826
55.135 9.859387
55.140 9.790188
55.145 9.405767
55.150 8.77045
55.155 8.204741
55.160 8.271785
55.165 8.577309
55.170 8.75392
55.175 8.36728
55.180 8.536723
55.185 9.305627
55.190 9.655268
55.195 9.598324
55.200 9.416998
55.205 9.074689
55.210 9.521715
55.215 9.517852
55.220 9.607388
55.225 9.570946
55.230 9.652854
55.235 9.781648
55.240 10.066525
55.245 9.936441
55.250 10.241938
55.255 10.015469
55.260 9.869282
55.265 9.697893
55.270 9.262228
55.275 9.366303
55.280 9.230024
55.285 8.930885
55.290 8.75703
55.295 8.877337
55.300 9.30641
55.305 9.729601
55.310 9.832874
55.315 10.30062
55.320 10.0291
55.325 10.485956
55.330 10.546114
55.335 10.2012
55.340 9.951193
55.345 9.345923
55.350 9.152122
55.355 8.871292
55.360 8.538465
55.365 8.72519
55.370 8.849022
55.375 8.995527
55.380 9.087661
55.385 9.268354
55.390 9.946089
55.395 9.976266
55.400 9.85691
55.405 9.649827
55.410 10.036721
55.415 10.385009
55.420 10.124273
55.425 10.299706
55.430 10.338703
55.435 10.518377
55.440 10.563738
55.445 10.235769
55.450 10.143052
55.455 10.094442
55.460 9.732081
55.465 10.00269
55.470 10.103028
55.475 10.331542
55.480 10.599794
55.485 10.438083
55.490 10.667248
55.495 10.997013
55.500 10.603894
55.505 10.413268
55.510 10.251492
55.515 10.234259
55.520 11.001236
55.525 11.112396
55.530 10.81036
55.535 10.721869
55.540 10.503248
55.545 10.157429
55.550 9.843639
55.555 9.435362
55.560 9.356406
55.565 9.56593
55.570 9.766891
55.575 10.148911
55.580 10.5248
55.585 10.651962
55.590 10.342613
55.595 10.500512
55.600 10.358319
55.605 10.22382
55.610 10.444683
55.615 10.111823
55.620 10.032497
55.625 10.478769
55.630 10.340564
55.635 10.136621
55.640 10.09592
55.645 10.126936
55.650 10.496353
55.655 10.760564
55.660 10.848369
55.665 11.057643
55.670 11.678786
55.675 11.412009
55.680 11.003349
55.685 10.772019
55.690 10.247254
55.695 9.675376
55.700 9.560361
55.705 9.272851
55.710 9.696801
55.715 10.042808
55.720 10.312498
55.725 10.539536
55.730 10.771069
55.735 10.388817
55.740 10.519968
55.745 10.556445
55.750 10.689047
55.755 10.481021
55.760 10.413969
55.765 10.475424
55.770 10.801476
55.775 11.041137
55.780 10.688148
55.785 10.306989
55.790 10.505953
55.795 10.662243
55.800 10.380477
55.805 10.047888
55.810 9.095734
55.815 8.832521
55.820 9.465234
55.825 9.506312
55.830 9.542387
55.835 10.018085
55.840 10.805213
55.845 12.100073
55.850 11.909683
55.855 11.385599
55.860 11.094777
55.865 11.095774
55.870 10.73777
55.875 10.141312
55.880 9.897607
55.885 10.035601
55.890 10.036786
55.895 10.235012
55.900 10.03471
55.905 10.500884
55.910 10.444309
55.915 10.603324
55.920 10.583552
55.925 10.388113
55.930 10.266318
55.935 10.371857
55.940 10.225152
55.945 10.506624
55.950 10.457652
55.955 10.669145
55.960 10.789272
55.965 10.779769
55.970 10.642642
55.975 10.347991
55.980 10.097651
55.985 10.205581
55.990 10.86739
55.995 10.965947
56.000 11.016985
56.005 11.098907
56.010 11.302575
56.015 11.100311
56.020 11.154816
56.025 10.78397
56.030 10.782514
56.035 10.912086
56.040 11.145818
56.045 11.109921
56.050 10.837497
56.055 10.168468
56.060 9.808702
56.065 9.690974
56.070 9.613558
56.075 9.568776
56.080 9.529641
56.085 9.841304
56.090 10.412527
56.095 10.789662
56.100 11.10933
56.105 11.240858
56.110 11.09234
56.115 10.963632
56.120 11.021382
56.125 10.368721
56.130 10.042323
56.135 9.813291
56.140 9.707032
56.145 9.8369
56.150 10.368131
56.155 10.655155
56.160 11.503494
56.165 11.996111
56.170 12.227943
56.175 12.541955
56.180 12.080158
56.185 11.573667
56.190 11.55621
56.195 11.014404
56.200 11.214104
56.205 11.216848
56.210 11.206896
56.215 11.764203
56.220 12.002326
56.225 12.059301
56.230 12.299157
56.235 12.122527
56.240 12.142332
56.245 11.513417
56.250 11.485759
56.255 12.035642
56.260 12.069407
56.265 12.332432
56.270 12.202058
56.275 12.191561
56.280 12.709478
56.285 12.73755
56.290 12.427549
56.295 12.62982
56.300 12.54182
56.305 12.760662
56.310 12.71075
56.315 12.486868
56.320 12.113248
56.325 11.931378
56.330 11.641323
56.335 11.5743
56.340 11.823472
56.345 12.358823
56.350 12.338288
56.355 12.328092
56.360 12.530181
56.365 12.702616
56.370 12.734213
56.375 12.188412
56.380 11.922476
56.385 11.868336
56.390 11.582031
56.395 11.387443
56.400 11.32885
56.405 11.297017
56.410 11.288338
56.415 11.476138
56.420 11.936704
56.425 12.186187
56.430 12.562644
56.435 12.328577
56.440 11.894318
56.445 11.823389
56.450 11.787608
56.455 11.467587
56.460 11.543942
56.465 11.316612
56.470 11.423774
56.475 11.781233
56.480 11.480135
56.485 11.371833
56.490 12.026567
56.495 12.087433
56.500 11.870404
56.505 12.198699
56.510 12.641018
56.515 13.079332
56.520 13.253477
56.525 12.648467
56.530 12.48355
56.535 12.686978
56.540 12.623195
56.545 12.699234
56.550 12.334169
56.555 12.509346
56.560 12.51827
56.565 12.426377
56.570 11.965583
56.575 11.624746
56.580 11.238492
56.585 11.240894
56.590 10.846411
56.595 10.924465
56.600 11.252655
56.605 11.48123
56.610 11.232128
56.615 11.313422
56.620 11.7679
56.625 11.945399
56.630 12.106466
56.635 12.166818
56.640 12.294784
56.645 12.745614
56.650 12.874166
56.655 12.63317
56.660 12.83802
56.665 12.512686
56.670 12.442753
56.675 12.450177
56.680 12.686581
56.685 13.01401
56.690 13.071455
56.695 12.809839
56.700 12.739934
56.705 12.617659
56.710 12.548529
56.715 12.261979
56.720 11.782393
56.725 11.534192
56.730 11.735217
56.735 11.847445
56.740 11.775337
56.745 11.807888
56.750 12.044856
56.755 12.69367
56.760 13.279347
56.765 13.429216
56.770 13.492772
56.775 13.449789
56.780 13.784413
56.785 13.519353
56.790 12.746052
56.795 12.424521
56.800 12.126612
56.805 12.429103
56.810 12.524278
56.815 12.212259
56.820 12.10473
56.825 12.262127
56.830 12.21462
56.835 12.117197
56.840 11.712369
56.845 11.686
56.850 11.914637
56.855 12.139257
56.860 11.958143
56.865 12.456926
56.870 12.984283
56.875 13.00112
56.880 12.390654
56.885 12.38439
56.890 12.119066
56.895 11.820066
56.900 11.573908
56.905 11.602811
56.910 11.310319
56.915 11.891487
56.920 12.108584
56.925 12.403103
56.930 12.897707
56.935 12.82395
56.940 12.78859
56.945 13.174906
56.950 12.666883
56.955 12.468164
56.960 12.515308
56.965 12.187537
56.970 12.112983
56.975 12.529582
56.980 12.842259
56.985 13.033403
56.990 13.241461
56.995 13.272148
57.000 13.491504
57.005 13.610467
57.010 13.550432
57.015 13.567779
57.020 13.612247
57.025 13.361718
57.030 13.098308
57.035 13.092681
57.040 13.196193
57.045 12.992813
57.050 13.180086
57.055 13.311833
57.060 13.144805
57.065 13.461688
57.070 13.161142
57.075 12.733377
57.080 12.625639
57.085 12.054965
57.090 11.712082
57.095 11.955629
57.100 12.061422
57.105 12.049239
57.110 11.737494
57.115 11.325911
57.120 11.867097
57.125 12.067017
57.130 12.108741
57.135 12.328085
57.140 12.440813
57.145 12.526626
57.150 12.66319
57.155 12.354394
57.160 12.262046
57.165 12.254707
57.170 11.769563
57.175 11.926341
57.180 12.363148
57.185 12.897678
57.190 12.812698
57.195 12.967168
57.200 12.928819
57.205 13.287794
57.210 13.450577
57.215 13.289558
57.220 12.988997
57.225 13.254414
57.230 13.327068
57.235 12.897006
57.240 12.997701
57.245 13.567636
57.250 13.826517
57.255 13.696393
57.260 14.111023
57.265 14.472056
57.270 14.65728
57.275 14.311254
57.280 13.522274
57.285 13.07987
57.290 13.057654
57.295 12.792042
57.300 13.166535
57.305 13.571939
57.310 13.608519
57.315 13.859344
57.320 14.381748
57.325 14.625415
57.330 14.250526
57.335 14.149361
57.340 13.980247
57.345 14.153393
57.350 14.554636
57.355 14.816126
57.360 14.420922
57.365 14.574368
57.370 14.333379
57.375 14.125958
57.380 14.143715
57.385 14.519931
57.390 14.793185
57.395 14.845802
57.400 15.162498
57.405 15.279845
57.410 15.407238
57.415 15.379266
57.420 14.439169
57.425 14.006824
57.430 13.83483
57.435 13.396247
57.440 12.966936
57.445 12.620202
57.450 12.862041
57.455 12.778386
57.460 12.866733
57.465 12.881321
57.470 13.246911
57.475 13.788046
57.480 14.048084
57.485 13.664457
57.490 13.831091
57.495 14.13121
57.500 14.413887
57.505 14.140143
57.510 14.243914
57.515 14.511756
57.520 14.996625
57.525 14.847102
57.530 14.258677
57.535 14.214389
57.540 13.925037
57.545 13.543227
57.550 12.982813
57.555 12.950621
57.560 13.808244
57.565 14.409799
57.570 14.37091
57.575 14.493509
57.580 14.376084
57.585 14.747384
57.590 14.855245
57.595 13.905311
57.600 13.432855
57.605 12.999652
57.610 13.157372
57.615 13.675711
57.620 13.794691
57.625 13.425019
57.630 13.482693
57.635 13.954647
57.640 14.492903
57.645 14.629006
57.650 14.762816
57.655 14.869693
57.660 14.838455
57.665 14.904809
57.670 15.229767
57.675 15.291862
57.680 14.931705
57.685 14.268648
57.690 14.013899
57.695 13.801033
57.700 13.598156
57.705 13.479035
57.710 13.53655
57.715 13.732533
57.720 13.531509
57.725 13.741114
57.730 14.161514
57.735 14.41993
57.740 14.223727
57.745 13.940458
57.750 13.913322
57.755 13.685472
57.760 13.628459
57.765 13.858895
57.770 13.586544
57.775 13.543315
57.780 13.719726
57.785 14.241712
57.790 14.532495
57.795 14.452692
57.800 14.425668
57.805 14.751067
57.810 15.142883
57.815 15.361167
57.820 15.094018
57.825 15.621197
57.830 15.62128
57.835 15.469776
57.840 15.154496
57.845 14.602955
57.850 14.050543
57.855 14.039621
57.860 13.637786
57.865 13.689835
57.870 13.439702
57.875 13.35709
57.880 13.983306
57.885 14.543974
57.890 14.965007
57.895 15.304406
57.900 15.677115
57.905 15.798163
57.910 15.467362
57.915 15.009976
57.920 14.634843
57.925 14.20173
57.930 13.909723
57.935 13.736344
57.940 13.845137
57.945 14.08532
57.950 13.931919
57.955 13.717238
57.960 13.709007
57.965 13.650068
57.970 13.510382
57.975 13.53604
57.980 13.264676
57.985 13.897078
57.990 14.412517
57.995 14.536077
58.000 14.811804
58.005 15.282727
58.010 15.36272
58.015 15.582003
58.020 15.271555
58.025 14.612016
58.030 14.439267
58.035 14.377355
58.040 14.164086
58.045 14.322283
58.050 14.331759
58.055 15.37918
58.060 15.934366
58.065 16.401972
58.070 16.537025
58.075 17.224882
58.080 17.971231
58.085 17.759876
58.090 17.068899
58.095 16.896013
58.100 17.045214
58.105 17.035555
58.110 16.779438
58.115 16.51931
58.120 16.35465
58.125 16.55232
58.130 16.90974
58.135 16.647589
58.140 17.105072
58.145 16.953163
58.150 16.958441
58.155 17.436609
58.160 16.802755
58.165 16.681738
58.170 16.956997
58.175 16.524818
58.180 16.420929
58.185 16.605951
58.190 16.550089
58.195 16.786873
58.200 16.801434
58.205 16.43614
58.210 16.43672
58.215 16.552782
58.220 16.454519
58.225 16.938475
58.230 17.653496
58.235 17.935347
58.240 17.949129
58.245 18.092484
58.250 18.126921
58.255 17.649057
58.260 17.327654
58.265 16.827629
58.270 17.183754
58.275 17.3295
58.280 17.112787
58.285 17.908632
58.290 18.576366
58.295 19.369284
58.300 19.840929
58.305 19.629585
58.310 20.750195
58.315 21.556803
58.320 21.04575
58.325 21.018053
58.330 20.88896
58.335 21.686266
58.340 22.677994
58.345 22.610922
58.350 22.382631
58.355 23.469887
58.360 24.058439
58.365 23.995146
58.370 23.705492
58.375 23.831383
58.380 24.446184
58.385 24.934984
58.390 24.396942
58.395 23.790958
58.400 23.565622
58.405 23.407257
58.410 22.943844
58.415 22.971437
58.420 23.107996
58.425 23.295919
58.430 24.066669
58.435 24.715725
58.440 24.631342
58.445 24.969398
58.450 25.27104
58.455 25.748045
58.460 25.436451
58.465 25.412138
58.470 25.780046
58.475 25.97216
58.480 26.261921
58.485 26.417974
58.490 26.782394
58.495 27.479834
58.500 27.70318
58.505 27.743404
58.510 27.12816
58.515 26.427147
58.520 25.9268
58.525 25.639353
58.530 25.529982
58.535 25.116739
58.540 24.532907
58.545 25.064796
58.550 25.327034
58.555 24.961208
58.560 25.352076
58.565 25.676092
58.570 26.100994
58.575 26.586411
58.580 26.80307
58.585 27.240219
58.590 27.481062
58.595 27.167057
58.600 27.074877
58.605 27.703415
58.610 27.971462
58.615 27.422958
58.620 26.969158
58.625 26.615578
58.630 26.978148
58.635 26.093304
58.640 25.009134
58.645 24.588245
58.650 24.657665
58.655 25.103539
58.660 25.595354
58.665 25.987467
58.670 25.980957
58.675 25.817919
58.680 25.366692
58.685 25.057991
58.690 24.640095
58.695 24.993738
58.700 24.47821
58.705 24.694691
58.710 23.95443
58.715 24.13648
58.720 24.399464
58.725 23.992359
58.730 23.149317
58.735 22.881111
58.740 23.262857
58.745 23.295429
58.750 22.911188
58.755 22.6612
58.760 22.931768
58.765 21.88805
58.770 21.761864
58.775 21.725382
58.780 22.069361
58.785 22.180584
58.790 22.036093
58.795 21.856874
58.800 21.882151
58.805 21.382963
58.810 21.000223
58.815 21.144604
58.820 21.049076
58.825 21.247839
58.830 21.104847
58.835 20.663971
58.840 19.872477
58.845 19.784086
58.850 19.738796
58.855 19.687235
58.860 19.330597
58.865 19.389278
58.870 19.946302
58.875 20.069586
58.880 19.858952
58.885 20.059986
58.890 20.61779
58.895 20.091063
58.900 19.878483
58.905 19.683073
58.910 19.800962
58.915 20.038521
58.920 18.964651
58.925 17.994482
58.930 18.350864
58.935 18.278948
58.940 18.538218
58.945 18.58217
58.950 18.259777
58.955 18.350462
58.960 18.252882
58.965 18.054731
58.970 17.894619
58.975 17.355759
58.980 17.183802
58.985 17.541166
58.990 17.461325
58.995 17.717295
59.000 17.557817
59.005 17.455738
59.010 17.675289
59.015 17.749277
59.020 17.048294
59.025 17.06337
59.030 16.71656
59.035 16.937868
59.040 17.340595
59.045 16.950489
59.050 17.167356
59.055 17.512238
59.060 17.386339
59.065 16.910608
59.070 16.91943
59.075 16.492544
59.080 16.595963
59.085 15.857199
59.090 15.883737
59.095 16.256054
59.100 16.67679
59.105 16.255308
59.110 16.08202
59.115 15.505792
59.120 15.318239
59.125 14.986261
59.130 14.70225
59.135 14.67607
59.140 14.85653
59.145 14.920597
59.150 14.961826
59.155 15.023558
59.160 15.105187
59.165 14.953145
59.170 14.893723
59.175 14.675503
59.180 14.514185
59.185 14.580788
59.190 14.664728
59.195 14.300701
59.200 14.427089
59.205 14.331908
59.210 14.694263
59.215 14.601192
59.220 14.404655
59.225 14.515204
59.230 14.835618
59.235 14.879348
59.240 14.677605
59.245 14.776716
59.250 15.431001
59.255 15.390476
59.260 15.264675
59.265 14.881533
59.270 14.514288
59.275 14.289818
59.280 13.988818
59.285 13.754851
59.290 13.912174
59.295 14.354884
59.300 14.738141
59.305 15.180597
59.310 15.569908
59.315 15.918736
59.320 16.011089
59.325 16.035347
59.330 16.214664
59.335 16.398621
59.340 16.327217
59.345 16.637968
59.350 16.1467
59.355 16.35078
59.360 16.031441
59.365 15.83452
59.370 15.439153
59.375 15.185077
59.380 14.951483
59.385 15.385445
59.390 15.524748
59.395 15.93966
59.400 15.661032
59.405 15.489222
59.410 15.258204
59.415 15.430099
59.420 14.979158
59.425 14.691562
59.430 14.200373
59.435 14.126659
59.440 14.387131
59.445 14.682479
59.450 14.384786
59.455 14.419127
59.460 14.676686
59.465 15.099637
59.470 15.2769
59.475 15.713452
59.480 16.193962
59.485 16.077063
59.490 16.306816
59.495 15.977114
59.500 15.849754
59.505 15.867257
59.510 15.441708
59.515 14.539291
59.520 14.763054
59.525 14.314339
59.530 14.371567
59.535 13.627665
59.540 13.215553
59.545 13.014673
59.550 13.452571
59.555 13.582224
59.560 13.803565
59.565 13.936926
59.570 14.610627
59.575 15.025105
59.580 15.081947
59.585 15.315398
59.590 15.610892
59.595 15.600587
59.600 14.989423
59.605 14.770597
59.610 14.64945
59.615 15.147586
59.620 15.264966
59.625 15.21448
59.630 15.555194
59.635 16.279411
59.640 16.580439
59.645 16.350494
59.650 15.929995
59.655 15.454307
59.660 15.249136
59.665 15.106131
59.670 15.158581
59.675 14.869984
59.680 15.00714
59.685 15.019517
59.690 14.858346
59.695 14.627083
59.700 14.949985
59.705 14.484361
59.710 14.543206
59.715 14.226684
59.720 14.520493
59.725 14.512941
59.730 14.585939
59.735 14.173435
59.740 14.804408
59.745 14.867707
59.750 15.546662
59.755 14.980902
59.760 14.963752
59.765 15.588188
59.770 15.602086
59.775 15.078583
59.780 15.02993
59.785 14.846318
59.790 15.353543
59.795 15.365347
59.800 14.718135
59.805 14.536489
59.810 14.707716
59.815 14.755176
59.820 15.119905
59.825 15.226454
59.830 15.086889
59.835 15.292071
59.840 15.033948
59.845 15.020745
59.850 15.05243
59.855 14.697166
59.860 14.604424
59.865 14.727039
59.870 15.43075
59.875 16.080442
59.880 16.261499
59.885 16.153938
59.890 16.407131
59.895 16.223532
59.900 16.077564
59.905 15.516485
59.910 15.613104
59.915 15.794191
59.920 15.64758
59.925 15.210372
59.930 15.499242
59.935 15.880858
59.940 15.722864
59.945 15.018095
59.950 14.952065
59.955 14.770862
59.960 15.021931
59.965 15.00908
59.970 15.002291
59.975 15.109739
59.980 15.182045
59.985 15.300061
59.990 15.894088
59.995 15.866947
60.000 16.042973
60.005 15.655355
60.010 15.988747
60.015 16.505585
60.020 16.205978
60.025 15.694673
60.030 15.60342
60.035 14.908532
60.040 15.012884
60.045 15.548098
60.050 15.541765
60.055 15.677183
60.060 16.055119
60.065 16.191353
60.070 16.446753
60.075 16.080605
60.080 15.562271
60.085 15.963975
60.090 15.703802
60.095 15.82107
60.100 15.723859
60.105 15.903584
60.110 16.190748
60.115 15.710014
60.120 14.810537
60.125 14.699369
60.130 14.428422
60.135 14.095479
60.140 14.036691
60.145 13.697591
60.150 13.815554
60.155 14.205025
60.160 14.332847
60.165 14.261885
60.170 14.853304
60.175 14.885142
60.180 14.814294
60.185 14.718348
60.190 15.135545
60.195 15.53441
60.200 15.706406
60.205 15.535934
60.210 15.62069
60.215 15.635765
60.220 15.517092
60.225 15.10116
60.230 15.120785
60.235 15.028992
60.240 15.320627
60.245 15.439035
60.250 15.854638
60.255 16.045696
60.260 16.088768
60.265 15.278625
60.270 15.099817
60.275 14.60418
60.280 14.598148
60.285 14.491629
60.290 14.703123
60.295 14.507897
60.300 14.670742
60.305 14.859323
60.310 15.178527
60.315 15.36056
60.320 15.532183
60.325 15.312019
60.330 15.30273
60.335 15.512186
60.340 15.019291
60.345 14.164573
60.350 13.759506
60.355 13.539501
60.360 13.545902
60.365 13.569481
60.370 13.39918
60.375 13.743518
60.380 14.664267
60.385 15.235655
60.390 15.366465
60.395 16.199867
60.400 16.128857
60.405 16.541534
60.410 16.509624
60.415 16.316862
60.420 16.55854
60.425 16.533226
60.430 15.591687
60.435 15.479223
60.440 14.887799
60.445 14.735788
60.450 14.751228
60.455 13.927085
60.460 13.545827
60.465 13.592276
60.470 13.821959
60.475 14.417439
60.480 14.234172
60.485 13.996383
60.490 14.775611
60.495 15.041086
60.500 15.034657
60.505 15.085828
60.510 14.916894
60.515 15.109484
60.520 15.06418
60.525 14.290468
60.530 14.38341
60.535 14.561372
60.540 14.777415
60.545 14.628753
60.550 14.664084
60.555 14.727875
60.560 15.182936
60.565 14.945156
60.570 15.187166
60.575 15.137517
60.580 15.393732
60.585 15.652622
60.590 15.681967
60.595 15.764656
60.600 16.161581
60.605 16.400646
60.610 16.279982
60.615 16.684799
60.620 16.655685
60.625 16.497768
60.630 16.180584
60.635 15.571754
60.640 15.005024
60.645 15.194773
60.650 15.366662
60.655 15.274546
60.660 15.401454
60.665 15.475395
60.670 15.872297
60.675 16.426199
60.680 16.156111
60.685 15.692016
60.690 15.880405
60.695 15.926312
60.700 15.697936
60.705 15.93256
60.710 15.565078
60.715 15.41194
60.720 15.162358
60.725 14.921276
60.730 15.411145
60.735 15.82649
60.740 15.523883
60.745 15.499014
60.750 15.81217
60.755 16.008682
60.760 16.041136
60.765 15.606371
60.770 15.361551
60.775 15.134347
60.780 15.177012
60.785 14.850921
60.790 14.583793
60.795 14.351613
60.800 14.216812
60.805 14.63886
60.810 15.078485
60.815 15.224984
60.820 15.772101
60.825 16.016022
60.830 15.919656
60.835 15.961871
60.840 15.654468
60.845 15.093114
60.850 14.877718
60.855 14.802869
60.860 15.003172
60.865 15.476315
60.870 15.062551
60.875 14.859756
60.880 14.925273
60.885 14.628064
60.890 14.407517
60.895 14.716785
60.900 14.67558
60.905 14.599044
60.910 14.754477
60.915 15.327827
60.920 15.873297
60.925 15.780706
60.930 15.469811
60.935 14.749773
60.940 15.164344
60.945 15.071709
60.950 14.385693
60.955 14.353809
60.960 14.007348
60.965 13.840608
60.970 14.52264
60.975 14.882044
60.980 14.90862
60.985 14.806355
60.990 14.426748
60.995 14.47126
61.000 14.52156
61.005 14.187912
61.010 13.699956
61.015 13.895857
61.020 14.390668
61.025 15.022357
61.030 15.335869
61.035 15.426692
61.040 15.732167
61.045 15.647921
61.050 16.070375
61.055 16.035049
61.060 15.226693
61.065 15.543618
61.070 16.278753
61.075 16.48094
61.080 16.750111
61.085 16.094011
61.090 16.194998
61.095 16.540886
61.100 16.043137
61.105 15.275362
61.110 15.126529
61.115 15.301831
61.120 15.144866
61.125 14.790966
61.130 14.348414
61.135 14.310674
61.140 14.233308
61.145 14.162107
61.150 13.964142
61.155 13.906374
61.160 13.717078
61.165 13.941395
61.170 13.711946
61.175 13.399447
61.180 13.676866
61.185 13.596022
61.190 13.797002
61.195 14.309109
61.200 14.361903
61.205 14.805261
61.210 15.208821
61.215 15.1211
61.220 15.443731
61.225 15.942367
61.230 16.364794
61.235 16.550072
61.240 16.68358
61.245 16.32457
61.250 16.569662
61.255 16.988916
61.260 16.808697
61.265 16.632093
61.270 16.821043
61.275 16.916122
61.280 16.939787
61.285 16.853092
61.290 16.800638
61.295 17.541132
61.300 17.795023
61.305 17.691032
61.310 17.537506
61.315 17.9258
61.320 17.694992
61.325 17.550478
61.330 16.740925
61.335 16.418402
61.340 15.945351
61.345 15.781423
61.350 15.658947
61.355 15.082585
61.360 14.536798
61.365 14.373431
61.370 14.320852
61.375 14.772253
61.380 15.139803
61.385 15.452078
61.390 15.850674
61.395 16.221884
61.400 16.555412
61.405 16.885002
61.410 17.123455
61.415 17.042303
61.420 16.896601
61.425 16.471889
61.430 16.276754
61.435 16.188177
61.440 15.777091
61.445 15.449598
61.450 15.423585
61.455 15.689694
61.460 16.274176
61.465 16.373619
61.470 16.422995
61.475 17.012444
61.480 17.169552
61.485 17.197557
61.490 16.749678
61.495 16.49675
61.500 16.193867
61.505 16.414915
61.510 16.155479
61.515 15.761199
61.520 15.532121
61.525 15.350336
61.530 15.357888
61.535 15.401963
61.540 15.424385
61.545 16.074968
61.550 16.555267
61.555 16.856213
61.560 17.006674
61.565 17.041807
61.570 17.168232
61.575 16.705883
61.580 16.398491
61.585 16.379536
61.590 16.443953
61.595 16.092686
61.600 16.099157
61.605 16.448181
61.610 16.692629
61.615 15.9343
61.620 15.71935
61.625 15.937305
61.630 16.16436
61.635 16.333704
61.640 15.976467
61.645 15.938146
61.650 16.469488
61.655 16.322931
61.660 16.27684
61.665 16.326931
61.670 16.294388
61.675 16.714281
61.680 16.328814
61.685 16.28706
61.690 16.303093
61.695 15.791424
61.700 15.60569
61.705 15.693246
61.710 15.673178
61.715 16.112251
61.720 16.154463
61.725 16.389799
61.730 16.906944
61.735 17.30298
61.740 16.790979
61.745 16.535761
61.750 15.963464
61.755 16.090931
61.760 16.29171
61.765 16.193289
61.770 15.841666
61.775 15.798159
61.780 15.7024
61.785 15.802279
61.790 16.043428
61.795 15.504439
61.800 15.725685
61.805 16.508911
61.810 16.695309
61.815 17.254253
61.820 17.991941
61.825 17.636772
61.830 18.233332
61.835 17.698059
61.840 16.832855
61.845 17.011457
61.850 16.770971
61.855 16.005304
61.860 15.533987
61.865 15.232821
61.870 15.664529
61.875 16.247435
61.880 16.553833
61.885 16.822689
61.890 16.96191
61.895 17.745514
61.900 17.930317
61.905 17.780584
61.910 17.282347
61.915 16.533949
61.920 16.307573
61.925 17.003216
61.930 16.671997
61.935 16.481632
61.940 16.82753
61.945 17.553913
61.950 17.732588
61.955 17.385729
61.960 16.672443
61.965 16.489798
61.970 16.128094
61.975 15.792677
61.980 15.688775
61.985 15.556745
61.990 15.501025
61.995 15.45342
62.000 15.977715
62.005 16.731855
62.010 17.253582
62.015 17.074219
62.020 17.311005
62.025 17.50606
62.030 17.628983
62.035 17.219328
62.040 16.500172
62.045 15.822262
62.050 15.466927
62.055 15.226091
62.060 15.085512
62.065 14.99251
62.070 14.684524
62.075 14.608149
62.080 14.703815
62.085 14.406114
62.090 14.622706
62.095 14.593117
62.100 14.69459
62.105 14.996244
62.110 15.703099
62.115 15.587931
62.120 16.575787
62.125 17.050276
62.130 17.409304
62.135 17.101759
62.140 17.104816
62.145 16.590532
62.150 17.209452
62.155 17.164509
62.160 17.294199
62.165 17.456799
62.170 18.439413
62.175 18.341406
62.180 18.287367
62.185 18.146137
62.190 17.76502
62.195 17.090485
62.200 16.878529
62.205 16.14077
62.210 16.303669
62.215 16.265963
62.220 15.720757
62.225 15.80126
62.230 15.73914
62.235 16.502113
62.240 16.492647
62.245 16.351389
62.250 16.558281
62.255 16.447811
62.260 16.61475
62.265 16.725952
62.270 16.133276
62.275 16.023659
62.280 16.350779
62.285 16.765564
62.290 16.988916
62.295 16.723372
62.300 16.221676
62.305 15.368917
62.310 15.147505
62.315 14.985578
62.320 14.418275
62.325 14.179815
62.330 14.627609
62.335 14.995491
62.340 15.121847
62.345 15.45499
62.350 15.179444
62.355 15.213822
62.360 15.135564
62.365 14.713934
62.370 14.758966
62.375 15.340085
62.380 15.295909
62.385 15.471684
62.390 15.788055
62.395 16.195623
62.400 16.483347
62.405 16.768312
62.410 17.588184
62.415 18.239439
62.420 18.249012
62.425 18.18103
62.430 18.290846
62.435 18.277632
62.440 18.101053
62.445 18.051655
62.450 17.777805
62.455 18.097261
62.460 19.062696
62.465 19.448654
62.470 19.302124
62.475 19.266747
62.480 18.325109
62.485 18.271774
62.490 17.628187
62.495 17.145906
62.500 16.417797
62.505 16.34029
62.510 16.224409
62.515 16.542097
62.520 16.378912
62.525 16.556898
62.530 16.086689
62.535 15.815409
62.540 15.675432
62.545 15.794432
62.550 15.646975
62.555 15.918086
62.560 15.547458
62.565 15.618529
62.570 16.046782
62.575 15.976776
62.580 15.675632
62.585 15.958663
62.590 16.020945
62.595 16.469822
62.600 16.739159
62.605 16.908518
62.610 16.760927
62.615 16.533442
62.620 16.422283
62.625 16.400717
62.630 16.326601
62.635 16.307114
62.640 16.369473
62.645 16.441889
62.650 16.342773
62.655 16.160965
62.660 16.398134
62.665 16.557699
62.670 16.306696
62.675 16.71843
62.680 17.306311
62.685 17.948244
62.690 18.477644
62.695 18.687143
62.700 18.458717
62.705 18.65287
62.710 18.651968
62.715 18.485136
62.720 18.18928
62.725 17.751686
62.730 17.660505
62.735 17.228209
62.740 17.159351
62.745 16.989998
62.750 17.253551
62.755 17.10104
62.760 16.805838
62.765 16.227346
62.770 16.843863
62.775 17.320957
62.780 17.338579
62.785 16.738634
62.790 17.076185
62.795 16.964632
62.800 17.438755
62.805 16.685751
62.810 16.127411
62.815 15.843562
62.820 16.380896
62.825 16.559612
62.830 16.395584
62.835 16.365391
62.840 16.457447
62.845 15.999413
62.850 16.411461
62.855 16.574457
62.860 16.399855
62.865 16.763918
62.870 16.331757
62.875 16.655037
62.880 16.771219
62.885 15.864978
62.890 15.612303
62.895 15.537633
62.900 15.722367
62.905 15.633356
62.910 15.237225
62.915 15.295074
62.920 15.596265
62.925 15.139499
62.930 14.949434
62.935 14.772151
62.940 15.085876
62.945 15.665184
62.950 15.867855
62.955 16.040737
62.960 16.235352
62.965 16.162254
62.970 16.210924
62.975 16.126331
62.980 15.87555
62.985 16.328039
62.990 16.103012
62.995 16.39468
63.000 16.97858
63.005 16.801712
63.010 17.226381
63.015 17.451887
63.020 16.654364
63.025 16.42713
63.030 16.043013
63.035 16.070709
63.040 16.16675
63.045 15.563726
63.050 15.428107
63.055 15.848839
63.060 16.368191
63.065 16.328722
63.070 16.655739
63.075 17.253593
63.080 17.705576
63.085 17.852959
63.090 17.594872
63.095 17.295843
63.100 17.215593
63.105 16.951288
63.110 17.125408
63.115 17.161556
63.120 17.329954
63.125 17.425152
63.130 18.107599
63.135 18.652889
63.140 19.081575
63.145 18.861624
63.150 18.893957
63.155 18.75408
63.160 18.480267
63.165 18.680443
63.170 18.967201
63.175 17.978292
63.180 17.526701
63.185 17.881693
63.190 18.238852
63.195 17.964151
63.200 17.459908
63.205 16.828999
63.210 17.297426
63.215 17.310902
63.220 16.482544
63.225 16.056385
63.230 16.76405
63.235 16.542202
63.240 16.384024
63.245 16.118916
63.250 16.350039
63.255 16.755117
63.260 16.607109
63.265 16.543203
63.270 16.809593
63.275 17.102062
63.280 17.606287
63.285 17.709803
63.290 17.517096
63.295 17.627638
63.300 17.296505
63.305 17.526915
63.310 17.773214
63.315 17.664333
63.320 17.81447
63.325 18.389328
63.330 18.437157
63.335 18.611763
63.340 18.242617
63.345 17.900837
63.350 17.500477
63.355 17.036646
63.360 16.302088
63.365 16.09058
63.370 16.236818
63.375 16.464508
63.380 16.519144
63.385 16.091589
63.390 16.089756
63.395 16.96241
63.400 17.097517
63.405 16.938562
63.410 16.513077
63.415 16.597288
63.420 17.106604
63.425 17.556292
63.430 17.786531
63.435 18.527523
63.440 19.618927
63.445 20.177717
63.450 20.478712
63.455 20.923338
63.460 21.488146
63.465 20.840954
63.470 20.395874
63.475 19.778078
63.480 19.80077
63.485 19.994015
63.490 19.827518
63.495 19.275158
63.500 19.709166
63.505 19.530436
63.510 19.155025
63.515 18.851711
63.520 18.404894
63.525 18.47197
63.530 18.733883
63.535 18.74242
63.540 18.631622
63.545 18.837454
63.550 18.396708
63.555 18.478102
63.560 18.116434
63.565 17.983965
63.570 18.258692
63.575 18.819273
63.580 19.077744
63.585 19.699718
63.590 19.626074
63.595 19.660872
63.600 19.438955
63.605 19.081812
63.610 19.063814
63.615 19.137899
63.620 19.054672
63.625 19.420931
63.630 19.538914
63.635 20.207428
63.640 20.547857
63.645 19.988985
63.650 19.808277
63.655 19.342335
63.660 19.098661
63.665 19.297796
63.670 19.179035
63.675 19.014482
63.680 19.505779
63.685 19.862141
63.690 20.889788
63.695 21.166767
63.700 20.456707
63.705 20.229084
63.710 20.499981
63.715 20.708775
63.720 20.602345
63.725 20.179733
63.730 20.356356
63.735 20.858692
63.740 21.352688
63.745 21.009899
63.750 20.308445
63.755 20.218773
63.760 20.093561
63.765 20.183512
63.770 20.255484
63.775 20.15506
63.780 20.879921
63.785 22.053888
63.790 22.093935
63.795 22.274628
63.800 22.206635
63.805 22.302563
63.810 21.91757
63.815 21.535755
63.820 20.764883
63.825 21.227016
63.830 21.103033
63.835 21.00955
63.840 21.961832
63.845 22.411121
63.850 22.143579
63.855 21.975883
63.860 21.579309
63.865 22.205221
63.870 22.536903
63.875 22.145935
63.880 22.992695
63.885 23.815733
63.890 24.446123
63.895 24.89052
63.900 24.562445
63.905 24.644955
63.910 24.592632
63.915 24.513531
63.920 24.799416
63.925 25.286692
63.930 25.244844
63.935 25.389133
63.940 26.309313
63.945 26.690836
63.950 26.899675
63.955 26.498739
63.960 26.243546
63.965 26.312155
63.970 26.44607
63.975 25.773966
63.980 26.034529
63.985 26.686964
63.990 27.433996
63.995 28.600784
64.000 29.594164
64.005 30.363293
64.010 31.573334
64.015 32.447174
64.020 32.648087
64.025 33.109787
64.030 32.095867
64.035 31.765265
64.040 31.360308
64.045 31.495113
64.050 31.617573
64.055 31.531685
64.060 31.3564
64.065 31.923512
64.070 32.466679
64.075 33.019604
64.080 33.111252
64.085 33.883678
64.090 34.919392
64.095 35.412083
64.100 35.964901
64.105 36.083954
64.110 36.297085
64.115 37.059494
64.120 36.985394
64.125 37.003139
64.130 37.089371
64.135 36.586899
64.140 37.020081
64.145 36.807899
64.150 35.524002
64.155 35.240479
64.160 34.578224
64.165 35.387867
64.170 36.186192
64.175 36.056358
64.180 35.811951
64.185 36.982204
64.190 37.030792
64.195 37.045727
64.200 36.445995
64.205 35.892143
64.210 35.179516
64.215 35.258995
64.220 34.13316
64.225 33.994106
64.230 33.340351
64.235 33.536205
64.240 34.150383
64.245 35.639988
64.250 36.187305
64.255 36.132233
64.260 36.203011
64.265 36.604588
64.270 36.364037
64.275 36.105854
64.280 34.809483
64.285 34.224628
64.290 34.566566
64.295 34.27446
64.300 34.154079
64.305 33.937172
64.310 33.471218
64.315 33.250771
64.320 32.824406
64.325 32.798557
64.330 33.517437
64.335 33.057533
64.340 32.818413
64.345 32.847179
64.350 33.00872
64.355 33.012451
64.360 32.440773
64.365 31.784395
64.370 31.129286
64.375 31.012398
64.380 30.590075
64.385 30.427856
64.390 30.101044
64.395 29.175024
64.400 28.956955
64.405 28.916573
64.410 28.880695
64.415 28.639193
64.420 28.903521
64.425 29.429272
64.430 29.756346
64.435 29.590431
64.440 29.921593
64.445 30.136017
64.450 29.751324
64.455 29.554058
64.460 28.768326
64.465 27.879116
64.470 27.158005
64.475 26.382767
64.480 25.417101
64.485 25.155285
64.490 25.849915
64.495 26.489037
64.500 26.104877
64.505 25.898558
64.510 26.011246
64.515 25.978764
64.520 25.8925
64.525 24.319027
64.530 23.975775
64.535 24.400684
64.540 24.264652
64.545 24.157654
64.550 24.606747
64.555 24.649584
64.560 24.650681
64.565 23.575781
64.570 22.765432
64.575 22.746058
64.580 22.770687
64.585 22.354481
64.590 22.349751
64.595 22.998543
64.600 22.98695
64.605 23.092413
64.610 22.717043
64.615 22.37928
64.620 22.664532
64.625 22.578369
64.630 21.93264
64.635 22.289068
64.640 22.31028
64.645 21.774057
64.650 21.900423
64.655 21.801531
64.660 21.602047
64.665 21.739386
64.670 21.652327
64.675 21.853382
64.680 22.176388
64.685 21.914864
64.690 21.578117
64.695 21.253069
64.700 20.932787
64.705 20.735504
64.710 21.093966
64.715 21.86747
64.720 22.203882
64.725 21.763163
64.730 21.537004
64.735 21.331362
64.740 21.522633
64.745 20.491083
64.750 19.719019
64.755 19.413139
64.760 20.218689
64.765 20.743788
64.770 21.125399
64.775 20.678713
64.780 20.625921
64.785 20.790354
64.790 21.002499
64.795 20.957399
64.800 20.691519
64.805 19.993011
64.810 20.374174
64.815 20.672844
64.820 20.565626
64.825 20.080881
64.830 20.015528
64.835 20.395426
64.840 21.39279
64.845 21.655638
64.850 21.767817
64.855 21.658159
64.860 21.731688
64.865 21.204679
64.870 20.551077
64.875 19.832109
64.880 19.616535
64.885 19.613993
64.890 19.963259
64.895 19.044525
64.900 18.901558
64.905 19.344862
64.910 19.513706
64.915 19.874352
64.920 20.165426
64.925 20.529247
64.930 21.465805
64.935 22.010416
64.940 21.934803
64.945 22.30529
64.950 22.006905
64.955 21.59318
64.960 21.326496
64.965 21.404737
64.970 21.373907
64.975 21.559992
64.980 21.404921
64.985 21.082687
64.990 20.554798
64.995 20.403883
65.000 20.788263
65.005 20.807348
65.010 20.839891
65.015 20.898453
65.020 22.083424
65.025 22.258797
65.030 21.84989
65.035 21.398497
65.040 21.387583
65.045 20.877899
65.050 20.561432
65.055 20.125603
65.060 20.708754
65.065 21.100569
65.070 21.253353
65.075 21.493544
65.080 22.000681
65.085 22.073969
65.090 22.028151
65.095 21.986172
65.100 21.722857
65.105 21.7048
65.110 21.788706
65.115 22.312874
65.120 22.188398
65.125 22.319345
65.130 21.943254
65.135 21.923193
65.140 22.275883
65.145 21.868259
65.150 21.00008
65.155 20.972347
65.160 20.974846
65.165 21.682438
65.170 21.183607
65.175 20.413134
65.180 20.648441
65.185 20.983475
65.190 20.920647
65.195 20.329828
65.200 20.514832
65.205 21.386868
65.210 21.890659
65.215 21.726639
65.220 21.589975
65.225 21.778893
65.230 22.054962
65.235 21.337374
65.240 21.468603
65.245 21.48588
65.250 21.403666
65.255 21.093334
65.260 21.184679
65.265 21.196457
65.270 21.214148
65.275 20.279276
65.280 19.837322
65.285 19.518305
65.290 19.329681
65.295 18.924467
65.300 19.374119
65.305 19.257225
65.310 19.675673
65.315 20.039543
65.320 21.172518
65.325 21.595041
65.330 21.383001
65.335 20.958567
65.340 21.067879
65.345 20.467562
65.350 20.139141
65.355 19.236414
65.360 19.305271
65.365 19.528566
65.370 19.565968
65.375 19.599941
65.380 19.999777
65.385 20.311523
65.390 20.494545
65.395 20.144325
65.400 19.85438
65.405 19.895645
65.410 19.867008
65.415 19.941961
65.420 20.500561
65.425 20.947359
65.430 21.296228
65.435 21.881865
65.440 22.46711
65.445 23.785877
65.450 23.858927
65.455 23.464533
65.460 23.903214
65.465 23.891294
65.470 23.610985
65.475 23.044552
65.480 22.799036
65.485 23.03314
65.490 23.601215
65.495 23.881613
65.500 23.538696
65.505 23.813181
65.510 24.493935
65.515 24.687643
65.520 24.867088
65.525 24.345497
65.530 24.090008
65.535 24.569117
65.540 24.474476
65.545 24.547884
65.550 24.20981
65.555 24.177849
65.560 24.460083
65.565 25.074963
65.570 25.90402
65.575 26.335518
65.580 26.793673
65.585 27.092581
65.590 27.608763
65.595 27.94722
65.600 28.698139
65.605 29.279671
65.610 29.283005
65.615 30.192648
65.620 31.11191
65.625 31.355135
65.630 30.907146
65.635 30.121283
65.640 30.166142
65.645 30.621864
65.650 30.306828
65.655 30.541601
65.660 30.698977
65.665 31.529026
65.670 31.990713
65.675 31.73982
65.680 32.527519
65.685 33.220932
65.690 33.275547
65.695 33.877541
65.700 34.20549
65.705 34.225075
65.710 34.50296
65.715 34.150318
65.720 34.162907
65.725 33.906971
65.730 34.201939
65.735 34.130009
65.740 34.625961
65.745 34.361889
65.750 33.649078
65.755 33.62542
65.760 34.355637
65.765 34.54335
65.770 34.397202
65.775 34.721668
65.780 35.619514
65.785 36.213177
65.790 35.937431
65.795 35.631275
65.800 36.368961
65.805 36.368252
65.810 35.607674
65.815 35.942028
65.820 37.171646
65.825 37.18597
65.830 36.681301
65.835 36.020969
65.840 36.289646
65.845 36.880196
65.850 36.550877
65.855 36.603458
65.860 37.206013
65.865 37.610966
65.870 37.326416
65.875 37.115868
65.880 37.389519
65.885 37.806385
65.890 37.061737
65.895 36.397964
65.900 36.059772
65.905 36.131645
65.910 36.278194
65.915 35.825863
65.920 35.660458
65.925 37.181679
65.930 37.777214
65.935 38.132286
65.940 38.398129
65.945 39.396713
65.950 39.288544
65.955 38.221443
65.960 37.174969
65.965 37.32008
65.970 37.304325
65.975 37.050167
65.980 35.365929
65.985 35.34285
65.990 35.632942
65.995 35.315491
66.000 35.346981
66.005 35.349804
66.010 35.37162
66.015 36.530369
66.020 36.363914
66.025 36.135117
66.030 36.675766
66.035 36.821159
66.040 37.040722
66.045 37.468605
66.050 36.426342
66.055 36.658092
66.060 36.658661
66.065 36.253857
66.070 35.19804
66.075 35.031425
66.080 36.053707
66.085 37.273956
66.090 37.136993
66.095 37.365013
66.100 38.077065
66.105 38.436813
66.110 37.598476
66.115 35.677193
66.120 34.823997
66.125 34.392418
66.130 34.029289
66.135 33.301792
66.140 33.111164
66.145 33.124825
66.150 33.398483
66.155 33.637348
66.160 33.895847
66.165 33.342537
66.170 32.867489
66.175 33.000591
66.180 33.257938
66.185 33.127857
66.190 33.200874
66.195 33.293987
66.200 33.647457
66.205 33.751259
66.210 33.701294
66.215 32.567993
66.220 32.202122
66.225 31.478334
66.230 31.037325
66.235 31.125185
66.240 31.003944
66.245 30.740477
66.250 30.988258
66.255 31.137896
66.260 31.468517
66.265 31.636209
66.270 31.55932
66.275 31.535524
66.280 31.389112
66.285 31.315123
66.290 30.659513
66.295 30.278126
66.300 29.846889
66.305 28.705549
66.310 27.944826
66.315 27.890249
66.320 28.201885
66.325 28.244387
66.330 27.811867
66.335 27.133886
66.340 26.730854
66.345 27.065573
66.350 26.924967
66.355 26.309008
66.360 25.878496
66.365 25.157257
66.370 25.020372
66.375 24.676062
66.380 23.63834
66.385 23.739491
66.390 24.070602
66.395 24.306398
66.400 24.137047
66.405 23.816805
66.410 24.07523
66.415 24.383448
66.420 24.217518
66.425 23.633902
66.430 23.611708
66.435 24.103933
66.440 24.861664
66.445 24.718967
66.450 24.057447
66.455 23.445837
66.460 23.243402
66.465 22.868475
66.470 22.422136
66.475 22.156113
66.480 22.243708
66.485 22.256905
66.490 22.973288
66.495 22.843914
66.500 23.010902
66.505 23.249912
66.510 23.219343
66.515 23.374538
66.520 23.135303
66.525 22.438751
66.530 22.584545
66.535 22.803833
66.540 22.87639
66.545 22.760223
66.550 22.716698
66.555 22.419733
66.560 22.455948
66.565 22.521124
66.570 21.953857
66.575 21.562082
66.580 21.03982
66.585 21.294884
66.590 21.819836
66.595 21.886564
66.600 21.778423
66.605 22.184927
66.610 22.428288
66.615 21.868996
66.620 21.597069
66.625 21.476704
66.630 21.107
66.635 20.924063
66.640 20.802729
66.645 20.539351
66.650 20.740688
66.655 20.339771
66.660 20.18079
66.665 20.116386
66.670 20.005262
66.675 19.712751
66.680 19.863319
66.685 19.532574
66.690 19.500202
66.695 19.053335
66.700 18.949455
66.705 18.359352
66.710 18.13932
66.715 18.08569
66.720 18.692493
66.725 19.42177
66.730 19.784889
66.735 19.62146
66.740 20.01894
66.745 19.86718
66.750 19.725384
66.755 18.882351
66.760 17.59803
66.765 17.725651
66.770 18.217728
66.775 18.684271
66.780 19.323053
66.785 19.182957
66.790 19.574968
66.795 19.887625
66.800 19.956032
66.805 19.658152
66.810 18.747437
66.815 17.776697
66.820 17.569719
66.825 17.253296
66.830 16.539408
66.835 16.051676
66.840 15.932696
66.845 16.634859
66.850 17.512424
66.855 17.887812
66.860 18.229883
66.865 18.390491
66.870 18.459902
66.875 18.272099
66.880 17.929554
66.885 17.696974
66.890 17.177994
66.895 16.605482
66.900 16.774412
66.905 16.936089
66.910 16.969223
66.915 17.026381
66.920 16.537504
66.925 16.410789
66.930 17.414482
66.935 17.185787
66.940 16.962866
66.945 16.893412
66.950 17.054752
66.955 17.314356
66.960 17.184427
66.965 17.498083
66.970 18.004663
66.975 18.2663
66.980 18.398951
66.985 18.561434
66.990 18.551542
66.995 18.80295
67.000 18.413811
67.005 18.652252
67.010 19.441999
67.015 19.524221
67.020 19.140865
67.025 19.48838
67.030 19.484999
67.035 19.361345
67.040 18.844154
67.045 18.145817
67.050 17.91724
67.055 17.727179
67.060 17.549721
67.065 16.991219
67.070 17.253468
67.075 17.636843
67.080 17.708521
67.085 17.763329
67.090 18.580154
67.095 18.749687
67.100 18.830061
67.105 17.957466
67.110 17.962872
67.115 18.059633
67.120 18.389706
67.125 18.254131
67.130 18.33717
67.135 18.878855
67.140 19.74012
67.145 19.500784
67.150 19.755909
67.155 20.033041
67.160 20.254509
67.165 20.324883
67.170 20.386305
67.175 19.728712
67.180 19.443893
67.185 19.557812
67.190 18.953157
67.195 18.522102
67.200 18.45829
67.205 18.204006
67.210 18.520063
67.215 18.365776
67.220 17.747496
67.225 17.881924
67.230 18.222425
67.235 18.406731
67.240 18.262608
67.245 17.271107
67.250 17.127125
67.255 16.864717
67.260 16.976013
67.265 16.874102
67.270 16.339941
67.275 16.063496
67.280 16.71097
67.285 17.431379
67.290 18.009146
67.295 17.952971
67.300 17.869417
67.305 17.651436
67.310 17.298393
67.315 17.34271
67.320 17.262474
67.325 17.524134
67.330 17.936813
67.335 18.449293
67.340 19.304087
67.345 20.022732
67.350 20.033663
67.355 19.357048
67.360 18.707165
67.365 18.386961
67.370 18.317274
67.375 18.26322
67.380 18.534208
67.385 18.644043
67.390 18.670763
67.395 19.028206
67.400 19.089712
67.405 19.228443
67.410 19.18185
67.415 18.790058
67.420 18.852365
67.425 18.808987
67.430 18.14481
67.435 17.521118
67.440 16.894482
67.445 17.339088
67.450 17.79752
67.455 17.924498
67.460 18.146408
67.465 19.078653
67.470 19.898438
67.475 20.061905
67.480 19.57235
67.485 19.297283
67.490 19.332119
67.495 19.408424
67.500 18.8419
67.505 18.569019
67.510 18.397352
67.515 18.779154
67.520 18.916059
67.525 18.697971
67.530 18.756536
67.535 18.792927
67.540 18.761837
67.545 18.760988
67.550 18.434483
67.555 18.332458
67.560 18.362726
67.565 18.666061
67.570 18.088923
67.575 17.853344
67.580 17.887638
67.585 17.918173
67.590 17.854225
67.595 17.741171
67.600 17.665993
67.605 17.702478
67.610 18.283104
67.615 18.412243
67.620 18.695181
67.625 19.380457
67.630 19.952745
67.635 19.991676
67.640 20.2132
67.645 20.358717
67.650 20.944752
67.655 21.342228
67.660 21.415083
67.665 21.017693
67.670 20.276026
67.675 20.062572
67.680 19.790377
67.685 18.806767
67.690 18.246471
67.695 17.64381
67.700 17.323809
67.705 17.649948
67.710 17.47394
67.715 17.43082
67.720 17.197222
67.725 17.280998
67.730 17.340073
67.735 17.443668
67.740 17.239826
67.745 16.609661
67.750 17.042931
67.755 17.589157
67.760 17.295921
67.765 17.476877
67.770 17.096155
67.775 17.788052
67.780 18.764593
67.785 18.617559
67.790 18.125254
67.795 18.278013
67.800 18.356308
67.805 18.765875
67.810 18.32707
67.815 18.068848
67.820 17.904812
67.825 18.040247
67.830 18.164764
67.835 18.048468
67.840 17.779083
67.845 18.216555
67.850 18.169384
67.855 17.9238
67.860 18.040497
67.865 17.826048
67.870 18.416782
67.875 18.983089
67.880 19.043787
67.885 19.089308
67.890 19.304461
67.895 19.419819
67.900 19.707119
67.905 19.007605
67.910 18.802034
67.915 18.622803
67.920 18.069386
67.925 18.018559
67.930 18.149073
67.935 17.919817
67.940 17.593367
67.945 17.48171
67.950 17.544733
67.955 18.382864
67.960 18.086143
67.965 17.879744
67.970 18.697031
67.975 19.23999
67.980 19.11537
67.985 19.162451
67.990 19.030375
67.995 19.685133
68.000 19.144581
68.005 18.925377
68.010 18.510002
68.015 18.518929
68.020 18.932549
68.025 19.0264
68.030 19.371922
68.035 19.43387
68.040 20.075682
68.045 20.297125
68.050 20.276604
68.055 19.678291
68.060 19.632778
68.065 18.927185
68.070 19.26103
68.075 18.731991
68.080 19.364759
68.085 18.968557
68.090 18.714348
68.095 18.726616
68.100 19.099388
68.105 19.044981
68.110 19.239079
68.115 19.079548
68.120 19.511526
68.125 19.50527
68.130 19.464855
68.135 19.131056
68.140 18.906366
68.145 18.605286
68.150 18.569246
68.155 18.810978
68.160 19.005501
68.165 19.071669
68.170 18.93564
68.175 19.349506
68.180 19.241388
68.185 19.386915
68.190 19.498024
68.195 19.611086
68.200 19.890829
68.205 20.07288
68.210 19.969755
68.215 20.085688
68.220 20.130825
68.225 20.274143
68.230 19.913164
68.235 19.325024
68.240 18.937485
68.245 18.921902
68.250 18.850302
68.255 18.422155
68.260 18.250856
68.265 18.327124
68.270 18.91655
68.275 19.419817
68.280 19.650568
68.285 19.746033
68.290 19.593863
68.295 19.362379
68.300 19.026165
68.305 18.541971
68.310 18.140444
68.315 17.585741
68.320 17.46335
68.325 17.420479
68.330 17.707947
68.335 18.081747
68.340 18.653355
68.345 18.760347
68.350 19.488991
68.355 19.853821
68.360 19.90572
68.365 20.243666
68.370 21.054737
68.375 21.02854
68.380 21.400721
68.385 21.074511
68.390 20.748034
68.395 20.57283
68.400 20.259497
68.405 18.985273
68.410 18.794661
68.415 18.530396
68.420 18.866856
68.425 19.538446
68.430 19.845123
68.435 20.394751
68.440 21.696566
68.445 21.689247
68.450 21.354137
68.455 21.054327
68.460 21.075336
68.465 21.040203
68.470 20.822809
68.475 20.530165
68.480 21.091595
68.485 21.572262
68.490 21.659628
68.495 21.222206
68.500 20.585127
68.505 20.047306
68.510 19.711847
68.515 19.434792
68.520 19.338404
68.525 18.977934
68.530 19.200571
68.535 19.305304
68.540 19.823055
68.545 20.190189
68.550 20.200323
68.555 20.484333
68.560 20.479731
68.565 20.552015
68.570 21.147377
68.575 21.129408
68.580 20.576185
68.585 20.236181
68.590 20.037052
68.595 20.476219
68.600 21.090252
68.605 21.053093
68.610 21.422245
68.615 22.355003
68.620 22.806973
68.625 22.785511
68.630 22.539799
68.635 22.090181
68.640 22.232426
68.645 21.507605
68.650 20.953148
68.655 20.863874
68.660 21.125875
68.665 20.757114
68.670 20.192642
68.675 20.42058
68.680 21.215076
68.685 21.126495
68.690 21.367249
68.695 21.396536
68.700 21.971306
68.705 22.624872
68.710 22.147108
68.715 22.443066
68.720 22.667513
68.725 23.369396
68.730 23.748642
68.735 24.248863
68.740 24.497211
68.745 24.319086
68.750 23.914185
68.755 23.984529
68.760 24.678999
68.765 25.3211
68.770 25.788477
68.775 25.980663
68.780 26.352243
68.785 26.837973
68.790 26.740063
68.795 26.172081
68.800 25.919399
68.805 25.357132
68.810 25.837797
68.815 25.816143
68.820 25.646872
68.825 25.996401
68.830 26.597937
68.835 27.008495
68.840 26.907375
68.845 26.976952
68.850 27.187666
68.855 27.498335
68.860 27.106304
68.865 27.120466
68.870 27.394726
68.875 27.972479
68.880 27.655331
68.885 27.458696
68.890 27.542698
68.895 27.756779
68.900 27.88674
68.905 28.049257
68.910 28.266096
68.915 29.126236
68.920 29.735601
68.925 30.332735
68.930 30.873035
68.935 30.899546
68.940 30.975307
68.945 31.133549
68.950 30.868822
68.955 30.958347
68.960 30.980349
68.965 31.022202
68.970 31.543478
68.975 32.459648
68.980 32.873543
68.985 33.369278
68.990 33.592777
68.995 33.615768
69.000 33.770348
69.005 33.267521
69.010 33.182358
69.015 32.332474
69.020 32.394794
69.025 32.325966
69.030 32.663128
69.035 32.722103
69.040 33.362438
69.045 33.067326
69.050 33.841427
69.055 33.584
69.060 33.618031
69.065 33.637943
69.070 33.279064
69.075 32.496876
69.080 32.874023
69.085 32.710476
69.090 33.284077
69.095 33.296204
69.100 33.555351
69.105 34.264763
69.110 34.587124
69.115 34.258854
69.120 34.363182
69.125 34.717136
69.130 33.829819
69.135 32.593697
69.140 32.769096
69.145 32.597416
69.150 32.929432
69.155 32.954762
69.160 32.739433
69.165 33.223877
69.170 33.886337
69.175 33.656704
69.180 33.679401
69.185 33.636539
69.190 33.898678
69.195 33.69154
69.200 33.279446
69.205 32.833584
69.210 32.711025
69.215 32.730595
69.220 32.35424
69.225 32.456848
69.230 33.266357
69.235 33.582855
69.240 33.313904
69.245 33.113213
69.250 33.578918
69.255 33.425068
69.260 33.720844
69.265 33.99033
69.270 34.05508
69.275 34.932198
69.280 36.012493
69.285 36.250488
69.290 36.337872
69.295 35.80521
69.300 36.114162
69.305 36.03035
69.310 36.187607
69.315 36.091873
69.320 35.743382
69.325 35.095669
69.330 34.183319
69.335 33.858009
69.340 33.646168
69.345 32.497334
69.350 31.88554
69.355 31.330402
69.360 30.902517
69.365 30.756166
69.370 30.276707
69.375 30.414883
69.380 30.416452
69.385 30.596836
69.390 30.657158
69.395 30.957123
69.400 31.605015
69.405 31.032053
69.410 30.788733
69.415 30.737251
69.420 30.991346
69.425 31.136896
69.430 30.472839
69.435 29.977367
69.440 30.804224
69.445 30.860735
69.450 29.846596
69.455 29.086189
69.460 28.71187
69.465 28.308249
69.470 28.331123
69.475 27.709757
69.480 27.750444
69.485 28.640738
69.490 28.30983
69.495 28.668901
69.500 29.137367
69.505 28.653332
69.510 28.134146
69.515 26.829103
69.520 25.973854
69.525 25.955832
69.530 25.339434
69.535 25.25564
69.540 25.427402
69.545 26.135172
69.550 26.553616
69.555 25.687124
69.560 25.684694
69.565 25.427843
69.570 24.616255
69.575 24.436068
69.580 24.062742
69.585 23.963341
69.590 24.834892
69.595 24.622274
69.600 24.961039
69.605 25.451317
69.610 25.960175
69.615 25.791811
69.620 24.923038
69.625 24.226437
69.630 23.981943
69.635 23.6164
69.640 23.338533
69.645 23.054081
69.650 22.87079
69.655 23.602097
69.660 24.129913
69.665 24.102999
69.670 23.870588
69.675 23.007822
69.680 22.486956
69.685 22.307613
69.690 21.437328
69.695 20.34144
69.700 20.63765
69.705 21.228689
69.710 21.826895
69.715 22.185776
69.720 22.495077
69.725 22.717947
69.730 23.419184
69.735 22.864565
69.740 22.212376
69.745 22.618881
69.750 22.503859
69.755 22.346504
69.760 22.633472
69.765 22.190554
69.770 22.13242
69.775 21.39192
69.780 20.823086
69.785 20.355259
69.790 20.012211
69.795 19.593494
69.800 19.973413
69.805 20.518452
69.810 20.855261
69.815 21.408964
69.820 22.484476
69.825 22.617598
69.830 22.477993
69.835 22.669245
69.840 22.548246
69.845 22.195747
69.850 21.52449
69.855 20.479063
69.860 20.040274
69.865 19.54731
69.870 18.892239
69.875 18.681702
69.880 18.876944
69.885 19.084869
69.890 19.214355
69.895 19.602306
69.900 19.572731
69.905 19.433367
69.910 19.337746
69.915 19.001205
69.920 18.742878
69.925 18.621714
69.930 18.864134
69.935 19.066797
69.940 19.09638
69.945 19.249205
69.950 18.986155
69.955 18.958553
69.960 18.890749
69.965 18.600136
69.970 18.080709
69.975 17.526545
69.980 17.340956
69.985 17.730419
69.990 17.388388
69.995 17.348665
70.000 16.880856
70.005 17.121119
70.010 17.33815
70.015 17.450199
70.020 17.33729
70.025 18.150358
70.030 18.72946
70.035 19.728239
70.040 19.698648
70.045 19.638639
70.050 19.754805
70.055 19.97872
70.060 19.49156
70.065 19.267612
70.070 19.36883
70.075 19.6868
70.080 19.759666
70.085 19.637138
70.090 19.405199
70.095 19.503752
70.100 19.826385
70.105 20.117105
70.110 20.278767
70.115 20.732716
70.120 20.592428
70.125 20.36447
70.130 20.099079
70.135 19.39535
70.140 19.107092
70.145 19.018095
70.150 19.09157
70.155 19.100956
70.160 19.105631
70.165 18.728405
70.170 18.18932
70.175 18.158079
70.180 18.172266
70.185 17.724485
70.190 18.2458
70.195 18.122189
70.200 18.063595
70.205 18.050138
70.210 17.721539
70.215 17.233715
70.220 16.902458
70.225 16.329264
70.230 16.593288
70.235 17.063662
70.240 17.748863
70.245 18.086994
70.250 18.320629
70.255 18.913607
70.260 19.132568
70.265 19.114252
70.270 18.846426
70.275 18.606705
70.280 18.821001
70.285 18.440311
70.290 18.352585
70.295 18.670235
70.300 18.944532
70.305 18.878103
70.310 19.265217
70.315 19.040642
70.320 19.220375
70.325 19.266439
70.330 19.594275
70.335 19.308504
70.340 19.150818
70.345 19.142685
70.350 19.698572
70.355 19.584078
70.360 19.674463
70.365 19.380939
70.370 19.100483
70.375 18.870285
70.380 18.545856
70.385 18.387989
70.390 18.879393
70.395 18.400778
70.400 17.87459
70.405 18.516798
70.410 18.818245
70.415 18.29427
70.420 17.808147
70.425 17.611254
70.430 17.954706
70.435 18.577677
70.440 18.463659
70.445 17.729763
70.450 17.808315
70.455 17.831738
70.460 17.804901
70.465 17.488363
70.470 17.200087
70.475 17.688526
70.480 18.062048
70.485 18.630421
70.490 18.980146
70.495 19.600716
70.500 19.73123
70.505 20.028673
70.510 19.874603
70.515 20.834526
70.520 20.619593
70.525 19.963305
70.530 19.480072
70.535 19.666187
70.540 19.182407
70.545 18.87252
70.550 18.565178
70.555 18.895859
70.560 19.053053
70.565 18.938986
70.570 19.011799
70.575 19.259073
70.580 19.007881
70.585 18.51074
70.590 18.414473
70.595 18.816029
70.600 18.558693
70.605 18.571646
70.610 18.755602
70.615 19.361021
70.620 19.797691
70.625 19.37849
70.630 19.047838
70.635 19.309826
70.640 18.52326
70.645 17.898369
70.650 17.401178
70.655 17.426851
70.660 17.862339
70.665 18.135509
70.670 18.20505
70.675 18.570742
70.680 18.63813
70.685 18.732376
70.690 18.850035
70.695 18.716974
70.700 18.797642
70.705 18.720695
70.710 19.117739
70.715 18.962387
70.720 18.442324
70.725 18.143665
70.730 18.215584
70.735 18.349197
70.740 18.491247
70.745 18.247229
70.750 18.180231
70.755 18.214207
70.760 18.5282
70.765 18.423223
70.770 18.404343
70.775 18.205736
70.780 18.670588
70.785 18.959333
70.790 18.14728
70.795 17.746967
70.800 17.708206
70.805 17.397495
70.810 17.550945
70.815 17.261238
70.820 17.958103
70.825 18.84453
70.830 18.500017
70.835 18.634874
70.840 18.698118
70.845 18.799515
70.850 18.619205
70.855 18.24898
70.860 18.58827
70.865 18.878922
70.870 18.608828
70.875 18.542343
70.880 18.200523
70.885 18.113909
70.890 17.706032
70.895 17.496721
70.900 17.424414
70.905 17.658575
70.910 18.037916
70.915 17.978979
70.920 18.163319
70.925 18.313284
70.930 17.823442
70.935 18.105074
70.940 17.76119
70.945 17.636614
70.950 18.032278
70.955 18.007408
70.960 18.045881
70.965 18.371107
70.970 18.148443
70.975 18.639456
70.980 18.398788
70.985 18.018421
70.990 17.460035
70.995 16.831705
71.000 17.009022
71.005 16.926176
71.010 16.895971
71.015 16.769312
71.020 16.972284
71.025 17.394175
71.030 17.938139
71.035 17.467916
71.040 17.169426
71.045 17.29542
71.050 18.001467
71.055 18.130163
71.060 18.706909
71.065 19.115763
71.070 19.405613
71.075 19.667189
71.080 19.714096
71.085 19.42115
71.090 19.48834
71.095 18.842806
71.100 18.550816
71.105 18.967741
71.110 18.630354
71.115 17.89176
71.120 17.67141
71.125 17.790003
71.130 18.313614
71.135 18.735544
71.140 18.396624
71.145 18.42115
71.150 18.689741
71.155 18.452805
71.160 17.749939
71.165 16.872843
71.170 16.619194
71.175 16.139936
71.180 16.66482
71.185 16.74736
71.190 16.788265
71.195 17.194611
71.200 17.066277
71.205 17.38279
71.210 18.155085
71.215 18.172897
71.220 18.141466
71.225 18.058435
71.230 18.227684
71.235 18.883329
71.240 18.881931
71.245 18.456409
71.250 18.453835
71.255 18.604954
71.260 18.907675
71.265 19.092558
71.270 18.647892
71.275 18.342941
71.280 18.431009
71.285 18.339769
71.290 18.187881
71.295 17.93539
71.300 17.47464
71.305 17.675682
71.310 17.903877
71.315 17.557346
71.320 17.721415
71.325 17.674345
71.330 18.165583
71.335 18.19417
71.340 17.716553
71.345 17.7777
71.350 18.035498
71.355 17.77239
71.360 17.880367
71.365 17.748215
71.370 17.739113
71.375 18.36587
71.380 18.497963
71.385 18.575281
71.390 18.607355
71.395 18.804592
71.400 19.688934
71.405 20.408178
71.410 20.08536
71.415 19.778267
71.420 19.835588
71.425 19.729898
71.430 18.804068
71.435 17.847273
71.440 17.252644
71.445 17.359398
71.450 17.335871
71.455 17.527786
71.460 17.687181
71.465 18.362295
71.470 18.699959
71.475 18.549078
71.480 18.269423
71.485 18.105066
71.490 17.688314
71.495 17.77939
71.500 16.950941
71.505 16.466352
71.510 16.761608
71.515 17.348114
71.520 17.545322
71.525 17.788639
71.530 17.769461
71.535 18.161285
71.540 18.528185
71.545 18.784895
71.550 18.402733
71.555 18.890068
71.560 19.351263
71.565 19.463066
71.570 18.979061
71.575 18.0224
71.580 17.560038
71.585 17.28348
71.590 16.849714
71.595 16.162348
71.600 16.369844
71.605 16.41552
71.610 16.779898
71.615 17.145264
71.620 17.148964
71.625 17.523918
71.630 17.670937
71.635 17.996086
71.640 18.517818
71.645 18.646235
71.650 18.651409
71.655 18.61681
71.660 18.273628
71.665 18.399773
71.670 18.381443
71.675 18.637377
71.680 18.488981
71.685 18.838873
71.690 18.675167
71.695 19.253849
71.700 19.113747
71.705 18.786352
71.710 18.601137
71.715 18.635372
71.720 18.966373
71.725 18.699982
71.730 18.616325
71.735 18.718714
71.740 19.211042
71.745 18.999311
71.750 18.225241
71.755 17.917854
71.760 18.079838
71.765 18.000929
71.770 17.910273
71.775 18.078419
71.780 17.985321
71.785 17.900499
71.790 18.11293
71.795 18.571192
71.800 18.490786
71.805 18.609449
71.810 19.052143
71.815 19.792374
71.820 19.765583
71.825 19.257568
71.830 18.884087
71.835 18.697767
71.840 18.185455
71.845 18.124905
71.850 18.175087
71.855 18.541193
71.860 18.428207
71.865 18.384554
71.870 18.33989
71.875 18.053173
71.880 17.801613
71.885 17.478174
71.890 17.790071
71.895 18.742258
71.900 18.807928
71.905 18.702406
71.910 18.249094
71.915 17.980991
71.920 17.965151
71.925 17.202169
71.930 16.274403
71.935 15.910724
71.940 15.683125
71.945 15.856771
71.950 15.9832
71.955 15.818997
71.960 15.972916
71.965 16.145065
71.970 16.771099
71.975 17.107582
71.980 16.661087
71.985 16.747438
71.990 16.96072
71.995 16.845251
72.000 17.112114
72.005 17.431383
72.010 17.673399
72.015 17.846189
72.020 18.302631
72.025 18.586094
72.030 18.468369
72.035 17.769495
72.040 17.459614
72.045 17.274641
72.050 17.414181
72.055 16.919151
72.060 16.817257
72.065 17.145813
72.070 17.58913
72.075 17.601105
72.080 17.810644
72.085 17.63357
72.090 17.431934
72.095 17.506363
72.100 17.360077
72.105 17.422108
72.110 17.201828
72.115 17.210222
72.120 17.603806
72.125 17.803776
72.130 17.654602
72.135 17.403046
72.140 17.620148
72.145 17.782516
72.150 17.939438
72.155 17.876144
72.160 18.004969
72.165 18.0688
72.170 18.567274
72.175 18.255035
72.180 17.885433
72.185 17.650936
72.190 17.192263
72.195 17.286669
72.200 16.952171
72.205 16.263498
72.210 16.244253
72.215 16.283226
72.220 16.30547
72.225 16.832378
72.230 17.216856
72.235 18.232357
72.240 18.915054
72.245 19.411169
72.250 19.891417
72.255 19.757999
72.260 19.578382
72.265 19.241276
72.270 18.764462
72.275 18.635509
72.280 18.106421
72.285 17.694412
72.290 17.42779
72.295 17.632555
72.300 17.954042
72.305 17.687435
72.310 17.622152
72.315 17.869928
72.320 17.277424
72.325 16.842749
72.330 16.145002
72.335 16.665207
72.340 17.520994
72.345 17.5145
72.350 17.311926
72.355 17.90567
72.360 18.564255
72.365 18.531372
72.370 17.765535
72.375 17.82925
72.380 18.468315
72.385 18.752594
72.390 18.911629
72.395 18.934813
72.400 18.662607
72.405 18.346336
72.410 17.677603
72.415 17.812357
72.420 17.97047
72.425 17.448067
72.430 17.140324
72.435 17.593494
72.440 18.402624
72.445 18.365202
72.450 18.220427
72.455 18.910894
72.460 19.477409
72.465 19.218655
72.470 18.699371
72.475 18.17827
72.480 17.985134
72.485 17.622395
72.490 17.008789
72.495 17.089649
72.500 17.555296
72.505 17.227526
72.510 17.612619
72.515 18.067356
72.520 18.067175
72.525 17.360079
72.530 16.828171
72.535 17.091621
72.540 17.37311
72.545 16.975483
72.550 16.43446
72.555 16.670403
72.560 17.457003
72.565 17.652752
72.570 17.325562
72.575 16.89333
72.580 17.429661
72.585 18.037676
72.590 18.441408
72.595 18.573263
72.600 18.585587
72.605 18.704451
72.610 19.122343
72.615 18.660603
72.620 18.601583
72.625 18.691906
72.630 18.448668
72.635 17.895248
72.640 17.380852
72.645 17.188974
72.650 16.515768
72.655 16.178104
72.660 15.829102
72.665 16.139137
72.670 16.73295
72.675 17.042599
72.680 16.75956
72.685 17.147007
72.690 16.924253
72.695 17.211613
72.700 16.726994
72.705 16.286882
72.710 16.361448
72.715 16.574774
72.720 16.924965
72.725 17.060171
72.730 16.910503
72.735 17.104181
72.740 16.923244
72.745 16.92136
72.750 16.974434
72.755 16.76428
72.760 17.341438
72.765 17.80611
72.770 17.964291
72.775 18.341949
72.780 18.226812
72.785 18.432436
72.790 18.050062
72.795 17.399225
72.800 17.266247
72.805 17.496964
72.810 17.188503
72.815 17.138447
72.820 17.012987
72.825 16.750242
72.830 16.846344
72.835 17.455877
72.840 16.828011
72.845 16.571871
72.850 16.814486
72.855 17.022984
72.860 16.966852
72.865 16.378733
72.870 15.964505
72.875 16.596352
72.880 17.033241
72.885 16.730602
72.890 15.757442
72.895 15.816611
72.900 15.772498
72.905 15.720758
72.910 15.849783
72.915 15.258537
72.920 15.397009
72.925 16.45904
72.930 16.566566
72.935 16.213251
72.940 16.456383
72.945 16.856611
72.950 16.93774
72.955 16.357855
72.960 16.5322
72.965 17.090521
72.970 17.554396
72.975 17.233639
72.980 16.606661
72.985 16.745455
72.990 16.898907
72.995 15.857513
73.000 15.356268
