!@!!GADDS PLOTSO FILE: Chi integration type
!@!!Title/SampleName: map-dc
!@!!Comment: ?
!@!!User: Bruker Instrument Administrator
!@!!Site: University of Illinois Chicago
!@!!Frame: map-dc_01_000.gfrm
!@!!Wavelengths    1.54184   1.54056   1.54439
!@!!Frame angles: 2Theta: 63.000 Omega: 50.000 Phi: 0.000 Chi: 90.000
!@!!Integration range: 2Theta: 53.000 to 73.000  Gamma: -105.000 to -75.000
!@!!Integration method: bin normalized
!@!N
!@!SS
!@!M
!@!L 0.0 0.0 0.0 0.0
!@!XDegrees
!@!YCounts
53.000 9.778277
53.005 9.561723
53.010 9.541598
53.015 9.414877
53.020 9.667836
53.025 9.682533
53.030 9.514562
53.035 9.789974
53.040 9.737243
53.045 9.849358
53.050 10.116864
53.055 10.183828
53.060 10.372381
53.065 10.396609
53.070 10.335144
53.075 10.626683
53.080 10.817284
53.085 10.479924
53.090 10.815932
53.095 10.614246
53.100 10.309099
53.105 10.205587
53.110 10.026807
53.115 9.641359
53.120 9.435456
53.125 8.601584
53.130 8.920006
53.135 9.486104
53.140 9.495705
53.145 9.440672
53.150 9.605497
53.155 10.44475
53.160 10.620459
53.165 10.541587
53.170 10.256096
53.175 10.367062
53.180 10.237457
53.185 9.890887
53.190 9.20809
53.195 9.190496
53.200 8.795706
53.205 8.744148
53.210 8.698654
53.215 8.997631
53.220 9.345031
53.225 9.337864
53.230 9.433743
53.235 9.90758
53.240 9.887807
53.245 9.836916
53.250 9.32058
53.255 9.468927
53.260 9.945732
53.265 10.014303
53.270 10.053453
53.275 10.30099
53.280 10.443105
53.285 10.777494
53.290 10.392849
53.295 10.26729
53.300 10.412958
53.305 10.366442
53.310 10.295128
53.315 10.774278
53.320 10.686266
53.325 10.400403
53.330 10.0016
53.335 9.634455
53.340 9.58731
53.345 9.129159
53.350 8.996456
53.355 9.388328
53.360 9.795386
53.365 9.567092
53.370 9.788171
53.375 9.748527
53.380 10.145786
53.385 10.161407
53.390 10.259654
53.395 10.514447
53.400 10.937685
53.405 11.161117
53.410 11.253419
53.415 10.610527
53.420 10.842044
53.425 10.432987
53.430 10.079959
53.435 9.792548
53.440 9.345321
53.445 9.856332
53.450 9.951374
53.455 10.199179
53.460 10.489306
53.465 10.292175
53.470 10.661776
53.475 10.758447
53.480 10.536831
53.485 10.46002
53.490 9.9033
53.495 9.735951
53.500 10.069398
53.505 10.278625
53.510 10.143827
53.515 9.843667
53.520 9.918547
53.525 10.196755
53.530 10.272769
53.535 10.08871
53.540 10.212967
53.545 10.313446
53.550 10.335999
53.555 10.665484
53.560 10.640773
53.565 10.875334
53.570 10.516825
53.575 10.289065
53.580 10.409332
53.585 10.406693
53.590 10.441278
53.595 10.531817
53.600 10.778462
53.605 11.229508
53.610 11.156882
53.615 11.214429
53.620 11.829368
53.625 11.759491
53.630 11.805512
53.635 11.362839
53.640 10.912883
53.645 10.728773
53.650 10.605004
53.655 9.940763
53.660 9.410908
53.665 8.995052
53.670 9.359191
53.675 10.247102
53.680 10.281507
53.685 10.050232
53.690 10.532009
53.695 10.70064
53.700 10.626697
53.705 10.688929
53.710 10.525414
53.715 10.466439
53.720 10.997849
53.725 11.131063
53.730 11.548987
53.735 11.342052
53.740 11.116695
53.745 11.299603
53.750 11.486312
53.755 11.119033
53.760 11.198593
53.765 11.638469
53.770 11.844839
53.775 11.753157
53.780 11.500445
53.785 11.543325
53.790 11.165144
53.795 10.69049
53.800 10.247158
53.805 9.970453
53.810 9.805437
53.815 10.161653
53.820 10.521436
53.825 11.433003
53.830 11.801841
53.835 11.702221
53.840 12.051368
53.845 12.043432
53.850 11.711779
53.855 11.515429
53.860 10.769151
53.865 10.631364
53.870 10.658835
53.875 10.858811
53.880 11.006272
53.885 11.511343
53.890 11.536907
53.895 11.701067
53.900 11.629311
53.905 11.637394
53.910 11.035552
53.915 10.705815
53.920 10.492013
53.925 10.158829
53.930 10.169866
53.935 10.528224
53.940 10.345744
53.945 10.600545
53.950 10.563538
53.955 10.164665
53.960 10.176702
53.965 9.92974
53.970 9.590964
53.975 9.493855
53.980 9.729216
53.985 10.02808
53.990 10.346602
53.995 10.792757
54.000 11.08277
54.005 11.236523
54.010 11.488798
54.015 11.659369
54.020 11.771809
54.025 11.912575
54.030 11.769513
54.035 11.704166
54.040 12.088691
54.045 12.083813
54.050 11.551779
54.055 11.45542
54.060 11.430489
54.065 11.403404
54.070 11.745028
54.075 11.378355
54.080 11.43907
54.085 11.523686
54.090 11.273464
54.095 11.417801
54.100 11.744255
54.105 11.419219
54.110 11.363851
54.115 11.474256
54.120 11.87708
54.125 12.316415
54.130 11.876729
54.135 11.516445
54.140 11.575098
54.145 11.758694
54.150 11.717763
54.155 11.398323
54.160 10.877531
54.165 10.644311
54.170 11.089663
54.175 10.895237
54.180 10.755579
54.185 10.520195
54.190 10.250784
54.195 10.345245
54.200 10.329201
54.205 10.16839
54.210 10.399468
54.215 9.984348
54.220 9.965998
54.225 10.458783
54.230 10.74175
54.235 11.008782
54.240 10.841763
54.245 11.210945
54.250 11.748205
54.255 11.77189
54.260 12.056965
54.265 11.946322
54.270 11.91308
54.275 12.166747
54.280 11.876451
54.285 11.717851
54.290 11.972473
54.295 11.441686
54.300 11.429504
54.305 11.726962
54.310 11.246653
54.315 11.04675
54.320 10.707257
54.325 10.519962
54.330 10.771517
54.335 10.758031
54.340 10.601633
54.345 10.991271
54.350 11.319818
54.355 11.869494
54.360 11.365341
54.365 11.683722
54.370 12.065209
54.375 11.744784
54.380 11.357428
54.385 10.907188
54.390 10.585197
54.395 10.73098
54.400 10.378124
54.405 10.2356
54.410 10.885338
54.415 11.229143
54.420 11.319724
54.425 11.60438
54.430 11.956122
54.435 12.268291
54.440 12.186916
54.445 11.932869
54.450 12.037488
54.455 12.172714
54.460 11.984577
54.465 11.765208
54.470 11.280169
54.475 10.819871
54.480 11.265927
54.485 11.651964
54.490 11.578077
54.495 11.184956
54.500 10.974664
54.505 10.781219
54.510 10.942434
54.515 11.260205
54.520 10.749596
54.525 10.843383
54.530 10.935419
54.535 10.811705
54.540 11.130467
54.545 10.826164
54.550 10.35263
54.555 10.658695
54.560 10.741803
54.565 10.728132
54.570 10.922725
54.575 11.013979
54.580 10.667974
54.585 10.573437
54.590 10.505579
54.595 10.684288
54.600 11.121422
54.605 10.852909
54.610 10.721596
54.615 10.737631
54.620 10.585453
54.625 10.468899
54.630 10.310939
54.635 10.116879
54.640 10.232154
54.645 10.520883
54.650 11.161765
54.655 11.342464
54.660 11.483236
54.665 11.578297
54.670 11.915796
54.675 12.099225
54.680 12.10726
54.685 11.986163
54.690 12.560254
54.695 13.198941
54.700 13.597175
54.705 13.750998
54.710 13.822817
54.715 13.806241
54.720 13.60686
54.725 12.953326
54.730 12.667876
54.735 12.370824
54.740 12.180247
54.745 12.461976
54.750 12.94282
54.755 12.9667
54.760 13.220619
54.765 13.280664
54.770 13.763677
54.775 13.889066
54.780 13.615671
54.785 13.431931
54.790 13.141382
54.795 13.062476
54.800 12.876681
54.805 12.466933
54.810 12.056114
54.815 11.767903
54.820 11.90788
54.825 11.778793
54.830 11.240637
54.835 11.498978
54.840 11.583293
54.845 12.016862
54.850 12.322367
54.855 12.767439
54.860 13.335744
54.865 13.583779
54.870 13.163361
54.875 13.137552
54.880 12.98624
54.885 12.471765
54.890 11.86224
54.895 12.065541
54.900 12.213848
54.905 12.748791
54.910 13.091764
54.915 13.686126
54.920 13.778418
54.925 13.878991
54.930 13.563847
54.935 13.268998
54.940 12.926638
54.945 12.921807
54.950 12.593686
54.955 12.391717
54.960 12.217411
54.965 12.160644
54.970 12.495073
54.975 12.753891
54.980 12.281522
54.985 12.060911
54.990 12.120423
54.995 11.926569
55.000 12.000181
55.005 11.906624
55.010 11.799117
55.015 12.287804
55.020 12.44341
55.025 12.386597
55.030 12.188244
55.035 12.07929
55.040 11.9613
55.045 12.282906
55.050 12.093116
55.055 11.966228
55.060 12.346055
55.065 12.565861
55.070 12.7576
55.075 12.618981
55.080 12.641376
55.085 12.604522
55.090 12.452145
55.095 12.645501
55.100 12.161102
55.105 12.281181
55.110 12.243845
55.115 12.613209
55.120 12.317989
55.125 12.486367
55.130 12.41117
55.135 13.23524
55.140 13.323512
55.145 13.439711
55.150 13.680057
55.155 14.038848
55.160 14.075476
55.165 14.088899
55.170 13.695383
55.175 13.310137
55.180 12.734505
55.185 12.525323
55.190 12.523697
55.195 12.427814
55.200 12.128047
55.205 12.245897
55.210 12.520109
55.215 12.292042
55.220 11.906159
55.225 11.954349
55.230 11.934475
55.235 12.651098
55.240 12.526812
55.245 12.788746
55.250 13.093109
55.255 12.877645
55.260 13.015635
55.265 13.555797
55.270 13.097548
55.275 12.896633
55.280 12.783548
55.285 12.757998
55.290 13.090137
55.295 12.552666
55.300 12.293583
55.305 11.877663
55.310 11.940319
55.315 11.861824
55.320 11.94115
55.325 11.9463
55.330 11.83078
55.335 11.432497
55.340 11.46165
55.345 11.358368
55.350 11.691978
55.355 11.426978
55.360 11.181781
55.365 12.014683
55.370 12.732171
55.375 13.159578
55.380 13.627351
55.385 13.842404
55.390 14.309316
55.395 14.674338
55.400 14.234335
55.405 13.973525
55.410 14.028417
55.415 13.631894
55.420 13.306812
55.425 12.934669
55.430 13.173412
55.435 12.756071
55.440 12.482928
55.445 11.918894
55.450 12.152794
55.455 12.297082
55.460 12.297007
55.465 12.106601
55.470 12.416768
55.475 12.460347
55.480 12.549292
55.485 12.446548
55.490 12.512826
55.495 12.483304
55.500 12.460371
55.505 12.387447
55.510 12.83683
55.515 13.030511
55.520 12.58413
55.525 12.604027
55.530 12.391351
55.535 12.604575
55.540 12.998528
55.545 12.721833
55.550 12.507057
55.555 12.711824
55.560 13.0378
55.565 13.70636
55.570 13.518645
55.575 13.643964
55.580 13.498546
55.585 13.460365
55.590 13.036468
55.595 12.560339
55.600 11.714665
55.605 11.604007
55.610 11.426986
55.615 11.352883
55.620 11.542225
55.625 11.774044
55.630 12.50487
55.635 13.615567
55.640 13.793431
55.645 13.232005
55.650 13.308373
55.655 13.03734
55.660 12.895792
55.665 12.109131
55.670 10.975206
55.675 10.849973
55.680 11.749492
55.685 11.649133
55.690 12.040459
55.695 12.119535
55.700 12.090341
55.705 12.374393
55.710 12.025908
55.715 12.247497
55.720 12.485134
55.725 12.309607
55.730 12.427571
55.735 12.699309
55.740 12.799851
55.745 12.987054
55.750 12.992184
55.755 12.662686
55.760 12.647012
55.765 12.654944
55.770 12.883484
55.775 13.217773
55.780 13.074209
55.785 12.621117
55.790 13.189894
55.795 13.313544
55.800 13.178087
55.805 13.044735
55.810 13.28933
55.815 13.750668
55.820 13.967003
55.825 13.965399
55.830 14.278303
55.835 14.428534
55.840 15.038933
55.845 14.500698
55.850 13.824696
55.855 13.564198
55.860 12.955053
55.865 12.583919
55.870 12.110599
55.875 11.68376
55.880 11.722427
55.885 12.116483
55.890 12.320297
55.895 12.918909
55.900 13.176532
55.905 13.128738
55.910 12.961302
55.915 13.477304
55.920 14.000816
55.925 14.212833
55.930 14.074862
55.935 14.536522
55.940 14.51303
55.945 15.094568
55.950 14.895635
55.955 14.392595
55.960 13.938963
55.965 13.492677
55.970 13.472845
55.975 13.242019
55.980 12.736471
55.985 12.154111
55.990 12.669455
55.995 13.063938
56.000 12.754205
56.005 12.555223
56.010 12.736051
56.015 13.270809
56.020 13.67816
56.025 13.538639
56.030 14.036194
56.035 14.924794
56.040 15.040884
56.045 14.690999
56.050 14.011366
56.055 14.310186
56.060 14.454363
56.065 14.333515
56.070 13.748484
56.075 14.334723
56.080 15.309466
56.085 15.821838
56.090 15.301412
56.095 13.987182
56.100 13.854187
56.105 13.478399
56.110 12.831943
56.115 12.347216
56.120 11.98679
56.125 12.248363
56.130 13.137988
56.135 13.298673
56.140 13.33701
56.145 13.380709
56.150 13.602039
56.155 13.841304
56.160 14.038685
56.165 14.14793
56.170 14.5012
56.175 14.746219
56.180 14.798492
56.185 13.966521
56.190 13.717974
56.195 13.595515
56.200 13.053138
56.205 12.926435
56.210 12.993328
56.215 13.321027
56.220 13.76714
56.225 13.880509
56.230 14.235212
56.235 14.301319
56.240 14.322787
56.245 14.507319
56.250 14.272
56.255 14.313396
56.260 13.845157
56.265 13.417463
56.270 13.429146
56.275 13.393282
56.280 12.366443
56.285 12.165831
56.290 12.521403
56.295 12.898187
56.300 12.910667
56.305 12.742769
56.310 13.094336
56.315 14.055152
56.320 14.323526
56.325 13.35989
56.330 13.154559
56.335 13.368369
56.340 13.733068
56.345 13.731204
56.350 13.695585
56.355 14.29181
56.360 15.129785
56.365 15.280551
56.370 14.788507
56.375 14.500297
56.380 14.128099
56.385 13.682951
56.390 13.12221
56.395 12.959976
56.400 13.237365
56.405 14.087813
56.410 13.900266
56.415 13.759052
56.420 14.579181
56.425 15.209206
56.430 14.754185
56.435 14.215942
56.440 13.932415
56.445 14.108726
56.450 13.816235
56.455 12.999241
56.460 12.779552
56.465 13.321291
56.470 13.544999
56.475 13.761167
56.480 14.605289
56.485 14.975266
56.490 15.58559
56.495 15.502556
56.500 15.168792
56.505 14.822603
56.510 14.159086
56.515 13.70766
56.520 13.836407
56.525 13.636637
56.530 13.824162
56.535 14.444195
56.540 14.734845
56.545 14.675437
56.550 14.703431
56.555 14.738192
56.560 14.879095
56.565 14.901246
56.570 15.116307
56.575 15.584517
56.580 15.994389
56.585 15.945745
56.590 15.675364
56.595 15.552258
56.600 15.69888
56.605 14.935549
56.610 14.371859
56.615 14.067187
56.620 13.973813
56.625 13.944966
56.630 14.105319
56.635 14.401651
56.640 14.975198
56.645 15.390866
56.650 15.425262
56.655 15.318216
56.660 14.705245
56.665 14.488145
56.670 14.109935
56.675 13.183609
56.680 12.924437
56.685 13.523978
56.690 13.801812
56.695 14.024715
56.700 13.747006
56.705 13.206544
56.710 13.379805
56.715 13.308502
56.720 12.568149
56.725 11.94078
56.730 12.415135
56.735 13.073714
56.740 14.303996
56.745 14.616007
56.750 14.882508
56.755 15.508767
56.760 15.895926
56.765 16.189695
56.770 16.138903
56.775 15.95393
56.780 16.354773
56.785 16.409918
56.790 16.434923
56.795 16.322237
56.800 16.16679
56.805 16.010014
56.810 15.816565
56.815 16.05846
56.820 15.612461
56.825 15.391786
56.830 15.238134
56.835 14.43975
56.840 14.316444
56.845 13.805806
56.850 13.403628
56.855 13.65166
56.860 14.268535
56.865 14.951335
56.870 15.081772
56.875 14.909486
56.880 14.965443
56.885 15.007453
56.890 14.946568
56.895 14.514729
56.900 14.259506
56.905 14.576309
56.910 14.675164
56.915 15.169952
56.920 14.72371
56.925 14.54637
56.930 14.935207
56.935 14.921917
56.940 14.380897
56.945 14.325254
56.950 14.307013
56.955 14.285928
56.960 14.246199
56.965 14.173107
56.970 13.891317
56.975 14.30875
56.980 13.939198
56.985 13.807795
56.990 14.581647
56.995 14.651495
57.000 14.075106
57.005 14.217895
57.010 13.895453
57.015 13.938586
57.020 13.866758
57.025 13.532103
57.030 13.434746
57.035 13.435373
57.040 13.158711
57.045 13.116731
57.050 13.539232
57.055 14.047909
57.060 14.235981
57.065 14.709402
57.070 15.330534
57.075 15.972934
57.080 16.757914
57.085 16.545425
57.090 15.908607
57.095 15.911618
57.100 15.749214
57.105 15.216535
57.110 15.024775
57.115 14.96517
57.120 15.367851
57.125 15.41401
57.130 15.381897
57.135 15.249953
57.140 16.17532
57.145 15.748953
57.150 15.419544
57.155 14.767926
57.160 14.787897
57.165 14.93105
57.170 15.126359
57.175 14.429379
57.180 14.312013
57.185 14.075428
57.190 14.353273
57.195 14.190717
57.200 13.723394
57.205 13.670584
57.210 13.968667
57.215 14.207
57.220 14.313061
57.225 14.734303
57.230 14.8451
57.235 15.115108
57.240 15.141575
57.245 14.885353
57.250 15.061095
57.255 15.032302
57.260 14.993603
57.265 15.082887
57.270 14.719821
57.275 14.766186
57.280 14.812279
57.285 14.833106
57.290 14.566788
57.295 14.514977
57.300 14.564773
57.305 14.57021
57.310 14.122551
57.315 14.309668
57.320 14.512374
57.325 14.626698
57.330 14.375739
57.335 14.832751
57.340 15.576754
57.345 15.858687
57.350 15.79754
57.355 15.782166
57.360 15.933288
57.365 15.808807
57.370 15.574991
57.375 15.338166
57.380 15.308722
57.385 15.115667
57.390 14.941463
57.395 15.334771
57.400 15.722881
57.405 15.756789
57.410 15.723916
57.415 15.732615
57.420 15.857807
57.425 15.647248
57.430 15.303918
57.435 15.227335
57.440 15.506072
57.445 15.256865
57.450 15.493422
57.455 15.73544
57.460 16.354548
57.465 16.094303
57.470 15.675853
57.475 15.24932
57.480 15.612358
57.485 15.44638
57.490 15.331837
57.495 15.161954
57.500 15.239891
57.505 15.547598
57.510 16.060598
57.515 15.919567
57.520 15.570593
57.525 16.025591
57.530 15.550967
57.535 15.530242
57.540 15.473872
57.545 15.031222
57.550 15.038943
57.555 15.245371
57.560 15.083161
57.565 15.006137
57.570 15.183413
57.575 14.928346
57.580 14.695392
57.585 14.565978
57.590 14.466337
57.595 14.304767
57.600 15.056822
57.605 15.089829
57.610 15.036404
57.615 15.131183
57.620 15.543557
57.625 15.345917
57.630 15.652458
57.635 15.768459
57.640 15.861041
57.645 16.379408
57.650 16.645838
57.655 16.755978
57.660 17.089773
57.665 16.57081
57.670 16.244671
57.675 16.171904
57.680 15.609431
57.685 15.85954
57.690 16.431831
57.695 17.055578
57.700 17.230518
57.705 16.986835
57.710 16.978142
57.715 16.920364
57.720 16.462917
57.725 15.571977
57.730 15.027773
57.735 15.118322
57.740 15.213008
57.745 15.061369
57.750 15.482446
57.755 15.732729
57.760 15.615135
57.765 15.2722
57.770 14.583979
57.775 14.732144
57.780 14.953938
57.785 14.391887
57.790 14.6099
57.795 14.302112
57.800 14.354542
57.805 14.319141
57.810 14.292332
57.815 14.470316
57.820 14.264993
57.825 14.18292
57.830 14.096605
57.835 14.093843
57.840 14.45882
57.845 14.523312
57.850 14.501979
57.855 14.389704
57.860 14.103534
57.865 14.600736
57.870 14.830058
57.875 15.002477
57.880 14.88615
57.885 15.294101
57.890 15.370185
57.895 15.51362
57.900 15.176338
57.905 14.935555
57.910 14.617434
57.915 14.036683
57.920 14.337939
57.925 14.166821
57.930 13.840587
57.935 13.911975
57.940 14.500982
57.945 15.083794
57.950 16.038918
57.955 15.912756
57.960 16.271936
57.965 16.391485
57.970 16.614983
57.975 15.778267
57.980 15.485297
57.985 15.208009
57.990 15.022346
57.995 15.434009
58.000 15.731586
58.005 16.031771
58.010 15.973839
58.015 15.824584
58.020 15.63801
58.025 15.490754
58.030 15.297974
58.035 15.252281
58.040 15.265761
58.045 15.306931
58.050 15.233254
58.055 15.217282
58.060 15.316983
58.065 15.770586
58.070 16.052961
58.075 15.609529
58.080 15.767961
58.085 15.402189
58.090 14.995872
58.095 14.795077
58.100 14.476092
58.105 14.903369
58.110 15.191476
58.115 15.029645
58.120 15.358501
58.125 15.980466
58.130 16.213373
58.135 15.746314
58.140 14.975417
58.145 15.584099
58.150 16.141142
58.155 16.190077
58.160 15.76312
58.165 15.316752
58.170 15.383129
58.175 15.610626
58.180 15.18784
58.185 14.894809
58.190 14.855851
58.195 15.003853
58.200 15.909369
58.205 16.596941
58.210 16.492193
58.215 16.095419
58.220 16.027676
58.225 16.042679
58.230 16.223415
58.235 15.220428
58.240 14.539877
58.245 14.081908
58.250 13.816578
58.255 13.848779
58.260 13.952611
58.265 13.876892
58.270 14.748853
58.275 15.410285
58.280 15.606529
58.285 16.257214
58.290 16.473499
58.295 16.56946
58.300 16.866346
58.305 16.927822
58.310 16.611858
58.315 16.665171
58.320 17.007082
58.325 17.359123
58.330 17.501547
58.335 17.06127
58.340 16.644903
58.345 16.662657
58.350 16.783335
58.355 16.268749
58.360 16.370651
58.365 16.591408
58.370 16.859404
58.375 16.999966
58.380 16.906034
58.385 16.580278
58.390 16.750893
58.395 16.593178
58.400 16.568148
58.405 16.392582
58.410 16.235868
58.415 16.496073
58.420 16.694412
58.425 16.577932
58.430 16.498442
58.435 15.994547
58.440 15.615888
58.445 15.775794
58.450 15.771523
58.455 15.726977
58.460 15.639399
58.465 15.671942
58.470 15.836965
58.475 15.630401
58.480 15.341222
58.485 15.5389
58.490 16.109301
58.495 16.687305
58.500 16.607693
58.505 16.748976
58.510 16.591738
58.515 16.471756
58.520 16.292133
58.525 15.704695
58.530 14.649105
58.535 14.653586
58.540 14.774089
58.545 15.585894
58.550 15.704193
58.555 15.527929
58.560 15.031082
58.565 15.512308
58.570 15.554248
58.575 15.29759
58.580 14.740072
58.585 14.53485
58.590 14.904702
58.595 15.823276
58.600 15.588089
58.605 15.513895
58.610 15.943798
58.615 16.257528
58.620 16.531458
58.625 16.181194
58.630 15.973997
58.635 16.229891
58.640 16.369255
58.645 16.102367
58.650 15.546973
58.655 15.589254
58.660 16.400534
58.665 16.273569
58.670 15.518217
58.675 14.59137
58.680 15.060458
58.685 15.440777
58.690 15.639714
58.695 15.804649
58.700 16.185585
58.705 16.615688
58.710 16.942247
58.715 16.322136
58.720 16.251816
58.725 15.852226
58.730 15.188759
58.735 15.068303
58.740 15.104191
58.745 15.498918
58.750 16.099295
58.755 16.10775
58.760 15.91502
58.765 15.596604
58.770 15.222567
58.775 15.68036
58.780 15.638362
58.785 15.383732
58.790 15.603877
58.795 16.112366
58.800 16.492676
58.805 16.838089
58.810 16.786928
58.815 16.780178
58.820 16.94309
58.825 16.642258
58.830 16.195444
58.835 16.216619
58.840 16.186619
58.845 15.66244
58.850 15.174418
58.855 15.474632
58.860 15.530478
58.865 15.71331
58.870 16.257656
58.875 16.558094
58.880 16.769674
58.885 17.543673
58.890 17.21858
58.895 17.29071
58.900 17.076965
58.905 15.680526
58.910 15.292897
58.915 14.833077
58.920 13.937856
58.925 14.204577
58.930 14.303745
58.935 14.639633
58.940 15.726619
58.945 16.022873
58.950 16.322956
58.955 16.517607
58.960 16.874567
58.965 16.931541
58.970 16.785812
58.975 16.814194
58.980 17.511898
58.985 17.913666
58.990 17.736347
58.995 17.564148
59.000 17.840105
59.005 18.137558
59.010 18.398087
59.015 18.278605
59.020 18.132217
59.025 18.146738
59.030 17.94264
59.035 18.064909
59.040 18.598522
59.045 18.595058
59.050 18.053818
59.055 18.066202
59.060 17.944389
59.065 18.037807
59.070 17.654057
59.075 16.865477
59.080 17.254293
59.085 17.874004
59.090 17.664398
59.095 17.967812
59.100 17.906368
59.105 17.763391
59.110 17.564999
59.115 17.103075
59.120 16.653446
59.125 17.02825
59.130 16.947208
59.135 16.918957
59.140 17.049103
59.145 17.308884
59.150 16.574867
59.155 16.413059
59.160 15.946315
59.165 16.247036
59.170 16.446795
59.175 16.109732
59.180 15.746313
59.185 15.705533
59.190 15.585629
59.195 15.785971
59.200 15.724826
59.205 15.807552
59.210 16.428097
59.215 16.340063
59.220 16.813643
59.225 16.891783
59.230 16.996567
59.235 16.673065
59.240 16.721334
59.245 16.698416
59.250 17.31465
59.255 16.771006
59.260 16.772047
59.265 16.739834
59.270 16.929871
59.275 16.686266
59.280 16.573145
59.285 15.578061
59.290 16.345703
59.295 16.698826
59.300 17.12606
59.305 17.234613
59.310 17.572466
59.315 17.744215
59.320 18.248127
59.325 17.917013
59.330 18.040447
59.335 17.696339
59.340 17.827997
59.345 17.799265
59.350 17.857473
59.355 18.075191
59.360 18.94739
59.365 19.036728
59.370 18.801815
59.375 19.003487
59.380 18.856817
59.385 19.503937
59.390 19.857391
59.395 19.900467
59.400 20.206322
59.405 19.970518
59.410 19.561506
59.415 19.275749
59.420 18.985336
59.425 18.77552
59.430 18.505932
59.435 18.18956
59.440 18.313017
59.445 18.673397
59.450 19.120632
59.455 18.995522
59.460 19.018709
59.465 19.419197
59.470 19.579836
59.475 19.749792
59.480 19.356283
59.485 19.091377
59.490 18.723883
59.495 18.347996
59.500 17.998877
59.505 18.391636
59.510 18.701923
59.515 18.772247
59.520 18.80611
59.525 18.865499
59.530 19.21328
59.535 19.372215
59.540 19.195415
59.545 19.142593
59.550 19.605869
59.555 19.946827
59.560 20.340944
59.565 20.390102
59.570 19.969078
59.575 19.464434
59.580 19.292797
59.585 18.650919
59.590 17.983969
59.595 18.077921
59.600 18.724697
59.605 19.390219
59.610 19.701715
59.615 19.736151
59.620 20.102335
59.625 20.702671
59.630 20.464628
59.635 19.836466
59.640 19.539061
59.645 19.49078
59.650 19.440105
59.655 19.354916
59.660 19.302891
59.665 19.379677
59.670 19.780743
59.675 20.037371
59.680 20.380987
59.685 20.604069
59.690 20.942963
59.695 21.479595
59.700 22.146273
59.705 22.175552
59.710 22.079302
59.715 21.44536
59.720 21.566561
59.725 21.639421
59.730 21.543669
59.735 21.445997
59.740 21.548285
59.745 21.963476
59.750 22.736897
59.755 22.723875
59.760 22.442993
59.765 21.969015
59.770 22.000729
59.775 22.954094
59.780 23.171352
59.785 23.091936
59.790 23.045843
59.795 23.310942
59.800 23.32226
59.805 22.530083
59.810 21.508667
59.815 21.354338
59.820 21.170933
59.825 20.821278
59.830 20.942703
59.835 21.181297
59.840 21.67675
59.845 22.509373
59.850 22.91172
59.855 23.136576
59.860 23.51099
59.865 23.122471
59.870 23.33013
59.875 23.325714
59.880 23.21339
59.885 22.692999
59.890 22.4781
59.895 22.381704
59.900 22.576023
59.905 22.423273
59.910 21.940321
59.915 21.727936
59.920 22.016251
59.925 22.2404
59.930 22.483288
59.935 22.530331
59.940 22.416666
59.945 22.598171
59.950 22.608358
59.955 23.031366
59.960 22.782684
59.965 22.057787
59.970 22.28894
59.975 22.833895
59.980 23.049643
59.985 21.746054
59.990 21.597782
59.995 22.088808
60.000 22.610649
60.005 22.422548
60.010 22.704664
60.015 23.152668
60.020 24.301025
60.025 24.255766
60.030 24.023012
60.035 24.174154
60.040 24.491518
60.045 24.173389
60.050 24.168364
60.055 24.368511
60.060 24.733213
60.065 24.989721
60.070 24.927261
60.075 24.720083
60.080 24.524124
60.085 24.359457
60.090 23.301176
60.095 23.071733
60.100 23.227839
60.105 23.298569
60.110 22.888313
60.115 22.738117
60.120 23.195911
60.125 24.239336
60.130 23.858414
60.135 23.499702
60.140 23.347513
60.145 23.442984
60.150 23.317297
60.155 22.630396
60.160 22.508968
60.165 22.549091
60.170 22.48617
60.175 22.329979
60.180 22.346117
60.185 22.644176
60.190 22.652842
60.195 22.40099
60.200 22.621172
60.205 23.415211
60.210 23.8575
60.215 24.540892
60.220 24.668865
60.225 25.639999
60.230 25.269606
60.235 24.862154
60.240 23.587648
60.245 23.407614
60.250 22.858406
60.255 22.527822
60.260 22.3002
60.265 22.647627
60.270 23.04608
60.275 22.930151
60.280 22.702009
60.285 22.66613
60.290 22.299227
60.295 21.841599
60.300 21.658726
60.305 22.088512
60.310 22.394258
60.315 22.314892
60.320 22.393961
60.325 22.459602
60.330 22.615469
60.335 22.88517
60.340 22.92053
60.345 23.291203
60.350 23.396189
60.355 23.322803
60.360 23.618933
60.365 23.055883
60.370 22.656599
60.375 22.708588
60.380 22.79553
60.385 22.458841
60.390 22.264111
60.395 22.710453
60.400 23.321907
60.405 23.312311
60.410 22.914705
60.415 23.271023
60.420 23.480412
60.425 23.480444
60.430 22.873323
60.435 22.225037
60.440 22.020836
60.445 21.768822
60.450 21.145929
60.455 20.754656
60.460 20.864223
60.465 20.824331
60.470 20.873087
60.475 21.08894
60.480 21.584261
60.485 21.512983
60.490 21.650431
60.495 21.716284
60.500 21.690132
60.505 22.398417
60.510 22.973343
60.515 22.695782
60.520 22.982653
60.525 22.785345
60.530 22.822931
60.535 22.792782
60.540 22.004105
60.545 21.421669
60.550 20.948111
60.555 20.595606
60.560 20.484455
60.565 20.116364
60.570 19.72645
60.575 19.951548
60.580 20.050331
60.585 20.175512
60.590 20.373121
60.595 20.633909
60.600 20.806374
60.605 21.278034
60.610 21.261284
60.615 21.59705
60.620 22.157581
60.625 22.017145
60.630 21.45615
60.635 20.917477
60.640 20.844732
60.645 20.397202
60.650 20.224293
60.655 19.922258
60.660 19.92996
60.665 20.586063
60.670 20.432657
60.675 19.78162
60.680 19.621321
60.685 19.384939
60.690 19.279364
60.695 19.236494
60.700 19.220779
60.705 19.31813
60.710 19.239445
60.715 19.024113
60.720 18.507341
60.725 18.133913
60.730 17.983263
60.735 18.32848
60.740 18.6458
60.745 18.208429
60.750 18.640787
60.755 18.858095
60.760 18.760202
60.765 19.058094
60.770 18.797779
60.775 18.814863
60.780 19.361273
60.785 18.628973
60.790 18.249584
60.795 18.241392
60.800 18.018688
60.805 18.174873
60.810 18.298317
60.815 18.843218
60.820 19.554619
60.825 19.752949
60.830 19.416784
60.835 18.907049
60.840 18.526472
60.845 18.368446
60.850 17.886181
60.855 17.606707
60.860 17.650045
60.865 17.88225
60.870 17.861374
60.875 18.009808
60.880 18.026056
60.885 18.191971
60.890 18.322399
60.895 18.672112
60.900 18.97958
60.905 18.906567
60.910 19.023666
60.915 18.511061
60.920 18.027004
60.925 18.049803
60.930 18.038521
60.935 18.312349
60.940 18.374788
60.945 17.984217
60.950 18.782097
60.955 18.773607
60.960 18.498976
60.965 18.298811
60.970 18.185934
60.975 18.357574
60.980 18.629162
60.985 19.225235
60.990 19.083906
60.995 19.062176
61.000 19.289673
61.005 19.075747
61.010 18.995966
61.015 18.594866
61.020 17.45084
61.025 17.544769
61.030 17.50844
61.035 16.873898
61.040 17.27817
61.045 17.352077
61.050 17.040733
61.055 17.015371
61.060 16.816736
61.065 17.018234
61.070 17.159937
61.075 16.597427
61.080 16.446753
61.085 16.97797
61.090 17.080009
61.095 17.521311
61.100 17.290556
61.105 17.240377
61.110 17.763786
61.115 18.183455
61.120 18.074015
61.125 18.355703
61.130 18.411518
61.135 18.490919
61.140 18.65662
61.145 18.697247
61.150 18.094458
61.155 18.145258
61.160 17.784092
61.165 16.936798
61.170 17.110243
61.175 17.226492
61.180 16.902147
61.185 17.283899
61.190 16.999809
61.195 17.160513
61.200 18.162973
61.205 18.956299
61.210 19.165806
61.215 19.444111
61.220 19.272165
61.225 19.405315
61.230 19.633917
61.235 19.032009
61.240 18.111525
61.245 18.063854
61.250 18.137493
61.255 18.225901
61.260 18.045918
61.265 18.51075
61.270 19.256157
61.275 19.524584
61.280 19.456514
61.285 19.311644
61.290 19.220444
61.295 19.29859
61.300 18.145941
61.305 16.939533
61.310 16.55411
61.315 16.058317
61.320 16.51778
61.325 17.138315
61.330 17.196939
61.335 17.595047
61.340 18.570122
61.345 19.067513
61.350 19.014927
61.355 18.534184
61.360 18.671904
61.365 18.82719
61.370 18.227839
61.375 17.702196
61.380 17.429602
61.385 17.682102
61.390 17.236166
61.395 16.247812
61.400 15.986618
61.405 16.108082
61.410 15.973091
61.415 16.200264
61.420 16.527023
61.425 17.060215
61.430 17.864708
61.435 18.126047
61.440 18.95277
61.445 19.604097
61.450 19.463041
61.455 19.108231
61.460 18.408667
61.465 17.905416
61.470 17.659269
61.475 17.225304
61.480 16.685566
61.485 16.740677
61.490 16.870008
61.495 17.102989
61.500 17.275087
61.505 17.177313
61.510 17.2484
61.515 17.528435
61.520 17.243834
61.525 17.399611
61.530 17.976208
61.535 17.924225
61.540 18.886427
61.545 19.491028
61.550 19.302301
61.555 19.5063
61.560 19.429968
61.565 19.725067
61.570 20.179373
61.575 19.530128
61.580 19.022017
61.585 18.744663
61.590 18.448088
61.595 18.319899
61.600 17.421204
61.605 16.797638
61.610 17.016287
61.615 17.750946
61.620 17.917976
61.625 18.163563
61.630 18.144913
61.635 18.370367
61.640 18.363087
61.645 18.180204
61.650 17.703268
61.655 17.558226
61.660 17.721514
61.665 18.34226
61.670 18.195589
61.675 18.569338
61.680 18.183487
61.685 18.131851
61.690 18.066889
61.695 18.27438
61.700 18.030304
61.705 18.387808
61.710 18.51391
61.715 19.297394
61.720 20.125679
61.725 20.070917
61.730 19.263174
61.735 18.49684
61.740 18.157412
61.745 17.731979
61.750 16.363443
61.755 15.053695
61.760 14.792789
61.765 15.128741
61.770 15.587315
61.775 15.945598
61.780 16.252644
61.785 16.915457
61.790 17.204651
61.795 17.864241
61.800 18.212667
61.805 18.572701
61.810 18.827492
61.815 18.247515
61.820 17.970352
61.825 18.593903
61.830 18.428509
61.835 18.196882
61.840 18.114204
61.845 17.41506
61.850 17.776651
61.855 17.918634
61.860 17.429441
61.865 18.155312
61.870 17.69455
61.875 17.458176
61.880 18.274469
61.885 18.365938
61.890 18.513973
61.895 18.66469
61.900 18.137051
61.905 18.599081
61.910 18.728849
61.915 18.543808
61.920 18.396267
61.925 18.483622
61.930 18.200628
61.935 18.620611
61.940 19.146702
61.945 19.378891
61.950 18.932724
61.955 18.578733
61.960 18.598658
61.965 18.409555
61.970 17.857746
61.975 17.174961
61.980 16.851393
61.985 17.159248
61.990 18.194897
61.995 18.234905
62.000 18.776215
62.005 18.256546
62.010 18.203587
62.015 18.192677
62.020 17.731979
62.025 17.338387
62.030 17.300707
62.035 17.280638
62.040 17.483681
62.045 17.996492
62.050 18.721291
62.055 19.162067
62.060 18.881947
62.065 18.362152
62.070 17.98468
62.075 18.613785
62.080 18.184515
62.085 18.18572
62.090 18.158884
62.095 17.76367
62.100 17.712141
62.105 18.134069
62.110 18.139322
62.115 17.928686
62.120 17.473055
62.125 17.470518
62.130 18.368496
62.135 18.424826
62.140 17.951593
62.145 17.630182
62.150 17.986357
62.155 18.215307
62.160 18.588829
62.165 18.793299
62.170 19.048227
62.175 19.527285
62.180 19.504509
62.185 19.286028
62.190 18.85132
62.195 18.389385
62.200 18.582764
62.205 18.856503
62.210 18.836615
62.215 18.821898
62.220 18.526304
62.225 18.655615
62.230 18.557158
62.235 17.371685
62.240 17.172747
62.245 16.8407
62.250 16.986729
62.255 17.047863
62.260 16.990444
62.265 17.221956
62.270 17.768967
62.275 17.518839
62.280 16.898458
62.285 16.492432
62.290 16.504313
62.295 16.164026
62.300 15.95357
62.305 16.292072
62.310 17.19919
62.315 17.425995
62.320 18.031248
62.325 18.467497
62.330 18.362417
62.335 18.10187
62.340 17.436049
62.345 16.718105
62.350 16.903704
62.355 16.512836
62.360 16.393139
62.365 16.626024
62.370 16.884239
62.375 16.940735
62.380 16.802324
62.385 16.513269
62.390 16.673504
62.395 16.818729
62.400 17.233614
62.405 17.013838
62.410 16.925869
62.415 17.358397
62.420 17.932148
62.425 18.247503
62.430 18.178923
62.435 18.05233
62.440 18.334375
62.445 18.833458
62.450 19.333862
62.455 19.500156
62.460 19.411236
62.465 19.599968
62.470 19.243109
62.475 19.199055
62.480 19.00576
62.485 18.443655
62.490 17.760891
62.495 17.090733
62.500 16.907528
62.505 17.241926
62.510 16.895208
62.515 16.92658
62.520 16.684965
62.525 16.828897
62.530 16.911579
62.535 16.819174
62.540 16.931606
62.545 17.272749
62.550 17.31249
62.555 17.15925
62.560 17.513508
62.565 18.11759
62.570 17.543406
62.575 17.008656
62.580 17.411644
62.585 17.539064
62.590 17.870735
62.595 16.944342
62.600 16.421913
62.605 16.594814
62.610 16.695673
62.615 16.0075
62.620 16.004082
62.625 16.02602
62.630 16.385248
62.635 17.25905
62.640 18.145363
62.645 18.323418
62.650 19.08079
62.655 18.843937
62.660 18.753887
62.665 18.970516
62.670 18.029329
62.675 17.490171
62.680 17.789772
62.685 17.412483
62.690 18.639729
62.695 19.646147
62.700 19.605175
62.705 19.687788
62.710 19.569166
62.715 19.140045
62.720 18.974421
62.725 18.080996
62.730 17.476627
62.735 17.623302
62.740 18.147762
62.745 18.070049
62.750 18.028732
62.755 18.335417
62.760 18.23554
62.765 17.977312
62.770 17.58602
62.775 16.792419
62.780 16.862835
62.785 17.127075
62.790 17.175917
62.795 17.152802
62.800 16.765251
62.805 16.718964
62.810 17.281702
62.815 17.088474
62.820 16.783726
62.825 16.601673
62.830 16.441729
62.835 16.905258
62.840 17.023222
62.845 17.332729
62.850 17.722078
62.855 17.945732
62.860 17.704315
62.865 17.871393
62.870 18.308445
62.875 18.40864
62.880 18.067436
62.885 18.062515
62.890 18.154673
62.895 17.964277
62.900 17.39572
62.905 17.061155
62.910 16.975973
62.915 17.107477
62.920 16.779333
62.925 16.808952
62.930 17.125019
62.935 17.47019
62.940 17.191887
62.945 17.341993
62.950 16.912903
62.955 16.890575
62.960 17.036213
62.965 17.156559
62.970 17.557888
62.975 17.275404
62.980 17.144754
62.985 17.619225
62.990 17.701019
62.995 17.414047
63.000 17.520409
63.005 17.192314
63.010 17.467394
63.015 17.412357
63.020 17.339378
63.025 17.348251
63.030 17.000927
63.035 16.445639
63.040 16.397121
63.045 16.770845
63.050 16.62092
63.055 16.424879
63.060 16.74715
63.065 17.310154
63.070 17.832298
63.075 18.010159
63.080 17.565994
63.085 18.073715
63.090 18.54545
63.095 18.50054
63.100 18.562782
63.105 18.803251
63.110 19.20278
63.115 19.813675
63.120 19.934185
63.125 20.101236
63.130 19.846533
63.135 19.612165
63.140 19.602846
63.145 19.120296
63.150 18.752392
63.155 18.101633
63.160 17.908289
63.165 18.274616
63.170 18.003098
63.175 18.075655
63.180 18.595739
63.185 18.727537
63.190 18.646769
63.195 18.139664
63.200 18.33111
63.205 18.208132
63.210 17.885225
63.215 17.387657
63.220 17.250317
63.225 16.815393
63.230 16.871019
63.235 16.598013
63.240 16.518599
63.245 16.438499
63.250 16.680071
63.255 16.93693
63.260 17.582617
63.265 17.926765
63.270 17.760616
63.275 18.284605
63.280 17.809343
63.285 17.489683
63.290 17.360224
63.295 17.323692
63.300 17.061724
63.305 17.692099
63.310 17.830172
63.315 18.615717
63.320 18.88858
63.325 19.2474
63.330 19.263819
63.335 18.790131
63.340 18.31251
63.345 18.095747
63.350 18.543259
63.355 18.738596
63.360 18.359808
63.365 18.273216
63.370 18.921616
63.375 18.979366
63.380 18.831671
63.385 17.976004
63.390 17.520464
63.395 17.788105
63.400 18.235102
63.405 18.451206
63.410 18.733925
63.415 18.889761
63.420 19.288109
63.425 19.351561
63.430 19.28668
63.435 19.669083
63.440 19.68799
63.445 19.688524
63.450 19.349659
63.455 19.246365
63.460 19.352064
63.465 18.862211
63.470 18.15613
63.475 18.108889
63.480 18.144323
63.485 18.100321
63.490 18.119011
63.495 18.234938
63.500 18.678051
63.505 18.749763
63.510 18.58762
63.515 18.623281
63.520 18.917341
63.525 18.223133
63.530 18.021408
63.535 17.790308
63.540 17.295313
63.545 16.859489
63.550 16.732632
63.555 16.933632
63.560 17.270967
63.565 17.326813
63.570 17.634958
63.575 18.112005
63.580 18.072887
63.585 18.151678
63.590 18.227446
63.595 18.040213
63.600 17.902342
63.605 17.744087
63.610 16.942537
63.615 17.128214
63.620 16.765514
63.625 16.819084
63.630 16.818813
63.635 16.892136
63.640 16.914574
63.645 17.752071
63.650 18.620497
63.655 18.595211
63.660 18.212072
63.665 18.753277
63.670 18.971645
63.675 18.356638
63.680 17.739027
63.685 17.784746
63.690 18.056526
63.695 18.243288
63.700 18.028486
63.705 18.285789
63.710 19.046658
63.715 19.022032
63.720 18.42972
63.725 18.347656
63.730 18.062569
63.735 17.833893
63.740 17.543806
63.745 17.598213
63.750 17.509569
63.755 16.967329
63.760 16.83497
63.765 17.417583
63.770 18.02495
63.775 18.781286
63.780 19.082838
63.785 19.181629
63.790 20.188839
63.795 20.822987
63.800 20.280457
63.805 19.846573
63.810 19.328888
63.815 18.991302
63.820 18.705437
63.825 17.900934
63.830 17.032835
63.835 16.76156
63.840 16.196127
63.845 15.599321
63.850 15.736614
63.855 16.228905
63.860 16.342388
63.865 17.017687
63.870 17.239614
63.875 17.697245
63.880 17.826939
63.885 18.171871
63.890 18.286819
63.895 18.953115
63.900 19.44261
63.905 19.549366
63.910 19.148693
63.915 19.165316
63.920 18.542303
63.925 17.991875
63.930 17.65444
63.935 17.021372
63.940 16.880344
63.945 16.909052
63.950 17.000214
63.955 17.187666
63.960 17.477753
63.965 17.916916
63.970 18.134415
63.975 18.514652
63.980 19.386585
63.985 19.635187
63.990 19.868828
63.995 20.118429
64.000 19.648396
64.005 19.907656
64.010 20.620897
64.015 21.184793
64.020 21.346945
64.025 21.159666
64.030 20.994598
64.035 21.598345
64.040 21.817232
64.045 21.58835
64.050 20.774813
64.055 20.48535
64.060 19.859314
64.065 19.950253
64.070 19.265825
64.075 18.400042
64.080 17.856199
64.085 18.229282
64.090 18.495256
64.095 18.887043
64.100 18.57889
64.105 18.584835
64.110 18.71909
64.115 18.389019
64.120 18.237312
64.125 18.349058
64.130 18.734396
64.135 19.43022
64.140 19.765469
64.145 19.834621
64.150 19.866257
64.155 20.034897
64.160 19.785551
64.165 19.647711
64.170 19.575939
64.175 19.580894
64.180 19.738941
64.185 19.881678
64.190 19.757046
64.195 19.552135
64.200 19.806313
64.205 19.959194
64.210 19.489994
64.215 19.546957
64.220 20.058823
64.225 20.361403
64.230 20.990116
64.235 20.833805
64.240 20.642551
64.245 20.877033
64.250 20.388985
64.255 19.56328
64.260 19.133051
64.265 18.75621
64.270 18.412642
64.275 18.369709
64.280 18.579807
64.285 18.937366
64.290 19.336056
64.295 19.234339
64.300 19.133415
64.305 19.0921
64.310 18.761053
64.315 18.441843
64.320 18.613529
64.325 18.161983
64.330 17.773075
64.335 17.38699
64.340 17.549292
64.345 18.176266
64.350 18.959843
64.355 19.430023
64.360 20.492929
64.365 21.304413
64.370 22.050592
64.375 21.672342
64.380 21.338366
64.385 20.820364
64.390 20.667398
64.395 20.583225
64.400 20.199032
64.405 19.335669
64.410 19.180357
64.415 18.948011
64.420 19.200869
64.425 19.07518
64.430 17.974243
64.435 18.272295
64.440 19.275145
64.445 20.127583
64.450 20.759943
64.455 20.256517
64.460 19.779484
64.465 20.093987
64.470 19.996485
64.475 19.185886
64.480 18.825769
64.485 19.117357
64.490 20.179745
64.495 20.255192
64.500 20.385553
64.505 20.667662
64.510 21.638626
64.515 21.677114
64.520 21.11145
64.525 20.214132
64.530 20.405085
64.535 21.037552
64.540 20.978472
64.545 20.20583
64.550 19.739752
64.555 19.715219
64.560 19.721575
64.565 19.442097
64.570 19.234272
64.575 18.794386
64.580 19.062416
64.585 19.891964
64.590 20.342413
64.595 20.74651
64.600 20.923748
64.605 20.294312
64.610 19.958008
64.615 20.126799
64.620 19.739113
64.625 18.891508
64.630 18.571943
64.635 18.560266
64.640 19.136343
64.645 20.585726
64.650 20.661217
64.655 20.596149
64.660 20.901081
64.665 20.768383
64.670 20.869766
64.675 20.334723
64.680 19.381701
64.685 19.198576
64.690 19.306137
64.695 19.559565
64.700 20.285931
64.705 20.430473
64.710 20.71077
64.715 21.200903
64.720 21.146736
64.725 21.012474
64.730 20.892017
64.735 20.357079
64.740 20.278467
64.745 20.008139
64.750 19.432945
64.755 19.005163
64.760 19.647827
64.765 20.32892
64.770 20.957396
64.775 20.717712
64.780 20.888567
64.785 21.197844
64.790 21.473301
64.795 20.938065
64.800 21.07876
64.805 21.181881
64.810 21.603012
64.815 21.18541
64.820 21.170038
64.825 20.822638
64.830 20.766123
64.835 20.184258
64.840 19.742678
64.845 19.991962
64.850 20.177061
64.855 20.423796
64.860 21.389334
64.865 21.428123
64.870 21.442671
64.875 21.832001
64.880 21.506697
64.885 21.46418
64.890 22.055487
64.895 21.631903
64.900 21.724352
64.905 22.257853
64.910 21.646721
64.915 22.436266
64.920 23.118448
64.925 22.658382
64.930 23.163115
64.935 23.69845
64.940 23.592691
64.945 23.734346
64.950 23.253687
64.955 23.125839
64.960 23.595905
64.965 23.564669
64.970 22.661045
64.975 22.420946
64.980 22.81592
64.985 23.070827
64.990 23.073015
64.995 22.95536
65.000 23.153284
65.005 24.0117
65.010 24.362061
65.015 24.612459
65.020 25.506016
65.025 25.170839
65.030 24.633783
65.035 24.317827
65.040 24.15694
65.045 24.053522
65.050 23.639423
65.055 23.191076
65.060 23.248896
65.065 23.337917
65.070 23.753836
65.075 23.722895
65.080 23.581182
65.085 23.789164
65.090 23.822254
65.095 23.997118
65.100 24.322733
65.105 23.77552
65.110 24.136986
65.115 24.596039
65.120 25.151794
65.125 25.228779
65.130 26.016579
65.135 26.421692
65.140 26.490688
65.145 26.588493
65.150 26.112442
65.155 25.35675
65.160 24.822794
65.165 24.419968
65.170 23.993959
65.175 24.146959
65.180 23.148232
65.185 22.995344
65.190 22.864042
65.195 23.168148
65.200 22.789904
65.205 22.605249
65.210 22.75654
65.215 23.346216
65.220 23.556726
65.225 23.963387
65.230 24.813801
65.235 25.389576
65.240 25.460751
65.245 25.200878
65.250 24.764723
65.255 25.177998
65.260 24.917681
65.265 24.013435
65.270 23.400738
65.275 23.087992
65.280 23.278149
65.285 24.027809
65.290 24.06035
65.295 24.133444
65.300 24.402145
65.305 24.672146
65.310 24.851439
65.315 24.905455
65.320 24.686831
65.325 24.330515
65.330 24.290043
65.335 24.189642
65.340 24.585617
65.345 24.561365
65.350 24.365126
65.355 24.455143
65.360 24.533546
65.365 24.374723
65.370 24.664249
65.375 24.390265
65.380 24.169329
65.385 23.976452
65.390 24.004948
65.395 24.42025
65.400 25.337711
65.405 25.515787
65.410 25.897362
65.415 26.468815
65.420 27.14587
65.425 27.10594
65.430 27.140051
65.435 26.213997
65.440 25.422665
65.445 25.039982
65.450 24.354164
65.455 23.609846
65.460 23.464302
65.465 23.729324
65.470 24.298601
65.475 25.084452
65.480 25.410156
65.485 26.391586
65.490 26.87756
65.495 27.159372
65.500 26.702971
65.505 26.481842
65.510 26.703337
65.515 27.055954
65.520 27.568598
65.525 28.240356
65.530 28.293615
65.535 28.614424
65.540 30.015337
65.545 29.953598
65.550 29.517714
65.555 28.507851
65.560 27.619535
65.565 27.336145
65.570 27.555218
65.575 26.867081
65.580 27.321253
65.585 28.12668
65.590 28.782396
65.595 28.936844
65.600 28.854301
65.605 29.711866
65.610 30.084846
65.615 30.390032
65.620 30.398676
65.625 30.907166
65.630 31.593452
65.635 31.477915
65.640 31.364914
65.645 31.271761
65.650 31.328474
65.655 31.27965
65.660 31.255674
65.665 31.476543
65.670 32.224743
65.675 32.428223
65.680 32.866207
65.685 33.236282
65.690 32.856739
65.695 32.84911
65.700 33.155704
65.705 33.072041
65.710 33.089931
65.715 33.79224
65.720 33.184998
65.725 33.554668
65.730 34.187088
65.735 34.108013
65.740 34.367958
65.745 34.712341
65.750 34.626629
65.755 35.388412
65.760 35.589619
65.765 35.632542
65.770 35.793018
65.775 36.00148
65.780 36.24968
65.785 36.570522
65.790 36.594414
65.795 35.944794
65.800 35.501217
65.805 35.818272
65.810 35.56311
65.815 35.238148
65.820 35.144695
65.825 36.607567
65.830 37.706654
65.835 37.816368
65.840 37.877705
65.845 38.337147
65.850 38.61208
65.855 38.465488
65.860 37.819359
65.865 37.849075
65.870 39.147331
65.875 39.401123
65.880 39.161713
65.885 39.316509
65.890 39.712193
65.895 41.033863
65.900 41.386749
65.905 40.218132
65.910 40.133892
65.915 40.284882
65.920 40.570202
65.925 39.900288
65.930 38.279404
65.935 38.871521
65.940 40.200565
65.945 40.375202
65.950 40.482403
65.955 39.913834
65.960 40.052052
65.965 40.482212
65.970 40.07534
65.975 39.766994
65.980 40.032505
65.985 39.735569
65.990 39.884285
65.995 40.795555
66.000 40.900127
66.005 40.485523
66.010 40.829243
66.015 40.61599
66.020 41.243599
66.025 41.368439
66.030 41.187641
66.035 41.089012
66.040 41.648785
66.045 41.289585
66.050 41.662231
66.055 41.268665
66.060 40.871506
66.065 41.345234
66.070 41.537754
66.075 41.081001
66.080 41.134254
66.085 41.089291
66.090 41.762779
66.095 42.449806
66.100 42.463932
66.105 42.219379
66.110 42.393848
66.115 41.407211
66.120 41.216145
66.125 40.837616
66.130 39.523228
66.135 38.678551
66.140 39.127357
66.145 39.117935
66.150 39.624706
66.155 39.752361
66.160 39.565353
66.165 40.632019
66.170 40.303139
66.175 40.134182
66.180 39.686207
66.185 38.774143
66.190 37.995346
66.195 37.518463
66.200 36.367691
66.205 36.817753
66.210 36.970215
66.215 37.811802
66.220 38.007938
66.225 38.233959
66.230 38.773251
66.235 39.075424
66.240 38.61034
66.245 37.978245
66.250 37.316326
66.255 37.890953
66.260 37.717003
66.265 37.263264
66.270 36.755997
66.275 35.383858
66.280 34.361923
66.285 34.111191
66.290 33.718685
66.295 33.045273
66.300 33.184357
66.305 33.653008
66.310 34.733658
66.315 35.182224
66.320 35.200821
66.325 35.086754
66.330 35.209068
66.335 35.374638
66.340 35.419754
66.345 35.205811
66.350 35.133297
66.355 34.980671
66.360 35.261269
66.365 35.259186
66.370 34.751633
66.375 34.035019
66.380 33.465557
66.385 33.318913
66.390 33.090675
66.395 32.800907
66.400 33.596859
66.405 33.382496
66.410 33.803818
66.415 34.417278
66.420 34.414753
66.425 33.925919
66.430 33.413002
66.435 32.386986
66.440 32.068634
66.445 31.33898
66.450 30.103474
66.455 29.583944
66.460 29.400991
66.465 29.308254
66.470 29.699823
66.475 29.946993
66.480 29.31382
66.485 29.756723
66.490 30.956278
66.495 31.247816
66.500 30.463028
66.505 29.431692
66.510 28.987354
66.515 29.966671
66.520 29.599277
66.525 28.394279
66.530 27.726667
66.535 27.896019
66.540 27.988726
66.545 27.171457
66.550 26.832731
66.555 26.242046
66.560 26.526974
66.565 27.003231
66.570 27.356485
66.575 27.857681
66.580 28.509457
66.585 28.008486
66.590 28.251596
66.595 28.051321
66.600 27.774242
66.605 27.259266
66.610 26.864662
66.615 26.835402
66.620 27.004395
66.625 26.927261
66.630 27.067005
66.635 27.529579
66.640 27.467886
66.645 27.044214
66.650 27.431622
66.655 27.343561
66.660 26.616297
66.665 26.005823
66.670 24.889347
66.675 24.475523
66.680 24.69154
66.685 23.714024
66.690 23.72983
66.695 24.126125
66.700 24.021486
66.705 24.645878
66.710 24.534117
66.715 25.15263
66.720 25.603807
66.725 25.361794
66.730 24.706673
66.735 24.630264
66.740 24.838367
66.745 24.90497
66.750 24.195726
66.755 24.152222
66.760 24.129545
66.765 24.482601
66.770 24.720417
66.775 24.550556
66.780 24.820896
66.785 24.524004
66.790 23.79557
66.795 23.489105
66.800 23.313711
66.805 23.682175
66.810 23.529541
66.815 23.403692
66.820 22.862497
66.825 23.096987
66.830 23.439468
66.835 23.430683
66.840 23.160461
66.845 23.684267
66.850 23.663933
66.855 23.956827
66.860 23.332569
66.865 23.275391
66.870 23.167028
66.875 22.785625
66.880 23.135872
66.885 23.279411
66.890 23.389713
66.895 24.494265
66.900 24.671602
66.905 24.595724
66.910 24.510736
66.915 23.767246
66.920 23.885431
66.925 23.907539
66.930 23.229044
66.935 23.103645
66.940 23.657688
66.945 23.752604
66.950 24.077606
66.955 24.025639
66.960 24.534142
66.965 24.464642
66.970 24.558182
66.975 24.01862
66.980 24.350042
66.985 24.186096
66.990 24.121466
66.995 24.26195
67.000 24.78577
67.005 24.390776
67.010 23.951794
67.015 23.772013
67.020 23.434204
67.025 23.224785
67.030 22.269814
67.035 22.340252
67.040 23.282511
67.045 24.02898
67.050 23.867523
67.055 24.399755
67.060 24.472357
67.065 24.750042
67.070 24.144674
67.075 23.661457
67.080 23.6175
67.085 23.9578
67.090 23.998705
67.095 24.061655
67.100 24.014563
67.105 23.680431
67.110 23.663912
67.115 23.560719
67.120 23.681843
67.125 23.644245
67.130 23.664234
67.135 23.541424
67.140 24.093729
67.145 24.188835
67.150 24.466358
67.155 24.373117
67.160 24.054338
67.165 24.16423
67.170 24.191767
67.175 24.269564
67.180 24.186028
67.185 23.584023
67.190 23.625612
67.195 23.58028
67.200 23.363518
67.205 22.74329
67.210 21.923405
67.215 21.790186
67.220 22.221518
67.225 21.575689
67.230 21.407095
67.235 20.995022
67.240 20.779329
67.245 20.668526
67.250 19.898314
67.255 18.956087
67.260 19.678896
67.265 19.985277
67.270 20.012945
67.275 20.420078
67.280 21.089415
67.285 21.950378
67.290 22.342442
67.295 22.145878
67.300 21.914852
67.305 22.29912
67.310 22.711037
67.315 22.487309
67.320 21.979383
67.325 21.52458
67.330 20.811045
67.335 20.702038
67.340 20.749168
67.345 20.657558
67.350 20.477871
67.355 20.423943
67.360 20.626814
67.365 21.134233
67.370 21.662952
67.375 21.766768
67.380 22.122433
67.385 22.6068
67.390 22.925943
67.395 23.241232
67.400 22.96637
67.405 22.644621
67.410 22.752361
67.415 22.269466
67.420 22.28121
67.425 21.970819
67.430 21.179874
67.435 21.35535
67.440 21.213097
67.445 20.644203
67.450 20.717976
67.455 20.616451
67.460 20.839392
67.465 21.236979
67.470 21.00741
67.475 21.458094
67.480 21.786762
67.485 21.25329
67.490 21.498341
67.495 22.51572
67.500 23.133387
67.505 23.1047
67.510 22.918491
67.515 22.807793
67.520 23.06978
67.525 22.584661
67.530 21.80406
67.535 21.437046
67.540 21.52972
67.545 21.320969
67.550 20.967182
67.555 21.123692
67.560 21.182053
67.565 20.775558
67.570 20.436518
67.575 19.949089
67.580 20.002413
67.585 20.416843
67.590 20.603922
67.595 20.887648
67.600 21.657288
67.605 22.221851
67.610 21.863653
67.615 21.520185
67.620 21.302206
67.625 21.181349
67.630 21.406631
67.635 21.24724
67.640 21.282944
67.645 21.883841
67.650 22.104063
67.655 22.388371
67.660 22.4622
67.665 22.841339
67.670 22.875582
67.675 22.282209
67.680 22.31399
67.685 22.037119
67.690 21.367611
67.695 21.244402
67.700 20.444103
67.705 19.706968
67.710 20.568735
67.715 20.9212
67.720 21.109425
67.725 21.179966
67.730 20.690409
67.735 21.069632
67.740 21.485758
67.745 21.003555
67.750 20.566612
67.755 20.516176
67.760 20.784447
67.765 21.054386
67.770 21.266602
67.775 21.412376
67.780 21.453243
67.785 21.666485
67.790 21.793703
67.795 21.676483
67.800 21.582613
67.805 21.0383
67.810 21.076118
67.815 20.95075
67.820 20.78861
67.825 20.663748
67.830 20.672422
67.835 20.644531
67.840 20.769211
67.845 21.109669
67.850 22.157206
67.855 22.575768
67.860 22.930689
67.865 22.87007
67.870 22.671528
67.875 22.832253
67.880 22.480804
67.885 21.38039
67.890 21.133293
67.895 20.671278
67.900 21.047049
67.905 20.922314
67.910 21.079285
67.915 21.242678
67.920 21.599749
67.925 21.376951
67.930 21.323866
67.935 20.731558
67.940 21.681883
67.945 21.671978
67.950 21.606312
67.955 21.684498
67.960 21.682673
67.965 22.518015
67.970 23.205486
67.975 22.897789
67.980 22.374239
67.985 22.350946
67.990 22.705986
67.995 22.547598
68.000 21.908239
68.005 21.403782
68.010 21.521294
68.015 22.223467
68.020 22.39431
68.025 22.690094
68.030 22.695189
68.035 23.168823
68.040 23.288633
68.045 22.560318
68.050 22.25024
68.055 21.958937
68.060 21.509443
68.065 21.457167
68.070 21.463182
68.075 21.382923
68.080 22.272108
68.085 22.275803
68.090 22.037748
68.095 21.805061
68.100 21.877567
68.105 21.711843
68.110 21.774649
68.115 21.319847
68.120 20.954691
68.125 20.980614
68.130 21.09199
68.135 21.107859
68.140 20.313528
68.145 20.858337
68.150 21.526711
68.155 21.76067
68.160 22.037508
68.165 21.80933
68.170 21.9475
68.175 22.449284
68.180 21.570381
68.185 21.210384
68.190 21.436565
68.195 21.638157
68.200 21.983614
68.205 22.108042
68.210 22.040287
68.215 22.111917
68.220 21.382046
68.225 20.509632
68.230 20.641977
68.235 20.834513
68.240 20.819479
68.245 21.059515
68.250 21.017117
68.255 21.670679
68.260 22.544493
68.265 22.788296
68.270 22.245024
68.275 22.151752
68.280 21.921961
68.285 21.585943
68.290 21.138487
68.295 20.940798
68.300 20.386362
68.305 20.547686
68.310 21.179937
68.315 21.731131
68.320 22.450562
68.325 22.332861
68.330 22.242146
68.335 22.972038
68.340 22.881678
68.345 22.398493
68.350 22.317276
68.355 22.116549
68.360 22.193731
68.365 21.778931
68.370 21.5718
68.375 21.621107
68.380 21.503189
68.385 21.82015
68.390 21.921724
68.395 21.895128
68.400 22.026287
68.405 21.951702
68.410 21.701262
68.415 21.451145
68.420 21.212326
68.425 21.14139
68.430 21.173416
68.435 21.239836
68.440 21.749138
68.445 21.593273
68.450 21.192152
68.455 21.2152
68.460 20.800968
68.465 21.174101
68.470 21.317062
68.475 20.98048
68.480 21.651478
68.485 22.221104
68.490 22.337673
68.495 23.368822
68.500 23.513706
68.505 23.060131
68.510 23.426304
68.515 23.488165
68.520 23.018581
68.525 22.682915
68.530 22.358517
68.535 21.929249
68.540 21.88271
68.545 21.463751
68.550 21.102341
68.555 21.378975
68.560 21.575773
68.565 22.140827
68.570 22.777058
68.575 23.239904
68.580 23.714811
68.585 23.828812
68.590 23.979919
68.595 23.586161
68.600 23.175285
68.605 22.808363
68.610 22.448086
68.615 21.698389
68.620 21.55604
68.625 21.011997
68.630 21.31863
68.635 20.890608
68.640 21.048962
68.645 21.276913
68.650 21.361462
68.655 21.326059
68.660 20.854563
68.665 20.733786
68.670 20.46834
68.675 20.099915
68.680 20.183508
68.685 20.09845
68.690 20.15984
68.695 20.70846
68.700 20.405998
68.705 20.389666
68.710 20.383188
68.715 20.448223
68.720 21.059418
68.725 21.147055
68.730 21.500797
68.735 21.893385
68.740 22.422419
68.745 22.3396
68.750 22.110676
68.755 21.788826
68.760 21.9827
68.765 21.92544
68.770 21.923916
68.775 22.0648
68.780 22.134106
68.785 22.419588
68.790 22.524721
68.795 22.335829
68.800 21.989841
68.805 21.580723
68.810 21.454853
68.815 21.616013
68.820 21.501392
68.825 21.857557
68.830 22.536402
68.835 22.946239
68.840 23.842676
68.845 24.202608
68.850 24.076792
68.855 23.886007
68.860 23.757715
68.865 24.11381
68.870 23.990574
68.875 23.053503
68.880 23.00465
68.885 23.075958
68.890 23.165199
68.895 22.786743
68.900 21.508673
68.905 21.390522
68.910 21.574865
68.915 21.119207
68.920 21.611612
68.925 21.77878
68.930 21.667292
68.935 21.877506
68.940 21.98374
68.945 22.028954
68.950 22.216808
68.955 21.918571
68.960 21.790533
68.965 22.203827
68.970 22.86149
68.975 23.055199
68.980 23.22538
68.985 23.480165
68.990 23.798805
68.995 24.439045
69.000 24.905039
69.005 25.822069
69.010 25.9354
69.015 25.599754
69.020 25.128283
69.025 24.927698
69.030 24.224689
69.035 24.024359
69.040 23.656851
69.045 23.690014
69.050 24.594727
69.055 24.7258
69.060 24.465773
69.065 24.506958
69.070 24.171988
69.075 23.513866
69.080 23.259443
69.085 22.936337
69.090 22.730846
69.095 22.452147
69.100 23.027313
69.105 23.51692
69.110 24.80217
69.115 25.124271
69.120 25.693165
69.125 26.572359
69.130 27.326004
69.135 27.056446
69.140 27.154898
69.145 26.696678
69.150 26.8519
69.155 27.660856
69.160 28.052071
69.165 28.030231
69.170 28.257524
69.175 28.333588
69.180 28.658789
69.185 28.176342
69.190 27.566921
69.195 27.317019
69.200 27.128633
69.205 27.342186
69.210 26.939577
69.215 26.234196
69.220 26.299986
69.225 26.282572
69.230 26.243837
69.235 26.008307
69.240 25.8368
69.245 26.654547
69.250 27.534838
69.255 27.280714
69.260 27.462553
69.265 28.19174
69.270 29.162033
69.275 29.46841
69.280 28.644167
69.285 27.777386
69.290 28.100512
69.295 27.035536
69.300 26.087093
69.305 25.985481
69.310 26.264914
69.315 27.161716
69.320 27.631557
69.325 28.012259
69.330 28.864227
69.335 29.106016
69.340 28.594269
69.345 28.579491
69.350 28.549664
69.355 28.901186
69.360 28.778597
69.365 29.024113
69.370 28.659046
69.375 29.346397
69.380 28.869213
69.385 28.607655
69.390 28.582687
69.395 28.318424
69.400 28.130409
69.405 27.727644
69.410 27.407967
69.415 27.694939
69.420 27.353889
69.425 27.2638
69.430 27.756897
69.435 28.36474
69.440 29.12134
69.445 30.05068
69.450 31.636909
69.455 33.098778
69.460 33.237267
69.465 33.179314
69.470 33.382698
69.475 32.416733
69.480 31.8321
69.485 30.958078
69.490 30.914356
69.495 31.232721
69.500 31.309486
69.505 31.983852
69.510 32.471283
69.515 32.144924
69.520 31.535221
69.525 31.25386
69.530 30.958275
69.535 30.754515
69.540 30.209177
69.545 30.042257
69.550 30.903206
69.555 30.648666
69.560 30.526913
69.565 30.692814
69.570 30.864489
69.575 30.454542
69.580 30.368969
69.585 29.855738
69.590 30.288149
69.595 30.124155
69.600 29.808041
69.605 29.35272
69.610 30.054201
69.615 31.047415
69.620 30.432531
69.625 29.828529
69.630 29.523413
69.635 29.815655
69.640 30.252838
69.645 29.842972
69.650 29.068884
69.655 29.511978
69.660 29.76561
69.665 29.619099
69.670 29.937679
69.675 30.16567
69.680 29.861889
69.685 29.53236
69.690 29.525946
69.695 29.512548
69.700 29.503702
69.705 28.990107
69.710 28.61043
69.715 28.916689
69.720 28.694044
69.725 28.87809
69.730 29.378599
69.735 29.457233
69.740 29.710676
69.745 29.464106
69.750 29.376038
69.755 29.710878
69.760 29.346703
69.765 28.134287
69.770 28.118702
69.775 28.153906
69.780 27.505951
69.785 27.454794
69.790 27.490036
69.795 27.899656
69.800 28.895498
69.805 29.146437
69.810 29.109087
69.815 29.92849
69.820 29.782682
69.825 30.104151
69.830 29.960119
69.835 29.726896
69.840 28.863262
69.845 28.592346
69.850 27.714893
69.855 27.415178
69.860 25.966373
69.865 25.258814
69.870 24.722628
69.875 24.962461
69.880 25.346985
69.885 26.011906
69.890 26.566031
69.895 27.125044
69.900 27.557669
69.905 27.666723
69.910 26.789431
69.915 25.877989
69.920 25.222925
69.925 24.045189
69.930 23.586432
69.935 22.609678
69.940 22.396955
69.945 22.437466
69.950 22.884485
69.955 23.318531
69.960 23.761736
69.965 23.599764
69.970 24.018555
69.975 24.172932
69.980 24.045376
69.985 23.353569
69.990 22.712589
69.995 23.135902
70.000 23.386345
70.005 23.269703
70.010 23.415333
70.015 23.088734
70.020 23.602695
70.025 23.68265
70.030 23.084023
70.035 22.59494
70.040 21.699911
70.045 21.831181
70.050 22.064846
70.055 21.680941
70.060 21.256277
70.065 21.163242
70.070 21.375729
70.075 20.975977
70.080 20.922489
70.085 21.103029
70.090 21.351021
70.095 21.263836
70.100 21.010445
70.105 20.653847
70.110 20.887363
70.115 20.73576
70.120 20.721992
70.125 20.85709
70.130 20.876831
70.135 20.644949
70.140 21.159544
70.145 20.970745
70.150 20.937191
70.155 20.746361
70.160 20.561766
70.165 20.393049
70.170 19.98542
70.175 20.165211
70.180 20.417454
70.185 20.489752
70.190 20.197195
70.195 20.028051
70.200 20.124521
70.205 20.418797
70.210 20.196136
70.215 19.669806
70.220 19.900137
70.225 20.029566
70.230 20.5317
70.235 20.689589
70.240 20.849567
70.245 20.808626
70.250 21.318508
70.255 21.415689
70.260 21.303312
70.265 21.158991
70.270 21.080589
70.275 21.004707
70.280 21.069744
70.285 20.764183
70.290 21.006254
70.295 21.648954
70.300 21.809849
70.305 21.230364
70.310 21.042313
70.315 20.69838
70.320 20.709862
70.325 20.049538
70.330 19.825464
70.335 19.405146
70.340 20.341957
70.345 20.362091
70.350 20.354387
70.355 20.359547
70.360 20.579317
70.365 20.692497
70.370 20.92536
70.375 20.57795
70.380 20.582491
70.385 21.060328
70.390 20.933348
70.395 21.649605
70.400 21.109085
70.405 20.953825
70.410 21.166725
70.415 21.179543
70.420 20.729322
70.425 20.036716
70.430 19.783684
70.435 20.146629
70.440 20.740145
70.445 20.848454
70.450 20.587193
70.455 20.971682
70.460 20.882425
70.465 20.709526
70.470 20.265875
70.475 19.62347
70.480 19.246279
70.485 19.188114
70.490 19.416279
70.495 19.901653
70.500 20.148527
70.505 20.505312
70.510 20.443317
70.515 20.74427
70.520 20.697617
70.525 20.752996
70.530 20.623009
70.535 20.096491
70.540 19.94166
70.545 20.036772
70.550 19.737284
70.555 19.437269
70.560 19.187317
70.565 19.292738
70.570 19.474127
70.575 19.493002
70.580 19.466036
70.585 19.551979
70.590 19.745108
70.595 19.456549
70.600 19.093773
70.605 19.175863
70.610 19.384481
70.615 19.513411
70.620 19.638361
70.625 19.708654
70.630 19.374678
70.635 19.461027
70.640 19.580421
70.645 20.001848
70.650 20.332806
70.655 20.678381
70.660 20.639826
70.665 20.655706
70.670 20.536497
70.675 19.938454
70.680 19.707949
70.685 19.199356
70.690 19.364891
70.695 19.782721
70.700 19.987179
70.705 20.323833
70.710 20.511162
70.715 20.323925
70.720 20.641426
70.725 20.795235
70.730 21.242327
70.735 21.244061
70.740 20.727188
70.745 20.01157
70.750 19.360905
70.755 18.675049
70.760 18.286118
70.765 17.735249
70.770 17.623028
70.775 17.532757
70.780 17.657391
70.785 17.996429
70.790 18.403006
70.795 18.016813
70.800 18.022505
70.805 18.484678
70.810 19.025211
70.815 19.54306
70.820 20.666723
70.825 20.414902
70.830 20.85272
70.835 21.352608
70.840 21.28194
70.845 21.27356
70.850 20.973503
70.855 20.282276
70.860 20.745628
70.865 20.970358
70.870 20.731153
70.875 20.999842
70.880 20.667923
70.885 20.535738
70.890 20.989195
70.895 20.784357
70.900 20.555996
70.905 20.501085
70.910 20.284157
70.915 20.287294
70.920 19.865183
70.925 19.545849
70.930 19.226597
70.935 18.8011
70.940 18.473185
70.945 18.872953
70.950 19.021048
70.955 18.758228
70.960 18.548429
70.965 18.482824
70.970 19.005949
70.975 19.027529
70.980 18.944742
70.985 18.953592
70.990 18.923672
70.995 18.800074
71.000 18.73366
71.005 18.034092
71.010 17.710106
71.015 17.691528
71.020 18.094494
71.025 17.834099
71.030 17.311298
71.035 18.166332
71.040 18.81538
71.045 19.451508
71.050 19.51543
71.055 19.472788
71.060 20.796833
71.065 21.460281
71.070 20.942585
71.075 20.467224
71.080 20.099056
71.085 20.121922
71.090 19.659531
71.095 18.799961
71.100 19.064926
71.105 19.033796
71.110 19.117846
71.115 18.813974
71.120 18.655117
71.125 18.877914
71.130 18.724327
71.135 18.419065
71.140 18.669538
71.145 18.775599
71.150 18.68331
71.155 19.137499
71.160 18.875582
71.165 18.98752
71.170 19.068535
71.175 19.15654
71.180 19.41103
71.185 19.419476
71.190 18.773148
71.195 18.82238
71.200 19.104458
71.205 18.776333
71.210 18.717237
71.215 18.99646
71.220 19.184141
71.225 19.256844
71.230 19.319502
71.235 18.72967
71.240 18.798347
71.245 19.112228
71.250 19.310375
71.255 19.322157
71.260 19.295383
71.265 19.436348
71.270 20.055
71.275 19.790079
71.280 19.705832
71.285 19.105293
71.290 19.19508
71.295 19.352999
71.300 19.298494
71.305 18.720314
71.310 18.654409
71.315 18.119541
71.320 18.833115
71.325 18.797785
71.330 19.266685
71.335 19.950949
71.340 20.780495
71.345 21.372728
71.350 21.706486
71.355 21.752216
71.360 21.720802
71.365 21.445198
71.370 21.567366
71.375 21.977047
71.380 21.491898
71.385 21.342497
71.390 21.278944
71.395 21.210909
71.400 21.094955
71.405 20.509205
71.410 19.975336
71.415 19.983768
71.420 20.312466
71.425 20.320051
71.430 20.354345
71.435 19.842659
71.440 19.895279
71.445 19.959576
71.450 20.323574
71.455 20.071901
71.460 19.287312
71.465 18.668316
71.470 18.748068
71.475 18.871634
71.480 18.442741
71.485 17.943329
71.490 18.253307
71.495 18.525061
71.500 18.896818
71.505 19.220442
71.510 19.3918
71.515 20.201355
71.520 20.318314
71.525 20.599749
71.530 21.194576
71.535 21.164778
71.540 20.565784
71.545 19.815285
71.550 19.58514
71.555 19.58687
71.560 18.661825
71.565 18.83581
71.570 18.5147
71.575 18.700426
71.580 18.581539
71.585 18.28919
71.590 18.358007
71.595 18.49094
71.600 18.157522
71.605 18.66592
71.610 18.558832
71.615 18.965008
71.620 19.10074
71.625 19.06382
71.630 19.379623
71.635 19.516329
71.640 19.48772
71.645 19.230381
71.650 18.817596
71.655 18.603477
71.660 17.935091
71.665 17.739161
71.670 17.681801
71.675 17.834263
71.680 17.858501
71.685 18.355247
71.690 18.586716
71.695 18.85972
71.700 18.57091
71.705 18.522108
71.710 18.523241
71.715 18.982311
71.720 18.824825
71.725 18.732178
71.730 18.756233
71.735 19.349262
71.740 19.050373
71.745 18.758209
71.750 18.826204
71.755 19.145733
71.760 19.595713
71.765 20.154579
71.770 19.850681
71.775 20.372705
71.780 21.099829
71.785 20.599684
71.790 20.262974
71.795 20.177513
71.800 19.861683
71.805 20.115372
71.810 19.896889
71.815 19.62813
71.820 19.863104
71.825 19.860476
71.830 19.874552
71.835 19.968491
71.840 19.216803
71.845 18.226189
71.850 17.889626
71.855 17.622599
71.860 17.430126
71.865 17.076126
71.870 17.342979
71.875 18.964678
71.880 19.92557
71.885 20.358513
71.890 20.703625
71.895 20.602343
71.900 20.542791
71.905 20.258072
71.910 19.378559
71.915 19.41946
71.920 19.083138
71.925 19.151489
71.930 19.118383
71.935 18.953386
71.940 19.153103
71.945 18.667452
71.950 18.287792
71.955 17.76738
71.960 17.407804
71.965 17.608461
71.970 17.722229
71.975 17.697042
71.980 17.652433
71.985 17.969049
71.990 18.690981
71.995 18.574741
72.000 18.791901
72.005 18.94302
72.010 18.985601
72.015 19.459517
72.020 18.925833
72.025 19.204414
72.030 19.442415
72.035 19.516973
72.040 20.021736
72.045 19.969921
72.050 19.094683
72.055 18.99309
72.060 19.193125
72.065 19.590282
72.070 19.386353
72.075 19.225887
72.080 19.078554
72.085 19.903175
72.090 20.179674
72.095 19.715481
72.100 19.448997
72.105 19.28054
72.110 19.392626
72.115 20.071098
72.120 19.973839
72.125 20.33149
72.130 20.490665
72.135 20.655699
72.140 20.754759
72.145 20.651056
72.150 20.395161
72.155 20.296879
72.160 19.89118
72.165 19.373425
72.170 18.822714
72.175 18.586458
72.180 17.453087
72.185 17.033236
72.190 16.508366
72.195 16.62937
72.200 17.407421
72.205 17.662193
72.210 17.697594
72.215 18.301815
72.220 18.497078
72.225 18.765402
72.230 18.77537
72.235 18.861153
72.240 18.759106
72.245 18.894054
72.250 19.58812
72.255 19.410807
72.260 18.980217
72.265 17.967005
72.270 17.189667
72.275 17.927612
72.280 17.858273
72.285 17.242886
72.290 17.44116
72.295 18.160942
72.300 18.675056
72.305 18.974922
72.310 18.692802
72.315 19.129549
72.320 19.582649
72.325 19.555946
72.330 19.927204
72.335 20.512083
72.340 20.555548
72.345 20.332573
72.350 19.634495
72.355 18.965551
72.360 18.663963
72.365 18.074883
72.370 18.047132
72.375 18.089687
72.380 18.306917
72.385 19.532558
72.390 20.178766
72.395 20.257227
72.400 20.388586
72.405 19.951582
72.410 19.710682
72.415 19.662888
72.420 18.954626
72.425 18.277699
72.430 17.975615
72.435 17.700727
72.440 17.793266
72.445 18.212355
72.450 18.000849
72.455 17.375027
72.460 18.122643
72.465 18.675184
72.470 18.63261
72.475 18.732719
72.480 18.228436
72.485 18.456503
72.490 18.438229
72.495 17.57287
72.500 16.751045
72.505 16.89369
72.510 16.815859
72.515 16.849518
72.520 17.29216
72.525 18.341652
72.530 18.732161
72.535 19.176638
72.540 19.286804
72.545 19.110956
72.550 19.359619
72.555 19.159966
72.560 18.492886
72.565 17.95752
72.570 17.733414
72.575 18.044493
72.580 18.73905
72.585 18.412216
72.590 18.720995
72.595 19.16991
72.600 19.599318
72.605 19.623676
72.610 19.063646
72.615 18.667051
72.620 19.281511
72.625 19.418274
72.630 19.391779
72.635 18.966311
72.640 18.583977
72.645 18.760948
72.650 18.267385
72.655 16.903532
72.660 16.356495
72.665 16.570679
72.670 17.159727
72.675 17.318995
72.680 17.339394
72.685 17.826365
72.690 18.484961
72.695 18.556307
72.700 18.759933
72.705 18.394428
72.710 18.601856
72.715 18.683989
72.720 18.580227
72.725 17.961361
72.730 17.739031
72.735 17.345755
72.740 17.471666
72.745 17.096809
72.750 17.089239
72.755 17.687168
72.760 18.18626
72.765 18.387331
72.770 18.831875
72.775 18.641859
72.780 18.483604
72.785 18.447571
72.790 18.342634
72.795 18.543455
72.800 18.469524
72.805 18.285954
72.810 18.438513
72.815 18.32711
72.820 18.138634
72.825 18.029819
72.830 18.19627
72.835 18.61791
72.840 19.092808
72.845 19.699064
72.850 19.786535
72.855 19.085495
72.860 18.84449
72.865 18.56838
72.870 18.618917
72.875 18.219654
72.880 18.138371
72.885 18.322443
72.890 18.725866
72.895 18.533142
72.900 18.27672
72.905 18.086599
72.910 17.657297
72.915 17.361298
72.920 17.074696
72.925 17.043283
72.930 17.13912
72.935 16.970993
72.940 17.184919
72.945 17.460035
72.950 17.607325
72.955 17.688778
72.960 17.339989
72.965 17.518784
72.970 17.044004
72.975 17.306707
72.980 17.33733
72.985 17.476156
72.990 17.385643
72.995 17.472639
73.000 17.061188
