!@!!GADDS PLOTSO FILE: Chi integration type
!@!!Title/SampleName: map-74
!@!!Comment: ?
!@!!User: Bruker Instrument Administrator
!@!!Site: University of Illinois Chicago
!@!!Frame: map-74_01_000.gfrm
!@!!Wavelengths    1.54184   1.54056   1.54439
!@!!Frame angles: 2Theta: 63.000 Omega: 50.000 Phi: 0.000 Chi: 90.000
!@!!Integration range: 2Theta: 53.000 to 73.000  Gamma: -105.000 to -75.000
!@!!Integration method: bin normalized
!@!N
!@!SS
!@!M
!@!L 0.0 0.0 0.0 0.0
!@!XDegrees
!@!YCounts
53.000 9.414827
53.005 9.380972
53.010 9.084512
53.015 9.046356
53.020 8.963488
53.025 9.212751
53.030 9.265173
53.035 9.581155
53.040 9.744749
53.045 9.708441
53.050 9.768723
53.055 9.827762
53.060 9.572351
53.065 9.838996
53.070 9.716486
53.075 9.856258
53.080 10.110622
53.085 9.848783
53.090 9.718026
53.095 9.439377
53.100 9.310347
53.105 9.516289
53.110 9.808584
53.115 9.907269
53.120 9.913672
53.125 10.017592
53.130 10.291339
53.135 9.883348
53.140 9.273855
53.145 8.904615
53.150 8.825749
53.155 8.805846
53.160 9.673404
53.165 10.291666
53.170 10.747963
53.175 11.16345
53.180 10.825366
53.185 10.688503
53.190 10.315213
53.195 9.22037
53.200 8.373009
53.205 7.936841
53.210 7.918798
53.215 8.437225
53.220 8.551035
53.225 8.364848
53.230 8.534242
53.235 8.83848
53.240 9.12649
53.245 9.20486
53.250 9.007488
53.255 9.390705
53.260 9.749698
53.265 9.524796
53.270 9.437659
53.275 9.546217
53.280 10.059737
53.285 10.469489
53.290 10.097495
53.295 10.166121
53.300 10.624079
53.305 10.740925
53.310 10.418922
53.315 10.040506
53.320 9.878358
53.325 10.276172
53.330 10.301943
53.335 10.35007
53.340 10.211058
53.345 9.856629
53.350 9.937272
53.355 10.209906
53.360 9.844647
53.365 9.424874
53.370 9.965945
53.375 10.324441
53.380 10.646208
53.385 10.274641
53.390 10.226418
53.395 10.581684
53.400 10.266101
53.405 9.704355
53.410 9.275459
53.415 9.019725
53.420 8.880685
53.425 9.069377
53.430 9.370367
53.435 9.763725
53.440 10.131052
53.445 10.148551
53.450 10.221518
53.455 10.571477
53.460 9.966459
53.465 9.660801
53.470 9.774997
53.475 9.7068
53.480 10.037058
53.485 10.322567
53.490 10.062533
53.495 10.222569
53.500 10.607007
53.505 10.254375
53.510 10.546979
53.515 10.457507
53.520 10.224061
53.525 10.645662
53.530 10.777497
53.535 10.810202
53.540 11.270705
53.545 10.857117
53.550 11.240132
53.555 11.271951
53.560 10.76339
53.565 10.593637
53.570 10.558272
53.575 10.353954
53.580 10.313669
53.585 9.828184
53.590 9.873111
53.595 9.576057
53.600 9.683792
53.605 9.508121
53.610 9.711568
53.615 9.972062
53.620 10.450992
53.625 10.592872
53.630 10.640092
53.635 10.420934
53.640 10.120799
53.645 9.95205
53.650 9.685373
53.655 9.57007
53.660 9.707644
53.665 9.98923
53.670 9.847463
53.675 9.766734
53.680 10.124385
53.685 10.127421
53.690 9.909468
53.695 9.819193
53.700 9.706027
53.705 10.005965
53.710 10.644852
53.715 10.574556
53.720 10.669391
53.725 10.514447
53.730 10.676537
53.735 10.230916
53.740 9.793967
53.745 9.309016
53.750 9.546547
53.755 9.551503
53.760 9.806695
53.765 10.213164
53.770 10.603728
53.775 10.815432
53.780 10.401699
53.785 10.36014
53.790 10.184553
53.795 10.176432
53.800 10.159378
53.805 10.391728
53.810 10.311552
53.815 10.441216
53.820 10.697349
53.825 11.15224
53.830 11.077261
53.835 11.033591
53.840 11.427101
53.845 11.693159
53.850 11.444653
53.855 10.969554
53.860 10.650827
53.865 10.70795
53.870 10.798603
53.875 10.555353
53.880 10.911334
53.885 10.950984
53.890 10.74469
53.895 10.708789
53.900 10.463428
53.905 10.157132
53.910 10.093442
53.915 9.851776
53.920 10.22213
53.925 10.833737
53.930 10.599738
53.935 10.660009
53.940 10.72727
53.945 10.849796
53.950 10.552232
53.955 10.372245
53.960 10.374423
53.965 10.744292
53.970 10.793803
53.975 10.307511
53.980 10.500497
53.985 10.856174
53.990 10.576231
53.995 10.149755
54.000 10.195269
54.005 10.645607
54.010 10.908497
54.015 10.798032
54.020 10.819038
54.025 10.941186
54.030 11.195043
54.035 11.229371
54.040 11.019047
54.045 11.310218
54.050 11.316068
54.055 11.4279
54.060 11.458052
54.065 10.923402
54.070 10.721624
54.075 11.059884
54.080 11.248137
54.085 11.025101
54.090 10.693931
54.095 11.074627
54.100 11.349044
54.105 10.963727
54.110 10.009206
54.115 10.02054
54.120 10.008668
54.125 10.363912
54.130 10.525952
54.135 10.879697
54.140 11.442187
54.145 11.986281
54.150 11.624351
54.155 11.55037
54.160 11.18956
54.165 10.58355
54.170 10.422244
54.175 9.771301
54.180 9.795288
54.185 10.035835
54.190 9.520127
54.195 9.670619
54.200 10.202221
54.205 10.189137
54.210 10.593359
54.215 10.729713
54.220 11.192478
54.225 11.845419
54.230 11.803805
54.235 11.671432
54.240 11.527772
54.245 11.530245
54.250 11.119012
54.255 10.756292
54.260 10.657069
54.265 10.880717
54.270 10.875544
54.275 11.138994
54.280 11.436306
54.285 11.984476
54.290 11.863156
54.295 11.719729
54.300 11.403553
54.305 11.722352
54.310 11.405508
54.315 11.118829
54.320 11.325191
54.325 11.220352
54.330 11.247452
54.335 11.65135
54.340 11.713071
54.345 11.441906
54.350 11.399405
54.355 11.367083
54.360 11.738347
54.365 11.778154
54.370 11.306731
54.375 10.906776
54.380 10.887085
54.385 10.490967
54.390 10.486857
54.395 10.356531
54.400 10.279293
54.405 10.209753
54.410 10.312796
54.415 10.617717
54.420 10.569571
54.425 10.500508
54.430 10.377771
54.435 10.26248
54.440 10.018636
54.445 9.933387
54.450 9.782871
54.455 9.63792
54.460 9.976103
54.465 10.285552
54.470 10.488252
54.475 10.567723
54.480 10.178519
54.485 10.293253
54.490 10.219053
54.495 9.726605
54.500 9.901735
54.505 10.212154
54.510 10.925099
54.515 11.592876
54.520 11.734382
54.525 11.844418
54.530 11.69922
54.535 11.192205
54.540 10.900097
54.545 10.747909
54.550 10.739865
54.555 10.579359
54.560 10.787781
54.565 10.962075
54.570 11.13622
54.575 11.366817
54.580 11.155264
54.585 10.945377
54.590 10.864931
54.595 10.436129
54.600 10.273022
54.605 10.476005
54.610 10.676949
54.615 11.071429
54.620 11.362494
54.625 11.452612
54.630 11.655683
54.635 11.97247
54.640 12.001651
54.645 12.336796
54.650 12.198314
54.655 12.17205
54.660 12.813934
54.665 12.952541
54.670 12.812621
54.675 12.619709
54.680 12.738127
54.685 12.678508
54.690 12.61102
54.695 12.589609
54.700 12.788667
54.705 12.768825
54.710 12.183376
54.715 11.413246
54.720 11.181767
54.725 11.382128
54.730 11.677966
54.735 11.941912
54.740 12.703117
54.745 13.318087
54.750 13.512836
54.755 13.662953
54.760 13.308523
54.765 12.797117
54.770 12.335309
54.775 11.450155
54.780 11.717968
54.785 11.833694
54.790 11.979774
54.795 11.902738
54.800 11.918246
54.805 11.792741
54.810 11.734719
54.815 11.240794
54.820 11.014705
54.825 11.459215
54.830 11.686186
54.835 11.73766
54.840 12.573062
54.845 13.489087
54.850 14.136135
54.855 14.400659
54.860 13.800519
54.865 13.693788
54.870 13.658092
54.875 13.048835
54.880 12.606558
54.885 11.934592
54.890 11.279419
54.895 11.30651
54.900 11.129767
54.905 11.422048
54.910 11.447413
54.915 11.350688
54.920 11.874118
54.925 12.059854
54.930 12.068675
54.935 12.04956
54.940 11.563639
54.945 11.417396
54.950 11.559366
54.955 10.966464
54.960 11.098378
54.965 11.102878
54.970 11.127514
54.975 11.630341
54.980 11.573612
54.985 11.447088
54.990 11.726925
54.995 11.692295
55.000 11.351192
55.005 11.287842
55.010 11.134826
55.015 11.18004
55.020 11.18375
55.025 11.045908
55.030 11.054837
55.035 11.184383
55.040 10.791064
55.045 10.397282
55.050 10.719295
55.055 11.147161
55.060 11.71389
55.065 11.730706
55.070 11.990193
55.075 12.585587
55.080 12.908167
55.085 12.362441
55.090 11.772888
55.095 11.516129
55.100 11.619097
55.105 11.398971
55.110 11.152394
55.115 11.461322
55.120 11.383197
55.125 11.20331
55.130 11.141425
55.135 11.78105
55.140 12.046128
55.145 11.974586
55.150 11.662993
55.155 12.044974
55.160 12.954317
55.165 13.155193
55.170 12.505347
55.175 12.449049
55.180 12.766767
55.185 13.145088
55.190 13.211034
55.195 13.217096
55.200 13.668989
55.205 13.570716
55.210 13.747693
55.215 13.448344
55.220 13.116839
55.225 12.479698
55.230 11.845082
55.235 11.303545
55.240 11.326303
55.245 11.403022
55.250 11.269619
55.255 11.064713
55.260 11.691232
55.265 11.80121
55.270 12.231806
55.275 12.245551
55.280 12.264616
55.285 12.53488
55.290 12.810887
55.295 12.914083
55.300 12.827383
55.305 12.689683
55.310 12.931781
55.315 13.336704
55.320 13.68364
55.325 14.04949
55.330 14.020104
55.335 13.817534
55.340 13.491556
55.345 13.410751
55.350 13.067453
55.355 13.005138
55.360 12.979334
55.365 12.997599
55.370 13.188894
55.375 13.418281
55.380 13.102686
55.385 12.924651
55.390 12.406883
55.395 12.022405
55.400 11.779903
55.405 11.923952
55.410 11.952675
55.415 12.246632
55.420 12.360494
55.425 12.362517
55.430 12.505214
55.435 12.741516
55.440 12.619781
55.445 12.252862
55.450 12.58952
55.455 12.779356
55.460 12.724146
55.465 12.59729
55.470 12.406709
55.475 12.743336
55.480 12.574699
55.485 12.218959
55.490 12.59978
55.495 12.831015
55.500 12.814014
55.505 12.690898
55.510 12.502992
55.515 12.583944
55.520 12.764333
55.525 12.355388
55.530 12.024455
55.535 11.871696
55.540 11.934767
55.545 12.187717
55.550 12.500763
55.555 12.336431
55.560 12.77406
55.565 12.700109
55.570 12.571283
55.575 12.153192
55.580 11.99585
55.585 11.592307
55.590 11.41334
55.595 10.987446
55.600 11.423115
55.605 12.111541
55.610 12.462387
55.615 12.457451
55.620 12.554718
55.625 12.546482
55.630 12.232437
55.635 12.171723
55.640 11.902065
55.645 12.163484
55.650 12.410637
55.655 12.871137
55.660 13.349128
55.665 14.044359
55.670 14.050042
55.675 13.43283
55.680 13.129759
55.685 13.51709
55.690 13.19193
55.695 13.551481
55.700 13.156273
55.705 12.890913
55.710 13.273315
55.715 13.078833
55.720 12.555284
55.725 11.959196
55.730 11.490147
55.735 11.419889
55.740 11.630692
55.745 11.82768
55.750 11.410856
55.755 11.205988
55.760 11.527566
55.765 11.302327
55.770 11.45853
55.775 11.652888
55.780 12.061497
55.785 12.586624
55.790 12.708379
55.795 12.557762
55.800 12.947824
55.805 13.745716
55.810 13.914276
55.815 13.767302
55.820 13.951458
55.825 14.026889
55.830 14.10784
55.835 13.867474
55.840 12.837883
55.845 12.647025
55.850 12.607207
55.855 12.119925
55.860 11.975266
55.865 12.174588
55.870 12.281975
55.875 13.143303
55.880 13.260361
55.885 13.638162
55.890 13.930509
55.895 13.942244
55.900 13.85872
55.905 14.1374
55.910 13.437913
55.915 13.158281
55.920 13.113916
55.925 13.556033
55.930 13.316958
55.935 13.289927
55.940 13.580185
55.945 13.986327
55.950 13.463119
55.955 13.209901
55.960 12.948397
55.965 13.137278
55.970 12.526028
55.975 11.643907
55.980 11.58882
55.985 11.859241
55.990 11.632552
55.995 11.889289
56.000 12.230323
56.005 12.518816
56.010 12.334358
56.015 11.992069
56.020 11.742904
56.025 12.10659
56.030 11.877798
56.035 12.142582
56.040 12.134879
56.045 12.418816
56.050 12.968449
56.055 13.320913
56.060 12.993506
56.065 12.964763
56.070 12.499771
56.075 13.281986
56.080 14.077931
56.085 14.022124
56.090 13.223768
56.095 13.262567
56.100 13.57158
56.105 13.67485
56.110 12.580423
56.115 11.98932
56.120 12.37193
56.125 12.513233
56.130 12.423699
56.135 12.211293
56.140 12.205909
56.145 13.15733
56.150 12.964522
56.155 12.803077
56.160 12.853521
56.165 12.949956
56.170 13.060623
56.175 12.966517
56.180 12.671253
56.185 12.640935
56.190 12.723166
56.195 12.820955
56.200 12.66337
56.205 12.621104
56.210 12.76218
56.215 12.896113
56.220 12.910007
56.225 13.857819
56.230 14.656433
56.235 15.020632
56.240 15.30752
56.245 15.880299
56.250 16.311684
56.255 16.213757
56.260 15.383466
56.265 14.95116
56.270 14.738676
56.275 14.255311
56.280 13.187276
56.285 13.004834
56.290 13.472808
56.295 13.223635
56.300 13.082357
56.305 13.270926
56.310 13.823412
56.315 13.769051
56.320 13.753438
56.325 13.616908
56.330 13.560436
56.335 13.412501
56.340 13.208317
56.345 13.321716
56.350 13.710201
56.355 13.294584
56.360 13.178573
56.365 13.650765
56.370 13.604989
56.375 13.258649
56.380 12.735499
56.385 13.391325
56.390 12.969207
56.395 12.722341
56.400 12.83105
56.405 12.693944
56.410 12.761153
56.415 12.538241
56.420 11.898074
56.425 12.512309
56.430 13.045208
56.435 12.771766
56.440 13.004551
56.445 13.322906
56.450 13.45261
56.455 13.306788
56.460 12.833918
56.465 12.284761
56.470 12.305139
56.475 12.487561
56.480 12.285376
56.485 12.257558
56.490 12.452371
56.495 12.860415
56.500 13.411783
56.505 13.710945
56.510 13.5721
56.515 13.546839
56.520 13.879371
56.525 13.754907
56.530 14.136189
56.535 14.599727
56.540 14.168836
56.545 14.222645
56.550 14.555131
56.555 14.941524
56.560 15.073022
56.565 13.980563
56.570 13.211541
56.575 13.752275
56.580 13.863696
56.585 13.702652
56.590 13.254269
56.595 12.767799
56.600 12.635081
56.605 12.373408
56.610 11.834883
56.615 11.465693
56.620 11.199747
56.625 11.157974
56.630 11.572948
56.635 12.485703
56.640 12.691635
56.645 12.440433
56.650 13.253568
56.655 13.628677
56.660 13.930441
56.665 13.874341
56.670 13.779683
56.675 14.051111
56.680 14.246412
56.685 14.081564
56.690 13.837056
56.695 14.094335
56.700 14.087632
56.705 14.170711
56.710 14.315922
56.715 14.731241
56.720 14.5587
56.725 14.622812
56.730 14.611963
56.735 14.394286
56.740 14.168763
56.745 14.170048
56.750 14.360665
56.755 14.234608
56.760 14.208866
56.765 14.135687
56.770 14.676352
56.775 14.969762
56.780 14.78882
56.785 14.710338
56.790 14.881065
56.795 14.87658
56.800 14.738495
56.805 14.136739
56.810 13.763284
56.815 12.939689
56.820 12.649211
56.825 12.665193
56.830 12.379395
56.835 12.662686
56.840 12.735457
56.845 12.981335
56.850 13.757902
56.855 13.793792
56.860 14.11834
56.865 14.26979
56.870 14.057078
56.875 14.175999
56.880 13.869021
56.885 13.873306
56.890 13.738849
56.895 13.126164
56.900 13.105101
56.905 13.160807
56.910 13.021067
56.915 12.931092
56.920 12.89724
56.925 12.890462
56.930 13.669712
56.935 13.890407
56.940 14.18999
56.945 14.92405
56.950 15.049543
56.955 15.162757
56.960 15.335123
56.965 14.539963
56.970 14.675261
56.975 14.253722
56.980 13.635982
56.985 13.769799
56.990 13.251317
56.995 13.189149
57.000 13.712155
57.005 13.633887
57.010 13.906567
57.015 14.0784
57.020 14.037479
57.025 14.284834
57.030 14.30673
57.035 14.108582
57.040 14.221084
57.045 14.278511
57.050 14.334763
57.055 14.084624
57.060 13.98407
57.065 13.976862
57.070 14.046845
57.075 13.892778
57.080 13.741441
57.085 14.057429
57.090 14.57101
57.095 14.595857
57.100 14.581954
57.105 14.544538
57.110 14.793869
57.115 14.600915
57.120 14.451859
57.125 14.438865
57.130 14.576635
57.135 14.68711
57.140 14.965156
57.145 15.063186
57.150 15.586321
57.155 15.586048
57.160 15.639148
57.165 15.86421
57.170 15.480599
57.175 15.097599
57.180 15.046164
57.185 14.592381
57.190 14.367865
57.195 14.222378
57.200 14.070649
57.205 13.864705
57.210 13.443758
57.215 13.626172
57.220 13.503682
57.225 13.611917
57.230 13.595942
57.235 13.799595
57.240 13.840238
57.245 13.83033
57.250 13.395372
57.255 13.684978
57.260 13.003615
57.265 12.784517
57.270 12.712722
57.275 12.972375
57.280 13.067768
57.285 13.176294
57.290 13.74369
57.295 14.015998
57.300 14.235728
57.305 14.522901
57.310 14.905966
57.315 15.501496
57.320 15.52755
57.325 15.121386
57.330 15.511819
57.335 15.431873
57.340 14.832917
57.345 14.464637
57.350 14.505469
57.355 14.466593
57.360 14.646289
57.365 14.629306
57.370 14.856369
57.375 15.249673
57.380 15.70218
57.385 15.139396
57.390 14.957289
57.395 14.900209
57.400 14.749783
57.405 14.595506
57.410 14.718512
57.415 14.699402
57.420 14.750707
57.425 14.385595
57.430 14.160496
57.435 14.538738
57.440 14.342094
57.445 13.826654
57.450 13.489622
57.455 13.588573
57.460 14.427811
57.465 14.57644
57.470 14.34102
57.475 14.690834
57.480 14.937151
57.485 15.218987
57.490 15.297405
57.495 14.939116
57.500 15.148149
57.505 14.738695
57.510 14.577901
57.515 15.062109
57.520 14.69628
57.525 14.332048
57.530 14.191871
57.535 14.224411
57.540 14.496184
57.545 13.753573
57.550 13.060678
57.555 13.602446
57.560 14.143938
57.565 14.045156
57.570 13.635891
57.575 13.570049
57.580 14.074327
57.585 14.655109
57.590 15.274602
57.595 15.739657
57.600 15.96753
57.605 16.150244
57.610 16.992886
57.615 17.119654
57.620 16.682657
57.625 16.497469
57.630 16.380703
57.635 16.63818
57.640 16.213522
57.645 15.395116
57.650 14.892734
57.655 15.005551
57.660 14.007727
57.665 13.368952
57.670 13.398513
57.675 14.191955
57.680 14.265636
57.685 14.59944
57.690 14.978878
57.695 15.591509
57.700 15.390589
57.705 14.883864
57.710 14.706899
57.715 15.028885
57.720 15.478096
57.725 15.348218
57.730 15.659268
57.735 16.005428
57.740 15.902065
57.745 15.733172
57.750 15.906938
57.755 15.484149
57.760 15.532248
57.765 15.051296
57.770 15.360311
57.775 15.732757
57.780 15.692175
57.785 15.501801
57.790 15.290689
57.795 14.996915
57.800 15.097611
57.805 15.384643
57.810 15.635879
57.815 15.854474
57.820 16.138426
57.825 15.777596
57.830 15.292476
57.835 15.25486
57.840 14.597389
57.845 14.237373
57.850 14.160562
57.855 14.170758
57.860 14.898162
57.865 15.598285
57.870 15.745124
57.875 16.289942
57.880 16.439041
57.885 16.286263
57.890 15.807044
57.895 16.133369
57.900 16.081923
57.905 16.274246
57.910 15.573602
57.915 15.550849
57.920 15.757668
57.925 16.291534
57.930 15.860301
57.935 15.768704
57.940 15.398485
57.945 15.743869
57.950 15.922631
57.955 15.565299
57.960 14.919307
57.965 14.902603
57.970 16.060452
57.975 16.738462
57.980 17.111183
57.985 17.078089
57.990 17.332691
57.995 17.604383
58.000 17.228891
58.005 16.445778
58.010 16.205597
58.015 15.601228
58.020 15.420865
58.025 15.600045
58.030 16.100737
58.035 16.157984
58.040 16.43285
58.045 16.59903
58.050 17.419918
58.055 17.712372
58.060 17.278732
58.065 17.119858
58.070 17.269173
58.075 17.363583
58.080 16.884815
58.085 15.94398
58.090 16.430826
58.095 17.312836
58.100 17.719406
58.105 18.112062
58.110 17.766445
58.115 17.95208
58.120 18.057652
58.125 17.441622
58.130 16.734022
58.135 15.812519
58.140 15.4522
58.145 15.916174
58.150 16.311424
58.155 16.630016
58.160 16.73237
58.165 17.009588
58.170 17.647064
58.175 17.838495
58.180 17.146229
58.185 17.106613
58.190 17.34738
58.195 17.394506
58.200 17.769421
58.205 17.84783
58.210 17.93198
58.215 18.425211
58.220 18.951653
58.225 18.689308
58.230 18.247511
58.235 17.961739
58.240 17.248672
58.245 16.911528
58.250 17.454361
58.255 16.948656
58.260 17.056347
58.265 17.038273
58.270 17.295603
58.275 18.250933
58.280 19.205564
58.285 18.406019
58.290 19.002447
58.295 19.665668
58.300 19.796158
58.305 20.06547
58.310 20.212143
58.315 19.875027
58.320 20.413815
58.325 20.148676
58.330 20.005941
58.335 20.784927
58.340 20.51362
58.345 20.380274
58.350 19.964169
58.355 20.115137
58.360 20.260086
58.365 20.720726
58.370 20.730822
58.375 20.77116
58.380 20.560774
58.385 20.707541
58.390 21.202257
58.395 21.276234
58.400 20.63484
58.405 19.943323
58.410 20.172205
58.415 20.495796
58.420 20.835766
58.425 20.163748
58.430 19.707691
58.435 19.726269
58.440 19.850279
58.445 19.326504
58.450 19.007191
58.455 18.305933
58.460 18.304787
58.465 19.000093
58.470 19.036459
58.475 18.933828
58.480 18.828699
58.485 19.273329
58.490 20.25482
58.495 20.343489
58.500 20.571802
58.505 20.563675
58.510 21.055872
58.515 21.124765
58.520 20.888836
58.525 20.887251
58.530 20.88258
58.535 20.86257
58.540 21.195313
58.545 20.993582
58.550 20.88847
58.555 20.754841
58.560 20.796806
58.565 21.224472
58.570 20.739824
58.575 20.857912
58.580 21.383057
58.585 21.954693
58.590 22.347986
58.595 22.52166
58.600 21.753456
58.605 22.118092
58.610 22.07934
58.615 21.489792
58.620 21.416098
58.625 21.596931
58.630 21.176844
58.635 21.628929
58.640 21.460159
58.645 21.319185
58.650 21.638367
58.655 21.341902
58.660 21.048895
58.665 21.146538
58.670 20.663712
58.675 20.519451
58.680 20.80932
58.685 21.038307
58.690 21.133696
58.695 21.55756
58.700 21.65551
58.705 21.87528
58.710 22.067478
58.715 21.935545
58.720 22.596706
58.725 23.021189
58.730 22.470144
58.735 22.420115
58.740 22.527937
58.745 22.175493
58.750 21.703335
58.755 21.078953
58.760 20.555023
58.765 20.189451
58.770 19.744354
58.775 20.459377
58.780 20.959806
58.785 21.19742
58.790 21.682886
58.795 22.187717
58.800 22.544859
58.805 22.275412
58.810 21.693169
58.815 21.681602
58.820 22.091679
58.825 21.554468
58.830 21.28443
58.835 21.105516
58.840 21.129629
58.845 20.505728
58.850 20.212374
58.855 19.987282
58.860 20.088467
58.865 19.968317
58.870 20.509535
58.875 21.442272
58.880 22.034035
58.885 22.37044
58.890 22.303003
58.895 21.832466
58.900 22.102474
58.905 20.774746
58.910 20.288754
58.915 20.050028
58.920 19.729759
58.925 19.742104
58.930 20.231201
58.935 19.941843
58.940 20.856827
58.945 21.102226
58.950 20.914497
58.955 20.677668
58.960 20.794046
58.965 20.883242
58.970 20.942762
58.975 20.356501
58.980 19.893127
58.985 19.824995
58.990 19.941582
58.995 19.401051
59.000 19.36183
59.005 19.4876
59.010 20.561312
59.015 21.607939
59.020 21.778343
59.025 21.560337
59.030 21.353155
59.035 21.612505
59.040 21.725246
59.045 20.839094
59.050 19.738514
59.055 19.618256
59.060 20.046732
59.065 20.505274
59.070 20.099798
59.075 20.110678
59.080 20.522511
59.085 20.517632
59.090 20.728968
59.095 20.728416
59.100 20.91205
59.105 20.980244
59.110 20.801292
59.115 20.520515
59.120 20.743755
59.125 20.305891
59.130 20.184561
59.135 19.683685
59.140 19.592833
59.145 19.266943
59.150 19.379959
59.155 19.401556
59.160 19.689053
59.165 19.893085
59.170 19.92927
59.175 20.351366
59.180 20.419046
59.185 20.453566
59.190 20.576103
59.195 20.160017
59.200 19.876436
59.205 19.922882
59.210 19.526705
59.215 19.217604
59.220 19.170389
59.225 18.91997
59.230 18.792328
59.235 18.954464
59.240 18.970247
59.245 18.625448
59.250 18.762543
59.255 18.486866
59.260 18.49782
59.265 18.412373
59.270 18.115828
59.275 18.250502
59.280 18.860434
59.285 19.28862
59.290 19.783257
59.295 20.694082
59.300 21.182411
59.305 21.625376
59.310 21.370237
59.315 21.70228
59.320 21.602613
59.325 21.564125
59.330 20.97987
59.335 20.835329
59.340 20.25849
59.345 20.400824
59.350 19.738995
59.355 19.562462
59.360 19.863987
59.365 20.064116
59.370 20.12464
59.375 20.170147
59.380 20.728161
59.385 21.171072
59.390 21.402042
59.395 20.599102
59.400 20.12738
59.405 19.469612
59.410 19.718386
59.415 18.791222
59.420 18.193878
59.425 18.213945
59.430 18.568996
59.435 18.50996
59.440 19.32707
59.445 19.114923
59.450 19.135328
59.455 19.440254
59.460 20.135675
59.465 19.895195
59.470 19.862919
59.475 20.911476
59.480 21.26041
59.485 21.715809
59.490 22.077002
59.495 21.775915
59.500 22.285379
59.505 22.043001
59.510 21.024448
59.515 20.508686
59.520 19.775503
59.525 19.548239
59.530 19.521805
59.535 19.646101
59.540 19.458334
59.545 19.52252
59.550 19.585846
59.555 20.048267
59.560 19.891638
59.565 19.912979
59.570 19.523159
59.575 19.280247
59.580 19.297884
59.585 19.633968
59.590 19.525368
59.595 19.609251
59.600 18.733061
59.605 18.527122
59.610 18.689993
59.615 18.570545
59.620 18.201624
59.625 17.865387
59.630 17.656368
59.635 18.534084
59.640 18.808867
59.645 18.808409
59.650 19.23086
59.655 19.757227
59.660 19.705494
59.665 19.50593
59.670 19.698221
59.675 19.843227
59.680 20.192131
59.685 20.050697
59.690 19.874741
59.695 20.040632
59.700 20.807468
59.705 19.798552
59.710 19.579355
59.715 19.199802
59.720 19.247765
59.725 19.82229
59.730 19.769547
59.735 18.835449
59.740 19.550524
59.745 19.449934
59.750 19.738819
59.755 19.762894
59.760 19.329424
59.765 19.478762
59.770 19.740568
59.775 19.513603
59.780 19.513008
59.785 18.855551
59.790 18.10722
59.795 17.903749
59.800 18.192938
59.805 18.789181
59.810 19.228218
59.815 19.478876
59.820 19.187296
59.825 19.25856
59.830 19.715204
59.835 19.223442
59.840 19.252045
59.845 19.293499
59.850 19.493988
59.855 19.976681
59.860 20.009277
59.865 19.581356
59.870 19.47773
59.875 18.266518
59.880 18.038443
59.885 18.249128
59.890 18.393806
59.895 18.757889
59.900 19.009192
59.905 19.485403
59.910 20.277609
59.915 19.614859
59.920 19.150537
59.925 19.245893
59.930 19.381489
59.935 19.129965
59.940 18.734943
59.945 18.491991
59.950 18.621174
59.955 18.676256
59.960 18.429224
59.965 18.134499
59.970 18.091036
59.975 18.114845
59.980 18.09314
59.985 18.32663
59.990 18.551231
59.995 18.22271
60.000 17.964685
60.005 18.010559
60.010 18.231091
60.015 18.504059
60.020 18.117266
60.025 18.139267
60.030 18.057806
60.035 17.711752
60.040 17.575344
60.045 17.663513
60.050 17.656246
60.055 17.449055
60.060 17.384068
60.065 17.939911
60.070 18.677885
60.075 19.505466
60.080 19.402281
60.085 19.982204
60.090 20.798332
60.095 21.062178
60.100 21.288982
60.105 21.31905
60.110 20.666933
60.115 20.833149
60.120 20.299576
60.125 20.094898
60.130 20.299576
60.135 20.317829
60.140 20.298077
60.145 20.353588
60.150 20.536114
60.155 20.440254
60.160 19.822523
60.165 19.533848
60.170 19.879318
60.175 19.893759
60.180 19.750311
60.185 19.449234
60.190 19.792505
60.195 19.761894
60.200 19.560865
60.205 18.879206
60.210 18.784235
60.215 18.75226
60.220 18.340912
60.225 18.075474
60.230 17.973072
60.235 17.531263
60.240 17.803616
60.245 18.060833
60.250 18.236645
60.255 18.890432
60.260 18.854816
60.265 19.159189
60.270 19.310104
60.275 18.929047
60.280 18.457529
60.285 18.199221
60.290 18.244282
60.295 18.365162
60.300 18.186975
60.305 18.042534
60.310 18.073093
60.315 18.348457
60.320 18.247936
60.325 17.84206
60.330 17.499002
60.335 17.922222
60.340 18.691628
60.345 19.040943
60.350 18.646391
60.355 18.68808
60.360 18.344122
60.365 18.249014
60.370 18.360806
60.375 18.176575
60.380 18.103638
60.385 18.191906
60.390 18.445013
60.395 18.630934
60.400 18.613276
60.405 17.739393
60.410 17.339582
60.415 17.321115
60.420 17.69244
60.425 17.312656
60.430 16.840775
60.435 16.838686
60.440 17.170416
60.445 17.020363
60.450 17.187445
60.455 17.085463
60.460 16.901285
60.465 17.304575
60.470 17.46727
60.475 17.338299
60.480 18.382797
60.485 18.71756
60.490 18.472727
60.495 18.637732
60.500 18.955076
60.505 19.742426
60.510 19.583176
60.515 18.42882
60.520 17.695919
60.525 17.676098
60.530 17.625835
60.535 17.016653
60.540 16.336626
60.545 15.941053
60.550 15.802178
60.555 16.2514
60.560 16.511545
60.565 16.503279
60.570 16.616528
60.575 16.97135
60.580 17.174477
60.585 16.78558
60.590 16.70097
60.595 16.849497
60.600 17.131033
60.605 17.654039
60.610 17.799778
60.615 18.61574
60.620 19.141886
60.625 18.581884
60.630 18.332151
60.635 18.697815
60.640 19.268124
60.645 19.868914
60.650 19.35218
60.655 18.996883
60.660 19.467897
60.665 19.360424
60.670 18.668354
60.675 17.685791
60.680 16.684605
60.685 17.151714
60.690 17.126226
60.695 16.752087
60.700 16.995619
60.705 16.610222
60.710 15.880972
60.715 15.499146
60.720 14.777054
60.725 15.24495
60.730 15.211419
60.735 14.916533
60.740 15.033357
60.745 15.661614
60.750 16.100721
60.755 16.517405
60.760 16.885733
60.765 17.664692
60.770 17.717686
60.775 17.789793
60.780 17.003847
60.785 16.580027
60.790 16.329157
60.795 15.796762
60.800 15.694935
60.805 15.837356
60.810 15.966048
60.815 17.115215
60.820 17.556168
60.825 18.086443
60.830 18.286495
60.835 17.982098
60.840 17.953976
60.845 17.936552
60.850 17.375645
60.855 17.293303
60.860 16.325872
60.865 15.198833
60.870 14.432433
60.875 13.946317
60.880 13.861008
60.885 13.944242
60.890 13.927124
60.895 14.502079
60.900 15.424677
60.905 16.25592
60.910 16.226931
60.915 16.341513
60.920 16.652952
60.925 16.804247
60.930 17.065973
60.935 16.585194
60.940 16.456491
60.945 17.257977
60.950 17.113165
60.955 16.903322
60.960 16.333242
60.965 15.394238
60.970 16.014345
60.975 15.834373
60.980 15.401012
60.985 15.097212
60.990 15.109131
60.995 15.754928
61.000 16.228508
61.005 16.236881
61.010 16.597494
61.015 16.308136
61.020 16.806345
61.025 16.878553
61.030 16.958601
61.035 17.18891
61.040 17.165478
61.045 17.29598
61.050 17.366131
61.055 17.124586
61.060 17.151154
61.065 17.076254
61.070 17.125069
61.075 16.939917
61.080 16.563816
61.085 16.257505
61.090 16.157999
61.095 15.669281
61.100 15.530565
61.105 15.298619
61.110 15.094259
61.115 15.134966
61.120 15.501214
61.125 15.845149
61.130 16.168633
61.135 16.53434
61.140 16.729727
61.145 16.73152
61.150 16.705368
61.155 16.497116
61.160 16.174099
61.165 16.53174
61.170 16.708288
61.175 16.955349
61.180 16.509686
61.185 16.046274
61.190 15.849965
61.195 16.117678
61.200 15.712579
61.205 15.159744
61.210 15.527625
61.215 16.249121
61.220 17.270683
61.225 17.604553
61.230 17.843672
61.235 18.236712
61.240 18.242208
61.245 17.744938
61.250 17.418404
61.255 17.125145
61.260 17.915567
61.265 17.921772
61.270 18.185614
61.275 18.301744
61.280 18.100691
61.285 18.59288
61.290 18.421915
61.295 18.03159
61.300 17.293674
61.305 16.602863
61.310 16.257677
61.315 16.014034
61.320 15.631593
61.325 15.664531
61.330 15.794576
61.335 16.654873
61.340 17.10676
61.345 17.163448
61.350 17.757334
61.355 18.180775
61.360 18.291252
61.365 18.082012
61.370 17.616287
61.375 17.427483
61.380 17.006508
61.385 16.309532
61.390 16.243002
61.395 15.922558
61.400 15.841746
61.405 15.380548
61.410 15.183538
61.415 15.778063
61.420 16.210487
61.425 15.997519
61.430 15.724498
61.435 15.58587
61.440 15.755557
61.445 16.220524
61.450 16.526964
61.455 16.27207
61.460 16.492241
61.465 16.874744
61.470 17.076431
61.475 17.23233
61.480 16.83654
61.485 16.903902
61.490 16.859318
61.495 17.149302
61.500 17.546663
61.505 17.684826
61.510 17.833782
61.515 18.447449
61.520 18.469316
61.525 18.381823
61.530 18.003725
61.535 17.465048
61.540 17.210993
61.545 16.571127
61.550 15.917216
61.555 15.529634
61.560 15.717063
61.565 15.700187
61.570 15.716692
61.575 16.331758
61.580 16.715324
61.585 16.740847
61.590 16.933723
61.595 17.090786
61.600 17.175362
61.605 16.957584
61.610 16.468369
61.615 16.604708
61.620 16.395628
61.625 16.496214
61.630 16.563551
61.635 16.491619
61.640 16.816587
61.645 16.456747
61.650 16.10607
61.655 16.317305
61.660 15.880974
61.665 15.544547
61.670 16.244696
61.675 16.296938
61.680 16.653446
61.685 17.164225
61.690 17.327246
61.695 17.54365
61.700 17.40057
61.705 16.52919
61.710 16.287296
61.715 16.601341
61.720 16.305813
61.725 15.938149
61.730 15.59457
61.735 16.026915
61.740 16.682796
61.745 17.114609
61.750 16.73937
61.755 16.778952
61.760 17.009518
61.765 17.430779
61.770 16.987514
61.775 16.865387
61.780 16.322937
61.785 16.522423
61.790 16.559988
61.795 16.518398
61.800 16.303318
61.805 15.977281
61.810 16.031282
61.815 16.410404
61.820 16.534462
61.825 16.53331
61.830 16.76685
61.835 17.160959
61.840 17.236183
61.845 17.017958
61.850 17.291065
61.855 17.928419
61.860 18.345009
61.865 18.678476
61.870 18.877073
61.875 19.219584
61.880 19.612404
61.885 19.739908
61.890 19.65218
61.895 19.120499
61.900 18.615803
61.905 18.738459
61.910 18.721533
61.915 18.70886
61.920 18.262768
61.925 17.862288
61.930 18.331694
61.935 17.864418
61.940 17.825083
61.945 17.846277
61.950 17.40901
61.955 17.70528
61.960 17.458454
61.965 17.494017
61.970 18.188465
61.975 18.18112
61.980 17.841843
61.985 17.90723
61.990 17.674118
61.995 17.523886
62.000 17.243095
62.005 16.97373
62.010 17.171234
62.015 17.303596
62.020 17.087465
62.025 16.784065
62.030 16.59466
62.035 16.157204
62.040 15.845258
62.045 15.817274
62.050 16.407928
62.055 16.687033
62.060 17.063231
62.065 17.467793
62.070 17.724371
62.075 17.740932
62.080 17.550312
62.085 17.55065
62.090 17.127169
62.095 16.659124
62.100 16.283575
62.105 16.346977
62.110 16.334974
62.115 15.930419
62.120 15.685186
62.125 16.018751
62.130 16.878559
62.135 17.302425
62.140 17.155767
62.145 17.266966
62.150 17.472515
62.155 17.142567
62.160 16.744549
62.165 16.658501
62.170 16.650263
62.175 16.887119
62.180 17.00255
62.185 17.043507
62.190 17.22904
62.195 16.984142
62.200 16.396013
62.205 15.502341
62.210 15.257276
62.215 15.083394
62.220 14.959902
62.225 15.111985
62.230 15.603125
62.235 15.938254
62.240 16.701385
62.245 17.32926
62.250 17.491325
62.255 17.526293
62.260 17.592087
62.265 17.235067
62.270 16.988081
62.275 17.303543
62.280 17.312864
62.285 17.347689
62.290 17.709528
62.295 18.051092
62.300 18.45425
62.305 18.049034
62.310 17.174812
62.315 16.47477
62.320 16.035492
62.325 15.876781
62.330 15.508558
62.335 15.43004
62.340 15.944103
62.345 16.415686
62.350 16.311613
62.355 16.424814
62.360 16.502745
62.365 16.417908
62.370 16.358372
62.375 16.029305
62.380 16.125822
62.385 16.45599
62.390 16.365683
62.395 16.255617
62.400 16.225538
62.405 15.96254
62.410 16.278023
62.415 16.522425
62.420 16.988083
62.425 17.590279
62.430 17.834694
62.435 18.257399
62.440 18.691591
62.445 18.234018
62.450 18.042021
62.455 17.938192
62.460 17.270201
62.465 16.983276
62.470 16.784649
62.475 17.648777
62.480 18.5415
62.485 18.719086
62.490 18.339346
62.495 18.616692
62.500 19.120466
62.505 19.185352
62.510 18.557278
62.515 18.104019
62.520 18.214348
62.525 18.432878
62.530 18.367479
62.535 17.941395
62.540 17.773548
62.545 18.023787
62.550 17.756262
62.555 17.354246
62.560 17.123161
62.565 16.550928
62.570 16.622509
62.575 16.737988
62.580 16.759489
62.585 17.104755
62.590 17.035297
62.595 17.224915
62.600 17.692198
62.605 17.413393
62.610 16.764156
62.615 16.517118
62.620 15.840514
62.625 16.160542
62.630 16.212687
62.635 16.260241
62.640 16.549799
62.645 16.756166
62.650 16.876059
62.655 17.134441
62.660 16.923929
62.665 16.739172
62.670 16.434969
62.675 16.370899
62.680 16.167715
62.685 15.967896
62.690 16.321295
62.695 15.834842
62.700 15.561344
62.705 16.004349
62.710 16.051641
62.715 16.175674
62.720 16.289694
62.725 16.184748
62.730 17.158041
62.735 17.76301
62.740 17.749418
62.745 18.246977
62.750 18.187014
62.755 18.019169
62.760 18.148912
62.765 17.785833
62.770 17.713514
62.775 17.370255
62.780 17.221403
62.785 17.037319
62.790 17.327433
62.795 17.518908
62.800 17.29117
62.805 17.031094
62.810 17.238892
62.815 17.292263
62.820 17.662256
62.825 17.509737
62.830 17.589264
62.835 17.864861
62.840 17.713804
62.845 17.16329
62.850 17.097584
62.855 17.15984
62.860 17.18862
62.865 16.639521
62.870 16.512829
62.875 16.960669
62.880 17.125807
62.885 17.181442
62.890 16.583538
62.895 16.409599
62.900 16.843809
62.905 16.522932
62.910 16.508482
62.915 16.582064
62.920 17.018536
62.925 17.590384
62.930 17.777203
62.935 17.556705
62.940 18.175283
62.945 18.440552
62.950 18.617212
62.955 18.163359
62.960 17.858299
62.965 17.613825
62.970 17.62203
62.975 17.458752
62.980 17.520067
62.985 17.285686
62.990 17.573954
62.995 18.085409
63.000 18.53828
63.005 18.367386
63.010 18.205627
63.015 18.06731
63.020 18.071804
63.025 18.204393
63.030 18.197477
63.035 18.416168
63.040 18.790239
63.045 18.801815
63.050 19.106396
63.055 18.883921
63.060 19.216787
63.065 18.964298
63.070 18.948517
63.075 18.901968
63.080 18.495478
63.085 18.595989
63.090 18.865685
63.095 18.045868
63.100 18.008617
63.105 17.875183
63.110 17.733133
63.115 18.182058
63.120 18.202761
63.125 18.394527
63.130 18.708967
63.135 18.537178
63.140 18.062023
63.145 17.634342
63.150 16.756651
63.155 16.010201
63.160 15.65605
63.165 15.844883
63.170 16.14747
63.175 16.888777
63.180 17.522734
63.185 18.145409
63.190 18.158613
63.195 17.958107
63.200 17.7141
63.205 17.604954
63.210 17.755453
63.215 17.803226
63.220 17.706373
63.225 18.143869
63.230 18.625612
63.235 18.873615
63.240 18.735771
63.245 18.418581
63.250 18.077496
63.255 18.422392
63.260 18.166143
63.265 17.532604
63.270 17.415615
63.275 17.6516
63.280 17.40724
63.285 17.806938
63.290 17.660467
63.295 18.07493
63.300 18.052666
63.305 17.672493
63.310 17.583183
63.315 17.549252
63.320 17.031485
63.325 17.806749
63.330 17.79269
63.335 18.479347
63.340 18.387106
63.345 18.067076
63.350 17.907143
63.355 16.913546
63.360 15.848085
63.365 16.011984
63.370 15.924853
63.375 16.40534
63.380 16.72286
63.385 17.442934
63.390 18.797409
63.395 19.344378
63.400 19.291279
63.405 19.12764
63.410 18.814428
63.415 18.830561
63.420 19.041725
63.425 18.942329
63.430 18.505085
63.435 19.016817
63.440 19.376911
63.445 19.76408
63.450 19.829098
63.455 19.827333
63.460 20.284994
63.465 20.899853
63.470 20.412527
63.475 20.173935
63.480 19.810518
63.485 19.967627
63.490 19.512182
63.495 19.273706
63.500 18.637363
63.505 18.882767
63.510 19.3559
63.515 19.299166
63.520 18.685024
63.525 18.520433
63.530 17.94319
63.535 18.045412
63.540 17.871733
63.545 17.408775
63.550 17.434389
63.555 17.445099
63.560 17.768402
63.565 18.083601
63.570 17.844463
63.575 17.566252
63.580 16.970224
63.585 17.499655
63.590 17.805632
63.595 18.274364
63.600 18.431625
63.605 18.049198
63.610 17.989382
63.615 18.802618
63.620 18.667978
63.625 18.890501
63.630 18.712709
63.635 18.506792
63.640 19.280415
63.645 19.790468
63.650 19.932934
63.655 20.105286
63.660 20.132185
63.665 20.300974
63.670 20.755329
63.675 20.547512
63.680 20.369738
63.685 20.02417
63.690 19.72658
63.695 19.703186
63.700 19.512014
63.705 19.610842
63.710 19.585453
63.715 19.502159
63.720 19.614952
63.725 19.609396
63.730 19.226227
63.735 18.708605
63.740 18.396292
63.745 18.439749
63.750 18.294334
63.755 18.086807
63.760 18.094543
63.765 18.492294
63.770 18.738636
63.775 18.898781
63.780 19.313725
63.785 19.808823
63.790 19.797562
63.795 19.661501
63.800 19.555378
63.805 19.646709
63.810 20.158134
63.815 20.363224
63.820 20.001797
63.825 20.178772
63.830 20.336996
63.835 20.264795
63.840 21.015722
63.845 20.971975
63.850 20.913181
63.855 21.022436
63.860 21.703762
63.865 22.351871
63.870 22.538851
63.875 21.927427
63.880 21.374517
63.885 21.063454
63.890 21.189774
63.895 20.927681
63.900 20.777267
63.905 20.60763
63.910 20.549631
63.915 20.672001
63.920 20.889252
63.925 21.200371
63.930 20.992687
63.935 20.753359
63.940 20.823248
63.945 20.968649
63.950 20.947426
63.955 21.604486
63.960 21.884724
63.965 22.420504
63.970 22.664665
63.975 23.04933
63.980 23.020559
63.985 22.783186
63.990 22.443239
63.995 22.45636
64.000 22.575935
64.005 23.178593
64.010 23.87845
64.015 24.443245
64.020 24.89489
64.025 24.682842
64.030 24.762508
64.035 25.198723
64.040 24.962973
64.045 24.754236
64.050 25.603407
64.055 26.016119
64.060 25.968849
64.065 24.955605
64.070 24.483273
64.075 25.649412
64.080 26.373621
64.085 25.8703
64.090 25.827366
64.095 26.228664
64.100 26.467846
64.105 26.160549
64.110 25.022263
64.115 24.190556
64.120 24.12077
64.125 23.461655
64.130 23.119949
64.135 23.816444
64.140 23.890734
64.145 23.401911
64.150 23.395002
64.155 23.551504
64.160 23.377197
64.165 23.131826
64.170 23.144215
64.175 23.428398
64.180 23.817751
64.185 24.183859
64.190 24.252571
64.195 24.836403
64.200 25.047104
64.205 24.576838
64.210 24.173859
64.215 23.905544
64.220 23.601616
64.225 23.608448
64.230 23.512035
64.235 23.779612
64.240 24.019716
64.245 24.363155
64.250 24.127699
64.255 23.929941
64.260 23.91061
64.265 24.230791
64.270 24.611658
64.275 24.175919
64.280 24.166088
64.285 25.214304
64.290 25.655212
64.295 25.939859
64.300 25.435923
64.305 24.909506
64.310 25.656597
64.315 25.472816
64.320 25.043707
64.325 24.852448
64.330 24.53821
64.335 24.373131
64.340 24.068289
64.345 23.562542
64.350 23.665401
64.355 23.493641
64.360 23.509695
64.365 23.557837
64.370 24.127722
64.375 24.766485
64.380 25.123104
64.385 25.260464
64.390 25.703285
64.395 25.067623
64.400 24.847761
64.405 24.751261
64.410 24.824598
64.415 24.350456
64.420 23.997639
64.425 23.032019
64.430 22.823181
64.435 23.280544
64.440 22.967607
64.445 22.919727
64.450 23.673737
64.455 23.508137
64.460 24.097834
64.465 24.956671
64.470 24.725418
64.475 25.183226
64.480 24.819921
64.485 24.026384
64.490 23.527397
64.495 23.4897
64.500 23.49548
64.505 24.137409
64.510 24.084007
64.515 23.783648
64.520 23.807413
64.525 24.234089
64.530 24.095968
64.535 23.436686
64.540 22.904329
64.545 22.059698
64.550 22.085459
64.555 22.957458
64.560 22.987234
64.565 23.275356
64.570 23.511942
64.575 23.661964
64.580 24.474146
64.585 24.52943
64.590 23.793219
64.595 23.434271
64.600 23.061954
64.605 23.607376
64.610 23.207798
64.615 23.006449
64.620 23.329702
64.625 23.115257
64.630 23.166101
64.635 23.577654
64.640 23.307213
64.645 22.865105
64.650 22.43738
64.655 22.543493
64.660 22.839916
64.665 22.826488
64.670 22.720898
64.675 22.776426
64.680 23.012596
64.685 22.996679
64.690 22.747091
64.695 23.198025
64.700 23.580191
64.705 23.300093
64.710 22.929325
64.715 23.773094
64.720 24.684137
64.725 24.525229
64.730 23.943884
64.735 23.900688
64.740 23.924658
64.745 24.37875
64.750 24.297031
64.755 23.717194
64.760 24.284679
64.765 24.890566
64.770 24.514812
64.775 24.275156
64.780 24.544033
64.785 24.161127
64.790 23.296179
64.795 22.644077
64.800 22.81513
64.805 23.532568
64.810 23.618067
64.815 23.084587
64.820 23.003736
64.825 23.555738
64.830 23.44145
64.835 23.356527
64.840 23.193466
64.845 23.203659
64.850 22.80862
64.855 22.908447
64.860 23.189211
64.865 22.586054
64.870 22.442221
64.875 22.464497
64.880 22.400578
64.885 22.164078
64.890 21.93289
64.895 21.724762
64.900 22.191877
64.905 21.876339
64.910 22.376125
64.915 22.107452
64.920 22.189171
64.925 22.484682
64.930 23.486183
64.935 23.800196
64.940 24.32341
64.945 24.130527
64.950 24.5637
64.955 25.232826
64.960 25.286224
64.965 25.019674
64.970 25.081964
64.975 24.618414
64.980 24.534975
64.985 24.807903
64.990 24.618326
64.995 24.52297
65.000 24.290585
65.005 24.440424
65.010 25.040533
65.015 25.318235
65.020 25.96546
65.025 26.329779
65.030 26.592134
65.035 26.97098
65.040 26.757679
65.045 26.552767
65.050 26.501204
65.055 25.955822
65.060 26.25503
65.065 26.305735
65.070 25.757307
65.075 26.077188
65.080 26.611816
65.085 26.872868
65.090 26.745995
65.095 26.866766
65.100 26.505165
65.105 26.534132
65.110 25.839935
65.115 25.340021
65.120 25.312933
65.125 25.346556
65.130 24.934071
65.135 25.490108
65.140 25.87328
65.145 26.186073
65.150 26.381844
65.155 26.110878
65.160 25.776096
65.165 25.697096
65.170 24.994238
65.175 24.563061
65.180 24.082508
65.185 23.13596
65.190 22.972567
65.195 22.956366
65.200 22.459713
65.205 22.386145
65.210 22.690031
65.215 23.149815
65.220 23.163605
65.225 22.782135
65.230 23.204632
65.235 23.492823
65.240 23.29977
65.245 23.453253
65.250 23.305094
65.255 23.455652
65.260 23.874189
65.265 23.582493
65.270 24.114441
65.275 24.068392
65.280 23.658438
65.285 24.214115
65.290 24.786064
65.295 25.241854
65.300 25.836943
65.305 25.542776
65.310 25.69985
65.315 25.952116
65.320 25.548401
65.325 24.864529
65.330 24.320959
65.335 23.590513
65.340 24.217134
65.345 24.660692
65.350 24.55562
65.355 24.838345
65.360 25.444498
65.365 25.457857
65.370 25.527863
65.375 24.425623
65.380 23.794786
65.385 23.817326
65.390 23.562485
65.395 23.002457
65.400 22.98645
65.405 23.733952
65.410 24.709452
65.415 24.804283
65.420 24.967722
65.425 24.807634
65.430 25.046253
65.435 25.328163
65.440 25.275391
65.445 24.977245
65.450 24.665842
65.455 24.256367
65.460 24.523079
65.465 24.460556
65.470 24.286699
65.475 23.991838
65.480 24.461033
65.485 25.179184
65.490 25.852879
65.495 25.928303
65.500 25.727795
65.505 25.754013
65.510 26.156284
65.515 26.014286
65.520 25.646322
65.525 25.281837
65.530 25.167135
65.535 25.974806
65.540 25.44459
65.545 24.790833
65.550 24.093697
65.555 24.379536
65.560 24.673882
65.565 25.47035
65.570 25.760523
65.575 26.445545
65.580 27.199762
65.585 28.357893
65.590 28.103189
65.595 28.285343
65.600 28.124193
65.605 28.222002
65.610 27.976952
65.615 27.299261
65.620 27.15584
65.625 27.439848
65.630 27.014236
65.635 26.4174
65.640 26.390663
65.645 26.531855
65.650 27.220106
65.655 27.121319
65.660 27.044346
65.665 26.882103
65.670 26.889711
65.675 26.864555
65.680 27.287231
65.685 27.397427
65.690 26.984743
65.695 27.33036
65.700 27.694136
65.705 28.108883
65.710 28.708393
65.715 29.036789
65.720 29.020071
65.725 28.998962
65.730 28.868841
65.735 29.602608
65.740 29.785231
65.745 29.152473
65.750 29.04657
65.755 29.665548
65.760 30.269655
65.765 30.575016
65.770 30.312546
65.775 29.677141
65.780 29.532106
65.785 29.380177
65.790 29.229467
65.795 29.193525
65.800 29.303608
65.805 29.467453
65.810 29.943897
65.815 29.445772
65.820 29.875809
65.825 30.498859
65.830 30.72035
65.835 30.382162
65.840 30.477316
65.845 30.774693
65.850 31.901709
65.855 32.496681
65.860 32.372929
65.865 32.426224
65.870 32.146542
65.875 32.055172
65.880 32.975834
65.885 33.714031
65.890 34.178288
65.895 34.493614
65.900 35.7505
65.905 37.207222
65.910 37.578747
65.915 36.820663
65.920 36.475887
65.925 37.493324
65.930 37.596729
65.935 37.780849
65.940 37.048012
65.945 36.952232
65.950 36.874084
65.955 36.811382
65.960 36.319851
65.965 35.777016
65.970 35.301205
65.975 35.782341
65.980 36.354843
65.985 36.843311
65.990 37.009174
65.995 36.517929
66.000 37.458153
66.005 37.553432
66.010 38.041973
66.015 38.226986
66.020 38.751427
66.025 37.787296
66.030 37.758766
66.035 38.007713
66.040 38.16674
66.045 38.102852
66.050 37.704659
66.055 37.078499
66.060 37.983326
66.065 38.483555
66.070 38.354244
66.075 39.255081
66.080 39.953018
66.085 40.220089
66.090 40.366554
66.095 40.571201
66.100 40.550655
66.105 39.411758
66.110 38.873291
66.115 38.148102
66.120 38.211067
66.125 38.60944
66.130 38.208412
66.135 38.155399
66.140 39.217331
66.145 39.904774
66.150 40.394272
66.155 41.066357
66.160 40.911453
66.165 41.029381
66.170 41.481075
66.175 40.896069
66.180 40.136364
66.185 39.67532
66.190 39.185787
66.195 39.314827
66.200 39.795685
66.205 39.452793
66.210 39.809757
66.215 39.012604
66.220 39.078419
66.225 38.778069
66.230 38.423897
66.235 38.510181
66.240 38.762203
66.245 38.293262
66.250 39.40469
66.255 39.703594
66.260 39.904686
66.265 40.112377
66.270 40.198143
66.275 40.441887
66.280 40.905609
66.285 40.965454
66.290 40.890266
66.295 40.824558
66.300 40.428223
66.305 39.049248
66.310 38.402393
66.315 38.24691
66.320 37.961994
66.325 37.798416
66.330 37.57687
66.335 37.376362
66.340 37.382935
66.345 37.336121
66.350 37.061985
66.355 37.091541
66.360 36.69788
66.365 36.752056
66.370 36.689579
66.375 36.429867
66.380 36.861938
66.385 36.274754
66.390 35.758598
66.395 35.150093
66.400 35.073391
66.405 35.849697
66.410 36.664165
66.415 35.915848
66.420 35.874943
66.425 36.398655
66.430 36.351772
66.435 35.624352
66.440 34.675339
66.445 34.290062
66.450 33.7561
66.455 33.878281
66.460 33.424824
66.465 34.158047
66.470 34.631195
66.475 34.476063
66.480 34.102882
66.485 34.645855
66.490 34.06871
66.495 33.213287
66.500 32.983353
66.505 32.706226
66.510 32.525555
66.515 31.931061
66.520 31.024675
66.525 30.421112
66.530 31.027178
66.535 30.372198
66.540 30.187037
66.545 30.422976
66.550 30.801487
66.555 31.000185
66.560 31.156467
66.565 30.566324
66.570 30.250906
66.575 29.430573
66.580 28.902296
66.585 28.135168
66.590 27.831322
66.595 28.192234
66.600 27.598366
66.605 27.271721
66.610 27.230495
66.615 26.959141
66.620 26.923029
66.625 26.612722
66.630 26.166153
66.635 26.140356
66.640 26.264076
66.645 26.254255
66.650 25.679094
66.655 25.794668
66.660 25.4102
66.665 25.186169
66.670 24.849167
66.675 24.50737
66.680 23.852196
66.685 23.70578
66.690 23.150242
66.695 23.042452
66.700 22.673557
66.705 22.571774
66.710 22.282728
66.715 22.244261
66.720 21.707844
66.725 21.540918
66.730 21.109674
66.735 21.345507
66.740 21.662344
66.745 21.963949
66.750 22.738443
66.755 23.175322
66.760 23.275293
66.765 23.586191
66.770 23.222359
66.775 23.033813
66.780 23.0354
66.785 22.60759
66.790 22.274622
66.795 22.028856
66.800 21.34803
66.805 21.497238
66.810 21.776522
66.815 22.079556
66.820 22.19272
66.825 22.280195
66.830 22.257547
66.835 22.553724
66.840 22.311754
66.845 21.810127
66.850 21.356642
66.855 21.155401
66.860 21.130806
66.865 21.109741
66.870 21.063143
66.875 21.002909
66.880 21.351818
66.885 21.183069
66.890 20.497509
66.895 20.574032
66.900 20.255007
66.905 20.38821
66.910 20.47386
66.915 20.29665
66.920 20.3846
66.925 20.588505
66.930 19.95673
66.935 19.731524
66.940 19.525908
66.945 19.707876
66.950 19.520466
66.955 19.446497
66.960 19.160887
66.965 19.996752
66.970 20.670263
66.975 21.232454
66.980 20.905474
66.985 21.430149
66.990 21.407051
66.995 21.433912
67.000 20.707291
67.005 20.076326
67.010 19.535408
67.015 19.711367
67.020 19.497019
67.025 19.723492
67.030 19.724966
67.035 20.338961
67.040 21.117447
67.045 21.167358
67.050 20.819311
67.055 20.85396
67.060 20.729637
67.065 20.608976
67.070 20.516775
67.075 20.114056
67.080 19.709028
67.085 19.601568
67.090 19.656549
67.095 19.882263
67.100 20.323061
67.105 19.834137
67.110 19.979424
67.115 20.668949
67.120 20.832603
67.125 21.152712
67.130 21.241884
67.135 20.509157
67.140 20.271622
67.145 20.353212
67.150 20.510864
67.155 20.783859
67.160 20.422588
67.165 19.942757
67.170 19.887503
67.175 20.252121
67.180 20.082724
67.185 19.843206
67.190 19.649244
67.195 19.262688
67.200 19.728323
67.205 19.884848
67.210 19.656067
67.215 19.147797
67.220 19.112478
67.225 18.982096
67.230 18.942768
67.235 18.820307
67.240 19.377668
67.245 20.256584
67.250 20.82926
67.255 20.610437
67.260 20.55987
67.265 20.503036
67.270 20.879339
67.275 20.719349
67.280 20.081415
67.285 20.192743
67.290 20.356552
67.295 20.45035
67.300 21.145155
67.305 20.971661
67.310 20.534262
67.315 20.290916
67.320 19.569435
67.325 19.320576
67.330 19.133579
67.335 18.733665
67.340 18.609205
67.345 18.682676
67.350 18.761562
67.355 18.860006
67.360 19.218075
67.365 19.471581
67.370 18.971281
67.375 19.306433
67.380 19.59985
67.385 20.10951
67.390 20.835423
67.395 20.826372
67.400 21.071917
67.405 21.148672
67.410 20.803288
67.415 20.62388
67.420 20.065216
67.425 19.266838
67.430 19.085196
67.435 19.20487
67.440 19.600725
67.445 20.487356
67.450 20.670498
67.455 21.463709
67.460 22.262356
67.465 22.204166
67.470 21.910492
67.475 21.804684
67.480 21.1994
67.485 21.409128
67.490 20.981306
67.495 21.148886
67.500 21.353897
67.505 21.715727
67.510 21.747475
67.515 21.70565
67.520 20.961573
67.525 21.204479
67.530 21.625044
67.535 21.855738
67.540 21.697222
67.545 21.904278
67.550 21.978765
67.555 22.376337
67.560 21.501862
67.565 20.287615
67.570 19.417046
67.575 19.09565
67.580 18.980848
67.585 18.524168
67.590 18.736307
67.595 18.654472
67.600 19.097326
67.605 19.568811
67.610 20.074934
67.615 20.384872
67.620 20.20723
67.625 20.389561
67.630 20.706909
67.635 20.669704
67.640 20.495787
67.645 20.293953
67.650 20.02437
67.655 20.334774
67.660 20.121817
67.665 20.318062
67.670 20.065102
67.675 19.321686
67.680 18.896523
67.685 18.962748
67.690 19.182875
67.695 19.623955
67.700 20.086248
67.705 20.731823
67.710 21.515093
67.715 21.783381
67.720 21.712658
67.725 20.829929
67.730 20.650982
67.735 20.645035
67.740 20.575108
67.745 20.053476
67.750 19.926289
67.755 20.232059
67.760 20.615667
67.765 19.875418
67.770 18.86413
67.775 18.831831
67.780 19.013956
67.785 18.988155
67.790 19.000481
67.795 18.888485
67.800 19.052784
67.805 19.279554
67.810 19.101322
67.815 19.237226
67.820 19.388889
67.825 19.434307
67.830 19.856718
67.835 19.538258
67.840 19.612509
67.845 20.069244
67.850 20.735168
67.855 20.691597
67.860 20.711346
67.865 21.020844
67.870 22.409781
67.875 22.659811
67.880 22.519381
67.885 21.402456
67.890 20.630861
67.895 20.960928
67.900 21.250954
67.905 21.166481
67.910 20.942221
67.915 20.485914
67.920 21.521738
67.925 22.475107
67.930 21.940176
67.935 21.086075
67.940 20.78565
67.945 21.024073
67.950 21.061501
67.955 20.487041
67.960 20.376898
67.965 20.613497
67.970 20.729155
67.975 21.076715
67.980 21.000696
67.985 21.333202
67.990 20.819454
67.995 20.860071
68.000 20.576866
68.005 20.068201
68.010 19.849064
68.015 19.822927
68.020 19.886189
68.025 20.199619
68.030 20.264219
68.035 20.469629
68.040 20.708033
68.045 20.562614
68.050 21.093163
68.055 21.232706
68.060 21.028275
68.065 20.856176
68.070 20.825142
68.075 20.780025
68.080 20.326319
68.085 20.244263
68.090 20.117018
68.095 20.119581
68.100 20.103201
68.105 20.448336
68.110 20.463581
68.115 20.173117
68.120 19.876762
68.125 19.9666
68.130 19.971733
68.135 20.318974
68.140 20.525574
68.145 20.404221
68.150 20.616425
68.155 20.715437
68.160 20.75271
68.165 21.289665
68.170 21.023956
68.175 21.417587
68.180 21.59304
68.185 21.859182
68.190 22.552227
68.195 22.139235
68.200 21.384548
68.205 21.10005
68.210 21.009823
68.215 21.455429
68.220 21.29022
68.225 20.825979
68.230 20.383394
68.235 20.846682
68.240 21.174021
68.245 20.958954
68.250 20.736292
68.255 20.770309
68.260 21.275806
68.265 22.373714
68.270 21.963385
68.275 21.456106
68.280 21.472527
68.285 20.839777
68.290 20.534784
68.295 19.461775
68.300 18.948874
68.305 19.989765
68.310 20.360792
68.315 20.145136
68.320 20.050362
68.325 20.49526
68.330 20.757338
68.335 20.737507
68.340 19.809275
68.345 19.264561
68.350 19.488058
68.355 19.718035
68.360 19.26754
68.365 19.180243
68.370 18.952007
68.375 19.40962
68.380 19.805496
68.385 20.463615
68.390 21.034489
68.395 21.068785
68.400 21.656912
68.405 21.875252
68.410 21.252642
68.415 21.431883
68.420 21.478519
68.425 21.295424
68.430 21.543579
68.435 21.143158
68.440 21.280725
68.445 21.370813
68.450 20.73341
68.455 20.252203
68.460 20.512531
68.465 20.798239
68.470 20.782419
68.475 20.346718
68.480 20.621439
68.485 20.971628
68.490 21.072325
68.495 20.505816
68.500 20.672262
68.505 20.959467
68.510 21.135864
68.515 20.760115
68.520 20.154764
68.525 20.097054
68.530 20.506374
68.535 20.269932
68.540 20.235146
68.545 20.293941
68.550 20.555737
68.555 20.956881
68.560 21.403179
68.565 21.622154
68.570 21.67205
68.575 21.946096
68.580 22.191133
68.585 21.889624
68.590 21.857666
68.595 21.305893
68.600 21.250723
68.605 20.591351
68.610 20.247005
68.615 19.970751
68.620 19.964079
68.625 19.297485
68.630 18.968163
68.635 18.727911
68.640 18.83877
68.645 19.193886
68.650 19.663345
68.655 20.181305
68.660 20.256182
68.665 20.900116
68.670 20.889477
68.675 21.068623
68.680 21.322155
68.685 21.300011
68.690 21.545198
68.695 22.492697
68.700 22.677622
68.705 23.29772
68.710 23.319004
68.715 22.775661
68.720 22.948067
68.725 22.648655
68.730 21.605951
68.735 20.985476
68.740 20.813217
68.745 20.753435
68.750 21.217112
68.755 20.988573
68.760 20.855288
68.765 21.324877
68.770 21.444445
68.775 20.734743
68.780 20.100718
68.785 19.620844
68.790 19.375751
68.795 19.864573
68.800 19.998184
68.805 20.509933
68.810 21.330864
68.815 21.900625
68.820 22.095921
68.825 22.244616
68.830 22.644617
68.835 23.073267
68.840 22.737938
68.845 23.019129
68.850 23.252302
68.855 23.446173
68.860 23.446951
68.865 23.266428
68.870 22.872164
68.875 23.253363
68.880 23.028288
68.885 23.219093
68.890 23.346203
68.895 23.237207
68.900 23.592777
68.905 23.819639
68.910 23.458578
68.915 23.389223
68.920 22.907248
68.925 22.805637
68.930 23.434465
68.935 23.720444
68.940 23.901291
68.945 23.455742
68.950 23.392668
68.955 24.208179
68.960 24.059525
68.965 23.511946
68.970 22.480198
68.975 22.779358
68.980 23.25198
68.985 23.292789
68.990 22.443686
68.995 22.519352
69.000 22.700985
69.005 22.728994
69.010 22.984703
69.015 23.100893
69.020 23.654305
69.025 24.190578
69.030 24.285856
69.035 24.677069
69.040 25.367785
69.045 25.369915
69.050 25.257399
69.055 25.380877
69.060 25.783911
69.065 25.816378
69.070 25.12134
69.075 24.709295
69.080 24.942787
69.085 25.350338
69.090 25.813025
69.095 25.932232
69.100 26.530645
69.105 27.7045
69.110 28.414669
69.115 27.412054
69.120 27.197226
69.125 27.136198
69.130 27.272009
69.135 27.039072
69.140 26.632408
69.145 26.417
69.150 27.366985
69.155 27.22797
69.160 26.640686
69.165 26.285301
69.170 26.629904
69.175 27.693745
69.180 28.754837
69.185 29.111174
69.190 29.745089
69.195 29.888966
69.200 30.177822
69.205 30.134396
69.210 30.161224
69.215 29.859161
69.220 30.125277
69.225 29.606976
69.230 30.024176
69.235 30.454775
69.240 30.39694
69.245 30.124222
69.250 30.161945
69.255 29.810961
69.260 29.897066
69.265 29.188084
69.270 29.66823
69.275 29.777908
69.280 29.740236
69.285 29.654425
69.290 29.514917
69.295 29.130867
69.300 29.685575
69.305 29.782598
69.310 29.375532
69.315 29.543516
69.320 29.575026
69.325 30.257227
69.330 31.325506
69.335 31.233582
69.340 30.973114
69.345 31.833401
69.350 32.439667
69.355 33.227509
69.360 33.337635
69.365 33.876152
69.370 34.362804
69.375 34.389305
69.380 34.464512
69.385 34.347389
69.390 34.308155
69.395 34.344162
69.400 34.184982
69.405 33.809578
69.410 33.422337
69.415 32.240475
69.420 31.410553
69.425 31.175583
69.430 31.688894
69.435 31.886284
69.440 31.560659
69.445 32.260735
69.450 33.471268
69.455 33.931999
69.460 33.694088
69.465 33.410004
69.470 33.656147
69.475 34.413044
69.480 34.392582
69.485 34.254402
69.490 35.014126
69.495 35.839931
69.500 35.619915
69.505 34.777153
69.510 34.724651
69.515 34.26025
69.520 33.342121
69.525 32.535465
69.530 31.539907
69.535 32.016182
69.540 32.623146
69.545 32.681725
69.550 32.703705
69.555 33.052387
69.560 32.957977
69.565 32.808292
69.570 32.649277
69.575 32.201931
69.580 31.683386
69.585 32.247253
69.590 32.895519
69.595 33.19709
69.600 33.016743
69.605 32.515118
69.610 32.061378
69.615 32.122597
69.620 31.72084
69.625 31.454336
69.630 31.565981
69.635 31.815226
69.640 32.343155
69.645 33.221748
69.650 33.48587
69.655 33.657539
69.660 33.107777
69.665 32.709076
69.670 32.500164
69.675 32.391884
69.680 31.733873
69.685 31.733013
69.690 31.202652
69.695 31.472471
69.700 31.228128
69.705 30.494892
69.710 29.907742
69.715 29.541285
69.720 28.61186
69.725 28.216198
69.730 27.946281
69.735 28.217398
69.740 28.131573
69.745 28.220306
69.750 28.273161
69.755 28.094687
69.760 28.176004
69.765 27.654835
69.770 27.414841
69.775 27.602776
69.780 27.272669
69.785 27.356518
69.790 27.438574
69.795 27.280495
69.800 27.061069
69.805 26.799658
69.810 26.346148
69.815 26.540787
69.820 27.030352
69.825 26.403074
69.830 26.348059
69.835 26.556583
69.840 26.308035
69.845 26.032206
69.850 25.488171
69.855 25.363916
69.860 25.143826
69.865 24.90324
69.870 24.876564
69.875 25.516476
69.880 25.720839
69.885 25.899336
69.890 25.890242
69.895 25.933165
69.900 25.130108
69.905 25.11869
69.910 24.483315
69.915 23.551302
69.920 23.71212
69.925 22.819595
69.930 22.710205
69.935 23.235176
69.940 22.662577
69.945 22.473185
69.950 23.15888
69.955 22.768345
69.960 23.140127
69.965 23.031422
69.970 23.069477
69.975 23.276617
69.980 23.067862
69.985 22.064972
69.990 21.603354
69.995 21.607422
70.000 21.994267
70.005 21.851511
70.010 22.224937
70.015 22.616091
70.020 22.417768
70.025 22.802732
70.030 22.949888
70.035 21.767151
70.040 20.935825
70.045 20.596504
70.050 20.540642
70.055 20.917883
70.060 20.638393
70.065 20.781473
70.070 21.827316
70.075 21.821987
70.080 21.59564
70.085 21.823397
70.090 21.509352
70.095 21.041819
70.100 21.15349
70.105 20.930445
70.110 20.715841
70.115 20.474567
70.120 20.527515
70.125 20.684473
70.130 20.993736
70.135 20.520166
70.140 20.413736
70.145 20.708611
70.150 20.659533
70.155 20.56028
70.160 20.565063
70.165 20.177847
70.170 19.977476
70.175 20.23485
70.180 20.158236
70.185 20.005486
70.190 19.715343
70.195 19.706081
70.200 19.780313
70.205 20.093363
70.210 19.707563
70.215 19.643669
70.220 19.603264
70.225 19.28377
70.230 19.253208
70.235 19.028946
70.240 18.429281
70.245 18.696047
70.250 19.138826
70.255 19.328169
70.260 19.96434
70.265 20.690691
70.270 20.733534
70.275 21.463024
70.280 21.301065
70.285 21.472345
70.290 21.375782
70.295 20.586096
70.300 20.094698
70.305 20.174694
70.310 19.917297
70.315 20.269123
70.320 20.725035
70.325 20.755735
70.330 20.463791
70.335 19.989866
70.340 20.251863
70.345 20.550215
70.350 20.339491
70.355 20.337517
70.360 20.880476
70.365 21.556644
70.370 21.781597
70.375 21.172512
70.380 20.796051
70.385 20.531494
70.390 20.234409
70.395 19.930616
70.400 19.392778
70.405 19.63686
70.410 20.54339
70.415 20.67625
70.420 20.551069
70.425 20.59305
70.430 21.420488
70.435 21.740088
70.440 21.254322
70.445 20.748026
70.450 20.395966
70.455 20.33942
70.460 20.136583
70.465 19.737608
70.470 19.407476
70.475 19.446735
70.480 19.494339
70.485 19.857647
70.490 19.585356
70.495 19.636242
70.500 20.355213
70.505 20.688087
70.510 20.905006
70.515 21.302706
70.520 20.9118
70.525 20.972805
70.530 21.197702
70.535 20.549328
70.540 20.705091
70.545 20.235937
70.550 19.481337
70.555 19.411772
70.560 19.547014
70.565 19.322557
70.570 19.21213
70.575 19.119364
70.580 18.369886
70.585 18.158207
70.590 18.229609
70.595 18.247784
70.600 18.44136
70.605 18.420088
70.610 18.590227
70.615 19.698956
70.620 19.921272
70.625 19.819399
70.630 19.92071
70.635 19.50172
70.640 19.016224
70.645 18.970762
70.650 19.03809
70.655 19.339453
70.660 19.64234
70.665 18.851807
70.670 18.930048
70.675 19.114763
70.680 18.749371
70.685 18.636423
70.690 18.714092
70.695 18.329607
70.700 18.434908
70.705 18.421688
70.710 18.06015
70.715 18.604427
70.720 18.737514
70.725 18.442183
70.730 19.016787
70.735 19.115204
70.740 19.289215
70.745 19.441242
70.750 19.105658
70.755 19.066311
70.760 19.24194
70.765 19.422459
70.770 19.437832
70.775 19.94475
70.780 20.357094
70.785 19.916189
70.790 19.562353
70.795 19.430536
70.800 19.181273
70.805 19.253235
70.810 18.565201
70.815 18.521799
70.820 19.15687
70.825 19.63191
70.830 19.45126
70.835 19.434797
70.840 19.15567
70.845 19.206221
70.850 19.101797
70.855 18.012959
70.860 17.854652
70.865 18.280148
70.870 18.829088
70.875 19.330061
70.880 19.51848
70.885 19.781031
70.890 20.547773
70.895 20.15914
70.900 19.207504
70.905 18.611612
70.910 18.083263
70.915 18.171682
70.920 18.048391
70.925 18.088013
70.930 17.722054
70.935 17.729982
70.940 17.816059
70.945 17.669781
70.950 17.150469
70.955 17.685928
70.960 17.821865
70.965 18.318581
70.970 18.54347
70.975 18.628359
70.980 18.953941
70.985 19.289629
70.990 19.09272
70.995 18.610575
71.000 18.762877
71.005 18.851854
71.010 19.164967
71.015 19.564417
71.020 19.216579
71.025 19.443645
71.030 19.826719
71.035 19.723141
71.040 19.944891
71.045 20.384026
71.050 19.963013
71.055 20.412607
71.060 20.60256
71.065 20.734352
71.070 20.978794
71.075 20.72756
71.080 20.63446
71.085 20.798077
71.090 20.595247
71.095 20.692337
71.100 20.915913
71.105 20.924202
71.110 20.978556
71.115 21.137699
71.120 20.912458
71.125 20.20928
71.130 19.951061
71.135 19.801769
71.140 19.525261
71.145 18.845943
71.150 18.240788
71.155 18.445023
71.160 18.56424
71.165 18.47378
71.170 17.836649
71.175 17.202372
71.180 17.584827
71.185 17.553822
71.190 17.764032
71.195 17.346111
71.200 17.34791
71.205 17.98765
71.210 18.192017
71.215 18.349669
71.220 18.345102
71.225 18.117624
71.230 18.090918
71.235 17.784479
71.240 18.212511
71.245 18.56909
71.250 18.704159
71.255 18.175724
71.260 17.937838
71.265 18.390539
71.270 18.666279
71.275 18.596413
71.280 18.195261
71.285 18.284882
71.290 18.446363
71.295 18.900339
71.300 19.378048
71.305 19.702242
71.310 19.541252
71.315 19.979591
71.320 20.377247
71.325 20.974648
71.330 20.937033
71.335 19.899521
71.340 19.474937
71.345 19.157429
71.350 19.176569
71.355 19.466742
71.360 19.292391
71.365 18.293121
71.370 18.151546
71.375 18.686058
71.380 18.626421
71.385 18.441263
71.390 17.885746
71.395 18.334034
71.400 18.950209
71.405 19.090296
71.410 19.344465
71.415 19.574877
71.420 19.461132
71.425 19.87207
71.430 19.840399
71.435 20.059734
71.440 20.07247
71.445 19.978363
71.450 19.867794
71.455 19.501009
71.460 19.265005
71.465 19.466488
71.470 19.276224
71.475 19.111277
71.480 18.889036
71.485 18.93017
71.490 18.714193
71.495 18.466156
71.500 18.054487
71.505 17.88986
71.510 17.793745
71.515 17.351734
71.520 17.187346
71.525 17.30419
71.530 17.52482
71.535 17.637136
71.540 17.515474
71.545 17.750193
71.550 18.300959
71.555 18.304621
71.560 18.302452
71.565 17.736229
71.570 18.087461
71.575 18.477858
71.580 18.725
71.585 18.862909
71.590 19.053207
71.595 19.372507
71.600 19.531927
71.605 19.680902
71.610 19.629646
71.615 19.316124
71.620 19.32616
71.625 19.43261
71.630 19.476969
71.635 19.306438
71.640 18.980507
71.645 18.613205
71.650 18.449734
71.655 17.854876
71.660 17.484804
71.665 17.838438
71.670 17.974606
71.675 17.527262
71.680 17.866226
71.685 18.224182
71.690 18.679022
71.695 19.084257
71.700 18.8582
71.705 18.895205
71.710 19.541677
71.715 19.431868
71.720 19.392754
71.725 19.493736
71.730 19.072506
71.735 19.00666
71.740 18.9011
71.745 18.645582
71.750 18.716516
71.755 18.191381
71.760 18.387178
71.765 18.585693
71.770 18.498905
71.775 18.690117
71.780 18.363745
71.785 18.088043
71.790 18.283033
71.795 18.553421
71.800 19.192945
71.805 19.173706
71.810 19.392014
71.815 19.616928
71.820 19.379999
71.825 19.256273
71.830 18.79908
71.835 17.933262
71.840 17.968403
71.845 18.338343
71.850 18.309584
71.855 18.776058
71.860 18.483753
71.865 18.343534
71.870 18.637918
71.875 18.835953
71.880 18.83099
71.885 19.508226
71.890 19.381083
71.895 19.596073
71.900 19.892281
71.905 20.001102
71.910 19.550205
71.915 19.568525
71.920 18.829245
71.925 18.999956
71.930 18.682524
71.935 18.814417
71.940 19.120817
71.945 18.43066
71.950 18.510836
71.955 18.149431
71.960 18.268688
71.965 18.435751
71.970 18.232218
71.975 18.264677
71.980 18.591248
71.985 19.039152
71.990 19.436422
71.995 19.063053
72.000 18.706228
72.005 18.600208
72.010 18.41884
72.015 17.644661
72.020 17.133886
72.025 17.006632
72.030 17.294563
72.035 17.716391
72.040 17.817507
72.045 18.268372
72.050 19.191889
72.055 20.113895
72.060 21.099878
72.065 21.042238
72.070 20.855761
72.075 21.391708
72.080 21.001932
72.085 20.74744
72.090 20.30747
72.095 19.70854
72.100 19.729504
72.105 19.286678
72.110 18.937412
72.115 19.20269
72.120 18.637421
72.125 18.180302
72.130 18.320181
72.135 18.395466
72.140 18.568205
72.145 18.80032
72.150 18.765928
72.155 19.094591
72.160 19.283085
72.165 19.449032
72.170 19.745548
72.175 19.794643
72.180 19.889339
72.185 19.34383
72.190 18.657768
72.195 18.440351
72.200 18.670954
72.205 18.55092
72.210 18.27305
72.215 17.877342
72.220 18.24048
72.225 18.815956
72.230 18.367834
72.235 18.009211
72.240 18.155184
72.245 18.468836
72.250 19.273178
72.255 19.210012
72.260 19.444063
72.265 19.791912
72.270 19.529715
72.275 19.199411
72.280 18.732561
72.285 18.894737
72.290 19.157448
72.295 18.732964
72.300 19.081839
72.305 19.454483
72.310 19.32114
72.315 19.466749
72.320 18.872257
72.325 19.024761
72.330 19.535055
72.335 18.950253
72.340 18.943859
72.345 19.266577
72.350 19.272291
72.355 19.297932
72.360 18.7167
72.365 18.310558
72.370 18.808535
72.375 18.803421
72.380 18.808899
72.385 18.567236
72.390 19.054323
72.395 19.454851
72.400 19.769123
72.405 19.916693
72.410 19.875854
72.415 19.803579
72.420 20.173498
72.425 19.552132
72.430 18.80015
72.435 18.053064
72.440 17.214098
72.445 16.991013
72.450 16.559921
72.455 15.926115
72.460 15.868405
72.465 16.481672
72.470 16.803926
72.475 16.928755
72.480 17.339138
72.485 17.547564
72.490 17.920483
72.495 17.819553
72.500 16.797203
72.505 16.508154
72.510 16.369604
72.515 16.016258
72.520 16.66633
72.525 17.23295
72.530 17.389933
72.535 18.054857
72.540 18.036831
72.545 17.942389
72.550 18.404631
72.555 18.450018
72.560 18.06444
72.565 17.934303
72.570 18.087433
72.575 18.098715
72.580 18.101675
72.585 17.165686
72.590 16.400425
72.595 16.658646
72.600 16.853226
72.605 16.951727
72.610 17.147892
72.615 17.146784
72.620 17.706776
72.625 18.046282
72.630 17.952459
72.635 17.392691
72.640 17.23064
72.645 16.639235
72.650 16.37912
72.655 15.431913
72.660 15.65468
72.665 15.861935
72.670 16.336439
72.675 16.658138
72.680 17.060543
72.685 17.342974
72.690 18.107378
72.695 18.176149
72.700 18.259058
72.705 18.061972
72.710 18.156015
72.715 17.674917
72.720 17.751816
72.725 17.327272
72.730 17.508709
72.735 17.990597
72.740 18.02482
72.745 18.500816
72.750 18.808046
72.755 18.499546
72.760 18.118265
72.765 17.927786
72.770 17.574102
72.775 17.338768
72.780 17.218393
72.785 17.372046
72.790 17.619989
72.795 17.770454
72.800 17.609344
72.805 17.937166
72.810 18.169994
72.815 18.450935
72.820 18.62919
72.825 18.552769
72.830 19.017025
72.835 19.275026
72.840 19.48185
72.845 19.282238
72.850 19.590019
72.855 19.811562
72.860 19.607485
72.865 18.578575
72.870 17.466932
72.875 16.709383
72.880 16.2218
72.885 15.922927
72.890 16.128677
72.895 16.008671
72.900 16.63855
72.905 16.765961
72.910 16.995541
72.915 17.301252
72.920 17.046062
72.925 16.906267
72.930 17.404337
72.935 17.795567
72.940 18.361441
72.945 18.655169
72.950 18.315191
72.955 18.041555
72.960 17.833586
72.965 17.663784
72.970 17.058336
72.975 16.799953
72.980 16.722288
72.985 16.784048
72.990 17.27
72.995 17.32057
73.000 17.549484
