!@!!GADDS PLOTSO FILE: Chi integration type
!@!!Title/SampleName: map-11d
!@!!Comment: ?
!@!!User: Bruker Instrument Administrator
!@!!Site: University of Illinois Chicago
!@!!Frame: map-11d_01_000.gfrm
!@!!Wavelengths    1.54184   1.54056   1.54439
!@!!Frame angles: 2Theta: 63.000 Omega: 50.000 Phi: 0.000 Chi: 90.000
!@!!Integration range: 2Theta: 53.000 to 73.000  Gamma: -105.000 to -75.000
!@!!Integration method: bin normalized
!@!N
!@!SS
!@!M
!@!L 0.0 0.0 0.0 0.0
!@!XDegrees
!@!YCounts
53.000 10.434897
53.005 10.122431
53.010 10.222714
53.015 9.978128
53.020 10.199017
53.025 9.812094
53.030 9.431719
53.035 10.020969
53.040 9.920793
53.045 9.249729
53.050 8.97157
53.055 8.484113
53.060 8.661304
53.065 8.856464
53.070 9.153288
53.075 9.420242
53.080 10.049343
53.085 10.411897
53.090 10.837857
53.095 11.028981
53.100 10.730575
53.105 10.496585
53.110 10.763314
53.115 10.380795
53.120 9.893674
53.125 9.431609
53.130 9.373242
53.135 9.418741
53.140 9.362072
53.145 9.161114
53.150 9.340279
53.155 10.119495
53.160 10.558403
53.165 10.510286
53.170 10.529059
53.175 10.491117
53.180 10.591477
53.185 10.732219
53.190 10.51486
53.195 10.51514
53.200 10.720246
53.205 10.807944
53.210 10.982589
53.215 11.06236
53.220 11.176511
53.225 11.115035
53.230 10.63544
53.235 10.261313
53.240 10.445224
53.245 9.744881
53.250 9.326204
53.255 9.099944
53.260 9.133745
53.265 9.835294
53.270 9.876945
53.275 10.019461
53.280 10.336129
53.285 10.143479
53.290 9.890279
53.295 9.56889
53.300 9.369064
53.305 9.244735
53.310 9.232755
53.315 9.475792
53.320 9.96339
53.325 10.217402
53.330 9.743119
53.335 9.454038
53.340 9.007863
53.345 8.749143
53.350 8.448319
53.355 8.189431
53.360 8.580482
53.365 9.03551
53.370 9.290237
53.375 9.57162
53.380 9.508648
53.385 9.75265
53.390 9.556194
53.395 9.455221
53.400 9.851844
53.405 9.697111
53.410 9.943735
53.415 10.235856
53.420 10.760148
53.425 10.766137
53.430 10.108335
53.435 10.17353
53.440 10.516742
53.445 10.119009
53.450 9.868998
53.455 9.514256
53.460 10.079474
53.465 10.6367
53.470 11.145241
53.475 11.236093
53.480 11.711412
53.485 11.952533
53.490 11.990928
53.495 11.801823
53.500 11.265118
53.505 10.704441
53.510 10.829449
53.515 10.625858
53.520 10.457123
53.525 10.325432
53.530 10.352692
53.535 10.294781
53.540 10.379904
53.545 10.002195
53.550 9.963169
53.555 10.138432
53.560 10.154272
53.565 10.200365
53.570 10.108329
53.575 10.346461
53.580 10.546155
53.585 10.403766
53.590 10.217717
53.595 10.293845
53.600 10.149132
53.605 9.935136
53.610 9.913169
53.615 10.165862
53.620 10.001519
53.625 9.945444
53.630 9.9131
53.635 10.570032
53.640 11.02493
53.645 11.079318
53.650 11.038929
53.655 11.194607
53.660 11.492963
53.665 11.685458
53.670 11.421064
53.675 11.314334
53.680 10.791204
53.685 10.628657
53.690 10.415529
53.695 10.333017
53.700 9.73853
53.705 9.653858
53.710 9.106046
53.715 9.143685
53.720 9.620638
53.725 9.881557
53.730 9.627591
53.735 9.94382
53.740 10.555392
53.745 10.953156
53.750 11.120135
53.755 11.166718
53.760 11.235226
53.765 11.483933
53.770 10.983475
53.775 11.180264
53.780 11.348658
53.785 11.142821
53.790 11.014141
53.795 10.799386
53.800 10.62225
53.805 10.39428
53.810 10.053355
53.815 10.255175
53.820 10.462846
53.825 10.774624
53.830 11.02999
53.835 11.203666
53.840 11.583438
53.845 11.471573
53.850 11.390265
53.855 11.391542
53.860 11.376682
53.865 11.074217
53.870 11.451275
53.875 11.039187
53.880 10.87919
53.885 10.925452
53.890 10.634003
53.895 10.523766
53.900 10.394999
53.905 10.072275
53.910 10.60552
53.915 10.670818
53.920 10.716349
53.925 10.68587
53.930 11.62922
53.935 12.439926
53.940 12.246309
53.945 11.933644
53.950 11.621329
53.955 11.356961
53.960 11.273501
53.965 10.624002
53.970 10.176266
53.975 10.636721
53.980 10.564085
53.985 10.752562
53.990 10.936069
53.995 10.901598
54.000 10.613159
54.005 10.740428
54.010 10.660068
54.015 11.088939
54.020 11.11573
54.025 11.305578
54.030 11.038242
54.035 11.239096
54.040 11.315495
54.045 11.32441
54.050 11.43388
54.055 11.41852
54.060 11.918155
54.065 12.402921
54.070 12.388304
54.075 12.068408
54.080 11.794827
54.085 12.089144
54.090 11.903355
54.095 10.858096
54.100 10.396042
54.105 10.463243
54.110 10.832267
54.115 10.74203
54.120 10.331955
54.125 10.466442
54.130 10.948997
54.135 11.003872
54.140 10.829473
54.145 10.669742
54.150 10.463435
54.155 10.402139
54.160 10.544077
54.165 10.236337
54.170 10.027714
54.175 10.30007
54.180 10.281303
54.185 10.544185
54.190 10.652821
54.195 10.417321
54.200 10.865867
54.205 10.98559
54.210 11.28575
54.215 11.100472
54.220 11.109699
54.225 11.530844
54.230 12.162126
54.235 12.903748
54.240 12.855459
54.245 12.957283
54.250 12.969773
54.255 12.676157
54.260 12.678548
54.265 12.524332
54.270 12.380332
54.275 12.227935
54.280 12.031309
54.285 12.770373
54.290 12.61091
54.295 11.963005
54.300 11.852769
54.305 12.105592
54.310 12.245777
54.315 11.871972
54.320 11.711166
54.325 11.811612
54.330 11.722987
54.335 11.358795
54.340 10.919617
54.345 10.97243
54.350 11.26382
54.355 11.023464
54.360 10.772328
54.365 10.751506
54.370 10.654096
54.375 10.351048
54.380 10.152225
54.385 10.03604
54.390 9.995943
54.395 10.11871
54.400 10.1582
54.405 10.591608
54.410 10.893045
54.415 11.231378
54.420 11.457588
54.425 12.101239
54.430 12.342231
54.435 12.71766
54.440 13.413445
54.445 13.705675
54.450 13.749195
54.455 13.670455
54.460 13.718925
54.465 13.232825
54.470 12.685505
54.475 11.743721
54.480 11.568042
54.485 11.119246
54.490 10.76469
54.495 10.364948
54.500 10.562286
54.505 10.839408
54.510 10.957851
54.515 11.383309
54.520 11.747951
54.525 12.163607
54.530 12.272109
54.535 12.022853
54.540 11.992895
54.545 11.985787
54.550 11.829742
54.555 11.179743
54.560 10.914351
54.565 11.268701
54.570 11.190218
54.575 10.775296
54.580 10.437648
54.585 10.240436
54.590 10.648332
54.595 10.992246
54.600 11.183021
54.605 11.463019
54.610 11.906701
54.615 12.304842
54.620 12.25159
54.625 12.532636
54.630 12.103761
54.635 12.195464
54.640 12.469116
54.645 12.372914
54.650 12.240445
54.655 11.923765
54.660 11.589004
54.665 11.540125
54.670 10.925432
54.675 10.399824
54.680 10.497601
54.685 10.578122
54.690 10.656328
54.695 10.574714
54.700 10.403844
54.705 10.508505
54.710 10.496491
54.715 9.80689
54.720 9.257791
54.725 9.597419
54.730 9.918415
54.735 10.307602
54.740 11.174777
54.745 11.88227
54.750 12.254373
54.755 12.212242
54.760 11.84067
54.765 11.819887
54.770 11.616581
54.775 11.623902
54.780 11.832308
54.785 12.042968
54.790 11.965261
54.795 11.842492
54.800 11.825274
54.805 11.319138
54.810 10.579909
54.815 10.196694
54.820 10.530528
54.825 10.710737
54.830 11.284413
54.835 11.233082
54.840 11.181351
54.845 11.528375
54.850 11.795837
54.855 11.869722
54.860 11.713426
54.865 11.407582
54.870 11.508584
54.875 11.572424
54.880 11.687155
54.885 11.63087
54.890 11.451987
54.895 11.777078
54.900 11.779729
54.905 11.546948
54.910 11.57421
54.915 11.172829
54.920 11.565593
54.925 11.867567
54.930 12.049165
54.935 12.104631
54.940 12.346009
54.945 12.797694
54.950 12.807439
54.955 13.202668
54.960 13.169917
54.965 12.697407
54.970 12.585698
54.975 12.596633
54.980 12.340686
54.985 12.349834
54.990 11.253181
54.995 11.143354
55.000 11.372281
55.005 11.517209
55.010 11.509025
55.015 11.451777
55.020 11.263889
55.025 11.719036
55.030 11.948802
55.035 12.371111
55.040 13.108672
55.045 13.452188
55.050 13.553285
55.055 13.654646
55.060 13.439142
55.065 13.311253
55.070 12.5962
55.075 11.682832
55.080 11.47367
55.085 11.27932
55.090 11.840126
55.095 11.914028
55.100 12.175543
55.105 12.574455
55.110 12.904269
55.115 12.749951
55.120 12.565161
55.125 12.219805
55.130 12.298195
55.135 11.919362
55.140 11.309197
55.145 11.221479
55.150 11.225263
55.155 11.129703
55.160 11.115015
55.165 11.215766
55.170 11.886484
55.175 12.601489
55.180 12.836271
55.185 13.274422
55.190 13.730192
55.195 13.810394
55.200 13.015788
55.205 12.428862
55.210 11.998738
55.215 12.231398
55.220 12.826938
55.225 12.358955
55.230 12.167784
55.235 12.418583
55.240 12.623955
55.245 12.945439
55.250 12.569113
55.255 11.910584
55.260 12.039011
55.265 12.019799
55.270 11.921226
55.275 11.797162
55.280 11.681691
55.285 11.691279
55.290 11.57479
55.295 12.497665
55.300 12.874358
55.305 12.817823
55.310 12.374818
55.315 12.131027
55.320 12.211774
55.325 12.329318
55.330 11.129191
55.335 11.112966
55.340 11.151884
55.345 11.333589
55.350 11.29817
55.355 10.997466
55.360 10.946316
55.365 11.376147
55.370 11.343366
55.375 10.9297
55.380 10.754981
55.385 10.437934
55.390 10.61942
55.395 11.650961
55.400 11.475299
55.405 11.515642
55.410 12.269473
55.415 12.571157
55.420 12.846167
55.425 12.727353
55.430 12.009074
55.435 11.935589
55.440 12.688289
55.445 12.868449
55.450 12.938788
55.455 13.069179
55.460 12.686174
55.465 12.535958
55.470 12.628501
55.475 12.145298
55.480 11.611476
55.485 11.6865
55.490 11.43475
55.495 11.353981
55.500 11.935394
55.505 11.602314
55.510 11.134773
55.515 10.792929
55.520 10.741324
55.525 10.789838
55.530 10.877179
55.535 11.471878
55.540 12.219116
55.545 12.987152
55.550 13.134593
55.555 13.235469
55.560 13.449149
55.565 13.558306
55.570 13.079901
55.575 12.836664
55.580 12.928144
55.585 13.815176
55.590 13.965529
55.595 13.954561
55.600 13.768643
55.605 13.464562
55.610 13.176984
55.615 12.820967
55.620 12.498635
55.625 12.476171
55.630 12.306762
55.635 12.133052
55.640 12.179631
55.645 12.668957
55.650 12.661109
55.655 11.922105
55.660 11.771923
55.665 11.666518
55.670 11.248996
55.675 11.107224
55.680 11.078951
55.685 11.287829
55.690 11.620297
55.695 11.357562
55.700 11.353782
55.705 11.375679
55.710 11.115766
55.715 11.181216
55.720 11.283816
55.725 11.574563
55.730 12.224772
55.735 12.650602
55.740 13.036489
55.745 13.162892
55.750 13.099518
55.755 13.165173
55.760 12.642153
55.765 12.490968
55.770 12.523376
55.775 12.682694
55.780 12.33626
55.785 12.025073
55.790 12.404673
55.795 12.892524
55.800 12.869991
55.805 13.245462
55.810 13.383566
55.815 13.720528
55.820 13.932618
55.825 13.38753
55.830 13.036863
55.835 12.503295
55.840 11.914066
55.845 11.75779
55.850 11.326808
55.855 10.964761
55.860 10.721191
55.865 11.028193
55.870 11.628618
55.875 11.695333
55.880 11.757787
55.885 12.129244
55.890 12.672669
55.895 12.913516
55.900 12.518143
55.905 12.398689
55.910 12.767853
55.915 12.886985
55.920 12.714764
55.925 11.975858
55.930 12.139347
55.935 12.749423
55.940 12.58326
55.945 13.076825
55.950 13.081436
55.955 13.370273
55.960 13.939669
55.965 13.834
55.970 13.670753
55.975 13.79864
55.980 13.142236
55.985 13.173331
55.990 12.709556
55.995 12.596804
56.000 12.461186
56.005 11.790956
56.010 11.586955
56.015 11.882826
56.020 11.41103
56.025 11.86431
56.030 11.795555
56.035 11.943069
56.040 12.031363
56.045 11.429808
56.050 11.40538
56.055 11.729836
56.060 11.637586
56.065 11.861798
56.070 12.004504
56.075 12.259212
56.080 12.714862
56.085 13.070708
56.090 13.503216
56.095 13.532213
56.100 12.860572
56.105 12.434655
56.110 12.533387
56.115 12.13165
56.120 11.25658
56.125 10.787544
56.130 10.94163
56.135 11.763532
56.140 11.921031
56.145 11.518236
56.150 11.465167
56.155 11.23569
56.160 11.11781
56.165 11.063223
56.170 10.769381
56.175 10.997294
56.180 11.388188
56.185 11.745391
56.190 12.349718
56.195 12.633852
56.200 12.509044
56.205 12.435899
56.210 12.06089
56.215 12.004274
56.220 12.190672
56.225 12.419829
56.230 12.606324
56.235 12.845061
56.240 13.112204
56.245 13.505778
56.250 13.342314
56.255 12.61857
56.260 12.379891
56.265 12.41671
56.270 12.451301
56.275 12.004864
56.280 11.77439
56.285 11.871098
56.290 12.374685
56.295 12.239828
56.300 11.842955
56.305 11.90751
56.310 12.108567
56.315 12.088411
56.320 12.403101
56.325 12.613672
56.330 12.411403
56.335 12.569873
56.340 12.891395
56.345 12.823927
56.350 12.689778
56.355 12.470552
56.360 11.900715
56.365 12.13607
56.370 12.031677
56.375 11.779546
56.380 11.9823
56.385 12.861835
56.390 12.904176
56.395 13.013468
56.400 13.021294
56.405 12.962622
56.410 12.817291
56.415 12.381233
56.420 12.456683
56.425 13.184185
56.430 13.322359
56.435 13.013264
56.440 13.083072
56.445 13.297101
56.450 13.519922
56.455 12.701871
56.460 12.355924
56.465 13.114512
56.470 13.563667
56.475 13.662613
56.480 13.875309
56.485 14.253044
56.490 14.595336
56.495 14.581291
56.500 13.789557
56.505 13.976178
56.510 14.171087
56.515 14.085742
56.520 13.655846
56.525 13.372888
56.530 13.3957
56.535 13.613387
56.540 14.035592
56.545 14.024628
56.550 14.127082
56.555 14.221478
56.560 14.302263
56.565 14.440389
56.570 14.665268
56.575 14.163495
56.580 14.146944
56.585 14.337957
56.590 14.761304
56.595 14.73192
56.600 14.654902
56.605 14.638783
56.610 15.073094
56.615 15.058719
56.620 14.793392
56.625 15.206856
56.630 15.49708
56.635 14.994589
56.640 14.421369
56.645 13.7174
56.650 13.263733
56.655 13.089725
56.660 12.72318
56.665 12.455101
56.670 12.456186
56.675 12.599332
56.680 12.843427
56.685 13.017894
56.690 12.838789
56.695 13.146523
56.700 13.630662
56.705 14.224654
56.710 14.365677
56.715 14.391025
56.720 14.22458
56.725 14.387527
56.730 13.256888
56.735 12.806149
56.740 12.81635
56.745 12.584721
56.750 12.824938
56.755 13.371982
56.760 13.516467
56.765 13.839411
56.770 14.170988
56.775 13.933186
56.780 13.889122
56.785 13.210253
56.790 13.094351
56.795 13.377313
56.800 13.653388
56.805 13.621182
56.810 13.633107
56.815 13.962836
56.820 14.106938
56.825 13.773026
56.830 13.765144
56.835 13.037027
56.840 13.046022
56.845 13.213417
56.850 13.219641
56.855 13.063128
56.860 12.465593
56.865 12.252929
56.870 12.626874
56.875 12.298497
56.880 11.842129
56.885 11.865422
56.890 11.857947
56.895 12.065858
56.900 12.11165
56.905 11.746276
56.910 11.632169
56.915 11.878116
56.920 11.745277
56.925 11.946027
56.930 11.731096
56.935 12.078403
56.940 12.371035
56.945 12.617787
56.950 12.594213
56.955 12.76735
56.960 12.621686
56.965 12.757278
56.970 13.179283
56.975 13.468747
56.980 13.579424
56.985 13.854721
56.990 14.780575
56.995 15.318417
57.000 15.183961
57.005 14.931346
57.010 14.95503
57.015 15.257339
57.020 14.674376
57.025 13.844185
57.030 13.637079
57.035 13.470423
57.040 13.072901
57.045 13.032327
57.050 12.975061
57.055 13.35889
57.060 13.371999
57.065 13.213432
57.070 13.532771
57.075 13.684001
57.080 13.316413
57.085 13.67538
57.090 13.866258
57.095 14.038645
57.100 14.029755
57.105 14.111337
57.110 14.270484
57.115 14.214881
57.120 13.541264
57.125 13.689628
57.130 14.258717
57.135 14.652261
57.140 14.870275
57.145 14.654513
57.150 14.943017
57.155 15.33106
57.160 15.21465
57.165 15.100086
57.170 15.554684
57.175 15.658491
57.180 15.851006
57.185 15.522882
57.190 14.961016
57.195 14.528328
57.200 14.159137
57.205 13.330613
57.210 12.770329
57.215 12.901162
57.220 13.259877
57.225 13.754364
57.230 13.896511
57.235 14.040331
57.240 14.37703
57.245 14.843497
57.250 14.406595
57.255 13.952124
57.260 13.551659
57.265 13.545423
57.270 13.682339
57.275 13.380019
57.280 13.265556
57.285 13.953115
57.290 13.798255
57.295 14.262733
57.300 14.424894
57.305 14.630733
57.310 14.785758
57.315 14.561508
57.320 14.401367
57.325 15.209608
57.330 15.243813
57.335 15.074841
57.340 15.037136
57.345 14.636176
57.350 14.440729
57.355 14.36693
57.360 13.690489
57.365 13.607484
57.370 13.753702
57.375 13.84137
57.380 14.70892
57.385 14.85669
57.390 15.019283
57.395 15.793807
57.400 15.567196
57.405 15.005743
57.410 15.033298
57.415 14.660863
57.420 14.73816
57.425 14.427745
57.430 13.60034
57.435 13.462196
57.440 13.94192
57.445 14.279849
57.450 14.579901
57.455 14.44633
57.460 14.783926
57.465 14.921887
57.470 15.218909
57.475 15.205193
57.480 14.99591
57.485 14.913897
57.490 15.503078
57.495 15.846908
57.500 16.426584
57.505 16.136974
57.510 16.054174
57.515 16.235064
57.520 15.815602
57.525 15.026151
57.530 14.358576
57.535 14.590141
57.540 14.255467
57.545 13.390556
57.550 12.819763
57.555 13.697201
57.560 14.276695
57.565 13.996676
57.570 13.390968
57.575 13.84959
57.580 14.766895
57.585 15.433463
57.590 15.197054
57.595 15.034914
57.600 15.733467
57.605 16.581421
57.610 16.494688
57.615 15.671522
57.620 15.172454
57.625 14.819683
57.630 14.377589
57.635 13.818014
57.640 13.686758
57.645 13.47101
57.650 13.990414
57.655 13.983726
57.660 13.695953
57.665 13.962948
57.670 14.221766
57.675 14.124315
57.680 14.368902
57.685 14.510935
57.690 14.850844
57.695 15.738259
57.700 15.591448
57.705 15.395153
57.710 15.457138
57.715 15.71673
57.720 15.660524
57.725 15.486855
57.730 15.075981
57.735 15.231267
57.740 15.492963
57.745 16.069538
57.750 16.448299
57.755 16.092821
57.760 15.839205
57.765 15.620093
57.770 15.535213
57.775 15.181307
57.780 14.277719
57.785 14.035284
57.790 13.98259
57.795 14.528271
57.800 14.748867
57.805 14.741619
57.810 14.728042
57.815 14.824582
57.820 15.387211
57.825 16.0084
57.830 16.390015
57.835 16.122765
57.840 16.44775
57.845 16.847363
57.850 16.620338
57.855 16.164541
57.860 16.079985
57.865 15.64781
57.870 15.855533
57.875 15.565636
57.880 15.279002
57.885 14.842685
57.890 14.190815
57.895 14.231031
57.900 14.26152
57.905 14.228609
57.910 14.463655
57.915 14.898219
57.920 15.433366
57.925 15.825585
57.930 15.160435
57.935 15.261503
57.940 15.528964
57.945 15.643114
57.950 15.523735
57.955 15.309008
57.960 15.090348
57.965 15.661854
57.970 16.063284
57.975 15.800126
57.980 15.851109
57.985 15.808622
57.990 16.077782
57.995 15.945906
58.000 15.445777
58.005 15.152067
58.010 15.296264
58.015 15.108735
58.020 15.472818
58.025 15.789424
58.030 16.162775
58.035 16.408598
58.040 16.507074
58.045 16.720888
58.050 16.762791
58.055 16.601477
58.060 16.15704
58.065 16.143877
58.070 16.194839
58.075 16.242064
58.080 16.17104
58.085 16.670494
58.090 17.121363
58.095 17.624701
58.100 17.544519
58.105 18.087271
58.110 18.304358
58.115 18.484549
58.120 18.395599
58.125 18.137985
58.130 18.37994
58.135 18.827908
58.140 18.589962
58.145 18.372091
58.150 18.297447
58.155 18.229992
58.160 18.871454
58.165 19.097824
58.170 19.121223
58.175 19.082344
58.180 19.810909
58.185 19.870152
58.190 19.931625
58.195 19.075623
58.200 18.201227
58.205 17.914551
58.210 18.405085
58.215 18.139389
58.220 18.238565
58.225 18.501694
58.230 19.205862
58.235 19.662819
58.240 19.640345
58.245 19.395849
58.250 19.061174
58.255 18.709354
58.260 18.858044
58.265 19.181097
58.270 19.969324
58.275 20.183273
58.280 20.679146
58.285 21.207676
58.290 22.056421
58.295 22.064962
58.300 21.498615
58.305 21.434654
58.310 22.369041
58.315 22.281967
58.320 21.957844
58.325 21.388464
58.330 21.587296
58.335 21.916342
58.340 22.015024
58.345 22.207912
58.350 22.990086
58.355 23.998913
58.360 24.99575
58.365 25.69973
58.370 26.631458
58.375 26.330042
58.380 25.690506
58.385 25.663376
58.390 25.383749
58.395 24.979439
58.400 24.499296
58.405 24.860756
58.410 25.635612
58.415 26.239065
58.420 26.576082
58.425 26.733633
58.430 26.86171
58.435 26.930603
58.440 25.917496
58.445 25.580059
58.450 25.816965
58.455 26.124546
58.460 26.3575
58.465 26.288139
58.470 26.55826
58.475 26.907932
58.480 26.962402
58.485 26.40551
58.490 26.612202
58.495 26.583918
58.500 26.137138
58.505 25.944757
58.510 25.805162
58.515 25.684494
58.520 25.071798
58.525 24.222498
58.530 23.945377
58.535 23.94525
58.540 24.076694
58.545 23.898935
58.550 24.090048
58.555 24.61795
58.560 25.209787
58.565 25.402996
58.570 25.652822
58.575 26.30884
58.580 26.464491
58.585 26.175604
58.590 26.13364
58.595 26.353916
58.600 26.647615
58.605 26.383673
58.610 25.68504
58.615 25.463671
58.620 25.706606
58.625 25.748766
58.630 25.629036
58.635 25.22016
58.640 25.270008
58.645 25.424547
58.650 25.182686
58.655 24.866518
58.660 24.168781
58.665 23.960207
58.670 24.244463
58.675 24.103321
58.680 24.32666
58.685 24.529783
58.690 24.691313
58.695 24.589916
58.700 24.281059
58.705 23.821407
58.710 23.135185
58.715 22.808483
58.720 22.22632
58.725 21.774405
58.730 21.515682
58.735 21.24786
58.740 21.604542
58.745 21.194521
58.750 20.343279
58.755 20.506546
58.760 20.493181
58.765 20.779943
58.770 20.164631
58.775 20.197165
58.780 20.550638
58.785 20.809814
58.790 20.637964
58.795 20.290995
58.800 19.827831
58.805 19.836561
58.810 19.819389
58.815 19.874786
58.820 19.745609
58.825 19.896259
58.830 20.034159
58.835 19.931681
58.840 19.740475
58.845 19.113819
58.850 18.421127
58.855 18.46352
58.860 18.904902
58.865 18.6819
58.870 18.144255
58.875 17.884373
58.880 18.043962
58.885 18.59617
58.890 18.083948
58.895 17.536516
58.900 17.645046
58.905 17.432705
58.910 17.4035
58.915 17.075764
58.920 16.510151
58.925 16.4779
58.930 16.454281
58.935 16.682644
58.940 17.110897
58.945 16.808704
58.950 16.535078
58.955 16.772652
58.960 17.331079
58.965 17.308037
58.970 17.098297
58.975 17.301718
58.980 17.968214
58.985 18.248854
58.990 17.987841
58.995 17.65848
59.000 17.394543
59.005 17.925846
59.010 18.02701
59.015 17.996098
59.020 18.256342
59.025 18.269409
59.030 18.089561
59.035 18.23181
59.040 18.060572
59.045 17.692297
59.050 16.808474
59.055 16.347115
59.060 16.199165
59.065 16.175447
59.070 15.768533
59.075 15.371321
59.080 15.388631
59.085 15.959186
59.090 16.036442
59.095 16.153957
59.100 15.983163
59.105 15.489289
59.110 15.721255
59.115 15.493021
59.120 15.314632
59.125 15.334643
59.130 15.416122
59.135 15.677248
59.140 16.056622
59.145 16.073256
59.150 16.575653
59.155 16.800581
59.160 16.73608
59.165 16.731062
59.170 16.503225
59.175 16.067549
59.180 15.662827
59.185 14.614678
59.190 14.256794
59.195 14.276068
59.200 14.135801
59.205 14.224886
59.210 14.282173
59.215 14.640467
59.220 15.322144
59.225 15.289281
59.230 15.169756
59.235 15.198951
59.240 15.181584
59.245 15.25304
59.250 15.069924
59.255 15.026278
59.260 15.391672
59.265 15.530537
59.270 15.377141
59.275 15.325368
59.280 15.148806
59.285 14.959457
59.290 14.689636
59.295 13.883944
59.300 13.594021
59.305 13.724972
59.310 13.368618
59.315 13.359093
59.320 13.197935
59.325 13.854894
59.330 14.353507
59.335 14.278188
59.340 14.181486
59.345 14.612205
59.350 14.787108
59.355 15.015491
59.360 14.572171
59.365 14.439967
59.370 14.214309
59.375 14.474981
59.380 14.366039
59.385 13.990232
59.390 14.111526
59.395 13.73572
59.400 14.143929
59.405 14.377152
59.410 13.569137
59.415 13.777177
59.420 13.889712
59.425 14.286397
59.430 14.826699
59.435 14.633203
59.440 14.809375
59.445 15.372216
59.450 15.348109
59.455 15.313313
59.460 14.513844
59.465 14.226251
59.470 14.606844
59.475 14.77511
59.480 14.842858
59.485 14.65266
59.490 14.427382
59.495 14.313576
59.500 14.652971
59.505 14.28384
59.510 14.373599
59.515 14.434759
59.520 14.595551
59.525 14.87758
59.530 14.879808
59.535 14.737541
59.540 14.531772
59.545 14.543286
59.550 14.165925
59.555 14.214308
59.560 14.501549
59.565 14.681892
59.570 14.760334
59.575 14.72963
59.580 14.44348
59.585 14.673091
59.590 14.187284
59.595 14.418334
59.600 14.419806
59.605 14.17689
59.610 14.230078
59.615 13.478147
59.620 13.332057
59.625 13.605505
59.630 13.677521
59.635 13.48337
59.640 13.205593
59.645 13.4031
59.650 14.057039
59.655 14.072561
59.660 14.363525
59.665 14.46732
59.670 15.000705
59.675 14.896422
59.680 14.995901
59.685 15.22198
59.690 15.54628
59.695 15.93943
59.700 16.253469
59.705 16.637621
59.710 16.733667
59.715 16.737125
59.720 16.623005
59.725 16.476336
59.730 15.546922
59.735 14.478374
59.740 14.156507
59.745 14.230449
59.750 13.552379
59.755 13.499283
59.760 13.772279
59.765 14.071039
59.770 14.310366
59.775 14.506428
59.780 14.931376
59.785 16.067301
59.790 16.229549
59.795 15.749061
59.800 15.809742
59.805 15.576675
59.810 15.239744
59.815 15.120183
59.820 14.379172
59.825 13.64129
59.830 13.74012
59.835 13.243471
59.840 13.526098
59.845 13.900046
59.850 14.085591
59.855 14.785961
59.860 15.490401
59.865 15.425001
59.870 15.893876
59.875 15.075789
59.880 14.534666
59.885 14.392088
59.890 13.685893
59.895 13.688775
59.900 13.750381
59.905 13.972596
59.910 15.004124
59.915 14.823134
59.920 14.926784
59.925 15.30293
59.930 15.144112
59.935 14.970379
59.940 14.774775
59.945 14.421576
59.950 14.191032
59.955 14.530295
59.960 14.475088
59.965 14.694744
59.970 14.777851
59.975 14.514362
59.980 14.570304
59.985 14.677484
59.990 14.420734
59.995 14.375881
60.000 14.41962
60.005 14.205228
60.010 14.653695
60.015 14.705424
60.020 15.016862
60.025 14.934758
60.030 14.731469
60.035 14.234015
60.040 14.937574
60.045 15.129606
60.050 15.480928
60.055 15.437899
60.060 15.391642
60.065 15.594929
60.070 15.826899
60.075 15.470579
60.080 15.075883
60.085 14.976501
60.090 14.842409
60.095 14.670912
60.100 15.023992
60.105 14.883289
60.110 14.777166
60.115 14.44621
60.120 14.26801
60.125 14.491275
60.130 14.827093
60.135 14.503489
60.140 14.408557
60.145 14.377803
60.150 14.719218
60.155 14.619189
60.160 14.608924
60.165 14.245742
60.170 13.992119
60.175 14.087127
60.180 14.212171
60.185 14.115208
60.190 14.050997
60.195 13.923386
60.200 13.811403
60.205 13.763419
60.210 13.653777
60.215 13.589681
60.220 13.674202
60.225 13.637771
60.230 13.431287
60.235 13.995973
60.240 14.090522
60.245 14.032233
60.250 13.722898
60.255 13.858087
60.260 13.950502
60.265 13.999544
60.270 13.614458
60.275 13.298163
60.280 13.557707
60.285 13.75168
60.290 13.733687
60.295 13.699309
60.300 13.528504
60.305 13.580761
60.310 13.646518
60.315 13.232979
60.320 13.032523
60.325 13.001514
60.330 12.869516
60.335 13.075646
60.340 13.434078
60.345 13.824408
60.350 14.449872
60.355 14.888824
60.360 15.096858
60.365 15.351097
60.370 14.8571
60.375 14.197246
60.380 14.147614
60.385 13.962082
60.390 13.662045
60.395 13.865608
60.400 13.780513
60.405 14.361753
60.410 14.894767
60.415 14.656606
60.420 14.738217
60.425 14.749829
60.430 14.57716
60.435 14.938493
60.440 15.003164
60.445 15.031098
60.450 14.983229
60.455 15.0931
60.460 15.458708
60.465 15.472528
60.470 15.118473
60.475 15.375137
60.480 15.428421
60.485 15.501287
60.490 15.373898
60.495 15.067687
60.500 14.632086
60.505 15.061624
60.510 15.056425
60.515 15.082994
60.520 14.996915
60.525 14.162438
60.530 13.726129
60.535 14.472569
60.540 14.341803
60.545 13.876378
60.550 13.513849
60.555 13.615718
60.560 13.864864
60.565 13.88458
60.570 13.392919
60.575 13.386062
60.580 13.330006
60.585 13.845412
60.590 14.13178
60.595 14.577573
60.600 14.990979
60.605 14.905649
60.610 15.12671
60.615 15.280188
60.620 15.049255
60.625 15.135105
60.630 14.922662
60.635 14.792322
60.640 14.132822
60.645 13.351041
60.650 13.131121
60.655 12.962697
60.660 13.049589
60.665 13.296273
60.670 13.309671
60.675 13.673803
60.680 13.643669
60.685 14.052555
60.690 13.782956
60.695 13.646797
60.700 13.613092
60.705 13.69515
60.710 13.847559
60.715 14.029093
60.720 14.100464
60.725 13.678704
60.730 14.101274
60.735 14.073049
60.740 14.070963
60.745 14.255575
60.750 14.332853
60.755 14.254274
60.760 14.965196
60.765 14.997079
60.770 14.976158
60.775 15.170495
60.780 15.693205
60.785 15.578014
60.790 15.594025
60.795 15.328599
60.800 14.999171
60.805 14.640726
60.810 13.900298
60.815 13.671963
60.820 13.934722
60.825 14.645843
60.830 14.264164
60.835 14.334894
60.840 14.641044
60.845 15.139429
60.850 14.884506
60.855 14.17554
60.860 13.583863
60.865 14.563007
60.870 14.987013
60.875 15.242773
60.880 15.471718
60.885 16.053194
60.890 16.545284
60.895 16.249546
60.900 14.941939
60.905 14.311672
60.910 14.145062
60.915 14.007739
60.920 14.260394
60.925 14.326807
60.930 14.643741
60.935 14.918792
60.940 14.83952
60.945 14.827377
60.950 13.967675
60.955 13.331537
60.960 12.968545
60.965 13.541427
60.970 13.891827
60.975 13.877367
60.980 13.561093
60.985 13.803272
60.990 14.273343
60.995 14.12116
61.000 13.632364
61.005 13.653658
61.010 13.596817
61.015 13.726865
61.020 13.907317
61.025 13.739126
61.030 14.11035
61.035 14.183641
61.040 14.071545
61.045 13.998668
61.050 14.090652
61.055 13.536715
61.060 12.946004
61.065 12.79378
61.070 12.768884
61.075 12.808024
61.080 13.20053
61.085 13.481463
61.090 13.767835
61.095 14.175102
61.100 14.277169
61.105 14.424386
61.110 14.417823
61.115 14.072111
61.120 14.221231
61.125 14.617882
61.130 14.958133
61.135 15.080378
61.140 15.32016
61.145 15.484294
61.150 15.548926
61.155 15.235633
61.160 15.691345
61.165 15.668503
61.170 15.305735
61.175 14.839893
61.180 15.020394
61.185 15.068189
61.190 14.997663
61.195 14.686925
61.200 15.101975
61.205 15.643434
61.210 15.915312
61.215 15.745286
61.220 16.103664
61.225 16.44669
61.230 16.580446
61.235 16.297012
61.240 15.670709
61.245 15.461704
61.250 15.527099
61.255 15.708942
61.260 15.4826
61.265 14.905627
61.270 15.116278
61.275 15.795329
61.280 16.14959
61.285 16.254488
61.290 16.292688
61.295 16.446295
61.300 16.7481
61.305 15.722267
61.310 15.096411
61.315 14.823219
61.320 14.309051
61.325 13.959959
61.330 13.742695
61.335 13.890268
61.340 14.258365
61.345 14.409095
61.350 14.205711
61.355 14.109943
61.360 14.224683
61.365 14.261166
61.370 13.922829
61.375 14.28554
61.380 14.055432
61.385 13.998027
61.390 14.044749
61.395 13.893937
61.400 13.453551
61.405 13.682357
61.410 13.905359
61.415 14.64777
61.420 14.887557
61.425 15.063965
61.430 15.21349
61.435 16.023638
61.440 16.269089
61.445 16.403866
61.450 16.412645
61.455 16.345016
61.460 16.063993
61.465 15.99038
61.470 16.063704
61.475 15.812961
61.480 15.548596
61.485 15.730651
61.490 15.909075
61.495 15.954858
61.500 15.915952
61.505 15.856048
61.510 15.660207
61.515 15.034914
61.520 14.578993
61.525 14.088436
61.530 14.48222
61.535 14.165874
61.540 13.971812
61.545 14.582136
61.550 14.937258
61.555 15.17009
61.560 15.809281
61.565 15.88229
61.570 16.076796
61.575 16.073652
61.580 15.851383
61.585 15.36502
61.590 14.781566
61.595 14.299744
61.600 14.63912
61.605 14.750319
61.610 14.347893
61.615 14.32817
61.620 14.809413
61.625 15.585044
61.630 15.796227
61.635 15.277504
61.640 15.41746
61.645 15.974979
61.650 16.00495
61.655 16.055441
61.660 15.804963
61.665 16.082289
61.670 16.46207
61.675 16.847837
61.680 16.637968
61.685 16.838537
61.690 16.311218
61.695 15.962354
61.700 15.660439
61.705 15.459311
61.710 15.360558
61.715 15.465253
61.720 15.420338
61.725 15.794888
61.730 16.111031
61.735 15.713001
61.740 15.319987
61.745 14.690332
61.750 14.757632
61.755 14.888519
61.760 14.978988
61.765 14.881924
61.770 15.398062
61.775 15.533238
61.780 15.575757
61.785 15.221138
61.790 15.083971
61.795 14.966163
61.800 15.138222
61.805 14.848057
61.810 14.845023
61.815 14.939672
61.820 14.546227
61.825 14.664251
61.830 14.751334
61.835 14.676903
61.840 14.700371
61.845 15.063793
61.850 15.173861
61.855 15.557912
61.860 15.909222
61.865 16.50293
61.870 16.521341
61.875 16.57268
61.880 16.292831
61.885 16.317327
61.890 15.926597
61.895 15.513226
61.900 14.998304
61.905 15.115131
61.910 15.179914
61.915 15.247766
61.920 15.308297
61.925 15.642664
61.930 15.393128
61.935 15.357048
61.940 14.898367
61.945 15.094578
61.950 15.107323
61.955 15.133428
61.960 15.138655
61.965 15.193541
61.970 15.435024
61.975 16.080196
61.980 15.979365
61.985 15.914498
61.990 15.798166
61.995 15.717104
62.000 16.181767
62.005 15.649829
62.010 15.139626
62.015 14.483235
62.020 14.167742
62.025 13.904778
62.030 13.84819
62.035 13.39514
62.040 13.505237
62.045 13.688058
62.050 14.401158
62.055 15.043577
62.060 15.43446
62.065 15.643159
62.070 15.992613
62.075 16.133987
62.080 15.931771
62.085 15.567564
62.090 15.382809
62.095 15.462629
62.100 15.696731
62.105 15.517695
62.110 15.925511
62.115 16.378504
62.120 16.582756
62.125 16.686407
62.130 16.267973
62.135 15.924026
62.140 15.752018
62.145 15.11879
62.150 14.879687
62.155 14.353268
62.160 14.217195
62.165 14.168913
62.170 14.218728
62.175 14.599502
62.180 14.585487
62.185 14.536295
62.190 14.81589
62.195 14.533023
62.200 14.236926
62.205 14.173251
62.210 13.531029
62.215 13.335487
62.220 13.595488
62.225 13.789872
62.230 13.696589
62.235 13.82534
62.240 13.94344
62.245 14.480934
62.250 14.773859
62.255 14.286266
62.260 13.879157
62.265 14.15267
62.270 14.277883
62.275 14.112613
62.280 14.039363
62.285 14.34453
62.290 14.140785
62.295 14.095945
62.300 14.159566
62.305 14.433626
62.310 14.57225
62.315 14.476833
62.320 14.091879
62.325 14.345523
62.330 14.697482
62.335 14.444836
62.340 13.870801
62.345 13.708586
62.350 13.653766
62.355 14.222744
62.360 14.730984
62.365 15.102511
62.370 15.556287
62.375 15.891797
62.380 15.865296
62.385 15.737203
62.390 15.575839
62.395 15.545459
62.400 15.30382
62.405 15.707218
62.410 16.336338
62.415 16.901651
62.420 17.043699
62.425 16.664665
62.430 16.535837
62.435 16.269724
62.440 15.583143
62.445 14.844843
62.450 14.778314
62.455 15.442554
62.460 15.830191
62.465 15.854615
62.470 16.12862
62.475 16.127047
62.480 16.579517
62.485 16.480482
62.490 16.230976
62.495 16.089924
62.500 15.793556
62.505 15.508999
62.510 15.780648
62.515 15.893333
62.520 15.419703
62.525 15.144371
62.530 15.698581
62.535 16.346115
62.540 16.41118
62.545 16.72032
62.550 16.854681
62.555 17.360079
62.560 17.602806
62.565 16.641548
62.570 16.076256
62.575 16.503279
62.580 16.38084
62.585 16.150568
62.590 16.332932
62.595 16.335443
62.600 16.876663
62.605 16.981758
62.610 16.99807
62.615 16.838142
62.620 16.640022
62.625 15.95278
62.630 15.61315
62.635 15.454087
62.640 15.274013
62.645 15.362286
62.650 15.104286
62.655 15.355434
62.660 15.635801
62.665 15.617974
62.670 15.722483
62.675 15.915923
62.680 15.023521
62.685 14.790578
62.690 14.697177
62.695 14.501176
62.700 14.381526
62.705 14.415285
62.710 14.175487
62.715 14.714966
62.720 15.346965
62.725 15.713241
62.730 16.145657
62.735 16.39407
62.740 16.255882
62.745 16.553474
62.750 16.627405
62.755 16.131657
62.760 15.630854
62.765 15.556334
62.770 15.438604
62.775 15.404448
62.780 15.245569
62.785 14.917927
62.790 15.191635
62.795 15.712853
62.800 15.860853
62.805 15.691691
62.810 15.929328
62.815 16.053682
62.820 16.363123
62.825 16.822628
62.830 16.46476
62.835 16.466951
62.840 16.562075
62.845 15.988801
62.850 15.411614
62.855 15.255023
62.860 14.80569
62.865 14.644102
62.870 14.167972
62.875 14.327423
62.880 14.651812
62.885 15.270594
62.890 15.475241
62.895 15.647975
62.900 15.717303
62.905 16.02232
62.910 16.10087
62.915 15.619411
62.920 15.551465
62.925 15.356911
62.930 15.172581
62.935 15.149613
62.940 14.872889
62.945 14.960497
62.950 15.441614
62.955 15.223178
62.960 15.384976
62.965 15.509405
62.970 15.798955
62.975 16.362598
62.980 16.567911
62.985 16.282045
62.990 15.808314
62.995 16.115482
63.000 16.509657
63.005 16.215748
63.010 16.111403
63.015 15.694846
63.020 15.988394
63.025 16.333818
63.030 15.745765
63.035 15.585293
63.040 15.620168
63.045 15.963145
63.050 16.596745
63.055 16.916553
63.060 16.887453
63.065 16.823742
63.070 17.019962
63.075 16.888329
63.080 16.522549
63.085 15.724833
63.090 15.70542
63.095 15.423452
63.100 15.326838
63.105 14.886139
63.110 15.210375
63.115 15.111929
63.120 15.573316
63.125 15.575056
63.130 15.856936
63.135 16.005943
63.140 16.210085
63.145 16.039852
63.150 15.999484
63.155 16.106646
63.160 16.110399
63.165 16.101772
63.170 15.921267
63.175 16.267612
63.180 15.979489
63.185 15.531616
63.190 15.337925
63.195 15.080029
63.200 15.222102
63.205 15.237253
63.210 15.3862
63.215 16.347298
63.220 17.226551
63.225 17.199028
63.230 17.597456
63.235 17.404968
63.240 17.410957
63.245 17.204048
63.250 16.892109
63.255 16.314587
63.260 16.172733
63.265 15.916774
63.270 15.469978
63.275 15.92176
63.280 16.042652
63.285 15.584659
63.290 15.99051
63.295 15.974676
63.300 16.3494
63.305 17.197197
63.310 16.983475
63.315 17.188564
63.320 17.498816
63.325 17.730974
63.330 18.019083
63.335 17.593605
63.340 17.506872
63.345 17.316696
63.350 16.745245
63.355 16.939531
63.360 16.604616
63.365 16.342758
63.370 16.949209
63.375 17.210814
63.380 17.60206
63.385 17.862503
63.390 17.880278
63.395 17.840027
63.400 17.743933
63.405 17.051138
63.410 16.032911
63.415 15.109618
63.420 14.929422
63.425 14.510952
63.430 14.62369
63.435 14.963384
63.440 15.163858
63.445 16.109911
63.450 16.953798
63.455 17.427719
63.460 18.156317
63.465 18.689384
63.470 18.940531
63.475 18.810242
63.480 18.447542
63.485 18.21611
63.490 18.143829
63.495 17.789909
63.500 17.365284
63.505 17.497368
63.510 17.672033
63.515 17.973404
63.520 17.760237
63.525 17.353266
63.530 17.045753
63.535 17.017183
63.540 16.925247
63.545 16.796396
63.550 16.18642
63.555 16.468792
63.560 16.757395
63.565 17.650066
63.570 17.659313
63.575 17.0765
63.580 17.215332
63.585 17.963264
63.590 18.130995
63.595 17.800659
63.600 17.031731
63.605 17.312685
63.610 17.945238
63.615 17.891047
63.620 17.679882
63.625 17.638895
63.630 17.743397
63.635 17.833784
63.640 17.19632
63.645 16.775654
63.650 16.532612
63.655 16.675793
63.660 17.175505
63.665 17.608942
63.670 18.309414
63.675 18.597485
63.680 18.888086
63.685 19.205769
63.690 19.324484
63.695 18.464888
63.700 17.863859
63.705 17.304941
63.710 17.206114
63.715 17.730566
63.720 17.990242
63.725 18.045546
63.730 18.737545
63.735 19.274651
63.740 19.481936
63.745 19.836857
63.750 20.34375
63.755 20.770241
63.760 20.784344
63.765 20.715006
63.770 21.172428
63.775 21.364763
63.780 21.363426
63.785 20.614817
63.790 19.901211
63.795 20.115074
63.800 20.416895
63.805 19.712881
63.810 19.580946
63.815 19.559872
63.820 19.68314
63.825 20.053638
63.830 20.250654
63.835 21.051056
63.840 22.272694
63.845 22.870386
63.850 23.284328
63.855 23.415815
63.860 23.460501
63.865 23.566751
63.870 23.230402
63.875 22.987919
63.880 23.140772
63.885 23.831615
63.890 24.746672
63.895 25.330439
63.900 25.238136
63.905 25.448534
63.910 26.522522
63.915 26.743025
63.920 26.716335
63.925 26.601204
63.930 27.007629
63.935 27.269476
63.940 27.995512
63.945 27.097906
63.950 26.953005
63.955 26.82555
63.960 26.609987
63.965 26.687391
63.970 26.802296
63.975 26.206827
63.980 27.260551
63.985 27.975937
63.990 28.406275
63.995 29.030651
64.000 29.002947
64.005 29.865332
64.010 30.642223
64.015 30.733885
64.020 30.978319
64.025 31.179102
64.030 31.90905
64.035 32.312202
64.040 31.449402
64.045 31.420778
64.050 31.4398
64.055 31.914671
64.060 32.09893
64.065 31.344288
64.070 31.03083
64.075 30.911947
64.080 30.288712
64.085 30.330347
64.090 29.95813
64.095 29.680689
64.100 29.015381
64.105 29.256882
64.110 29.255274
64.115 29.289925
64.120 28.487688
64.125 27.495462
64.130 27.377937
64.135 27.434946
64.140 27.092243
64.145 27.088133
64.150 26.980968
64.155 26.988834
64.160 26.828604
64.165 26.379522
64.170 26.683203
64.175 26.943666
64.180 26.986933
64.185 27.28636
64.190 26.900476
64.195 26.603014
64.200 26.592325
64.205 25.973854
64.210 25.803427
64.215 26.284306
64.220 26.050905
64.225 26.392698
64.230 27.36644
64.235 27.9184
64.240 28.704096
64.245 28.703627
64.250 28.552221
64.255 28.749048
64.260 29.165606
64.265 28.368349
64.270 27.826628
64.275 27.11657
64.280 26.731525
64.285 26.216434
64.290 26.600981
64.295 26.468027
64.300 27.117033
64.305 27.205162
64.310 27.634855
64.315 28.705732
64.320 28.903021
64.325 27.918793
64.330 26.72504
64.335 25.952559
64.340 25.656643
64.345 25.079287
64.350 24.579588
64.355 24.401827
64.360 24.83169
64.365 25.416668
64.370 25.282652
64.375 25.319685
64.380 25.460274
64.385 24.7866
64.390 24.654245
64.395 24.292727
64.400 24.589741
64.405 24.875418
64.410 24.982449
64.415 23.977867
64.420 23.859282
64.425 23.4828
64.430 23.02718
64.435 22.25042
64.440 22.455633
64.445 21.987894
64.450 22.099232
64.455 21.978306
64.460 21.687794
64.465 21.576471
64.470 21.86079
64.475 21.595007
64.480 21.76671
64.485 21.850264
64.490 21.737625
64.495 21.62392
64.500 21.695845
64.505 21.506491
64.510 20.797297
64.515 20.552397
64.520 20.42754
64.525 20.302691
64.530 20.306828
64.535 19.842693
64.540 19.769365
64.545 20.020258
64.550 20.013266
64.555 20.090948
64.560 20.228628
64.565 20.527575
64.570 20.861637
64.575 20.888388
64.580 20.621943
64.585 20.834423
64.590 20.981091
64.595 21.231106
64.600 21.298462
64.605 21.099867
64.610 20.517944
64.615 20.618093
64.620 20.328999
64.625 20.155956
64.630 20.08053
64.635 19.377268
64.640 19.812202
64.645 20.530621
64.650 20.659201
64.655 20.731274
64.660 20.374315
64.665 20.143568
64.670 20.318466
64.675 19.813059
64.680 19.15868
64.685 18.474014
64.690 17.847956
64.695 18.667826
64.700 19.050003
64.705 18.980217
64.710 18.823359
64.715 18.953794
64.720 19.215025
64.725 19.601212
64.730 19.479784
64.735 18.843969
64.740 18.365641
64.745 17.963846
64.750 18.081448
64.755 18.266432
64.760 17.99226
64.765 18.02483
64.770 18.662687
64.775 19.107973
64.780 19.547714
64.785 18.978979
64.790 18.708052
64.795 19.115892
64.800 19.068291
64.805 19.324574
64.810 19.286036
64.815 18.824564
64.820 19.023188
64.825 18.939484
64.830 18.702662
64.835 18.833609
64.840 18.782131
64.845 19.11079
64.850 20.002504
64.855 20.38913
64.860 20.42725
64.865 20.338621
64.870 19.959965
64.875 19.969042
64.880 20.239517
64.885 20.079678
64.890 20.168961
64.895 20.499741
64.900 20.601105
64.905 20.762671
64.910 20.581921
64.915 20.266796
64.920 20.028624
64.925 19.83971
64.930 20.001764
64.935 19.445818
64.940 19.043976
64.945 18.569485
64.950 18.112621
64.955 19.165882
64.960 19.351028
64.965 18.768353
64.970 18.959169
64.975 19.421951
64.980 20.169161
64.985 20.772219
64.990 20.346085
64.995 20.722731
65.000 20.883326
65.005 20.889236
65.010 21.1047
65.015 20.700108
65.020 21.207653
65.025 21.563559
65.030 21.277771
65.035 21.813515
65.040 21.680571
65.045 21.169622
65.050 21.480465
65.055 21.02239
65.060 20.427055
65.065 20.475014
65.070 20.528492
65.075 20.695665
65.080 21.269627
65.085 21.2717
65.090 21.216103
65.095 21.415609
65.100 21.635933
65.105 22.225033
65.110 23.337402
65.115 23.770428
65.120 23.433668
65.125 23.627575
65.130 24.34812
65.135 23.58791
65.140 22.838087
65.145 21.633383
65.150 21.11043
65.155 21.131054
65.160 20.934311
65.165 20.356104
65.170 20.482706
65.175 20.994337
65.180 21.111811
65.185 20.972946
65.190 21.172539
65.195 20.780102
65.200 21.253958
65.205 21.512833
65.210 21.435318
65.215 21.266247
65.220 21.103254
65.225 20.962547
65.230 21.191912
65.235 21.088314
65.240 21.291813
65.245 20.438755
65.250 20.429892
65.255 20.528002
65.260 20.582499
65.265 19.750847
65.270 19.854467
65.275 19.742075
65.280 19.930897
65.285 20.195286
65.290 20.719688
65.295 20.930635
65.300 21.382435
65.305 20.79003
65.310 20.821558
65.315 21.290249
65.320 20.671467
65.325 19.688063
65.330 19.251371
65.335 19.371048
65.340 19.543348
65.345 19.453157
65.350 19.123875
65.355 19.204153
65.360 19.307379
65.365 19.346043
65.370 19.328314
65.375 19.01988
65.380 18.710871
65.385 18.461231
65.390 18.870682
65.395 19.251465
65.400 19.156076
65.405 19.248425
65.410 19.089344
65.415 19.079967
65.420 18.861
65.425 18.434288
65.430 18.317757
65.435 18.168961
65.440 17.709122
65.445 17.934799
65.450 18.21431
65.455 18.852528
65.460 18.664015
65.465 18.171839
65.470 18.03298
65.475 18.384296
65.480 18.262543
65.485 18.668493
65.490 18.347729
65.495 18.369925
65.500 18.956118
65.505 18.950605
65.510 18.887947
65.515 18.737127
65.520 18.115391
65.525 17.775627
65.530 17.77424
65.535 17.339918
65.540 17.515381
65.545 17.74741
65.550 17.934008
65.555 18.109352
65.560 18.625885
65.565 19.003485
65.570 19.395264
65.575 19.450726
65.580 20.109602
65.585 20.113085
65.590 19.717556
65.595 19.563665
65.600 19.669674
65.605 20.000774
65.610 20.600765
65.615 19.605061
65.620 19.216084
65.625 19.080519
65.630 19.093031
65.635 19.489582
65.640 19.600964
65.645 19.277199
65.650 19.492884
65.655 19.920908
65.660 20.240171
65.665 20.434341
65.670 19.835642
65.675 19.466631
65.680 19.20038
65.685 19.162119
65.690 19.535818
65.695 20.36665
65.700 20.3995
65.705 20.089874
65.710 19.767181
65.715 19.433014
65.720 19.879623
65.725 20.130438
65.730 19.569389
65.735 19.660746
65.740 20.263437
65.745 20.279047
65.750 20.71946
65.755 20.553846
65.760 20.068081
65.765 20.024363
65.770 19.883921
65.775 20.088947
65.780 20.690361
65.785 21.244175
65.790 21.104559
65.795 21.466076
65.800 21.886707
65.805 22.079815
65.810 22.182728
65.815 21.813154
65.820 21.607782
65.825 22.248997
65.830 22.618494
65.835 22.483639
65.840 22.871252
65.845 22.769209
65.850 23.52256
65.855 24.894053
65.860 24.81724
65.865 25.046904
65.870 25.320024
65.875 25.169239
65.880 25.924252
65.885 25.915363
65.890 25.594624
65.895 25.550558
65.900 25.496525
65.905 25.928358
65.910 26.011602
65.915 25.568708
65.920 25.879185
65.925 26.54767
65.930 27.860458
65.935 28.499804
65.940 28.70155
65.945 28.895878
65.950 29.138506
65.955 28.812075
65.960 28.576542
65.965 28.226385
65.970 28.380239
65.975 28.890465
65.980 29.664667
65.985 30.224518
65.990 31.03656
65.995 31.370548
66.000 32.068947
66.005 32.745399
66.010 32.777931
66.015 33.346462
66.020 33.761646
66.025 33.262356
66.030 33.837231
66.035 34.099369
66.040 34.364216
66.045 34.287727
66.050 34.318066
66.055 34.759716
66.060 35.445023
66.065 35.176411
66.070 34.68285
66.075 34.408409
66.080 34.540447
66.085 34.912518
66.090 34.93996
66.095 34.640156
66.100 34.532753
66.105 35.296543
66.110 36.506317
66.115 36.898567
66.120 36.382736
66.125 36.415684
66.130 37.214081
66.135 37.941467
66.140 38.780445
66.145 38.64254
66.150 38.696728
66.155 39.167908
66.160 38.872074
66.165 39.053905
66.170 38.806431
66.175 37.61911
66.180 38.196507
66.185 37.55883
66.190 37.045219
66.195 37.383381
66.200 37.699986
66.205 37.661915
66.210 37.515118
66.215 37.290245
66.220 37.297604
66.225 37.256657
66.230 37.217529
66.235 37.137951
66.240 37.019253
66.245 37.04406
66.250 37.601662
66.255 39.025074
66.260 39.574661
66.265 39.707809
66.270 39.133526
66.275 38.449509
66.280 38.358532
66.285 37.248676
66.290 35.765072
66.295 35.083385
66.300 33.955311
66.305 33.448444
66.310 33.511501
66.315 33.049362
66.320 33.171589
66.325 33.388
66.330 32.515568
66.335 33.216068
66.340 33.632683
66.345 33.314491
66.350 32.129505
66.355 31.714405
66.360 31.124115
66.365 31.125462
66.370 30.256453
66.375 29.266825
66.380 28.213846
66.385 28.33148
66.390 27.568338
66.395 27.799911
66.400 28.337887
66.405 28.527826
66.410 27.660788
66.415 27.085104
66.420 26.49279
66.425 26.481775
66.430 25.991674
66.435 24.772381
66.440 23.774973
66.445 23.472811
66.450 23.51376
66.455 23.00094
66.460 21.921364
66.465 21.66457
66.470 21.713457
66.475 21.737621
66.480 22.24246
66.485 22.721256
66.490 23.137869
66.495 23.211151
66.500 22.627914
66.505 22.163008
66.510 22.130974
66.515 21.82139
66.520 21.232281
66.525 20.727968
66.530 20.342798
66.535 20.266554
66.540 20.372812
66.545 19.931955
66.550 20.402067
66.555 20.526939
66.560 20.55932
66.565 21.031265
66.570 21.041008
66.575 20.561077
66.580 19.821709
66.585 18.710148
66.590 18.460165
66.595 18.675703
66.600 18.676064
66.605 18.473547
66.610 18.858767
66.615 19.340387
66.620 19.523167
66.625 19.153416
66.630 19.140717
66.635 19.033266
66.640 19.024406
66.645 19.034111
66.650 18.468103
66.655 18.151863
66.660 18.204182
66.665 17.43799
66.670 17.261448
66.675 17.140091
66.680 17.202408
66.685 18.042324
66.690 18.36936
66.695 18.407808
66.700 18.223703
66.705 18.332535
66.710 18.668882
66.715 18.643087
66.720 18.348417
66.725 18.394129
66.730 18.478073
66.735 18.563391
66.740 18.202417
66.745 17.659552
66.750 17.820892
66.755 17.94985
66.760 18.060242
66.765 18.039127
66.770 18.468189
66.775 18.483582
66.780 19.044451
66.785 18.453032
66.790 18.420336
66.795 17.933401
66.800 17.31361
66.805 16.932142
66.810 16.678631
66.815 15.963243
66.820 16.111364
66.825 15.736597
66.830 16.255751
66.835 17.185772
66.840 17.442055
66.845 17.687212
66.850 17.984301
66.855 17.651503
66.860 17.339563
66.865 16.796307
66.870 16.120132
66.875 16.313099
66.880 16.598833
66.885 16.540882
66.890 16.458019
66.895 16.865152
66.900 16.756952
66.905 16.658487
66.910 16.242947
66.915 16.020849
66.920 15.957827
66.925 15.984385
66.930 16.186848
66.935 16.671452
66.940 16.701328
66.945 18.192568
66.950 18.84692
66.955 19.269049
66.960 19.707273
66.965 19.997938
66.970 19.730118
66.975 19.27562
66.980 17.867052
66.985 17.093372
66.990 17.069441
66.995 17.039854
67.000 17.154905
67.005 17.200741
67.010 17.734751
67.015 17.510971
67.020 16.98048
67.025 16.673346
67.030 16.13796
67.035 15.66007
67.040 15.738147
67.045 15.673404
67.050 16.104599
67.055 16.524874
67.060 16.374298
67.065 16.028023
67.070 15.905397
67.075 15.557817
67.080 15.430585
67.085 15.457936
67.090 15.553144
67.095 15.71421
67.100 16.446289
67.105 16.625357
67.110 16.393051
67.115 16.363462
67.120 16.776905
67.125 16.506908
67.130 16.083553
67.135 15.859899
67.140 15.9672
67.145 16.407167
67.150 16.231365
67.155 16.046803
67.160 16.677885
67.165 16.80772
67.170 16.979784
67.175 17.14076
67.180 17.062693
67.185 17.30155
67.190 17.078814
67.195 16.850012
67.200 16.782093
67.205 16.407536
67.210 15.913362
67.215 16.158865
67.220 16.535858
67.225 16.482189
67.230 16.885174
67.235 16.578259
67.240 16.859476
67.245 17.27035
67.250 17.046364
67.255 16.965473
67.260 16.745085
67.265 16.843607
67.270 17.288662
67.275 16.931438
67.280 16.840893
67.285 16.781664
67.290 16.654703
67.295 16.616362
67.300 16.342583
67.305 15.983455
67.310 16.337858
67.315 16.317135
67.320 15.717138
67.325 15.839296
67.330 15.924819
67.335 16.455145
67.340 16.475122
67.345 16.08674
67.350 16.045675
67.355 16.788961
67.360 17.031076
67.365 16.811697
67.370 16.337479
67.375 16.609711
67.380 17.262192
67.385 17.47801
67.390 17.523548
67.395 17.273764
67.400 17.246008
67.405 17.142254
67.410 17.337976
67.415 17.022535
67.420 17.126751
67.425 17.13209
67.430 17.390862
67.435 18.012104
67.440 17.694233
67.445 17.353251
67.450 17.394003
67.455 17.107988
67.460 17.242231
67.465 16.420702
67.470 15.876743
67.475 15.621152
67.480 15.782681
67.485 15.87365
67.490 15.529734
67.495 15.800944
67.500 16.555376
67.505 16.830118
67.510 17.354502
67.515 17.46744
67.520 17.907331
67.525 18.206804
67.530 17.975796
67.535 17.524567
67.540 17.51029
67.545 17.579752
67.550 16.95616
67.555 16.568058
67.560 16.052809
67.565 15.852331
67.570 15.906487
67.575 15.581665
67.580 15.361814
67.585 15.728765
67.590 15.674891
67.595 15.73174
67.600 15.570647
67.605 15.965769
67.610 16.3053
67.615 16.151415
67.620 15.91234
67.625 16.289289
67.630 16.037094
67.635 15.909977
67.640 15.610353
67.645 15.650445
67.650 15.928688
67.655 15.755308
67.660 15.301908
67.665 15.707808
67.670 15.637289
67.675 15.538639
67.680 15.418258
67.685 15.414595
67.690 15.742312
67.695 15.987569
67.700 16.746094
67.705 16.910419
67.710 17.180414
67.715 17.335739
67.720 17.38307
67.725 17.490376
67.730 17.159996
67.735 16.631758
67.740 16.977615
67.745 17.030022
67.750 17.10918
67.755 17.230732
67.760 17.056166
67.765 17.072506
67.770 17.290838
67.775 17.243727
67.780 17.072271
67.785 16.669228
67.790 16.696911
67.795 17.113377
67.800 17.097277
67.805 16.312397
67.810 15.901826
67.815 15.866516
67.820 15.849424
67.825 16.062504
67.830 16.347185
67.835 16.323866
67.840 16.588383
67.845 16.542965
67.850 16.642757
67.855 16.892939
67.860 16.644535
67.865 16.977045
67.870 17.423592
67.875 17.688635
67.880 17.968967
67.885 18.273527
67.890 18.244522
67.895 17.629482
67.900 17.022577
67.905 16.498026
67.910 16.155621
67.915 15.794907
67.920 16.062731
67.925 16.400764
67.930 16.798107
67.935 17.010084
67.940 17.728283
67.945 17.967247
67.950 18.120739
67.955 17.582317
67.960 17.105722
67.965 17.627892
67.970 17.729235
67.975 17.839762
67.980 17.858267
67.985 17.656979
67.990 17.855827
67.995 17.550737
68.000 17.005133
68.005 17.044821
68.010 16.772736
68.015 17.297152
68.020 17.674473
68.025 18.079351
68.030 18.577927
68.035 18.182829
68.040 17.760902
68.045 17.115494
68.050 17.028273
68.055 17.18104
68.060 16.876108
68.065 16.300249
68.070 16.463459
68.075 16.637016
68.080 17.166624
68.085 17.176277
68.090 17.160698
68.095 17.709038
68.100 17.896708
68.105 17.810368
68.110 17.833145
68.115 17.465324
68.120 16.843679
68.125 16.030462
68.130 15.828042
68.135 16.055683
68.140 16.41157
68.145 17.01438
68.150 17.152193
68.155 17.41946
68.160 17.637022
68.165 17.917332
68.170 18.126093
68.175 17.70599
68.180 17.437862
68.185 16.843351
68.190 17.203543
68.195 17.047266
68.200 16.576513
68.205 16.069864
68.210 15.550202
68.215 15.147513
68.220 15.83497
68.225 15.815825
68.230 16.072668
68.235 16.169228
68.240 16.566484
68.245 16.898176
68.250 17.25251
68.255 17.119974
68.260 16.973846
68.265 17.194851
68.270 17.078043
68.275 17.10487
68.280 17.244797
68.285 17.437124
68.290 16.863319
68.295 16.497629
68.300 16.300451
68.305 16.285551
68.310 16.638288
68.315 16.514221
68.320 16.027922
68.325 16.297819
68.330 16.186075
68.335 16.217024
68.340 16.458912
68.345 16.353289
68.350 16.029093
68.355 16.705103
68.360 16.948994
68.365 16.844097
68.370 16.299845
68.375 16.040888
68.380 16.0744
68.385 16.644255
68.390 16.495979
68.395 16.199709
68.400 16.79178
68.405 17.388889
68.410 17.172291
68.415 16.579468
68.420 16.001076
68.425 16.456575
68.430 16.715343
68.435 16.63447
68.440 16.152765
68.445 16.323769
68.450 16.657352
68.455 16.757851
68.460 16.481924
68.465 16.576233
68.470 16.554918
68.475 17.090017
68.480 17.241287
68.485 17.295113
68.490 17.262232
68.495 17.036619
68.500 16.911089
68.505 16.781496
68.510 17.159
68.515 17.334885
68.520 17.717663
68.525 17.630501
68.530 17.737104
68.535 17.645565
68.540 17.761845
68.545 17.425425
68.550 17.260962
68.555 16.770794
68.560 17.278965
68.565 17.319082
68.570 17.755835
68.575 17.980818
68.580 17.576988
68.585 18.158186
68.590 18.738768
68.595 18.387812
68.600 18.625742
68.605 18.75433
68.610 18.353193
68.615 18.974699
68.620 18.822067
68.625 18.324305
68.630 18.348639
68.635 18.102289
68.640 17.723938
68.645 17.73609
68.650 17.233055
68.655 17.627197
68.660 18.606033
68.665 18.601137
68.670 19.027386
68.675 19.281998
68.680 19.757477
68.685 20.16378
68.690 19.503805
68.695 19.036524
68.700 19.117872
68.705 19.418051
68.710 19.773449
68.715 19.994047
68.720 19.73473
68.725 20.020634
68.730 19.547729
68.735 18.974585
68.740 18.208731
68.745 17.504784
68.750 17.498259
68.755 17.736485
68.760 17.625465
68.765 18.140097
68.770 18.876045
68.775 18.850796
68.780 19.253471
68.785 19.365618
68.790 19.378014
68.795 19.554291
68.800 19.442003
68.805 18.986809
68.810 19.281389
68.815 19.430904
68.820 19.398853
68.825 19.143042
68.830 18.991272
68.835 19.244339
68.840 19.732952
68.845 19.662834
68.850 19.46394
68.855 19.514204
68.860 19.933567
68.865 19.854198
68.870 19.490719
68.875 19.446741
68.880 19.318497
68.885 19.270407
68.890 18.723833
68.895 18.485405
68.900 19.185503
68.905 19.793432
68.910 20.248661
68.915 20.562847
68.920 20.91712
68.925 21.708382
68.930 22.481035
68.935 22.335716
68.940 22.073582
68.945 21.953482
68.950 22.435909
68.955 22.702085
68.960 22.829473
68.965 22.257267
68.970 22.038332
68.975 22.525677
68.980 22.595936
68.985 21.841726
68.990 21.03783
68.995 21.121897
69.000 22.016314
69.005 22.476076
69.010 22.408426
69.015 22.992607
69.020 23.72925
69.025 23.350655
69.030 22.849255
69.035 22.343246
69.040 22.557486
69.045 22.312044
69.050 22.332853
69.055 22.816051
69.060 23.848198
69.065 23.860159
69.070 23.798876
69.075 24.425798
69.080 24.753916
69.085 24.194786
69.090 24.467077
69.095 24.754694
69.100 25.7978
69.105 26.590889
69.110 26.660839
69.115 26.346914
69.120 26.933895
69.125 27.162268
69.130 27.301098
69.135 27.362547
69.140 27.047466
69.145 26.593386
69.150 26.905767
69.155 26.932938
69.160 26.816351
69.165 26.579563
69.170 26.726034
69.175 27.714924
69.180 28.489609
69.185 29.469509
69.190 28.894941
69.195 28.832794
69.200 29.035641
69.205 29.552874
69.210 29.989208
69.215 30.281834
69.220 30.669357
69.225 31.358839
69.230 31.626162
69.235 31.694357
69.240 30.907698
69.245 30.663568
69.250 29.738348
69.255 29.105616
69.260 29.543884
69.265 29.98176
69.270 30.336102
69.275 30.502857
69.280 30.956282
69.285 32.231106
69.290 32.84341
69.295 32.278275
69.300 31.836578
69.305 31.513765
69.310 31.96529
69.315 31.50144
69.320 30.821102
69.325 30.721743
69.330 30.930428
69.335 30.986284
69.340 31.050886
69.345 31.61113
69.350 31.892206
69.355 32.728531
69.360 33.274834
69.365 33.462879
69.370 33.536991
69.375 33.348301
69.380 32.690792
69.385 32.054028
69.390 31.286343
69.395 30.86145
69.400 31.136103
69.405 31.077347
69.410 31.265135
69.415 31.52557
69.420 32.301189
69.425 32.527485
69.430 33.009529
69.435 33.491776
69.440 33.154839
69.445 33.279354
69.450 32.768085
69.455 32.299259
69.460 31.389702
69.465 30.068777
69.470 29.256001
69.475 29.270407
69.480 28.970314
69.485 28.546124
69.490 28.077984
69.495 27.709034
69.500 27.608887
69.505 27.790165
69.510 27.434439
69.515 27.288776
69.520 27.304346
69.525 27.808897
69.530 28.207283
69.535 28.438507
69.540 28.169502
69.545 27.662741
69.550 27.025808
69.555 26.671005
69.560 25.966259
69.565 25.436546
69.570 25.491631
69.575 25.607542
69.580 25.85289
69.585 25.324581
69.590 24.019449
69.595 24.356911
69.600 24.680328
69.605 24.287312
69.610 23.794975
69.615 23.548021
69.620 24.218166
69.625 24.253677
69.630 23.298567
69.635 22.483274
69.640 22.016699
69.645 21.486975
69.650 21.372644
69.655 21.104221
69.660 21.89049
69.665 22.009142
69.670 22.131775
69.675 22.321535
69.680 22.929829
69.685 23.171658
69.690 22.971905
69.695 23.25507
69.700 23.144693
69.705 22.781576
69.710 22.299921
69.715 21.517706
69.720 21.174419
69.725 20.971018
69.730 20.64432
69.735 20.508329
69.740 20.632381
69.745 21.285925
69.750 21.566109
69.755 21.356451
69.760 20.854055
69.765 20.226706
69.770 20.370213
69.775 20.55542
69.780 20.354702
69.785 20.652924
69.790 20.313683
69.795 19.894125
69.800 19.464279
69.805 19.225248
69.810 18.808094
69.815 18.379568
69.820 18.417152
69.825 18.779425
69.830 19.562439
69.835 20.627066
69.840 20.41633
69.845 20.350271
69.850 19.936979
69.855 19.61162
69.860 19.525217
69.865 18.971857
69.870 18.404137
69.875 18.698181
69.880 18.999458
69.885 19.66436
69.890 19.565319
69.895 19.414532
69.900 19.844391
69.905 19.554882
69.910 19.369499
69.915 19.269712
69.920 18.925655
69.925 18.593065
69.930 17.831362
69.935 17.546392
69.940 17.638454
69.945 16.988916
69.950 16.796818
69.955 17.022924
69.960 17.161572
69.965 18.39143
69.970 18.244865
69.975 18.536253
69.980 19.116783
69.985 19.661434
69.990 20.034626
69.995 20.010798
70.000 19.037268
70.005 18.466984
70.010 18.326548
70.015 17.824324
70.020 17.372452
70.025 17.153364
70.030 17.160305
70.035 17.703903
70.040 17.989294
70.045 17.595224
70.050 17.31702
70.055 16.601921
70.060 16.352745
70.065 16.398615
70.070 16.340261
70.075 16.692921
70.080 17.158268
70.085 17.800516
70.090 18.644913
70.095 18.50173
70.100 17.44776
70.105 17.146645
70.110 16.369904
70.115 16.135612
70.120 15.966941
70.125 15.854571
70.130 15.948215
70.135 16.367655
70.140 16.419783
70.145 16.885344
70.150 16.717918
70.155 16.433182
70.160 16.545343
70.165 16.330189
70.170 16.407015
70.175 16.481428
70.180 16.246971
70.185 16.203686
70.190 15.721512
70.195 15.342855
70.200 15.684148
70.205 15.879878
70.210 16.249537
70.215 16.200996
70.220 16.304834
70.225 16.507343
70.230 16.508936
70.235 16.389303
70.240 16.235106
70.245 16.089815
70.250 16.617838
70.255 16.865192
70.260 17.138151
70.265 17.928188
70.270 17.93564
70.275 17.737711
70.280 17.701229
70.285 16.96117
70.290 16.713058
70.295 16.881363
70.300 16.647108
70.305 16.598089
70.310 16.17411
70.315 15.847305
70.320 15.951376
70.325 15.543411
70.330 15.071185
70.335 14.734577
70.340 14.56324
70.345 14.85444
70.350 14.724657
70.355 14.930505
70.360 15.258404
70.365 15.306809
70.370 16.037613
70.375 16.30382
70.380 16.444885
70.385 16.145029
70.390 16.247774
70.395 16.038839
70.400 16.096016
70.405 15.434734
70.410 15.432204
70.415 15.405613
70.420 15.371298
70.425 15.581353
70.430 15.848667
70.435 15.935658
70.440 16.089878
70.445 15.968602
70.450 15.995378
70.455 16.062172
70.460 15.931814
70.465 15.599884
70.470 15.509741
70.475 16.218063
70.480 16.312347
70.485 16.946569
70.490 17.105217
70.495 17.012823
70.500 17.169554
70.505 17.233633
70.510 17.112778
70.515 17.334036
70.520 16.51803
70.525 16.537569
70.530 16.845438
70.535 16.929926
70.540 16.74369
70.545 16.633064
70.550 16.692173
70.555 16.750275
70.560 16.379545
70.565 15.886808
70.570 16.031191
70.575 15.778996
70.580 15.26975
70.585 15.060263
70.590 15.25649
70.595 15.586424
70.600 15.290555
70.605 15.176844
70.610 15.235255
70.615 15.811275
70.620 16.029568
70.625 16.68532
70.630 16.702682
70.635 16.709427
70.640 16.939917
70.645 17.3449
70.650 17.573631
70.655 17.658476
70.660 17.679623
70.665 18.07424
70.670 18.199169
70.675 17.446995
70.680 17.543985
70.685 17.273081
70.690 16.798531
70.695 16.374083
70.700 16.231222
70.705 16.390648
70.710 16.244892
70.715 15.843036
70.720 15.699206
70.725 16.119997
70.730 15.86604
70.735 15.418052
70.740 15.57535
70.745 15.900148
70.750 15.89022
70.755 15.719021
70.760 15.802299
70.765 16.246771
70.770 16.963076
70.775 17.322266
70.780 17.10865
70.785 16.913118
70.790 17.222673
70.795 16.932573
70.800 16.677696
70.805 15.715987
70.810 15.550683
70.815 15.789342
70.820 15.955038
70.825 15.577864
70.830 15.228697
70.835 15.706532
70.840 16.242741
70.845 16.213415
70.850 15.803541
70.855 15.503048
70.860 15.261634
70.865 15.723445
70.870 15.328006
70.875 14.712576
70.880 14.60619
70.885 14.709739
70.890 14.642772
70.895 14.20166
70.900 13.877365
70.905 13.972134
70.910 13.931611
70.915 13.83136
70.920 14.113525
70.925 14.563307
70.930 14.899117
70.935 15.412317
70.940 15.974661
70.945 16.653503
70.950 16.711416
70.955 16.831259
70.960 16.692348
70.965 16.674265
70.970 16.721844
70.975 16.576582
70.980 16.130795
70.985 16.370182
70.990 16.863316
70.995 17.349394
71.000 17.707207
71.005 17.267004
71.010 17.685469
71.015 17.479652
71.020 17.198347
71.025 16.886509
71.030 16.222237
71.035 15.710832
71.040 15.570382
71.045 15.304122
71.050 15.598222
71.055 15.32769
71.060 15.0754
71.065 14.912163
71.070 15.055191
71.075 15.160234
71.080 14.732686
71.085 14.558274
71.090 14.655052
71.095 14.643659
71.100 15.242695
71.105 15.416493
71.110 15.307186
71.115 15.42861
71.120 15.597421
71.125 16.051947
71.130 16.072863
71.135 15.677022
71.140 15.772136
71.145 16.248648
71.150 16.982533
71.155 16.925425
71.160 16.768568
71.165 16.810463
71.170 17.311684
71.175 17.5702
71.180 17.092335
71.185 16.32728
71.190 16.24194
71.195 16.403774
71.200 16.938225
71.205 16.771332
71.210 16.91297
71.215 16.940514
71.220 17.036686
71.225 16.69017
71.230 15.862609
71.235 15.41305
71.240 15.133169
71.245 15.260201
71.250 15.73686
71.255 15.478403
71.260 15.965158
71.265 17.006336
71.270 16.749662
71.275 16.71505
71.280 16.47224
71.285 16.478682
71.290 17.21652
71.295 16.901814
71.300 17.099422
71.305 16.722694
71.310 16.180763
71.315 15.905662
71.320 15.843154
71.325 15.352294
71.330 15.24732
71.335 15.231531
71.340 15.3936
71.345 16.080601
71.350 16.322836
71.355 16.560953
71.360 16.798409
71.365 17.17663
71.370 17.180567
71.375 17.096537
71.380 16.278145
71.385 16.111448
71.390 16.030176
71.395 15.552603
71.400 14.913115
71.405 14.708869
71.410 14.769128
71.415 15.24966
71.420 15.329013
71.425 16.174082
71.430 16.357033
71.435 16.230309
71.440 16.463184
71.445 16.075258
71.450 15.599465
71.455 15.350518
71.460 14.871723
71.465 14.896153
71.470 15.351083
71.475 15.35193
71.480 15.843151
71.485 16.588015
71.490 16.321489
71.495 16.564438
71.500 16.527344
71.505 16.958347
71.510 17.273769
71.515 17.165291
71.520 16.59726
71.525 16.477861
71.530 16.233339
71.535 16.232147
71.540 15.378322
71.545 15.003534
71.550 14.736103
71.555 14.864697
71.560 14.396205
71.565 14.385321
71.570 14.420927
71.575 14.666698
71.580 14.423931
71.585 14.611101
71.590 14.692178
71.595 15.248383
71.600 15.172658
71.605 14.837135
71.610 14.758898
71.615 14.726321
71.620 14.98977
71.625 14.691195
71.630 13.963062
71.635 13.753561
71.640 13.719894
71.645 14.317476
71.650 14.607279
71.655 14.249331
71.660 14.710067
71.665 15.53705
71.670 15.713029
71.675 16.5382
71.680 16.109159
71.685 16.491289
71.690 16.656694
71.695 16.373634
71.700 16.281462
71.705 16.14369
71.710 15.593347
71.715 15.326568
71.720 15.00407
71.725 14.619564
71.730 14.767937
71.735 14.792399
71.740 15.190383
71.745 15.474329
71.750 15.993657
71.755 16.550213
71.760 16.929819
71.765 17.024063
71.770 17.11969
71.775 17.344265
71.780 17.23387
71.785 16.700985
71.790 16.999067
71.795 16.756893
71.800 16.609781
71.805 16.105927
71.810 15.727036
71.815 15.845104
71.820 15.646805
71.825 15.044964
71.830 15.009266
71.835 14.810338
71.840 14.575742
71.845 13.911632
71.850 13.943464
71.855 14.237257
71.860 14.331865
71.865 14.28123
71.870 14.292929
71.875 15.073769
71.880 15.263179
71.885 15.063635
71.890 15.017504
71.895 15.053167
71.900 15.488155
71.905 15.354451
71.910 15.494255
71.915 15.839516
71.920 16.043299
71.925 16.090931
71.930 15.762545
71.935 16.003538
71.940 16.496689
71.945 15.995349
71.950 15.576462
71.955 15.293912
71.960 15.714729
71.965 15.876788
71.970 16.00135
71.975 15.620462
71.980 15.87193
71.985 15.995879
71.990 15.934807
71.995 16.253176
72.000 16.750937
72.005 16.815216
72.010 16.816322
72.015 17.088058
72.020 17.199961
72.025 16.795942
72.030 16.050304
72.035 15.146612
72.040 15.103205
72.045 14.731598
72.050 14.122551
72.055 14.341898
72.060 14.35425
72.065 14.634776
72.070 14.812496
72.075 14.832739
72.080 15.262387
72.085 15.598901
72.090 15.546977
72.095 15.664978
72.100 15.736651
72.105 16.116264
72.110 16.024567
72.115 16.096645
72.120 16.21825
72.125 16.581972
72.130 16.64949
72.135 16.449982
72.140 16.432146
72.145 16.286951
72.150 16.094601
72.155 16.080614
72.160 15.829681
72.165 15.91394
72.170 15.81107
72.175 15.498128
72.180 15.216421
72.185 15.061053
72.190 14.64973
72.195 14.528421
72.200 14.926115
72.205 15.044643
72.210 15.715027
72.215 16.463671
72.220 16.76935
72.225 16.931246
72.230 16.950525
72.235 16.575642
72.240 16.971123
72.245 17.324902
72.250 16.803778
72.255 17.018356
72.260 16.324827
72.265 16.523411
72.270 16.161943
72.275 15.65541
72.280 15.439354
72.285 15.15558
72.290 15.344831
72.295 15.939123
72.300 15.430327
72.305 15.564785
72.310 15.231471
72.315 15.171729
72.320 14.76686
72.325 15.173546
72.330 15.062582
72.335 15.520097
72.340 15.23291
72.345 14.99413
72.350 15.152989
72.355 16.107174
72.360 15.479072
72.365 14.927287
72.370 15.42057
72.375 15.699066
72.380 16.157469
72.385 16.345804
72.390 15.996568
72.395 16.450163
72.400 16.732258
72.405 16.841061
72.410 16.735771
72.415 16.518944
72.420 16.185345
72.425 15.758772
72.430 15.704979
72.435 15.58584
72.440 15.435472
72.445 15.788612
72.450 15.963611
72.455 16.0459
72.460 16.072618
72.465 16.008467
72.470 15.879912
72.475 15.394953
72.480 15.182034
72.485 15.559535
72.490 15.270192
72.495 15.268807
72.500 15.356748
72.505 15.325231
72.510 15.793129
72.515 15.554293
72.520 15.309078
72.525 15.16497
72.530 15.066417
72.535 15.472552
72.540 15.324595
72.545 15.312321
72.550 15.113337
72.555 15.297232
72.560 15.511175
72.565 15.355364
72.570 14.959467
72.575 15.126479
72.580 15.477102
72.585 15.901476
72.590 15.598537
72.595 15.578897
72.600 15.825728
72.605 16.41316
72.610 15.967506
72.615 15.691922
72.620 15.96895
72.625 16.452036
72.630 16.88607
72.635 16.285734
72.640 15.770146
72.645 15.535462
72.650 15.310859
72.655 15.178467
72.660 15.045999
72.665 14.939834
72.670 15.619163
72.675 15.833301
72.680 15.454221
72.685 15.124866
72.690 14.963777
72.695 14.911333
72.700 14.573211
72.705 13.973016
72.710 13.895734
72.715 14.526096
72.720 14.373933
72.725 14.58593
72.730 14.537876
72.735 15.298006
72.740 15.540765
72.745 15.923383
72.750 16.072334
72.755 15.992685
72.760 15.980777
72.765 16.095592
72.770 15.122731
72.775 15.138805
72.780 14.741687
72.785 14.852196
72.790 15.161576
72.795 15.359538
72.800 15.400686
72.805 15.890043
72.810 15.882479
72.815 16.268957
72.820 16.286032
72.825 15.795054
72.830 15.266142
72.835 15.219149
72.840 15.083073
72.845 14.933083
72.850 14.812053
72.855 14.882718
72.860 14.527112
72.865 14.265337
72.870 14.230403
72.875 14.625627
72.880 14.581596
72.885 14.024802
72.890 14.048651
72.895 14.561368
72.900 14.813047
72.905 14.868683
72.910 14.95897
72.915 15.262074
72.920 15.210638
72.925 14.85958
72.930 14.770606
72.935 14.480372
72.940 14.311835
72.945 14.196058
72.950 14.106984
72.955 14.066374
72.960 13.929064
72.965 14.31179
72.970 14.810493
72.975 14.836538
72.980 15.28818
72.985 15.346995
72.990 16.083155
72.995 16.390057
73.000 16.482769
