!@!!GADDS PLOTSO FILE: Chi integration type
!@!!Title/SampleName: map-fe
!@!!Comment: ?
!@!!User: Bruker Instrument Administrator
!@!!Site: University of Illinois Chicago
!@!!Frame: map-fe_01_000.gfrm
!@!!Wavelengths    1.54184   1.54056   1.54439
!@!!Frame angles: 2Theta: 63.000 Omega: 50.000 Phi: 0.000 Chi: 90.000
!@!!Integration range: 2Theta: 53.000 to 73.000  Gamma: -105.000 to -75.000
!@!!Integration method: bin normalized
!@!N
!@!SS
!@!M
!@!L 0.0 0.0 0.0 0.0
!@!XDegrees
!@!YCounts
53.000 8.059303
53.005 7.801429
53.010 7.747816
53.015 7.950769
53.020 8.185273
53.025 7.933268
53.030 7.408829
53.035 7.679574
53.040 7.783155
53.045 7.60534
53.050 7.27171
53.055 7.052524
53.060 7.115867
53.065 6.961509
53.070 6.803821
53.075 6.700769
53.080 6.667194
53.085 6.847178
53.090 7.204801
53.095 7.533483
53.100 7.69545
53.105 7.770759
53.110 7.748998
53.115 7.557519
53.120 7.375207
53.125 7.168832
53.130 7.237073
53.135 7.478584
53.140 7.805359
53.145 7.701593
53.150 8.195203
53.155 8.433102
53.160 8.519676
53.165 8.43872
53.170 8.190395
53.175 8.450749
53.180 8.710559
53.185 8.305951
53.190 8.110662
53.195 7.751871
53.200 8.062484
53.205 8.172698
53.210 8.437207
53.215 8.474178
53.220 8.621124
53.225 8.727893
53.230 8.693107
53.235 8.370897
53.240 8.267366
53.245 8.067366
53.250 8.78541
53.255 8.894297
53.260 8.824394
53.265 9.057242
53.270 9.039291
53.275 9.1029
53.280 9.146724
53.285 9.028522
53.290 9.370278
53.295 9.243172
53.300 9.09407
53.305 8.854395
53.310 8.138626
53.315 8.001344
53.320 7.754512
53.325 7.706731
53.330 8.035495
53.335 7.868092
53.340 7.984719
53.345 8.211411
53.350 8.036482
53.355 7.77494
53.360 7.543889
53.365 7.202728
53.370 7.523526
53.375 8.37516
53.380 8.435156
53.385 8.118491
53.390 8.078173
53.395 8.298659
53.400 8.621494
53.405 8.302341
53.410 8.154428
53.415 7.92592
53.420 8.092507
53.425 8.233242
53.430 8.278613
53.435 8.056366
53.440 7.889109
53.445 7.415577
53.450 7.612115
53.455 7.403145
53.460 7.046757
53.465 6.944401
53.470 7.089735
53.475 7.300023
53.480 7.464094
53.485 7.328874
53.490 7.733859
53.495 7.713414
53.500 7.850261
53.505 7.870852
53.510 7.871999
53.515 7.898334
53.520 8.546763
53.525 8.690845
53.530 8.926577
53.535 8.804979
53.540 8.944617
53.545 8.806303
53.550 8.654283
53.555 8.147856
53.560 8.327279
53.565 8.428483
53.570 8.354939
53.575 8.097088
53.580 8.591055
53.585 8.645153
53.590 8.546072
53.595 8.787673
53.600 8.739352
53.605 8.797312
53.610 8.913173
53.615 8.561872
53.620 8.793607
53.625 8.483543
53.630 8.01849
53.635 8.189403
53.640 8.212825
53.645 7.908307
53.650 7.774692
53.655 7.706965
53.660 7.88673
53.665 8.338522
53.670 8.551426
53.675 8.910425
53.680 9.090887
53.685 9.343552
53.690 9.364497
53.695 9.269052
53.700 8.946115
53.705 8.683637
53.710 8.381319
53.715 7.893515
53.720 7.791736
53.725 8.279093
53.730 8.156328
53.735 7.889114
53.740 7.537804
53.745 7.769081
53.750 7.780789
53.755 7.724235
53.760 6.989594
53.765 7.256803
53.770 7.808796
53.775 8.111384
53.780 7.933117
53.785 7.94055
53.790 8.421973
53.795 8.876742
53.800 8.703998
53.805 8.720531
53.810 8.625131
53.815 8.673985
53.820 8.208544
53.825 7.616697
53.830 7.647324
53.835 7.706956
53.840 7.40099
53.845 7.329017
53.850 7.692742
53.855 8.32557
53.860 8.603148
53.865 8.426291
53.870 8.124441
53.875 8.42111
53.880 8.800944
53.885 8.99908
53.890 9.145969
53.895 9.114491
53.900 9.21529
53.905 9.547863
53.910 9.488248
53.915 9.24262
53.920 8.965557
53.925 8.906733
53.930 9.268136
53.935 9.538342
53.940 9.59572
53.945 9.640879
53.950 10.020034
53.955 9.818679
53.960 9.77539
53.965 9.409945
53.970 9.422443
53.975 9.465025
53.980 9.144463
53.985 9.07641
53.990 9.017104
53.995 9.387474
54.000 9.68557
54.005 9.58521
54.010 9.36704
54.015 9.232426
54.020 9.310275
54.025 9.377291
54.030 9.183717
54.035 9.060049
54.040 9.014172
54.045 9.341622
54.050 9.725832
54.055 9.919063
54.060 9.755541
54.065 9.400406
54.070 9.483228
54.075 9.388949
54.080 9.376194
54.085 8.978527
54.090 8.651763
54.095 8.511742
54.100 8.805803
54.105 8.407688
54.110 8.264412
54.115 8.109657
54.120 8.254955
54.125 8.429449
54.130 8.188789
54.135 7.83344
54.140 8.063467
54.145 8.180954
54.150 8.053661
54.155 7.672333
54.160 7.732453
54.165 8.275085
54.170 8.722318
54.175 8.653049
54.180 8.500815
54.185 8.664457
54.190 8.971705
54.195 8.950451
54.200 8.981536
54.205 9.396471
54.210 9.636413
54.215 9.621096
54.220 9.722238
54.225 10.19
54.230 10.42163
54.235 10.308777
54.240 9.694631
54.245 9.576551
54.250 9.871655
54.255 10.055516
54.260 9.439856
54.265 9.056995
54.270 8.569565
54.275 8.7223
54.280 8.853028
54.285 8.77315
54.290 8.439765
54.295 8.745499
54.300 8.959391
54.305 9.920428
54.310 10.171398
54.315 10.038539
54.320 9.827967
54.325 9.816112
54.330 9.726828
54.335 10.034427
54.340 9.701633
54.345 9.298558
54.350 9.917015
54.355 10.235163
54.360 10.653474
54.365 10.391762
54.370 9.987063
54.375 9.574284
54.380 9.199401
54.385 8.596726
54.390 8.315911
54.395 8.002421
54.400 8.15402
54.405 8.196112
54.410 8.391904
54.415 8.821414
54.420 9.001712
54.425 9.328885
54.430 9.220169
54.435 8.890201
54.440 8.652115
54.445 8.676175
54.450 8.700184
54.455 8.781368
54.460 8.619929
54.465 9.011905
54.470 9.732625
54.475 9.589838
54.480 9.34917
54.485 8.984086
54.490 8.699159
54.495 8.492614
54.500 8.223732
54.505 7.97044
54.510 8.581422
54.515 8.902571
54.520 8.891916
54.525 9.160968
54.530 9.383595
54.535 9.532807
54.540 9.683174
54.545 9.305517
54.550 9.351718
54.555 9.63301
54.560 9.649801
54.565 9.59016
54.570 9.127042
54.575 8.657046
54.580 8.939028
54.585 9.163386
54.590 9.056635
54.595 8.684485
54.600 8.560849
54.605 9.38294
54.610 9.915698
54.615 10.007165
54.620 9.754224
54.625 10.037501
54.630 10.065719
54.635 10.2251
54.640 9.971836
54.645 9.846645
54.650 9.307013
54.655 9.36099
54.660 9.562421
54.665 9.694331
54.670 9.407992
54.675 9.353948
54.680 9.304703
54.685 9.567516
54.690 9.413926
54.695 9.046505
54.700 9.154889
54.705 9.047832
54.710 9.000822
54.715 8.966268
54.720 9.051381
54.725 9.138557
54.730 9.149324
54.735 9.192726
54.740 9.349403
54.745 9.282511
54.750 9.122116
54.755 9.186426
54.760 9.189958
54.765 9.245155
54.770 9.100612
54.775 9.114595
54.780 9.071961
54.785 8.868369
54.790 8.675837
54.795 8.68402
54.800 8.924742
54.805 9.057169
54.810 8.424844
54.815 8.420691
54.820 8.66804
54.825 8.750548
54.830 8.780215
54.835 8.957759
54.840 9.018974
54.845 9.352008
54.850 9.505154
54.855 9.497465
54.860 9.641375
54.865 9.459268
54.870 8.955674
54.875 8.956077
54.880 9.224771
54.885 9.200117
54.890 9.362654
54.895 9.237355
54.900 9.700348
54.905 10.046861
54.910 9.740079
54.915 9.350765
54.920 9.50007
54.925 9.501724
54.930 9.345206
54.935 9.057464
54.940 9.123522
54.945 9.671283
54.950 10.14694
54.955 9.884667
54.960 9.468293
54.965 9.394503
54.970 9.48851
54.975 9.670691
54.980 9.643181
54.985 9.461278
54.990 9.903818
54.995 9.976372
55.000 9.816441
55.005 9.606617
55.010 9.637296
55.015 9.331519
55.020 8.971982
55.025 8.891995
55.030 9.228234
55.035 9.433928
55.040 9.26265
55.045 9.270212
55.050 9.556386
55.055 9.54481
55.060 9.56137
55.065 9.406955
55.070 9.269805
55.075 9.30452
55.080 9.284148
55.085 9.171606
55.090 9.729183
55.095 9.564222
55.100 9.834702
55.105 9.962708
55.110 10.304345
55.115 10.285409
55.120 10.300318
55.125 9.832424
55.130 9.801992
55.135 9.623623
55.140 9.575499
55.145 9.226922
55.150 9.103827
55.155 9.310877
55.160 9.802002
55.165 9.960676
55.170 10.107772
55.175 10.266749
55.180 10.702537
55.185 10.71646
55.190 10.524721
55.195 10.29559
55.200 10.145668
55.205 10.039508
55.210 9.716668
55.215 9.273854
55.220 9.345774
55.225 9.356297
55.230 9.160257
55.235 9.558116
55.240 9.683054
55.245 9.846696
55.250 10.078007
55.255 10.428366
55.260 10.616154
55.265 11.259429
55.270 11.316428
55.275 11.421162
55.280 11.303243
55.285 11.480527
55.290 10.974952
55.295 10.85346
55.300 10.469357
55.305 10.654584
55.310 10.620593
55.315 10.745644
55.320 10.362328
55.325 10.469756
55.330 10.746665
55.335 10.455497
55.340 9.971664
55.345 10.021493
55.350 10.043011
55.355 10.482498
55.360 10.418492
55.365 10.371506
55.370 10.272563
55.375 10.380323
55.380 10.124505
55.385 9.894052
55.390 9.811126
55.395 9.986458
55.400 9.919488
55.405 10.032374
55.410 9.825624
55.415 9.888969
55.420 9.400187
55.425 8.500298
55.430 8.054387
55.435 8.408543
55.440 8.811296
55.445 9.420015
55.450 9.473629
55.455 9.866949
55.460 10.659698
55.465 10.624689
55.470 10.099296
55.475 9.607327
55.480 9.544367
55.485 9.635761
55.490 9.877231
55.495 9.771091
55.500 9.553041
55.505 9.799279
55.510 9.878115
55.515 10.222371
55.520 10.767448
55.525 10.957
55.530 11.105623
55.535 11.679486
55.540 11.663918
55.545 11.196465
55.550 10.829045
55.555 10.180933
55.560 9.907668
55.565 9.658947
55.570 9.620779
55.575 9.829823
55.580 10.157528
55.585 10.250404
55.590 10.457255
55.595 10.732395
55.600 10.527984
55.605 10.281988
55.610 10.339951
55.615 10.590578
55.620 10.961233
55.625 11.307148
55.630 11.555611
55.635 11.781147
55.640 11.724333
55.645 11.562873
55.650 11.320172
55.655 10.563667
55.660 10.183472
55.665 9.910168
55.670 10.098459
55.675 9.882954
55.680 9.450025
55.685 9.669861
55.690 9.871139
55.695 9.580293
55.700 9.615027
55.705 9.703732
55.710 9.759823
55.715 10.116357
55.720 10.163918
55.725 10.278078
55.730 10.888946
55.735 10.8438
55.740 11.137606
55.745 11.264392
55.750 11.558188
55.755 11.91966
55.760 11.897493
55.765 11.278527
55.770 10.886961
55.775 10.413063
55.780 10.382234
55.785 9.626903
55.790 9.51123
55.795 9.990624
55.800 10.082388
55.805 10.354209
55.810 10.754171
55.815 11.50344
55.820 12.020071
55.825 11.41017
55.830 11.461019
55.835 12.050147
55.840 12.41759
55.845 12.38434
55.850 12.079979
55.855 12.1801
55.860 12.721125
55.865 12.382458
55.870 12.21067
55.875 12.114766
55.880 11.476595
55.885 11.740277
55.890 11.802187
55.895 12.014473
55.900 12.2181
55.905 12.331261
55.910 12.685587
55.915 13.109429
55.920 12.821713
55.925 12.112909
55.930 11.654934
55.935 11.453073
55.940 10.77622
55.945 10.656206
55.950 10.730388
55.955 10.326885
55.960 10.135717
55.965 10.101105
55.970 10.250236
55.975 10.300427
55.980 10.512196
55.985 10.795588
55.990 11.422923
55.995 11.827377
56.000 11.793522
56.005 11.756971
56.010 11.959302
56.015 11.735863
56.020 11.134494
56.025 11.020792
56.030 10.835092
56.035 10.806347
56.040 10.767406
56.045 10.47496
56.050 10.848228
56.055 10.976878
56.060 10.653683
56.065 10.882389
56.070 10.977488
56.075 10.971175
56.080 10.897682
56.085 10.662454
56.090 10.806837
56.095 10.713986
56.100 10.395287
56.105 10.382194
56.110 10.995874
56.115 10.838619
56.120 10.287434
56.125 10.050966
56.130 10.069039
56.135 10.19738
56.140 10.213889
56.145 10.244322
56.150 10.634191
56.155 10.736464
56.160 11.030605
56.165 11.309601
56.170 11.548892
56.175 11.607754
56.180 11.127268
56.185 11.256398
56.190 11.462276
56.195 11.224333
56.200 11.013281
56.205 10.569082
56.210 10.634666
56.215 11.037533
56.220 11.543212
56.225 11.787638
56.230 12.263531
56.235 12.559396
56.240 12.712399
56.245 12.97175
56.250 12.37744
56.255 11.356516
56.260 11.187496
56.265 10.818959
56.270 10.660428
56.275 10.517269
56.280 10.28269
56.285 10.221055
56.290 11.030422
56.295 11.406222
56.300 11.970887
56.305 12.004856
56.310 11.934516
56.315 11.926329
56.320 11.896808
56.325 11.538692
56.330 11.251691
56.335 11.531029
56.340 11.607801
56.345 11.824752
56.350 12.150545
56.355 12.601881
56.360 12.616921
56.365 12.308488
56.370 12.11615
56.375 11.92372
56.380 11.341234
56.385 11.106749
56.390 10.8046
56.395 10.670705
56.400 10.810234
56.405 10.701086
56.410 10.708566
56.415 11.031986
56.420 11.218642
56.425 11.208581
56.430 11.724125
56.435 11.933528
56.440 12.01652
56.445 12.085611
56.450 11.801086
56.455 11.430992
56.460 11.500843
56.465 11.088627
56.470 10.555526
56.475 10.444142
56.480 10.412111
56.485 10.568164
56.490 11.455905
56.495 11.24887
56.500 11.051764
56.505 10.86111
56.510 10.790805
56.515 10.659947
56.520 10.736815
56.525 10.479858
56.530 10.848868
56.535 10.999605
56.540 11.659368
56.545 12.375213
56.550 13.140077
56.555 13.323464
56.560 13.05011
56.565 12.536242
56.570 12.205503
56.575 11.702508
56.580 11.127163
56.585 10.52674
56.590 10.435722
56.595 10.836742
56.600 11.342058
56.605 11.460782
56.610 11.265944
56.615 11.434822
56.620 11.613365
56.625 11.710918
56.630 11.673175
56.635 11.488795
56.640 11.641184
56.645 12.171942
56.650 12.215012
56.655 11.898149
56.660 11.571217
56.665 11.591278
56.670 11.977332
56.675 12.357439
56.680 12.049181
56.685 12.07986
56.690 12.183993
56.695 12.580873
56.700 12.16371
56.705 12.071877
56.710 11.861928
56.715 11.991159
56.720 12.632152
56.725 13.01319
56.730 12.693103
56.735 13.01018
56.740 13.524194
56.745 13.927441
56.750 13.595034
56.755 13.278602
56.760 12.893062
56.765 12.753717
56.770 12.576987
56.775 12.196154
56.780 12.054377
56.785 11.553528
56.790 11.5522
56.795 11.936369
56.800 12.281241
56.805 12.193561
56.810 12.458204
56.815 12.525278
56.820 12.945723
56.825 13.135503
56.830 13.114334
56.835 13.193998
56.840 13.367135
56.845 13.054073
56.850 13.151203
56.855 13.041676
56.860 12.615036
56.865 12.152782
56.870 11.776666
56.875 11.876909
56.880 12.097832
56.885 12.157595
56.890 12.14071
56.895 12.316867
56.900 12.883005
56.905 12.910623
56.910 12.221785
56.915 12.088138
56.920 11.402205
56.925 11.307139
56.930 11.508834
56.935 11.212287
56.940 11.195739
56.945 11.229958
56.950 10.873559
56.955 11.639124
56.960 11.664049
56.965 11.453759
56.970 11.042609
56.975 11.293626
56.980 11.781026
56.985 12.00844
56.990 11.627605
56.995 11.873661
57.000 11.96338
57.005 12.22506
57.010 11.90592
57.015 11.498887
57.020 11.485271
57.025 11.765576
57.030 11.618307
57.035 11.646531
57.040 11.660789
57.045 12.089187
57.050 12.347419
57.055 12.569099
57.060 12.68145
57.065 12.785122
57.070 13.144814
57.075 13.401305
57.080 13.219589
57.085 13.259617
57.090 13.297274
57.095 13.119657
57.100 12.897371
57.105 12.174178
57.110 11.820397
57.115 12.243814
57.120 12.636939
57.125 12.43335
57.130 12.236365
57.135 12.41806
57.140 13.019646
57.145 12.845277
57.150 12.398781
57.155 12.272525
57.160 12.402357
57.165 12.511843
57.170 12.591696
57.175 12.515896
57.180 12.828511
57.185 12.426823
57.190 11.874235
57.195 11.590166
57.200 11.66388
57.205 11.409338
57.210 11.601541
57.215 11.664361
57.220 11.703106
57.225 11.960917
57.230 11.815975
57.235 11.5911
57.240 11.592446
57.245 11.337613
57.250 11.218446
57.255 11.615491
57.260 11.95409
57.265 11.770185
57.270 11.44081
57.275 11.263825
57.280 11.128672
57.285 10.580013
57.290 10.287083
57.295 10.672071
57.300 11.502206
57.305 11.805818
57.310 12.123518
57.315 12.400651
57.320 13.08661
57.325 12.719485
57.330 12.306597
57.335 12.048714
57.340 12.098923
57.345 12.057845
57.350 12.189386
57.355 11.900649
57.360 12.446296
57.365 12.574029
57.370 13.155754
57.375 13.261897
57.380 13.576218
57.385 13.532477
57.390 13.781071
57.395 13.587715
57.400 13.024615
57.405 12.45126
57.410 12.05012
57.415 11.815131
57.420 11.891376
57.425 11.98492
57.430 12.354948
57.435 12.716108
57.440 12.606122
57.445 12.778769
57.450 12.534589
57.455 11.949629
57.460 11.698339
57.465 11.676954
57.470 11.862252
57.475 12.122869
57.480 12.686442
57.485 12.856008
57.490 13.22249
57.495 13.388282
57.500 12.992988
57.505 12.675262
57.510 12.560229
57.515 12.117841
57.520 12.080493
57.525 11.655391
57.530 11.697822
57.535 11.626464
57.540 11.754297
57.545 11.747026
57.550 11.58496
57.555 11.814276
57.560 12.753565
57.565 12.914546
57.570 13.223726
57.575 13.264957
57.580 12.956092
57.585 13.276826
57.590 13.520776
57.595 13.185878
57.600 13.117876
57.605 12.930059
57.610 12.866175
57.615 13.007869
57.620 12.817983
57.625 12.885677
57.630 12.594919
57.635 12.398123
57.640 12.854058
57.645 13.005459
57.650 13.46465
57.655 13.643961
57.660 13.701921
57.665 14.005392
57.670 13.98961
57.675 13.660734
57.680 13.786705
57.685 13.911347
57.690 14.167867
57.695 14.345364
57.700 14.798066
57.705 15.261321
57.710 15.132168
57.715 15.034441
57.720 14.864047
57.725 14.453607
57.730 13.62973
57.735 13.032667
57.740 12.934505
57.745 12.824777
57.750 12.622458
57.755 12.58011
57.760 12.569333
57.765 12.731119
57.770 12.990875
57.775 13.257545
57.780 13.513044
57.785 13.870212
57.790 13.872602
57.795 14.15453
57.800 14.582193
57.805 14.551605
57.810 14.296968
57.815 14.530501
57.820 14.492502
57.825 14.415948
57.830 14.383648
57.835 14.272
57.840 14.211874
57.845 14.591523
57.850 14.906359
57.855 14.908184
57.860 15.023007
57.865 14.943202
57.870 15.10438
57.875 14.932301
57.880 14.408052
57.885 13.855356
57.890 13.987247
57.895 13.703314
57.900 13.725146
57.905 13.742086
57.910 13.646549
57.915 13.358284
57.920 13.617057
57.925 13.793288
57.930 14.788653
57.935 14.688391
57.940 14.446336
57.945 14.667003
57.950 15.15854
57.955 14.804557
57.960 13.905684
57.965 13.251204
57.970 13.260638
57.975 13.164131
57.980 13.577977
57.985 13.413242
57.990 13.394092
57.995 13.694641
58.000 13.773222
58.005 14.346153
58.010 14.81391
58.015 14.908618
58.020 15.397444
58.025 15.615489
58.030 15.890404
58.035 16.268881
58.040 16.332214
58.045 16.403118
58.050 16.251938
58.055 15.893339
58.060 15.964165
58.065 15.531799
58.070 14.769507
58.075 14.254423
58.080 14.293476
58.085 13.936474
58.090 13.819101
58.095 14.138408
58.100 14.649979
58.105 15.481822
58.110 15.404329
58.115 15.228054
58.120 14.89143
58.125 14.955946
58.130 14.590234
58.135 14.496533
58.140 14.189862
58.145 14.226118
58.150 14.71413
58.155 15.347585
58.160 15.130319
58.165 15.290505
58.170 15.611231
58.175 16.270124
58.180 16.372835
58.185 16.257622
58.190 16.307152
58.195 16.993853
58.200 17.044775
58.205 16.967211
58.210 16.405104
58.215 16.554632
58.220 16.632782
58.225 16.809536
58.230 16.395929
58.235 15.868095
58.240 15.968329
58.245 16.396996
58.250 16.117069
58.255 15.964235
58.260 15.961895
58.265 16.49416
58.270 17.039932
58.275 16.575642
58.280 16.038349
58.285 15.756297
58.290 15.841589
58.295 15.419689
58.300 15.027326
58.305 15.128898
58.310 15.458465
58.315 16.039856
58.320 17.009941
58.325 17.441597
58.330 18.249811
58.335 18.635649
58.340 18.346449
58.345 18.486427
58.350 18.602781
58.355 18.455925
58.360 18.315243
58.365 18.652813
58.370 19.269304
58.375 19.542381
58.380 19.617474
58.385 20.094904
58.390 19.754871
58.395 19.589712
58.400 18.892155
58.405 18.451744
58.410 18.680632
58.415 18.774309
58.420 19.247986
58.425 19.89559
58.430 20.45771
58.435 21.301321
58.440 21.597778
58.445 21.337746
58.450 21.317223
58.455 21.09618
58.460 21.454662
58.465 21.56855
58.470 21.593203
58.475 21.992804
58.480 22.790783
58.485 23.245289
58.490 23.951126
58.495 24.400171
58.500 24.635017
58.505 25.213371
58.510 26.271502
58.515 27.03982
58.520 27.429096
58.525 27.877544
58.530 27.834301
58.535 28.687817
58.540 28.94236
58.545 28.286362
58.550 28.032557
58.555 27.893412
58.560 28.602055
58.565 29.023903
58.570 28.344952
58.575 27.671169
58.580 28.043789
58.585 28.37846
58.590 28.917074
58.595 29.239761
58.600 30.160549
58.605 30.998003
58.610 31.463875
58.615 31.289829
58.620 31.493305
58.625 32.210842
58.630 32.917358
58.635 32.433559
58.640 32.281361
58.645 32.295902
58.650 31.891094
58.655 31.816383
58.660 30.912102
58.665 30.061604
58.670 30.137911
58.675 29.951008
58.680 30.136171
58.685 30.495293
58.690 31.116096
58.695 31.823936
58.700 30.889557
58.705 30.512205
58.710 30.798019
58.715 31.29697
58.720 31.224073
58.725 30.707596
58.730 30.171928
58.735 31.201815
58.740 31.567457
58.745 31.094082
58.750 30.169645
58.755 29.507666
58.760 28.95785
58.765 28.353546
58.770 27.208069
58.775 26.889431
58.780 27.463638
58.785 27.532976
58.790 27.515139
58.795 27.354439
58.800 27.715321
58.805 28.149014
58.810 27.615259
58.815 26.587032
58.820 26.739077
58.825 26.757456
58.830 26.116959
58.835 25.087254
58.840 24.842545
58.845 24.87093
58.850 24.929792
58.855 24.565655
58.860 23.971481
58.865 24.381721
58.870 24.711411
58.875 24.554585
58.880 23.891378
58.885 23.659857
58.890 23.605478
58.895 23.608105
58.900 22.911228
58.905 21.867956
58.910 21.012543
58.915 20.736979
58.920 20.213234
58.925 19.284269
58.930 18.912485
58.935 18.938208
58.940 18.304243
58.945 17.95072
58.950 17.466301
58.955 17.261223
58.960 17.654627
58.965 17.604664
58.970 16.89492
58.975 17.645712
58.980 17.580313
58.985 17.531683
58.990 17.810324
58.995 17.224819
59.000 17.068092
59.005 17.194809
59.010 16.315092
59.015 16.578972
59.020 16.784462
59.025 16.673252
59.030 16.398914
59.035 16.827621
59.040 17.259193
59.045 17.834349
59.050 16.986563
59.055 16.703115
59.060 16.758686
59.065 17.069572
59.070 16.888355
59.075 16.434282
59.080 16.379551
59.085 16.904457
59.090 16.589752
59.095 16.585066
59.100 16.757597
59.105 16.460543
59.110 16.590078
59.115 16.716312
59.120 16.443556
59.125 16.723984
59.130 16.771778
59.135 16.990555
59.140 16.797985
59.145 16.213594
59.150 15.436596
59.155 15.793507
59.160 16.343004
59.165 16.06041
59.170 15.591144
59.175 15.987187
59.180 16.332712
59.185 16.816635
59.190 16.957859
59.195 16.627028
59.200 16.835999
59.205 16.627134
59.210 16.675203
59.215 16.780642
59.220 16.203634
59.225 15.763865
59.230 15.546391
59.235 15.070067
59.240 15.000016
59.245 14.52997
59.250 14.117409
59.255 14.024125
59.260 13.660563
59.265 13.259125
59.270 13.404697
59.275 13.431469
59.280 13.620406
59.285 13.384542
59.290 13.654912
59.295 13.897403
59.300 14.007588
59.305 14.162589
59.310 14.323864
59.315 14.252492
59.320 14.850131
59.325 15.072713
59.330 15.36515
59.335 15.802135
59.340 15.397269
59.345 15.205471
59.350 15.001676
59.355 15.072592
59.360 14.114184
59.365 13.262807
59.370 12.994943
59.375 13.156464
59.380 12.822889
59.385 12.901775
59.390 13.040224
59.395 13.515833
59.400 13.481658
59.405 12.873605
59.410 13.323502
59.415 13.659323
59.420 13.57913
59.425 13.422957
59.430 13.804977
59.435 14.323122
59.440 14.695107
59.445 14.198954
59.450 14.369753
59.455 14.060294
59.460 14.208167
59.465 14.487423
59.470 14.401988
59.475 14.349951
59.480 14.847582
59.485 15.094785
59.490 15.381927
59.495 15.36057
59.500 15.159452
59.505 15.05319
59.510 15.236476
59.515 14.54025
59.520 14.58092
59.525 14.473575
59.530 14.047536
59.535 14.256811
59.540 14.25041
59.545 14.08582
59.550 14.119074
59.555 13.731892
59.560 13.529726
59.565 13.464122
59.570 13.380477
59.575 13.677619
59.580 13.487572
59.585 13.533584
59.590 13.583876
59.595 14.052553
59.600 14.565535
59.605 15.212639
59.610 15.175123
59.615 15.362741
59.620 15.409482
59.625 15.556262
59.630 15.96133
59.635 15.431885
59.640 14.516397
59.645 14.361162
59.650 14.533707
59.655 14.40359
59.660 13.838617
59.665 13.133179
59.670 13.149393
59.675 13.440324
59.680 14.252143
59.685 14.50445
59.690 14.889133
59.695 15.65121
59.700 15.582621
59.705 15.923368
59.710 15.770262
59.715 14.945804
59.720 15.140353
59.725 15.290602
59.730 14.666591
59.735 15.487247
59.740 15.439512
59.745 15.841836
59.750 15.995961
59.755 15.475245
59.760 15.392435
59.765 16.001854
59.770 15.765914
59.775 15.697453
59.780 15.579155
59.785 15.510132
59.790 15.8584
59.795 15.684799
59.800 15.283625
59.805 14.789295
59.810 14.225811
59.815 14.419646
59.820 14.687802
59.825 14.776663
59.830 14.638896
59.835 14.633596
59.840 15.009804
59.845 14.985611
59.850 14.699586
59.855 14.615833
59.860 14.558824
59.865 14.412955
59.870 14.519845
59.875 15.002431
59.880 15.611518
59.885 15.419465
59.890 15.097301
59.895 15.311648
59.900 15.708629
59.905 15.78062
59.910 14.931766
59.915 14.371997
59.920 14.401582
59.925 14.462186
59.930 14.105847
59.935 14.357921
59.940 14.388502
59.945 14.404222
59.950 14.669764
59.955 15.34164
59.960 15.494772
59.965 15.569257
59.970 14.929668
59.975 15.043198
59.980 15.284512
59.985 15.105285
59.990 14.435261
59.995 13.93542
60.000 14.047289
60.005 14.235733
60.010 14.131734
60.015 13.959352
60.020 13.956562
60.025 13.706399
60.030 13.771197
60.035 13.546888
60.040 13.589154
60.045 13.444421
60.050 13.591404
60.055 13.720209
60.060 14.050746
60.065 13.987432
60.070 13.768753
60.075 14.041603
60.080 14.684492
60.085 14.644445
60.090 15.004817
60.095 15.377227
60.100 15.622602
60.105 15.883159
60.110 15.193373
60.115 14.322576
60.120 14.371135
60.125 14.15059
60.130 14.530116
60.135 14.673541
60.140 14.692084
60.145 15.011587
60.150 15.682253
60.155 15.478214
60.160 15.203187
60.165 14.917565
60.170 14.585416
60.175 14.638298
60.180 14.20507
60.185 14.32064
60.190 14.772976
60.195 14.832474
60.200 15.137024
60.205 15.280072
60.210 15.047064
60.215 15.759562
60.220 15.29698
60.225 15.246681
60.230 15.056324
60.235 15.017747
60.240 15.156893
60.245 15.456358
60.250 15.338861
60.255 15.139957
60.260 14.397866
60.265 14.143126
60.270 14.021334
60.275 14.17238
60.280 14.395874
60.285 14.226294
60.290 14.802639
60.295 15.079919
60.300 15.165045
60.305 14.646627
60.310 14.23205
60.315 13.878221
60.320 14.006724
60.325 14.147513
60.330 14.805675
60.335 14.941033
60.340 15.176585
60.345 15.31297
60.350 15.009103
60.355 13.935623
60.360 13.102407
60.365 12.727014
60.370 12.936042
60.375 13.074289
60.380 13.174292
60.385 13.633196
60.390 14.290781
60.395 14.366329
60.400 14.365371
60.405 14.148119
60.410 14.340017
60.415 14.223198
60.420 14.077029
60.425 14.297824
60.430 14.186201
60.435 13.689308
60.440 13.585779
60.445 13.652683
60.450 13.511915
60.455 13.57317
60.460 13.501386
60.465 13.817279
60.470 14.484799
60.475 15.072951
60.480 15.133108
60.485 15.741854
60.490 15.869423
60.495 15.856559
60.500 15.615961
60.505 15.585469
60.510 15.228013
60.515 15.635541
60.520 15.256511
60.525 14.695482
60.530 14.367155
60.535 14.454844
60.540 14.125712
60.545 13.813982
60.550 13.364522
60.555 13.716386
60.560 14.371867
60.565 14.640229
60.570 14.668859
60.575 14.699341
60.580 14.418292
60.585 14.04379
60.590 13.736486
60.595 13.651863
60.600 13.762547
60.605 13.811032
60.610 13.765435
60.615 14.257533
60.620 14.545731
60.625 14.480294
60.630 14.729341
60.635 15.072758
60.640 14.922509
60.645 14.504341
60.650 13.798079
60.655 13.711039
60.660 13.54509
60.665 12.867135
60.670 12.434376
60.675 12.907518
60.680 13.378203
60.685 13.984961
60.690 14.124866
60.695 14.105636
60.700 14.428088
60.705 14.524074
60.710 14.494723
60.715 14.062554
60.720 14.167411
60.725 14.207872
60.730 14.511738
60.735 14.231451
60.740 13.910052
60.745 14.081742
60.750 14.348288
60.755 14.17807
60.760 14.205395
60.765 14.799708
60.770 14.829615
60.775 14.915251
60.780 14.726391
60.785 14.41732
60.790 14.30505
60.795 14.061006
60.800 13.65323
60.805 13.755919
60.810 14.215755
60.815 14.663548
60.820 15.021195
60.825 15.101586
60.830 15.10294
60.835 15.063352
60.840 15.214376
60.845 15.011809
60.850 15.545265
60.855 16.022272
60.860 16.133795
60.865 16.343376
60.870 16.30234
60.875 16.04656
60.880 15.607011
60.885 14.88997
60.890 14.089111
60.895 13.968898
60.900 13.801239
60.905 13.772493
60.910 13.621184
60.915 13.365535
60.920 13.029086
60.925 12.851808
60.930 13.027599
60.935 13.220814
60.940 13.502554
60.945 14.080964
60.950 14.831758
60.955 15.36055
60.960 15.713001
60.965 15.531116
60.970 15.434849
60.975 15.667806
60.980 15.494828
60.985 15.528241
60.990 15.679543
60.995 15.752734
61.000 15.939939
61.005 15.614702
61.010 15.549597
61.015 15.776452
61.020 15.912908
61.025 15.924348
61.030 16.237103
61.035 16.273064
61.040 16.394695
61.045 16.32939
61.050 16.041513
61.055 15.000938
61.060 14.551759
61.065 14.083015
61.070 13.871948
61.075 13.824502
61.080 14.128092
61.085 14.133074
61.090 14.938429
61.095 14.954084
61.100 15.142612
61.105 15.776269
61.110 16.153482
61.115 15.733099
61.120 15.924835
61.125 15.657395
61.130 15.660075
61.135 15.644945
61.140 15.292444
61.145 15.008512
61.150 15.041132
61.155 15.000722
61.160 14.79089
61.165 15.086
61.170 15.394807
61.175 15.027325
61.180 14.938896
61.185 14.842689
61.190 14.48787
61.195 14.323276
61.200 14.221045
61.205 14.107412
61.210 14.619624
61.215 14.995808
61.220 15.13753
61.225 15.905065
61.230 16.747612
61.235 16.263248
61.240 16.208717
61.245 15.82616
61.250 15.359121
61.255 15.27058
61.260 14.748625
61.265 14.733576
61.270 15.618822
61.275 15.830607
61.280 16.076126
61.285 16.447611
61.290 16.522587
61.295 16.653442
61.300 16.212118
61.305 15.691649
61.310 15.472988
61.315 15.659712
61.320 15.494386
61.325 15.347528
61.330 15.159164
61.335 15.097142
61.340 14.934277
61.345 14.702528
61.350 14.510864
61.355 14.386373
61.360 14.645413
61.365 14.402307
61.370 14.358275
61.375 14.477122
61.380 14.981145
61.385 15.076365
61.390 15.262322
61.395 15.141191
61.400 15.049388
61.405 14.974688
61.410 14.429388
61.415 13.999974
61.420 14.044509
61.425 13.876282
61.430 13.993723
61.435 14.017972
61.440 14.360703
61.445 15.305703
61.450 15.319603
61.455 15.283489
61.460 14.923042
61.465 14.954733
61.470 15.507979
61.475 15.635286
61.480 15.235787
61.485 14.811017
61.490 14.594044
61.495 15.305248
61.500 15.551627
61.505 14.992824
61.510 14.460539
61.515 14.253837
61.520 14.565897
61.525 14.422133
61.530 14.209593
61.535 14.117901
61.540 14.498229
61.545 14.939509
61.550 15.855534
61.555 16.382776
61.560 16.67734
61.565 16.729221
61.570 16.851139
61.575 17.237026
61.580 17.528513
61.585 16.783077
61.590 16.396263
61.595 16.688755
61.600 17.113592
61.605 17.344164
61.610 17.233297
61.615 16.894617
61.620 16.808691
61.625 16.598475
61.630 15.780306
61.635 15.519082
61.640 14.973452
61.645 14.838533
61.650 14.732129
61.655 14.6887
61.660 14.81555
61.665 15.206836
61.670 14.935178
61.675 15.048268
61.680 15.207642
61.685 15.873271
61.690 15.900258
61.695 15.797109
61.700 15.75901
61.705 16.031246
61.710 15.918268
61.715 15.397888
61.720 15.197736
61.725 15.492191
61.730 15.753385
61.735 15.953886
61.740 15.404592
61.745 15.389328
61.750 15.075189
61.755 14.483094
61.760 14.58911
61.765 14.352662
61.770 13.828776
61.775 14.023768
61.780 14.272242
61.785 15.237947
61.790 15.624872
61.795 15.572182
61.800 15.268171
61.805 14.924868
61.810 14.934033
61.815 14.572517
61.820 14.316576
61.825 13.780209
61.830 13.309781
61.835 13.735721
61.840 14.412285
61.845 14.296877
61.850 14.569205
61.855 14.539106
61.860 15.051794
61.865 15.633475
61.870 15.69332
61.875 16.068615
61.880 16.236458
61.885 16.078331
61.890 16.256075
61.895 16.426935
61.900 16.372066
61.905 16.085386
61.910 15.773325
61.915 15.540819
61.920 15.450737
61.925 15.108606
61.930 14.805078
61.935 14.979283
61.940 15.517118
61.945 15.733775
61.950 15.463194
61.955 15.423655
61.960 15.375221
61.965 14.65824
61.970 14.042806
61.975 13.898337
61.980 13.806355
61.985 13.952719
61.990 13.688917
61.995 13.227051
62.000 13.953414
62.005 14.005927
62.010 13.716672
62.015 13.348859
62.020 13.26866
62.025 13.336371
62.030 14.002088
62.035 14.460928
62.040 14.591927
62.045 15.089267
62.050 15.610258
62.055 15.937318
62.060 16.13541
62.065 16.124802
62.070 16.120392
62.075 16.069273
62.080 16.123062
62.085 16.353321
62.090 16.465618
62.095 16.528738
62.100 16.840559
62.105 16.612066
62.110 16.665384
62.115 16.670361
62.120 16.623505
62.125 16.806799
62.130 17.20899
62.135 16.822945
62.140 16.586489
62.145 16.462843
62.150 15.912022
62.155 16.00243
62.160 16.055218
62.165 16.117537
62.170 16.862686
62.175 17.536842
62.180 17.805637
62.185 18.505541
62.190 18.635677
62.195 18.195229
62.200 17.555672
62.205 16.64892
62.210 16.219204
62.215 15.760485
62.220 14.980785
62.225 14.935349
62.230 14.892838
62.235 14.766312
62.240 14.733234
62.245 14.875772
62.250 14.6989
62.255 14.66473
62.260 13.984251
62.265 14.054235
62.270 14.294695
62.275 14.137564
62.280 14.175317
62.285 15.014482
62.290 15.474811
62.295 16.369772
62.300 16.866138
62.305 17.051359
62.310 17.607996
62.315 17.460049
62.320 16.782938
62.325 16.151087
62.330 15.685084
62.335 14.808837
62.340 14.453963
62.345 14.437608
62.350 14.345869
62.355 15.231468
62.360 16.403561
62.365 16.304504
62.370 16.186268
62.375 16.351019
62.380 16.146704
62.385 16.066643
62.390 15.520117
62.395 14.874091
62.400 15.093838
62.405 15.504153
62.410 15.928719
62.415 16.238197
62.420 16.496647
62.425 16.573339
62.430 16.515175
62.435 16.354216
62.440 16.301321
62.445 15.936574
62.450 15.852798
62.455 16.044489
62.460 15.909448
62.465 15.782296
62.470 15.997321
62.475 16.080149
62.480 15.906198
62.485 15.531642
62.490 15.391457
62.495 15.367224
62.500 14.923617
62.505 14.65083
62.510 14.687109
62.515 15.046237
62.520 15.269443
62.525 15.300506
62.530 14.836709
62.535 14.818387
62.540 15.060262
62.545 15.069033
62.550 15.219516
62.555 15.00646
62.560 15.13992
62.565 15.907508
62.570 16.418774
62.575 16.281317
62.580 15.969484
62.585 16.01539
62.590 16.354727
62.595 16.032196
62.600 15.781536
62.605 15.307111
62.610 15.444622
62.615 15.453656
62.620 14.547378
62.625 14.444067
62.630 14.594624
62.635 14.80065
62.640 15.194206
62.645 15.194248
62.650 15.625343
62.655 16.356855
62.660 15.885768
62.665 15.236423
62.670 14.970906
62.675 15.256721
62.680 15.549534
62.685 15.495951
62.690 15.967699
62.695 16.502819
62.700 16.875082
62.705 17.192236
62.710 17.207029
62.715 17.050842
62.720 17.4153
62.725 16.649576
62.730 16.872353
62.735 16.885098
62.740 16.016039
62.745 16.022053
62.750 16.093618
62.755 15.774162
62.760 15.659977
62.765 15.520591
62.770 15.544856
62.775 15.666064
62.780 15.360598
62.785 15.005632
62.790 14.718112
62.795 15.40569
62.800 16.14027
62.805 16.567818
62.810 16.451164
62.815 16.671103
62.820 17.126713
62.825 16.92107
62.830 15.818955
62.835 15.146995
62.840 15.206716
62.845 15.776813
62.850 15.868557
62.855 15.8601
62.860 16.649343
62.865 18.097324
62.870 18.002728
62.875 18.174198
62.880 17.812288
62.885 17.529837
62.890 17.53426
62.895 17.00581
62.900 15.672412
62.905 15.074975
62.910 14.418388
62.915 14.688496
62.920 14.218261
62.925 13.820128
62.930 13.276649
62.935 13.555158
62.940 14.573629
62.945 15.130851
62.950 14.561482
62.955 15.297977
62.960 15.66269
62.965 16.30205
62.970 17.113811
62.975 17.146191
62.980 17.093887
62.985 17.949183
62.990 17.607922
62.995 17.721571
63.000 17.782763
63.005 17.805796
63.010 17.49835
63.015 17.152473
63.020 16.678915
63.025 16.312067
63.030 16.249535
63.035 16.101658
63.040 15.578863
63.045 15.520144
63.050 15.675502
63.055 15.999305
63.060 16.415487
63.065 16.9877
63.070 17.304312
63.075 17.064661
63.080 17.585806
63.085 17.438467
63.090 17.065184
63.095 16.643152
63.100 15.797118
63.105 15.129996
63.110 15.114254
63.115 14.685556
63.120 14.278022
63.125 14.350889
63.130 14.645239
63.135 15.162198
63.140 15.312249
63.145 15.098442
63.150 15.303961
63.155 16.105431
63.160 16.476809
63.165 16.579082
63.170 16.309837
63.175 16.694979
63.180 16.669197
63.185 16.663998
63.190 16.3943
63.195 15.83217
63.200 15.540829
63.205 15.049364
63.210 14.690919
63.215 15.296942
63.220 15.508278
63.225 16.098211
63.230 16.247671
63.235 16.457979
63.240 16.638359
63.245 16.635567
63.250 16.257113
63.255 16.287825
63.260 16.469467
63.265 16.719135
63.270 17.084976
63.275 17.342733
63.280 17.915443
63.285 17.948328
63.290 18.092655
63.295 17.807827
63.300 17.591589
63.305 17.832012
63.310 17.972813
63.315 18.033041
63.320 18.246559
63.325 17.771137
63.330 17.605392
63.335 17.593355
63.340 17.379255
63.345 16.837221
63.350 16.864258
63.355 16.912064
63.360 16.865507
63.365 17.295135
63.370 17.543133
63.375 17.371258
63.380 17.70015
63.385 17.457693
63.390 17.420622
63.395 17.54541
63.400 17.054117
63.405 17.09922
63.410 17.07999
63.415 16.869898
63.420 16.936342
63.425 16.745359
63.430 16.844521
63.435 17.394842
63.440 17.220844
63.445 17.022926
63.450 17.560595
63.455 17.800985
63.460 17.334787
63.465 16.919853
63.470 16.552418
63.475 16.411589
63.480 16.968185
63.485 16.762653
63.490 17.030104
63.495 17.382439
63.500 17.963194
63.505 17.905626
63.510 17.959839
63.515 18.111576
63.520 18.011917
63.525 18.111475
63.530 18.198835
63.535 17.826014
63.540 17.997034
63.545 17.927038
63.550 17.713844
63.555 17.362507
63.560 17.032478
63.565 16.76017
63.570 16.255022
63.575 16.407368
63.580 16.256212
63.585 15.957971
63.590 16.003027
63.595 15.892081
63.600 16.39455
63.605 17.407433
63.610 17.53879
63.615 17.865005
63.620 18.076775
63.625 18.463318
63.630 18.980289
63.635 19.213041
63.640 18.219677
63.645 17.579855
63.650 17.360487
63.655 17.291605
63.660 17.077568
63.665 16.786892
63.670 16.31354
63.675 16.895695
63.680 17.539942
63.685 17.762239
63.690 18.018467
63.695 18.227028
63.700 18.062706
63.705 17.979582
63.710 17.807121
63.715 17.416916
63.720 17.596594
63.725 17.564791
63.730 17.283772
63.735 17.649117
63.740 17.964685
63.745 17.759357
63.750 18.043419
63.755 17.842777
63.760 17.660488
63.765 17.393522
63.770 17.103878
63.775 17.303802
63.780 17.918709
63.785 18.355469
63.790 18.745098
63.795 18.852505
63.800 19.293133
63.805 19.732416
63.810 19.413467
63.815 19.002253
63.820 18.407492
63.825 17.872421
63.830 17.918503
63.835 17.787319
63.840 17.427488
63.845 17.631729
63.850 17.643995
63.855 17.447073
63.860 18.065937
63.865 18.940447
63.870 19.071142
63.875 19.395809
63.880 19.405209
63.885 19.724022
63.890 20.258989
63.895 19.798866
63.900 19.26786
63.905 19.60463
63.910 19.740801
63.915 19.274944
63.920 19.765272
63.925 19.828592
63.930 19.700438
63.935 19.426506
63.940 18.7862
63.945 18.828131
63.950 19.139101
63.955 19.143494
63.960 18.88493
63.965 18.619209
63.970 18.23568
63.975 18.402195
63.980 18.732388
63.985 18.710394
63.990 19.102669
63.995 19.941475
64.000 21.187437
64.005 22.22156
64.010 22.857359
64.015 24.044355
64.020 24.417389
64.025 23.669586
64.030 22.948383
64.035 22.766729
64.040 22.416723
64.045 22.293636
64.050 21.767792
64.055 21.754665
64.060 22.531916
64.065 22.833647
64.070 23.568798
64.075 24.46834
64.080 24.62575
64.085 25.412256
64.090 25.762161
64.095 25.606476
64.100 26.204824
64.105 25.866274
64.110 25.564295
64.115 25.888117
64.120 26.329916
64.125 26.625116
64.130 26.574825
64.135 27.068571
64.140 27.194695
64.145 27.514284
64.150 27.828846
64.155 27.551882
64.160 27.485109
64.165 27.89254
64.170 28.160004
64.175 28.378996
64.180 28.566978
64.185 28.90374
64.190 30.081541
64.195 30.836287
64.200 31.457344
64.205 31.846901
64.210 31.967115
64.215 32.32753
64.220 32.589699
64.225 32.931332
64.230 32.993168
64.235 33.461132
64.240 33.496792
64.245 33.833679
64.250 34.545185
64.255 35.409256
64.260 35.990047
64.265 37.209572
64.270 37.426628
64.275 37.58894
64.280 38.274555
64.285 37.872448
64.290 38.587696
64.295 38.475464
64.300 37.925167
64.305 37.597759
64.310 37.374424
64.315 37.412689
64.320 37.439274
64.325 36.980289
64.330 36.886139
64.335 37.731937
64.340 38.661751
64.345 39.383495
64.350 39.474182
64.355 40.683502
64.360 41.408234
64.365 42.577301
64.370 42.948772
64.375 43.088272
64.380 44.198864
64.385 44.553322
64.390 44.214008
64.395 44.158649
64.400 43.689941
64.405 43.960247
64.410 44.442146
64.415 43.71299
64.420 44.181484
64.425 43.920704
64.430 44.266708
64.435 45.17432
64.440 45.218922
64.445 44.917274
64.450 45.456165
64.455 45.190289
64.460 45.00835
64.465 43.591282
64.470 42.742695
64.475 41.952114
64.480 41.684803
64.485 41.796299
64.490 41.590221
64.495 41.755348
64.500 41.921604
64.505 41.779758
64.510 41.773064
64.515 41.090462
64.520 40.498573
64.525 39.703613
64.530 38.437359
64.535 37.367413
64.540 35.978943
64.545 34.902023
64.550 34.085857
64.555 33.326385
64.560 33.395901
64.565 33.856304
64.570 33.013397
64.575 32.820671
64.580 32.908936
64.585 32.336285
64.590 31.760868
64.595 31.350901
64.600 30.881464
64.605 30.742527
64.610 31.057535
64.615 31.010979
64.620 30.978628
64.625 31.011028
64.630 30.96727
64.635 30.657787
64.640 30.078659
64.645 29.290962
64.650 29.285646
64.655 29.063086
64.660 28.680616
64.665 27.731737
64.670 27.691898
64.675 28.088266
64.680 27.671869
64.685 27.434372
64.690 27.243769
64.695 27.354729
64.700 26.879589
64.705 26.19418
64.710 25.8064
64.715 25.695353
64.720 24.819469
64.725 24.631351
64.730 24.194071
64.735 24.409901
64.740 24.565874
64.745 24.47912
64.750 23.982859
64.755 23.710718
64.760 23.194561
64.765 22.954496
64.770 22.582726
64.775 22.432533
64.780 22.978151
64.785 23.384153
64.790 23.414789
64.795 23.608847
64.800 24.028818
64.805 24.152779
64.810 23.845896
64.815 22.66564
64.820 22.420885
64.825 22.709017
64.830 22.866495
64.835 23.03113
64.840 23.447628
64.845 22.945541
64.850 23.132526
64.855 22.218956
64.860 21.913906
64.865 21.580105
64.870 21.669115
64.875 21.568556
64.880 21.385763
64.885 22.056211
64.890 22.825193
64.895 22.771624
64.900 22.734537
64.905 22.107323
64.910 21.7276
64.915 22.436474
64.920 21.651718
64.925 21.107542
64.930 20.977564
64.935 20.943314
64.940 20.996214
64.945 21.16217
64.950 20.53867
64.955 20.449305
64.960 20.984058
64.965 20.492405
64.970 20.327202
64.975 20.425776
64.980 20.405191
64.985 20.658716
64.990 20.743345
64.995 20.952389
65.000 21.869171
65.005 22.742411
65.010 23.166847
65.015 23.765436
65.020 25.172554
65.025 26.180832
65.030 26.430737
65.035 26.372646
65.040 26.334885
65.045 26.248953
65.050 26.075151
65.055 25.340412
65.060 25.57012
65.065 25.179564
65.070 25.323061
65.075 25.206768
65.080 24.866648
65.085 24.666494
65.090 24.988604
65.095 24.710745
65.100 25.963337
65.105 25.997553
65.110 25.891542
65.115 26.303442
65.120 26.942568
65.125 26.926233
65.130 27.06889
65.135 26.536654
65.140 26.867582
65.145 27.375851
65.150 27.546347
65.155 28.087805
65.160 27.686968
65.165 28.36739
65.170 28.823994
65.175 28.034359
65.180 27.754511
65.185 28.058249
65.190 27.793509
65.195 27.831141
65.200 28.05092
65.205 28.014111
65.210 28.548903
65.215 28.968292
65.220 29.471954
65.225 30.266199
65.230 32.112087
65.235 31.553545
65.240 31.999065
65.245 32.109539
65.250 31.634747
65.255 31.635841
65.260 31.277887
65.265 31.119995
65.270 31.706062
65.275 31.667191
65.280 32.486542
65.285 33.164772
65.290 32.741539
65.295 32.314133
65.300 31.541574
65.305 32.13776
65.310 32.743023
65.315 32.326405
65.320 32.289276
65.325 32.953548
65.330 33.281811
65.335 33.991264
65.340 33.823532
65.345 33.353252
65.350 33.399342
65.355 33.589485
65.360 33.591282
65.365 33.677166
65.370 33.96941
65.375 33.944057
65.380 34.15176
65.385 35.027718
65.390 35.426533
65.395 35.732216
65.400 36.548882
65.405 36.563213
65.410 36.769409
65.415 37.358181
65.420 36.727142
65.425 35.831352
65.430 34.609982
65.435 33.428398
65.440 32.757172
65.445 32.305256
65.450 32.907387
65.455 33.548435
65.460 34.262646
65.465 35.503147
65.470 36.187771
65.475 37.009438
65.480 36.398804
65.485 35.646358
65.490 35.836338
65.495 36.03503
65.500 35.867176
65.505 36.668747
65.510 36.384258
65.515 36.232819
65.520 36.597103
65.525 36.139317
65.530 36.129547
65.535 36.793152
65.540 36.558899
65.545 37.568375
65.550 38.133362
65.555 37.556778
65.560 37.845497
65.565 37.543598
65.570 37.634632
65.575 37.81506
65.580 37.822289
65.585 38.60886
65.590 38.272476
65.595 38.170425
65.600 38.088642
65.605 38.227016
65.610 37.819084
65.615 37.164196
65.620 36.684578
65.625 37.065289
65.630 36.442974
65.635 36.766594
65.640 35.941013
65.645 35.476582
65.650 36.122734
65.655 36.427444
65.660 36.551266
65.665 37.082176
65.670 36.694462
65.675 36.663177
65.680 36.594357
65.685 36.441082
65.690 35.976387
65.695 35.734169
65.700 35.528214
65.705 34.74152
65.710 35.173931
65.715 36.030132
65.720 35.749836
65.725 36.401031
65.730 36.365097
65.735 36.59568
65.740 37.034683
65.745 36.272118
65.750 35.35371
65.755 34.993038
65.760 35.515747
65.765 35.486256
65.770 35.389816
65.775 35.991508
65.780 36.72974
65.785 36.897263
65.790 36.470001
65.795 35.825451
65.800 35.655167
65.805 35.445267
65.810 34.699535
65.815 34.268456
65.820 33.908463
65.825 33.562408
65.830 33.272396
65.835 33.740814
65.840 33.502529
65.845 32.970768
65.850 33.159264
65.855 33.383369
65.860 33.873806
65.865 33.713428
65.870 33.702579
65.875 33.40527
65.880 33.409462
65.885 32.96875
65.890 32.18325
65.895 31.828857
65.900 31.851366
65.905 31.35639
65.910 30.636122
65.915 29.976276
65.920 29.867489
65.925 28.179621
65.930 27.056162
65.935 26.932871
65.940 27.336567
65.945 28.401758
65.950 28.341057
65.955 27.998892
65.960 28.553783
65.965 28.372345
65.970 27.331066
65.975 26.379007
65.980 25.846745
65.985 25.576683
65.990 25.156662
65.995 25.496202
66.000 25.835245
66.005 25.880283
66.010 25.614819
66.015 25.444086
66.020 25.318111
66.025 25.447765
66.030 25.312235
66.035 24.662828
66.040 24.848349
66.045 24.156855
66.050 23.513407
66.055 23.3867
66.060 22.954926
66.065 22.584486
66.070 22.327066
66.075 21.830418
66.080 21.933018
66.085 21.975925
66.090 21.607931
66.095 21.84272
66.100 21.917562
66.105 21.92955
66.110 21.916185
66.115 22.11694
66.120 22.365925
66.125 22.76062
66.130 22.434805
66.135 22.196796
66.140 22.035116
66.145 21.688711
66.150 21.028492
66.155 19.933121
66.160 19.424339
66.165 19.39921
66.170 18.849646
66.175 18.53993
66.180 18.76247
66.185 19.289227
66.190 19.75795
66.195 19.305798
66.200 19.403385
66.205 19.481953
66.210 19.669523
66.215 20.277054
66.220 20.373575
66.225 21.019793
66.230 20.982376
66.235 20.589188
66.240 20.133175
66.245 19.531223
66.250 18.41132
66.255 18.316139
66.260 18.036325
66.265 17.968494
66.270 17.547754
66.275 17.823477
66.280 17.672976
66.285 17.871588
66.290 17.813387
66.295 17.9967
66.300 18.410263
66.305 18.243999
66.310 18.373314
66.315 18.31953
66.320 18.157591
66.325 18.110319
66.330 18.026356
66.335 18.290932
66.340 18.837507
66.345 19.149683
66.350 19.540209
66.355 19.649939
66.360 19.620667
66.365 19.623144
66.370 19.39539
66.375 19.520555
66.380 19.115242
66.385 18.911179
66.390 18.439777
66.395 18.102039
66.400 17.981728
66.405 18.030769
66.410 17.464775
66.415 17.489126
66.420 18.194738
66.425 18.699604
66.430 18.863295
66.435 19.096464
66.440 18.878786
66.445 19.019648
66.450 18.85737
66.455 17.770882
66.460 17.155603
66.465 16.689466
66.470 16.161953
66.475 16.091152
66.480 16.277077
66.485 17.156569
66.490 18.088673
66.495 18.787809
66.500 19.176968
66.505 18.756516
66.510 18.4946
66.515 17.919868
66.520 17.036465
66.525 16.313688
66.530 15.806196
66.535 15.982169
66.540 16.441803
66.545 16.879023
66.550 17.059044
66.555 17.23757
66.560 17.177181
66.565 17.35088
66.570 17.091204
66.575 17.27342
66.580 17.536924
66.585 17.477091
66.590 16.960154
66.595 17.704542
66.600 17.695173
66.605 18.140242
66.610 18.066561
66.615 17.711494
66.620 18.019022
66.625 19.019421
66.630 18.857847
66.635 19.237656
66.640 19.201794
66.645 19.376686
66.650 19.936781
66.655 20.217474
66.660 19.930557
66.665 19.138809
66.670 19.316694
66.675 18.87224
66.680 18.68758
66.685 18.264965
66.690 18.151161
66.695 18.022005
66.700 18.161802
66.705 17.919777
66.710 18.473223
66.715 18.526628
66.720 18.62822
66.725 17.854561
66.730 17.817862
66.735 18.490084
66.740 18.455515
66.745 18.700319
66.750 18.810997
66.755 18.717916
66.760 19.581663
66.765 19.661751
66.770 19.11639
66.775 18.834385
66.780 18.095024
66.785 18.148409
66.790 17.71018
66.795 17.086693
66.800 16.601965
66.805 16.424837
66.810 16.354795
66.815 16.158461
66.820 16.060465
66.825 16.195068
66.830 16.051153
66.835 16.464046
66.840 16.548891
66.845 16.735912
66.850 17.232082
66.855 17.511444
66.860 18.531773
66.865 18.495716
66.870 18.199402
66.875 18.101385
66.880 17.871014
66.885 17.774315
66.890 17.222155
66.895 16.261745
66.900 16.617023
66.905 16.612659
66.910 16.601357
66.915 16.291609
66.920 15.945894
66.925 16.152079
66.930 16.483158
66.935 16.93582
66.940 17.417133
66.945 17.770113
66.950 18.025908
66.955 18.291576
66.960 18.451689
66.965 17.798761
66.970 17.239433
66.975 17.086832
66.980 17.33213
66.985 17.42145
66.990 17.182081
66.995 17.350662
67.000 18.112396
67.005 18.404787
67.010 18.303057
67.015 17.844185
67.020 17.452589
67.025 17.151737
67.030 16.707952
67.035 16.713865
67.040 16.824961
67.045 16.71661
67.050 16.967669
67.055 17.177416
67.060 17.378857
67.065 17.43121
67.070 16.876343
67.075 16.889479
67.080 17.099468
67.085 17.197113
67.090 17.358831
67.095 17.067404
67.100 17.181177
67.105 17.286354
67.110 17.366055
67.115 17.069399
67.120 16.737095
67.125 16.761267
67.130 17.322947
67.135 17.220787
67.140 16.878428
67.145 16.799202
67.150 16.897181
67.155 16.876436
67.160 17.002449
67.165 17.081966
67.170 17.16013
67.175 18.01248
67.180 18.290726
67.185 19.245256
67.190 19.532089
67.195 19.584391
67.200 19.474428
67.205 19.105011
67.210 18.207125
67.215 17.730816
67.220 17.740467
67.225 17.666464
67.230 17.500351
67.235 17.537502
67.240 18.540985
67.245 18.72641
67.250 18.463861
67.255 18.230215
67.260 18.396149
67.265 18.579599
67.270 18.403719
67.275 17.736229
67.280 17.838371
67.285 17.70656
67.290 17.330408
67.295 17.137428
67.300 17.090546
67.305 17.063534
67.310 17.38063
67.315 17.371273
67.320 17.239187
67.325 17.135742
67.330 17.841747
67.335 17.950142
67.340 17.894848
67.345 18.119255
67.350 18.32645
67.355 18.254459
67.360 18.899912
67.365 18.303703
67.370 18.102657
67.375 18.548098
67.380 18.470449
67.385 19.266567
67.390 19.720856
67.395 19.241617
67.400 19.628248
67.405 19.958738
67.410 19.551105
67.415 18.929087
67.420 18.598391
67.425 18.90641
67.430 18.871601
67.435 18.647478
67.440 17.98123
67.445 17.918739
67.450 17.911137
67.455 17.08399
67.460 16.048069
67.465 15.736739
67.470 15.993638
67.475 16.683437
67.480 16.6586
67.485 16.638588
67.490 17.071632
67.495 17.409809
67.500 17.553465
67.505 17.569437
67.510 17.330673
67.515 17.790615
67.520 18.03339
67.525 18.55562
67.530 18.795284
67.535 18.459009
67.540 18.403576
67.545 18.176517
67.550 17.907257
67.555 18.305897
67.560 18.404015
67.565 18.393501
67.570 18.463125
67.575 18.082539
67.580 17.997746
67.585 18.067076
67.590 17.324703
67.595 17.291958
67.600 17.531433
67.605 18.166847
67.610 18.54215
67.615 18.717348
67.620 19.418476
67.625 19.931116
67.630 19.673304
67.635 19.550978
67.640 19.314106
67.645 19.554581
67.650 19.784363
67.655 19.398989
67.660 19.084589
67.665 19.292957
67.670 19.274441
67.675 19.531805
67.680 19.076611
67.685 19.279345
67.690 19.120634
67.695 18.904446
67.700 18.994562
67.705 18.977255
67.710 18.26322
67.715 18.857124
67.720 19.202631
67.725 19.44245
67.730 19.184509
67.735 18.700209
67.740 18.897003
67.745 19.421968
67.750 18.410183
67.755 17.892418
67.760 17.85239
67.765 18.451994
67.770 18.06716
67.775 17.776285
67.780 17.946417
67.785 18.343016
67.790 18.43285
67.795 18.095978
67.800 18.041128
67.805 18.814087
67.810 18.856194
67.815 18.827414
67.820 19.009718
67.825 18.831795
67.830 19.49316
67.835 19.213825
67.840 19.336073
67.845 19.454422
67.850 19.008041
67.855 19.022085
67.860 18.814665
67.865 18.5688
67.870 18.826492
67.875 18.168694
67.880 18.269922
67.885 18.447165
67.890 18.284876
67.895 18.310062
67.900 17.51569
67.905 17.185226
67.910 17.378574
67.915 17.181807
67.920 16.904192
67.925 17.373243
67.930 17.596565
67.935 17.923361
67.940 17.899288
67.945 17.926586
67.950 18.208559
67.955 18.24691
67.960 18.265202
67.965 18.175629
67.970 18.276344
67.975 18.627573
67.980 18.292534
67.985 18.02062
67.990 17.437517
67.995 17.112299
68.000 17.331915
68.005 17.354574
68.010 17.492584
68.015 17.950666
68.020 18.231867
68.025 19.009432
68.030 18.875296
68.035 19.094934
68.040 19.033585
68.045 19.24773
68.050 19.1287
68.055 19.326099
68.060 19.280233
68.065 19.056152
68.070 18.757635
68.075 18.349783
68.080 18.078709
68.085 17.721077
68.090 17.697372
68.095 17.473789
68.100 17.723429
68.105 17.899662
68.110 18.277176
68.115 18.331642
68.120 18.041594
68.125 17.976799
68.130 17.837626
68.135 18.062946
68.140 17.915379
68.145 17.44031
68.150 17.291779
68.155 17.420677
68.160 17.294333
68.165 17.417873
68.170 17.265266
68.175 17.646988
68.180 18.187071
68.185 18.586937
68.190 19.100945
68.195 19.258327
68.200 19.345169
68.205 20.017683
68.210 20.153376
68.215 20.281832
68.220 19.900829
68.225 19.518269
68.230 19.367744
68.235 19.257566
68.240 18.816093
68.245 18.992859
68.250 19.534548
68.255 19.717363
68.260 19.960695
68.265 20.771103
68.270 21.13953
68.275 21.307611
68.280 20.987539
68.285 20.848213
68.290 21.312355
68.295 21.055368
68.300 21.046242
68.305 21.115709
68.310 21.198866
68.315 21.198503
68.320 20.801039
68.325 20.892923
68.330 20.896477
68.335 20.838305
68.340 21.217674
68.345 21.178593
68.350 21.444067
68.355 22.010017
68.360 22.265793
68.365 22.631964
68.370 22.821981
68.375 22.428221
68.380 22.789307
68.385 23.118954
68.390 22.476519
68.395 22.869022
68.400 22.889927
68.405 23.107967
68.410 23.356371
68.415 23.879765
68.420 24.125166
68.425 24.780069
68.430 25.040857
68.435 24.733648
68.440 24.652937
68.445 24.996038
68.450 25.121975
68.455 25.609438
68.460 25.624214
68.465 25.99716
68.470 26.414438
68.475 26.939222
68.480 27.14097
68.485 26.038881
68.490 26.169064
68.495 26.721325
68.500 26.829987
68.505 27.359274
68.510 27.037161
68.515 27.161243
68.520 28.600454
68.525 28.519724
68.530 28.0821
68.535 27.870579
68.540 28.033413
68.545 28.204308
68.550 27.761564
68.555 27.525249
68.560 27.038904
68.565 27.355385
68.570 26.96413
68.575 26.638409
68.580 26.744804
68.585 27.5564
68.590 27.98353
68.595 28.267132
68.600 28.864748
68.605 29.673243
68.610 30.002184
68.615 30.399408
68.620 29.883131
68.625 29.567762
68.630 30.294443
68.635 30.005852
68.640 30.397875
68.645 30.658367
68.650 30.761486
68.655 31.901749
68.660 32.804062
68.665 33.286842
68.670 33.78886
68.675 33.571751
68.680 33.885693
68.685 33.61755
68.690 33.526875
68.695 34.212322
68.700 33.720692
68.705 33.694771
68.710 33.509495
68.715 33.202457
68.720 33.152493
68.725 33.253605
68.730 33.159435
68.735 33.781212
68.740 34.112572
68.745 34.769711
68.750 34.843475
68.755 34.43338
68.760 33.750103
68.765 33.12648
68.770 32.693462
68.775 32.614422
68.780 32.66106
68.785 32.571045
68.790 33.417065
68.795 34.225792
68.800 34.544807
68.805 33.826237
68.810 34.050472
68.815 34.422794
68.820 34.661366
68.825 34.508389
68.830 34.618977
68.835 35.32457
68.840 36.121685
68.845 36.029312
68.850 35.717842
68.855 35.983078
68.860 36.300442
68.865 35.470184
68.870 35.010742
68.875 34.587986
68.880 34.13829
68.885 34.339611
68.890 34.09491
68.895 33.658051
68.900 33.71595
68.905 33.263214
68.910 32.679466
68.915 32.701862
68.920 32.561794
68.925 32.690956
68.930 32.739998
68.935 32.452328
68.940 32.821068
68.945 32.995392
68.950 32.451424
68.955 32.193214
68.960 32.097157
68.965 31.965139
68.970 32.239361
68.975 32.110092
68.980 32.578701
68.985 33.436382
68.990 32.992119
68.995 32.755722
69.000 33.492279
69.005 33.640423
69.010 33.085567
69.015 32.57724
69.020 31.810659
69.025 31.004667
69.030 30.891401
69.035 30.05158
69.040 30.141968
69.045 29.800482
69.050 29.407764
69.055 29.894217
69.060 30.614046
69.065 30.557255
69.070 29.514597
69.075 29.245712
69.080 29.17193
69.085 28.89765
69.090 27.953548
69.095 27.671055
69.100 27.553337
69.105 28.05736
69.110 28.366159
69.115 28.80707
69.120 29.386532
69.125 29.804054
69.130 30.082649
69.135 29.820711
69.140 29.22422
69.145 28.441288
69.150 27.870796
69.155 27.905113
69.160 27.454422
69.165 26.958584
69.170 27.314188
69.175 27.232227
69.180 27.076443
69.185 27.191547
69.190 26.690594
69.195 26.973114
69.200 26.929216
69.205 26.642893
69.210 25.911276
69.215 25.779737
69.220 25.764481
69.225 25.446619
69.230 25.150248
69.235 24.864357
69.240 24.829359
69.245 24.961849
69.250 24.814854
69.255 24.734367
69.260 24.726826
69.265 24.311441
69.270 24.072647
69.275 23.739111
69.280 23.590654
69.285 23.086136
69.290 22.929222
69.295 22.68758
69.300 23.103783
69.305 23.359015
69.310 23.827
69.315 23.906265
69.320 23.472479
69.325 23.332401
69.330 23.606291
69.335 23.113237
69.340 22.268801
69.345 21.597906
69.350 21.714874
69.355 21.60688
69.360 21.672388
69.365 21.037699
69.370 20.690275
69.375 20.983606
69.380 20.009993
69.385 19.735365
69.390 19.807461
69.395 19.945093
69.400 21.007717
69.405 21.209801
69.410 20.897915
69.415 21.049782
69.420 20.823689
69.425 20.790928
69.430 20.156166
69.435 19.07399
69.440 19.176968
69.445 19.571583
69.450 19.641382
69.455 19.771517
69.460 19.515827
69.465 19.178888
69.470 19.568193
69.475 19.663244
69.480 19.800097
69.485 19.598867
69.490 19.405369
69.495 19.453672
69.500 19.349184
69.505 19.044834
69.510 18.915707
69.515 18.515976
69.520 18.669655
69.525 18.330593
69.530 18.045033
69.535 18.385805
69.540 18.486763
69.545 18.419962
69.550 18.411686
69.555 18.560816
69.560 19.23945
69.565 19.535124
69.570 19.75374
69.575 19.954399
69.580 19.717892
69.585 19.770123
69.590 19.418064
69.595 18.949026
69.600 19.00363
69.605 18.920759
69.610 18.645817
69.615 19.126514
69.620 18.874998
69.625 18.752743
69.630 18.775742
69.635 18.471323
69.640 18.640274
69.645 18.253468
69.650 17.967085
69.655 17.715612
69.660 18.146597
69.665 18.224205
69.670 18.236675
69.675 18.123528
69.680 18.628448
69.685 18.906845
69.690 19.243713
69.695 18.866518
69.700 18.907013
69.705 18.563873
69.710 18.127495
69.715 17.675903
69.720 18.18265
69.725 18.466982
69.730 18.844255
69.735 18.820379
69.740 18.745007
69.745 18.92425
69.750 18.837057
69.755 18.275442
69.760 17.799417
69.765 17.602919
69.770 17.58762
69.775 17.880129
69.780 18.218561
69.785 18.087553
69.790 17.923508
69.795 17.557201
69.800 17.194365
69.805 17.105652
69.810 16.794359
69.815 16.52494
69.820 16.732868
69.825 16.727371
69.830 16.935585
69.835 16.482454
69.840 16.276638
69.845 16.187195
69.850 16.159502
69.855 16.448128
69.860 16.704611
69.865 17.408314
69.870 18.248762
69.875 18.706734
69.880 18.828712
69.885 18.94212
69.890 18.73406
69.895 18.952894
69.900 18.999725
69.905 18.518026
69.910 18.625187
69.915 18.386641
69.920 18.309547
69.925 18.186512
69.930 17.868769
69.935 17.696007
69.940 17.885128
69.945 18.205582
69.950 18.583437
69.955 18.672424
69.960 18.701792
69.965 18.129684
69.970 17.441881
69.975 16.596226
69.980 16.108379
69.985 15.689723
69.990 15.441423
69.995 15.904422
70.000 16.731071
70.005 17.157621
70.010 17.534718
70.015 17.346025
70.020 17.34561
70.025 17.615547
70.030 17.045788
70.035 16.584042
70.040 16.335161
70.045 16.740828
70.050 16.762516
70.055 16.598196
70.060 16.395269
70.065 16.507936
70.070 16.868641
70.075 17.405973
70.080 17.701096
70.085 18.490246
70.090 19.284294
70.095 18.95306
70.100 18.43737
70.105 17.912567
70.110 17.712877
70.115 17.686247
70.120 17.165407
70.125 17.411089
70.130 18.170492
70.135 18.028723
70.140 18.409195
70.145 18.811878
70.150 18.794937
70.155 19.16025
70.160 18.763121
70.165 18.22805
70.170 18.326609
70.175 18.250462
70.180 17.739784
70.185 16.92202
70.190 16.347963
70.195 15.963368
70.200 16.586678
70.205 16.796309
70.210 16.478523
70.215 16.767111
70.220 16.461605
70.225 16.347872
70.230 16.090855
70.235 15.95355
70.240 16.478596
70.245 16.575775
70.250 17.514471
70.255 18.218235
70.260 18.478111
70.265 18.692657
70.270 18.274052
70.275 17.569641
70.280 16.945848
70.285 16.1703
70.290 16.087231
70.295 15.941703
70.300 16.249908
70.305 17.348955
70.310 18.037155
70.315 18.346519
70.320 18.102907
70.325 18.134502
70.330 18.272884
70.335 17.886131
70.340 17.336683
70.345 16.863123
70.350 16.246162
70.355 16.511215
70.360 16.628845
70.365 16.780468
70.370 17.02619
70.375 16.824648
70.380 17.272671
70.385 17.802917
70.390 17.832933
70.395 17.5194
70.400 17.378969
70.405 17.917566
70.410 18.27338
70.415 19.014439
70.420 18.846573
70.425 18.753735
70.430 18.920904
70.435 18.568047
70.440 18.008757
70.445 17.037542
70.450 16.440018
70.455 16.376097
70.460 16.339405
70.465 16.590202
70.470 16.709297
70.475 17.039808
70.480 16.915731
70.485 17.577396
70.490 18.000902
70.495 17.836027
70.500 17.235962
70.505 17.631275
70.510 17.972155
70.515 18.322306
70.520 17.902842
70.525 17.861151
70.530 17.957092
70.535 18.469597
70.540 18.065876
70.545 17.66044
70.550 17.653898
70.555 17.789595
70.560 17.409719
70.565 17.635063
70.570 16.845655
70.575 16.486774
70.580 16.329166
70.585 16.217968
70.590 16.30369
70.595 16.297701
70.600 15.990252
70.605 16.840872
70.610 17.281418
70.615 17.502106
70.620 17.521393
70.625 17.364029
70.630 16.974997
70.635 17.428957
70.640 17.24192
70.645 17.403908
70.650 17.528896
70.655 17.805574
70.660 18.331671
70.665 18.984846
70.670 19.017347
70.675 18.636656
70.680 18.588745
70.685 18.566309
70.690 18.267626
70.695 18.107149
70.700 17.531525
70.705 16.68417
70.710 17.119022
70.715 17.716127
70.720 17.49011
70.725 17.126551
70.730 17.088495
70.735 17.311901
70.740 18.152769
70.745 18.189535
70.750 17.738737
70.755 18.397892
70.760 18.572908
70.765 18.369196
70.770 18.565195
70.775 18.257332
70.780 17.422577
70.785 16.718267
70.790 16.366102
70.795 16.316563
70.800 16.980711
70.805 16.905577
70.810 16.55937
70.815 16.950468
70.820 17.611588
70.825 18.503342
70.830 18.409906
70.835 18.178911
70.840 18.133785
70.845 18.358084
70.850 18.732519
70.855 18.315464
70.860 17.978754
70.865 18.514589
70.870 18.335829
70.875 18.69138
70.880 18.636549
70.885 18.71899
70.890 18.388306
70.895 18.271656
70.900 17.787504
70.905 17.52516
70.910 17.326138
70.915 17.450308
70.920 17.394365
70.925 17.419876
70.930 16.812523
70.935 16.965376
70.940 17.199924
70.945 17.477638
70.950 16.976807
70.955 16.861664
70.960 16.828554
70.965 16.808899
70.970 17.077272
70.975 17.12359
70.980 17.289169
70.985 17.124334
70.990 16.976902
70.995 17.02404
71.000 17.351683
71.005 16.836578
71.010 16.109715
71.015 15.580604
71.020 15.642152
71.025 16.211046
71.030 16.603365
71.035 16.338732
71.040 16.402391
71.045 16.75
71.050 17.11116
71.055 17.272303
71.060 17.263462
71.065 17.242239
71.070 17.514849
71.075 17.668694
71.080 17.811205
71.085 17.847679
71.090 17.948086
71.095 17.798962
71.100 17.74295
71.105 17.35013
71.110 17.350962
71.115 17.242859
71.120 16.684626
71.125 16.48464
71.130 16.68203
71.135 16.668079
71.140 16.910135
71.145 17.076942
71.150 17.781626
71.155 17.568493
71.160 17.102566
71.165 16.303135
71.170 16.234379
71.175 15.833014
71.180 15.775855
71.185 15.335016
71.190 15.965017
71.195 16.086887
71.200 16.476067
71.205 16.244625
71.210 16.047079
71.215 16.676134
71.220 16.983675
71.225 17.557255
71.230 18.055746
71.235 18.33843
71.240 18.840591
71.245 18.985159
71.250 18.527199
71.255 18.273403
71.260 17.960804
71.265 18.008457
71.270 18.051924
71.275 18.163012
71.280 17.788095
71.285 17.691168
71.290 17.512695
71.295 17.321468
71.300 17.211376
71.305 17.242737
71.310 17.190994
71.315 17.2554
71.320 17.311821
71.325 17.478199
71.330 18.318556
71.335 18.435173
71.340 18.301878
71.345 18.196964
71.350 18.63608
71.355 18.612015
71.360 18.229471
71.365 17.130247
71.370 16.933048
71.375 16.747803
71.380 16.884554
71.385 16.499914
71.390 16.693138
71.395 16.88554
71.400 17.205463
71.405 18.010496
71.410 17.973827
71.415 17.565458
71.420 18.204128
71.425 18.308474
71.430 17.99642
71.435 17.734653
71.440 17.029303
71.445 16.872702
71.450 17.01605
71.455 17.123505
71.460 17.416372
71.465 17.750904
71.470 17.587376
71.475 17.708511
71.480 18.385588
71.485 18.467316
71.490 17.940168
71.495 17.93697
71.500 17.635437
71.505 17.758141
71.510 17.941875
71.515 17.794447
71.520 17.736565
71.525 17.358139
71.530 17.902832
71.535 17.53787
71.540 17.960423
71.545 18.108747
71.550 17.810337
71.555 17.370729
71.560 17.306583
71.565 17.216064
71.570 17.313417
71.575 17.180416
71.580 17.530455
71.585 17.837723
71.590 18.238142
71.595 18.004919
71.600 18.254866
71.605 17.956144
71.610 17.582331
71.615 17.624987
71.620 17.326288
71.625 17.55814
71.630 17.234638
71.635 17.096018
71.640 17.34182
71.645 17.217731
71.650 16.999363
71.655 17.193296
71.660 17.182667
71.665 17.629498
71.670 18.113544
71.675 18.014296
71.680 18.041061
71.685 17.691324
71.690 18.007347
71.695 18.559589
71.700 18.232368
71.705 18.195364
71.710 18.316669
71.715 18.124023
71.720 18.112041
71.725 17.190767
71.730 16.822723
71.735 16.623121
71.740 17.275946
71.745 17.100201
71.750 17.402908
71.755 17.83836
71.760 17.376957
71.765 17.111732
71.770 16.894093
71.775 16.502583
71.780 17.008156
71.785 16.791645
71.790 16.939457
71.795 17.07023
71.800 17.513815
71.805 17.697598
71.810 17.391022
71.815 17.141846
71.820 16.714191
71.825 16.547112
71.830 16.812986
71.835 16.450954
71.840 16.210289
71.845 16.710155
71.850 16.727421
71.855 17.036158
71.860 17.272215
71.865 17.466629
71.870 17.572365
71.875 17.508949
71.880 17.544886
71.885 17.994604
71.890 17.613274
71.895 17.220152
71.900 17.311506
71.905 17.808926
71.910 17.696249
71.915 17.079628
71.920 16.69651
71.925 17.499836
71.930 18.871471
71.935 18.72636
71.940 18.164324
71.945 18.060234
71.950 18.464653
71.955 18.445288
71.960 17.684433
71.965 16.508783
71.970 16.931612
71.975 16.816751
71.980 16.365437
71.985 16.602924
71.990 16.440638
71.995 17.064215
72.000 17.281765
72.005 16.93981
72.010 16.873827
72.015 16.922438
72.020 16.860559
72.025 16.766043
72.030 16.683182
72.035 17.010851
72.040 17.238396
72.045 17.349991
72.050 17.536776
72.055 17.668806
72.060 17.913759
72.065 17.24135
72.070 16.88855
72.075 16.538099
72.080 16.88092
72.085 16.849159
72.090 15.980997
72.095 15.393987
72.100 14.764685
72.105 15.081397
72.110 15.375469
72.115 14.92531
72.120 15.330131
72.125 15.97826
72.130 16.577011
72.135 17.459007
72.140 17.156651
72.145 16.683872
72.150 16.855656
72.155 16.508652
72.160 16.571226
72.165 16.527931
72.170 16.66641
72.175 16.997423
72.180 17.175943
72.185 17.067719
72.190 17.163649
72.195 17.630253
72.200 17.900282
72.205 17.864515
72.210 17.7055
72.215 17.758627
72.220 18.226711
72.225 18.411018
72.230 18.751955
72.235 18.666748
72.240 18.693602
72.245 19.008661
72.250 18.919895
72.255 18.555712
72.260 18.003271
72.265 17.500128
72.270 17.082367
72.275 17.182615
72.280 17.088453
72.285 16.651659
72.290 16.93387
72.295 17.309778
72.300 17.804585
72.305 18.300507
72.310 17.969343
72.315 18.265812
72.320 18.780087
72.325 18.290016
72.330 17.94525
72.335 17.646736
72.340 17.410517
72.345 17.89484
72.350 17.303957
72.355 16.950176
72.360 17.583817
72.365 17.381254
72.370 17.346951
72.375 17.521343
72.380 17.070198
72.385 17.939112
72.390 17.62315
72.395 17.425287
72.400 17.793331
72.405 17.38583
72.410 16.894358
72.415 16.383951
72.420 16.044132
72.425 16.137632
72.430 16.227812
72.435 15.995775
72.440 15.915313
72.445 16.499882
72.450 17.022564
72.455 17.104343
72.460 16.280197
72.465 15.768507
72.470 16.104103
72.475 16.155527
72.480 16.117802
72.485 16.245859
72.490 16.402969
72.495 17.074007
72.500 16.615454
72.505 16.775114
72.510 16.965481
72.515 16.359621
72.520 16.015406
72.525 16.516539
72.530 16.421925
72.535 17.0242
72.540 16.412304
72.545 16.257467
72.550 16.799417
72.555 16.753073
72.560 16.17861
72.565 15.857738
72.570 15.798165
72.575 16.213749
72.580 16.590624
72.585 16.811323
72.590 17.063398
72.595 17.273701
72.600 17.490108
72.605 17.597418
72.610 17.632303
72.615 17.391588
72.620 17.678762
72.625 17.303038
72.630 17.293966
72.635 17.20079
72.640 17.063038
72.645 17.140697
72.650 16.78051
72.655 16.13661
72.660 16.071861
72.665 16.440783
72.670 16.507933
72.675 16.073576
72.680 15.615249
72.685 15.247363
72.690 15.696615
72.695 15.777593
72.700 15.347328
72.705 15.357297
72.710 15.604582
72.715 16.475227
72.720 16.494671
72.725 16.196316
72.730 16.441608
72.735 16.868773
72.740 16.510191
72.745 16.546093
72.750 16.447723
72.755 16.607813
72.760 16.864122
72.765 16.63851
72.770 16.548016
72.775 16.343222
72.780 16.196854
72.785 15.863421
72.790 16.223963
72.795 16.280403
72.800 16.192423
72.805 16.56111
72.810 16.258051
72.815 16.35397
72.820 16.196184
72.825 16.131937
72.830 16.105957
72.835 16.009441
72.840 15.972645
72.845 16.506449
72.850 16.717396
72.855 16.604307
72.860 15.946209
72.865 15.828535
72.870 15.901109
72.875 15.931123
72.880 16.029013
72.885 15.970332
72.890 15.658641
72.895 15.709105
72.900 15.695823
72.905 16.367237
72.910 17.078598
72.915 17.043581
72.920 17.359978
72.925 18.489656
72.930 18.957493
72.935 18.510988
72.940 17.994431
72.945 17.729017
72.950 17.593458
72.955 17.656919
72.960 16.979477
72.965 17.398148
72.970 16.951902
72.975 16.267681
72.980 16.396553
72.985 16.333035
72.990 16.200518
72.995 16.437191
73.000 16.395258
