!@!!GADDS PLOTSO FILE: Chi integration type
!@!!Title/SampleName: map-f3
!@!!Comment: ?
!@!!User: Bruker Instrument Administrator
!@!!Site: University of Illinois Chicago
!@!!Frame: map-f3_01_000.gfrm
!@!!Wavelengths    1.54184   1.54056   1.54439
!@!!Frame angles: 2Theta: 63.000 Omega: 50.000 Phi: 0.000 Chi: 90.000
!@!!Integration range: 2Theta: 53.000 to 73.000  Gamma: -105.000 to -75.000
!@!!Integration method: bin normalized
!@!N
!@!SS
!@!M
!@!L 0.0 0.0 0.0 0.0
!@!XDegrees
!@!YCounts
53.000 2.385237
53.005 2.641511
53.010 3.061917
53.015 3.204736
53.020 3.167194
53.025 3.671474
53.030 3.856566
53.035 3.876149
53.040 3.770744
53.045 3.668066
53.050 4.088749
53.055 4.126107
53.060 4.179651
53.065 4.264796
53.070 4.206429
53.075 4.503238
53.080 4.744426
53.085 4.751457
53.090 5.019038
53.095 4.978531
53.100 4.821502
53.105 4.805554
53.110 4.58306
53.115 4.336713
53.120 3.834693
53.125 3.690766
53.130 3.82716
53.135 3.819725
53.140 3.738259
53.145 3.515081
53.150 3.560412
53.155 3.773657
53.160 3.838563
53.165 4.050516
53.170 4.222866
53.175 4.289237
53.180 4.603859
53.185 4.565681
53.190 4.27335
53.195 4.109356
53.200 3.995543
53.205 4.127458
53.210 4.268731
53.215 3.941388
53.220 3.892498
53.225 3.69332
53.230 3.568944
53.235 3.720711
53.240 3.446664
53.245 3.194202
53.250 3.347568
53.255 3.520401
53.260 3.817883
53.265 3.606801
53.270 3.455695
53.275 3.615052
53.280 4.111581
53.285 4.189268
53.290 4.060823
53.295 3.965238
53.300 4.016909
53.305 3.795011
53.310 3.681774
53.315 3.5198
53.320 3.744312
53.325 4.156829
53.330 4.463307
53.335 4.483705
53.340 4.570462
53.345 4.464477
53.350 4.390726
53.355 4.137414
53.360 3.664528
53.365 3.300093
53.370 3.375434
53.375 3.74497
53.380 3.696698
53.385 3.378489
53.390 3.438023
53.395 3.749423
53.400 4.02772
53.405 3.768486
53.410 3.506026
53.415 3.472831
53.420 3.56496
53.425 3.751827
53.430 3.70666
53.435 4.069566
53.440 4.129044
53.445 4.11581
53.450 4.090106
53.455 4.163056
53.460 3.937528
53.465 3.593594
53.470 3.379533
53.475 3.529008
53.480 3.657848
53.485 3.942403
53.490 4.054834
53.495 4.094777
53.500 4.140378
53.505 4.011853
53.510 4.147808
53.515 3.938118
53.520 3.77081
53.525 3.845257
53.530 4.001485
53.535 4.116591
53.540 4.198801
53.545 4.170725
53.550 4.231619
53.555 4.041004
53.560 3.985363
53.565 3.892189
53.570 3.963871
53.575 3.942739
53.580 3.961331
53.585 3.982425
53.590 3.717063
53.595 3.573856
53.600 3.376885
53.605 3.482454
53.610 3.505452
53.615 3.653541
53.620 3.916877
53.625 4.267848
53.630 4.265085
53.635 4.248953
53.640 3.946955
53.645 3.86137
53.650 3.543523
53.655 3.366593
53.660 3.138033
53.665 3.150552
53.670 3.208458
53.675 3.220853
53.680 3.265398
53.685 3.423715
53.690 3.545505
53.695 3.837786
53.700 4.081379
53.705 4.071101
53.710 4.07012
53.715 4.055589
53.720 3.960019
53.725 3.658985
53.730 3.233243
53.735 3.276505
53.740 3.508903
53.745 3.626
53.750 3.644381
53.755 3.718725
53.760 4.064146
53.765 4.27005
53.770 4.143668
53.775 3.945051
53.780 3.872814
53.785 3.798825
53.790 3.801874
53.795 3.768904
53.800 3.721444
53.805 3.559593
53.810 3.85988
53.815 4.238767
53.820 4.480898
53.825 4.634985
53.830 4.469714
53.835 4.436689
53.840 4.523406
53.845 4.244348
53.850 3.948336
53.855 3.75956
53.860 3.792512
53.865 3.945809
53.870 3.941391
53.875 3.835195
53.880 3.907115
53.885 3.958327
53.890 3.923797
53.895 3.773113
53.900 3.836178
53.905 4.053442
53.910 3.995468
53.915 4.029249
53.920 4.197295
53.925 4.289862
53.930 4.157038
53.935 4.051048
53.940 4.127554
53.945 4.293124
53.950 4.231895
53.955 4.334363
53.960 4.24993
53.965 4.496735
53.970 4.372056
53.975 4.221799
53.980 4.06891
53.985 4.003045
53.990 3.773076
53.995 3.632993
54.000 3.416047
54.005 3.270856
54.010 3.351307
54.015 3.46824
54.020 3.398137
54.025 3.267852
54.030 3.234306
54.035 3.270606
54.040 3.409204
54.045 3.617436
54.050 3.477684
54.055 3.549237
54.060 3.851558
54.065 4.061991
54.070 4.235484
54.075 4.808424
54.080 4.492377
54.085 4.765224
54.090 4.751423
54.095 4.873174
54.100 5.114931
54.105 4.770145
54.110 4.003476
54.115 3.824034
54.120 3.540674
54.125 3.615545
54.130 3.239635
54.135 3.013943
54.140 3.334719
54.145 3.817235
54.150 3.955351
54.155 4.179048
54.160 4.349418
54.165 4.45636
54.170 4.228633
54.175 3.91747
54.180 3.85206
54.185 3.826249
54.190 3.731213
54.195 3.713052
54.200 3.974954
54.205 4.226772
54.210 4.292017
54.215 4.400398
54.220 4.463623
54.225 4.67873
54.230 4.785877
54.235 4.733852
54.240 4.787867
54.245 4.964544
54.250 5.010275
54.255 4.63558
54.260 4.343648
54.265 4.314905
54.270 4.30228
54.275 4.256743
54.280 3.963388
54.285 4.186903
54.290 4.576263
54.295 4.458069
54.300 4.70454
54.305 4.820129
54.310 4.716046
54.315 4.909682
54.320 4.664073
54.325 4.430008
54.330 4.552781
54.335 4.190633
54.340 4.030043
54.345 4.198838
54.350 4.249716
54.355 4.485675
54.360 4.629899
54.365 4.733285
54.370 5.018034
54.375 5.27967
54.380 5.309653
54.385 5.228387
54.390 5.344358
54.395 5.546215
54.400 5.235384
54.405 5.228805
54.410 5.098582
54.415 4.833454
54.420 4.547878
54.425 4.059579
54.430 3.703945
54.435 3.504151
54.440 3.240124
54.445 3.083824
54.450 3.060756
54.455 3.048467
54.460 3.173581
54.465 3.252451
54.470 3.231097
54.475 3.242486
54.480 3.226361
54.485 3.143634
54.490 3.340021
54.495 3.390289
54.500 3.277354
54.505 3.404752
54.510 3.59009
54.515 3.871164
54.520 4.087173
54.525 4.072837
54.530 3.98878
54.535 4.175705
54.540 4.45604
54.545 4.002448
54.550 4.000571
54.555 3.839035
54.560 3.742374
54.565 3.56296
54.570 3.277374
54.575 3.008141
54.580 3.219131
54.585 3.158204
54.590 3.117736
54.595 3.470939
54.600 3.757141
54.605 3.848175
54.610 4.060823
54.615 4.060597
54.620 4.18993
54.625 4.100831
54.630 3.714239
54.635 3.498488
54.640 3.656321
54.645 3.393649
54.650 3.4304
54.655 3.401896
54.660 3.527848
54.665 3.737324
54.670 4.007538
54.675 3.954307
54.680 4.081603
54.685 4.212388
54.690 4.288357
54.695 4.189051
54.700 4.389968
54.705 4.479052
54.710 4.575414
54.715 4.805746
54.720 4.797529
54.725 4.854329
54.730 5.042347
54.735 4.866165
54.740 4.758306
54.745 4.671884
54.750 4.40728
54.755 4.280732
54.760 4.27112
54.765 4.103367
54.770 4.063986
54.775 4.167588
54.780 4.401959
54.785 4.280428
54.790 4.19567
54.795 4.088338
54.800 3.957759
54.805 3.996077
54.810 3.869992
54.815 3.856727
54.820 4.040965
54.825 4.153606
54.830 4.307158
54.835 4.220101
54.840 3.876826
54.845 3.85142
54.850 3.995127
54.855 3.982519
54.860 4.103142
54.865 4.039043
54.870 4.092892
54.875 4.410118
54.880 4.244761
54.885 4.273533
54.890 4.35701
54.895 4.116103
54.900 4.286359
54.905 4.347637
54.910 4.083455
54.915 4.056906
54.920 3.840956
54.925 3.911215
54.930 3.93602
54.935 4.210512
54.940 4.36393
54.945 4.563102
54.950 4.676167
54.955 4.712225
54.960 4.693489
54.965 4.610105
54.970 4.585595
54.975 4.718831
54.980 4.676858
54.985 4.570639
54.990 4.623018
54.995 4.673251
55.000 4.464384
55.005 4.090315
55.010 4.099934
55.015 4.322448
55.020 4.710363
55.025 4.595869
55.030 4.521955
55.035 4.610389
55.040 4.652763
55.045 4.464093
55.050 4.28563
55.055 4.016871
55.060 4.046872
55.065 4.11127
55.070 4.192282
55.075 4.095068
55.080 4.111
55.085 3.979952
55.090 3.862867
55.095 3.816608
55.100 3.720439
55.105 3.754546
55.110 3.691639
55.115 3.590688
55.120 3.53007
55.125 3.498211
55.130 3.47763
55.135 3.48305
55.140 3.531688
55.145 3.522303
55.150 3.661276
55.155 3.516494
55.160 3.26381
55.165 3.118053
55.170 3.449084
55.175 3.520954
55.180 3.660492
55.185 3.679154
55.190 4.024203
55.195 4.441936
55.200 4.512631
55.205 4.13616
55.210 4.179855
55.215 4.264087
55.220 4.106528
55.225 3.981056
55.230 3.949103
55.235 4.07488
55.240 4.146621
55.245 4.079519
55.250 4.190536
55.255 4.486487
55.260 4.504076
55.265 4.416331
55.270 4.44108
55.275 4.535941
55.280 4.719164
55.285 4.425014
55.290 4.496953
55.295 4.739533
55.300 4.827048
55.305 4.618324
55.310 4.315924
55.315 4.306548
55.320 4.459844
55.325 4.364372
55.330 3.979682
55.335 3.954729
55.340 4.189219
55.345 4.270496
55.350 4.466147
55.355 4.760248
55.360 4.999531
55.365 5.146833
55.370 4.973121
55.375 4.945709
55.380 4.850693
55.385 4.489505
55.390 4.014882
55.395 3.832509
55.400 3.677314
55.405 3.968898
55.410 4.150508
55.415 4.182744
55.420 4.262995
55.425 4.474112
55.430 4.629305
55.435 4.928254
55.440 4.600161
55.445 4.427307
55.450 4.468074
55.455 4.425415
55.460 4.360758
55.465 4.307178
55.470 4.270455
55.475 4.402109
55.480 4.369514
55.485 4.338048
55.490 4.342309
55.495 4.327636
55.500 4.516487
55.505 4.562681
55.510 4.838185
55.515 4.851563
55.520 4.994135
55.525 5.236454
55.530 5.016308
55.535 4.937829
55.540 4.828785
55.545 4.447802
55.550 4.635557
55.555 4.468474
55.560 4.457183
55.565 4.701554
55.570 4.658211
55.575 4.615627
55.580 4.987877
55.585 4.963123
55.590 5.052616
55.595 5.215547
55.600 5.015515
55.605 5.259189
55.610 5.329703
55.615 5.000474
55.620 4.713832
55.625 4.599847
55.630 4.127662
55.635 4.208763
55.640 3.936191
55.645 3.969687
55.650 4.026922
55.655 4.047133
55.660 4.022788
55.665 4.590281
55.670 4.593123
55.675 4.699296
55.680 4.708778
55.685 4.996215
55.690 5.027694
55.695 5.326588
55.700 5.166327
55.705 5.369401
55.710 5.304638
55.715 5.214951
55.720 5.15073
55.725 5.209176
55.730 4.82435
55.735 4.658597
55.740 4.265024
55.745 4.261307
55.750 4.101155
55.755 4.218907
55.760 4.46219
55.765 4.552544
55.770 4.716114
55.775 4.935578
55.780 4.861117
55.785 4.933177
55.790 4.800909
55.795 4.841969
55.800 4.800297
55.805 4.492408
55.810 4.435885
55.815 4.473193
55.820 4.802706
55.825 4.60543
55.830 4.450808
55.835 5.077463
55.840 5.412856
55.845 5.430471
55.850 5.369025
55.855 5.282791
55.860 5.238591
55.865 5.051037
55.870 4.654325
55.875 4.696781
55.880 4.796414
55.885 4.795833
55.890 4.698545
55.895 4.829656
55.900 4.856688
55.905 4.56605
55.910 4.495306
55.915 4.899254
55.920 4.853807
55.925 4.979813
55.930 5.317165
55.935 5.414647
55.940 5.371026
55.945 5.180681
55.950 4.625143
55.955 4.572388
55.960 4.486978
55.965 4.166863
55.970 4.057668
55.975 4.228551
55.980 4.513626
55.985 4.657715
55.990 4.487873
55.995 4.513176
56.000 4.57112
56.005 4.809885
56.010 4.680991
56.015 4.70533
56.020 4.7991
56.025 4.703546
56.030 4.273469
56.035 4.187103
56.040 4.006628
56.045 4.023791
56.050 3.647041
56.055 3.449633
56.060 3.72204
56.065 4.193686
56.070 4.223501
56.075 4.402082
56.080 4.376176
56.085 4.718858
56.090 4.850145
56.095 4.720347
56.100 4.776751
56.105 4.919372
56.110 4.973808
56.115 5.167589
56.120 5.283887
56.125 5.411063
56.130 5.38623
56.135 5.110455
56.140 4.786032
56.145 4.759659
56.150 4.672342
56.155 4.34244
56.160 4.294156
56.165 4.213203
56.170 4.369675
56.175 4.635289
56.180 4.453792
56.185 4.167063
56.190 4.419252
56.195 4.287715
56.200 4.152643
56.205 4.207979
56.210 4.529664
56.215 4.65562
56.220 4.812807
56.225 4.689928
56.230 4.776166
56.235 4.978335
56.240 4.779897
56.245 4.41429
56.250 4.342885
56.255 4.588481
56.260 4.985349
56.265 5.314273
56.270 5.219675
56.275 5.119739
56.280 5.01769
56.285 4.999146
56.290 4.716132
56.295 4.253782
56.300 4.313179
56.305 4.291556
56.310 4.512255
56.315 4.725298
56.320 4.851423
56.325 5.100824
56.330 5.046259
56.335 4.784592
56.340 4.710971
56.345 4.609962
56.350 4.556785
56.355 4.692088
56.360 4.7655
56.365 4.910703
56.370 4.758633
56.375 4.836869
56.380 4.725095
56.385 4.701667
56.390 4.671819
56.395 4.577757
56.400 4.497552
56.405 4.845633
56.410 4.947547
56.415 5.061836
56.420 4.625701
56.425 4.65321
56.430 4.551332
56.435 4.450664
56.440 4.407201
56.445 4.37997
56.450 4.20498
56.455 4.424894
56.460 4.093554
56.465 4.059785
56.470 4.034682
56.475 3.882013
56.480 3.86407
56.485 4.16867
56.490 4.194201
56.495 4.619436
56.500 4.952557
56.505 5.308161
56.510 5.311899
56.515 5.360905
56.520 5.314721
56.525 5.367264
56.530 5.105444
56.535 5.281233
56.540 5.238609
56.545 5.37663
56.550 5.487483
56.555 5.565792
56.560 5.539411
56.565 5.242006
56.570 4.649655
56.575 4.4909
56.580 4.455737
56.585 4.299937
56.590 4.028655
56.595 3.944228
56.600 4.064667
56.605 4.518283
56.610 4.382335
56.615 4.194497
56.620 4.124907
56.625 4.237175
56.630 4.472431
56.635 4.405539
56.640 4.205136
56.645 4.239744
56.650 4.314675
56.655 4.522488
56.660 4.627845
56.665 4.78029
56.670 5.234931
56.675 5.501806
56.680 5.572386
56.685 5.53842
56.690 5.531777
56.695 5.671004
56.700 5.165717
56.705 4.941108
56.710 4.874254
56.715 4.931763
56.720 5.112519
56.725 4.991646
56.730 4.839337
56.735 4.975967
56.740 4.942706
56.745 4.646351
56.750 4.58918
56.755 4.498581
56.760 4.471944
56.765 4.651639
56.770 5.010354
56.775 5.325596
56.780 5.230766
56.785 5.543976
56.790 5.608201
56.795 5.667025
56.800 5.249024
56.805 4.900817
56.810 5.026946
56.815 5.322264
56.820 5.325635
56.825 5.688973
56.830 5.95565
56.835 6.083726
56.840 5.967045
56.845 5.723205
56.850 5.531302
56.855 5.31993
56.860 4.852469
56.865 4.849355
56.870 5.176048
56.875 5.069899
56.880 4.972293
56.885 4.905984
56.890 4.558447
56.895 4.421841
56.900 4.294337
56.905 4.215914
56.910 4.16118
56.915 4.20033
56.920 4.359873
56.925 4.525509
56.930 4.472348
56.935 4.349318
56.940 4.390273
56.945 4.583694
56.950 4.749749
56.955 4.817604
56.960 4.837276
56.965 5.067129
56.970 5.216563
56.975 5.063944
56.980 4.977612
56.985 4.943425
56.990 5.150707
56.995 5.234022
57.000 5.134715
57.005 4.992665
57.010 5.192737
57.015 5.198446
57.020 5.270549
57.025 5.037964
57.030 4.905461
57.035 5.166775
57.040 5.266328
57.045 5.212949
57.050 5.189416
57.055 4.974596
57.060 4.970517
57.065 4.852757
57.070 4.570762
57.075 4.677037
57.080 4.61413
57.085 4.751816
57.090 4.934723
57.095 5.272953
57.100 5.347407
57.105 5.592455
57.110 5.48479
57.115 5.602112
57.120 5.605257
57.125 5.402867
57.130 5.113523
57.135 5.21005
57.140 5.184826
57.145 5.278789
57.150 4.915598
57.155 5.016103
57.160 5.09996
57.165 5.458745
57.170 5.502355
57.175 5.251777
57.180 5.240211
57.185 5.282464
57.190 4.971895
57.195 5.036671
57.200 4.78633
57.205 4.687758
57.210 4.833003
57.215 4.95961
57.220 5.301363
57.225 5.388397
57.230 5.048372
57.235 5.186632
57.240 5.461139
57.245 5.530194
57.250 5.589699
57.255 5.181616
57.260 5.236196
57.265 5.482817
57.270 5.393776
57.275 5.386362
57.280 5.000858
57.285 4.907537
57.290 5.083834
57.295 5.184278
57.300 5.147743
57.305 4.865793
57.310 4.613826
57.315 4.80231
57.320 4.635191
57.325 4.401831
57.330 4.28089
57.335 4.093791
57.340 4.13833
57.345 4.166368
57.350 4.356153
57.355 4.908483
57.360 5.327499
57.365 5.436742
57.370 5.442327
57.375 5.603348
57.380 5.677551
57.385 5.717954
57.390 5.57484
57.395 5.495055
57.400 5.631253
57.405 5.755016
57.410 6.042852
57.415 6.066896
57.420 5.743869
57.425 5.804991
57.430 5.725114
57.435 5.610235
57.440 5.402741
57.445 5.131329
57.450 5.102863
57.455 5.504414
57.460 5.357578
57.465 5.391109
57.470 5.142013
57.475 5.330549
57.480 5.316697
57.485 5.343406
57.490 5.211089
57.495 5.281017
57.500 5.245933
57.505 5.366304
57.510 5.275341
57.515 5.291377
57.520 5.162404
57.525 4.951795
57.530 4.849647
57.535 4.866537
57.540 4.984964
57.545 5.231567
57.550 5.137411
57.555 5.003562
57.560 4.919783
57.565 5.023122
57.570 5.029119
57.575 4.762689
57.580 4.633756
57.585 4.514256
57.590 4.597961
57.595 4.688226
57.600 4.588015
57.605 4.788222
57.610 4.770387
57.615 4.576888
57.620 4.918539
57.625 5.176033
57.630 5.165864
57.635 5.04378
57.640 4.788187
57.645 5.004692
57.650 5.430786
57.655 5.839501
57.660 5.837786
57.665 6.040767
57.670 6.14795
57.675 6.286205
57.680 6.308374
57.685 6.231423
57.690 5.917294
57.695 5.843129
57.700 5.710029
57.705 5.512729
57.710 5.502324
57.715 5.238833
57.720 4.956229
57.725 4.648607
57.730 4.351574
57.735 4.451757
57.740 4.406876
57.745 4.216692
57.750 4.034237
57.755 4.123903
57.760 4.114718
57.765 4.094924
57.770 4.141386
57.775 4.3955
57.780 4.496441
57.785 4.719884
57.790 4.760262
57.795 4.857052
57.800 5.284103
57.805 5.306633
57.810 5.205184
57.815 5.282557
57.820 5.401282
57.825 5.636081
57.830 5.788548
57.835 5.570116
57.840 6.010464
57.845 6.398135
57.850 6.166912
57.855 5.962192
57.860 5.709812
57.865 5.373617
57.870 5.134077
57.875 4.73202
57.880 4.625093
57.885 4.745014
57.890 4.649011
57.895 4.784812
57.900 5.023061
57.905 5.140676
57.910 4.855049
57.915 4.744484
57.920 4.824729
57.925 4.853849
57.930 4.988766
57.935 5.006508
57.940 4.944415
57.945 5.277872
57.950 5.533364
57.955 5.374393
57.960 5.269194
57.965 5.203867
57.970 5.263929
57.975 5.237739
57.980 5.06671
57.985 4.858558
57.990 5.262427
57.995 5.408906
58.000 5.507421
58.005 5.931268
58.010 6.005761
58.015 6.008981
58.020 6.198268
58.025 6.425154
58.030 6.426839
58.035 6.533197
58.040 6.537693
58.045 6.678068
58.050 6.868414
58.055 6.965705
58.060 6.723997
58.065 6.769381
58.070 6.665061
58.075 6.261465
58.080 6.008669
58.085 5.991391
58.090 5.698081
58.095 5.531653
58.100 5.618592
58.105 5.942297
58.110 6.024581
58.115 6.017966
58.120 5.740142
58.125 5.730411
58.130 5.63117
58.135 5.471179
58.140 5.286273
58.145 5.736848
58.150 5.957408
58.155 6.089326
58.160 6.085471
58.165 6.10217
58.170 6.200721
58.175 6.092916
58.180 6.028658
58.185 6.054415
58.190 6.03456
58.195 6.386196
58.200 6.767217
58.205 6.589808
58.210 6.862538
58.215 6.697639
58.220 6.561675
58.225 6.871114
58.230 6.70062
58.235 6.410452
58.240 6.444044
58.245 6.153235
58.250 5.805348
58.255 5.632299
58.260 5.527845
58.265 5.635143
58.270 5.67078
58.275 5.287665
58.280 5.261533
58.285 5.746125
58.290 5.861013
58.295 5.70083
58.300 5.442066
58.305 5.360056
58.310 5.645619
58.315 5.993325
58.320 5.997728
58.325 6.090626
58.330 6.190747
58.335 6.168009
58.340 6.098828
58.345 5.963231
58.350 5.624403
58.355 5.591704
58.360 5.281259
58.365 5.044247
58.370 5.12626
58.375 5.315622
58.380 5.252892
58.385 5.357975
58.390 5.205302
58.395 5.624692
58.400 5.913361
58.405 6.220126
58.410 5.986776
58.415 5.88529
58.420 5.829157
58.425 6.02141
58.430 5.8817
58.435 5.772429
58.440 5.609848
58.445 5.958941
58.450 6.187414
58.455 5.897405
58.460 6.34356
58.465 6.495167
58.470 6.623371
58.475 6.894844
58.480 6.765774
58.485 6.710793
58.490 7.065829
58.495 6.885947
58.500 7.140955
58.505 7.416391
58.510 7.424177
58.515 7.412086
58.520 7.744702
58.525 7.690169
58.530 7.210202
58.535 7.058342
58.540 7.100422
58.545 7.166573
58.550 7.532403
58.555 7.291486
58.560 7.548428
58.565 7.945336
58.570 7.936968
58.575 7.845794
58.580 8.241849
58.585 8.512544
58.590 8.784119
58.595 9.137495
58.600 9.018261
58.605 8.989713
58.610 9.235297
58.615 9.074574
58.620 9.009456
58.625 8.961257
58.630 9.164791
58.635 9.375714
58.640 9.590109
58.645 9.310012
58.650 9.059528
58.655 8.820049
58.660 9.119881
58.665 9.341103
58.670 9.384311
58.675 9.256631
58.680 9.508724
58.685 9.775399
58.690 10.117889
58.695 10.360443
58.700 10.255333
58.705 10.005044
58.710 10.247429
58.715 9.898842
58.720 9.997956
58.725 9.886843
58.730 9.252543
58.735 9.382029
58.740 9.633162
58.745 9.2828
58.750 9.370586
58.755 9.337134
58.760 9.40565
58.765 9.541353
58.770 9.196383
58.775 8.97556
58.780 9.20888
58.785 9.118627
58.790 8.836463
58.795 8.735577
58.800 8.272018
58.805 8.157485
58.810 8.326652
58.815 8.587047
58.820 8.735141
58.825 8.771749
58.830 8.957597
58.835 9.383858
58.840 9.461502
58.845 8.889533
58.850 8.567026
58.855 8.533183
58.860 8.681467
58.865 8.323894
58.870 8.337757
58.875 8.452371
58.880 9.284024
58.885 9.443257
58.890 9.539889
58.895 9.596116
58.900 9.516752
58.905 9.526456
58.910 9.344464
58.915 8.757283
58.920 8.401298
58.925 8.147503
58.930 8.034648
58.935 7.923213
58.940 7.980045
58.945 8.410648
58.950 8.589744
58.955 8.446763
58.960 8.246968
58.965 8.407946
58.970 8.345037
58.975 8.122894
58.980 7.793268
58.985 7.728183
58.990 7.539959
58.995 7.38583
59.000 6.707098
59.005 6.486147
59.010 6.097083
59.015 6.013271
59.020 5.74289
59.025 6.201736
59.030 6.495029
59.035 7.065017
59.040 7.196704
59.045 7.082939
59.050 6.919448
59.055 7.184022
59.060 6.918067
59.065 6.613644
59.070 5.990076
59.075 6.07531
59.080 6.186793
59.085 6.065013
59.090 5.87369
59.095 6.084446
59.100 6.195034
59.105 6.358869
59.110 5.995787
59.115 5.897748
59.120 5.849226
59.125 6.061911
59.130 6.114902
59.135 6.307069
59.140 6.276156
59.145 6.593901
59.150 6.612485
59.155 6.287305
59.160 5.747886
59.165 5.531792
59.170 5.125948
59.175 4.96688
59.180 5.022821
59.185 5.017833
59.190 5.281401
59.195 5.267297
59.200 5.315442
59.205 5.714736
59.210 5.845518
59.215 5.65979
59.220 5.887124
59.225 5.780769
59.230 5.661768
59.235 5.722165
59.240 5.680574
59.245 5.446093
59.250 5.330025
59.255 5.12833
59.260 5.24034
59.265 5.476579
59.270 5.263486
59.275 5.455746
59.280 5.737225
59.285 5.826637
59.290 5.751559
59.295 5.62973
59.300 5.859269
59.305 5.849033
59.310 5.659718
59.315 5.799432
59.320 5.647874
59.325 5.78927
59.330 5.965051
59.335 5.835716
59.340 5.752354
59.345 5.735269
59.350 5.404362
59.355 5.76686
59.360 5.970133
59.365 5.886268
59.370 5.840226
59.375 5.932848
59.380 5.699206
59.385 5.854095
59.390 5.635079
59.395 5.80103
59.400 5.693284
59.405 5.706192
59.410 5.839437
59.415 6.250374
59.420 6.507645
59.425 6.836442
59.430 6.737058
59.435 7.036003
59.440 6.587096
59.445 6.446796
59.450 6.097609
59.455 5.78663
59.460 5.568509
59.465 5.370109
59.470 5.367409
59.475 5.893548
59.480 6.019792
59.485 6.418165
59.490 6.330887
59.495 6.113305
59.500 6.35182
59.505 6.25427
59.510 6.041494
59.515 6.161446
59.520 6.256457
59.525 6.37138
59.530 6.67469
59.535 6.715398
59.540 6.632201
59.545 6.496127
59.550 6.528411
59.555 6.265944
59.560 6.34289
59.565 5.866447
59.570 6.076394
59.575 6.140421
59.580 6.03206
59.585 5.743775
59.590 5.494019
59.595 5.634951
59.600 5.760481
59.605 5.83343
59.610 5.967095
59.615 6.021734
59.620 5.886418
59.625 5.777373
59.630 5.560161
59.635 5.331467
59.640 4.798418
59.645 4.645089
59.650 4.756076
59.655 5.045149
59.660 5.144223
59.665 5.393776
59.670 5.288419
59.675 5.693248
59.680 5.937611
59.685 5.825775
59.690 5.915233
59.695 5.998236
59.700 6.101418
59.705 6.218806
59.710 5.903301
59.715 5.707131
59.720 5.452373
59.725 5.248702
59.730 5.254905
59.735 4.906886
59.740 4.990113
59.745 5.044475
59.750 5.235652
59.755 5.463828
59.760 5.492579
59.765 5.709097
59.770 5.58726
59.775 5.700244
59.780 5.626956
59.785 5.751056
59.790 5.842572
59.795 5.826658
59.800 5.79476
59.805 5.906038
59.810 5.640423
59.815 5.685911
59.820 5.838056
59.825 5.703674
59.830 5.804378
59.835 5.961704
59.840 6.518153
59.845 6.813857
59.850 6.674392
59.855 6.372413
59.860 6.343745
59.865 6.138889
59.870 6.007172
59.875 5.760393
59.880 5.77394
59.885 5.571766
59.890 5.673501
59.895 5.892676
59.900 5.873281
59.905 5.564079
59.910 5.139772
59.915 5.503322
59.920 5.848366
59.925 5.906485
59.930 5.992959
59.935 6.29263
59.940 6.515138
59.945 6.599746
59.950 6.246946
59.955 6.467502
59.960 6.640158
59.965 6.620207
59.970 6.404698
59.975 6.44501
59.980 6.615533
59.985 6.711268
59.990 6.789167
59.995 6.696195
60.000 6.620995
60.005 6.826472
60.010 6.799671
60.015 6.510763
60.020 6.445517
60.025 6.260709
60.030 6.58522
60.035 6.571886
60.040 6.667994
60.045 6.699953
60.050 6.599584
60.055 6.469996
60.060 6.276126
60.065 5.770506
60.070 5.692405
60.075 5.405832
60.080 5.575389
60.085 5.854403
60.090 6.14896
60.095 6.308183
60.100 6.586272
60.105 6.74724
60.110 6.747761
60.115 6.658547
60.120 6.533295
60.125 6.385058
60.130 6.275861
60.135 6.023143
60.140 5.932552
60.145 6.0269
60.150 5.840774
60.155 5.531861
60.160 5.323768
60.165 5.330935
60.170 5.425441
60.175 5.35802
60.180 5.228044
60.185 5.521139
60.190 5.823365
60.195 6.151945
60.200 6.30579
60.205 6.24644
60.210 6.478754
60.215 6.824533
60.220 6.86022
60.225 7.173813
60.230 6.904111
60.235 6.879485
60.240 7.196347
60.245 7.10059
60.250 6.801816
60.255 6.627827
60.260 6.268425
60.265 6.024645
60.270 5.936205
60.275 5.728614
60.280 5.74164
60.285 6.015662
60.290 5.880946
60.295 5.988487
60.300 6.12706
60.305 6.062291
60.310 6.052101
60.315 5.739417
60.320 5.605238
60.325 5.864447
60.330 5.452039
60.335 5.633109
60.340 5.986197
60.345 6.022495
60.350 6.268071
60.355 6.53832
60.360 6.412791
60.365 7.051331
60.370 6.728956
60.375 6.480117
60.380 6.548336
60.385 6.396696
60.390 6.03288
60.395 6.27805
60.400 5.995179
60.405 6.097122
60.410 6.233301
60.415 6.337134
60.420 6.297787
60.425 6.425733
60.430 6.470243
60.435 6.289276
60.440 6.073195
60.445 6.180811
60.450 6.05571
60.455 5.931576
60.460 5.824185
60.465 5.642808
60.470 5.963224
60.475 6.182194
60.480 5.918778
60.485 6.0043
60.490 6.014522
60.495 6.279107
60.500 6.208217
60.505 6.580585
60.510 6.804823
60.515 6.846198
60.520 6.854085
60.525 6.766865
60.530 6.457461
60.535 6.31275
60.540 5.829266
60.545 5.79008
60.550 5.746638
60.555 5.983601
60.560 6.238088
60.565 6.393332
60.570 6.918703
60.575 6.856617
60.580 6.845414
60.585 6.891014
60.590 6.60888
60.595 6.559504
60.600 6.51221
60.605 6.174495
60.610 6.456531
60.615 6.391568
60.620 6.364836
60.625 6.32813
60.630 6.187221
60.635 6.299807
60.640 6.728446
60.645 6.392069
60.650 6.389659
60.655 6.345886
60.660 6.46893
60.665 6.479508
60.670 5.953465
60.675 5.631337
60.680 5.74526
60.685 5.817954
60.690 6.046336
60.695 6.158365
60.700 6.368669
60.705 6.659027
60.710 6.756597
60.715 6.682598
60.720 6.543801
60.725 6.453552
60.730 5.875193
60.735 5.632761
60.740 5.866395
60.745 5.953289
60.750 6.033777
60.755 6.109291
60.760 6.352292
60.765 6.596097
60.770 6.970524
60.775 7.035292
60.780 7.036889
60.785 7.210608
60.790 6.87018
60.795 6.491197
60.800 6.737876
60.805 6.683102
60.810 6.26919
60.815 5.955443
60.820 6.007256
60.825 6.170579
60.830 6.243591
60.835 6.18417
60.840 6.094602
60.845 6.646604
60.850 7.170936
60.855 7.106819
60.860 7.450904
60.865 7.734391
60.870 7.723882
60.875 7.60328
60.880 7.472015
60.885 6.983505
60.890 6.602409
60.895 6.393079
60.900 6.315318
60.905 6.134842
60.910 6.12634
60.915 6.342393
60.920 6.572524
60.925 7.052047
60.930 7.262344
60.935 7.097946
60.940 7.13137
60.945 7.104676
60.950 6.709546
60.955 6.788861
60.960 6.544197
60.965 6.780651
60.970 7.031015
60.975 7.106816
60.980 7.179509
60.985 7.381407
60.990 7.453657
60.995 6.895023
61.000 6.209064
61.005 6.240012
61.010 6.494816
61.015 6.545795
61.020 6.256557
61.025 6.084909
61.030 6.82894
61.035 7.108384
61.040 7.340613
61.045 7.549877
61.050 7.465354
61.055 7.586141
61.060 7.441333
61.065 7.473989
61.070 7.315958
61.075 7.103974
61.080 6.950842
61.085 6.883008
61.090 6.781152
61.095 6.96991
61.100 6.858909
61.105 6.936826
61.110 6.68826
61.115 6.474349
61.120 6.881009
61.125 7.06422
61.130 6.861796
61.135 6.811727
61.140 6.991539
61.145 6.909582
61.150 6.878554
61.155 6.932534
61.160 7.347758
61.165 7.577269
61.170 7.950072
61.175 7.930889
61.180 7.890314
61.185 7.821677
61.190 7.376032
61.195 7.129621
61.200 7.247582
61.205 7.12649
61.210 6.706628
61.215 6.714799
61.220 6.681601
61.225 6.614054
61.230 6.374827
61.235 6.157412
61.240 5.671597
61.245 5.765804
61.250 5.815932
61.255 5.77845
61.260 6.182145
61.265 6.697234
61.270 6.753298
61.275 6.918965
61.280 7.236815
61.285 7.616601
61.290 8.013166
61.295 7.730385
61.300 7.115942
61.305 6.880615
61.310 6.908524
61.315 6.747624
61.320 6.573046
61.325 6.458276
61.330 6.686886
61.335 7.010352
61.340 7.368015
61.345 7.41573
61.350 7.410234
61.355 7.818758
61.360 7.743366
61.365 7.434096
61.370 7.712755
61.375 7.285357
61.380 7.332725
61.385 7.369225
61.390 6.920303
61.395 6.826788
61.400 6.826071
61.405 6.22
61.410 6.378538
61.415 6.17339
61.420 6.034936
61.425 6.116096
61.430 6.151743
61.435 6.29684
61.440 6.44713
61.445 6.648302
61.450 6.548604
61.455 6.557446
61.460 6.63718
61.465 6.673802
61.470 6.604228
61.475 6.915098
61.480 6.661894
61.485 6.851513
61.490 6.882246
61.495 6.776732
61.500 6.759943
61.505 6.881326
61.510 6.854441
61.515 7.024652
61.520 7.051402
61.525 7.030721
61.530 6.979274
61.535 7.054933
61.540 7.092164
61.545 6.7597
61.550 6.764657
61.555 6.778967
61.560 6.945591
61.565 6.798594
61.570 7.042269
61.575 7.334246
61.580 7.427846
61.585 7.364245
61.590 7.154436
61.595 7.533737
61.600 7.786075
61.605 7.607412
61.610 7.40016
61.615 7.571099
61.620 7.59495
61.625 7.53388
61.630 7.267113
61.635 7.179925
61.640 6.764268
61.645 6.414113
61.650 6.270505
61.655 6.170467
61.660 6.071315
61.665 5.710402
61.670 5.935491
61.675 6.409355
61.680 6.660787
61.685 6.393656
61.690 6.467074
61.695 6.866078
61.700 7.065706
61.705 6.927511
61.710 6.468944
61.715 6.250953
61.720 6.36565
61.725 6.322349
61.730 6.291662
61.735 6.456696
61.740 6.640048
61.745 7.09736
61.750 7.278264
61.755 7.534873
61.760 7.511709
61.765 7.38273
61.770 7.007173
61.775 6.79044
61.780 6.789003
61.785 6.714348
61.790 6.464172
61.795 6.561562
61.800 6.556078
61.805 6.983392
61.810 7.045074
61.815 6.967595
61.820 7.023787
61.825 7.226303
61.830 7.141464
61.835 7.059565
61.840 7.014631
61.845 6.887775
61.850 6.711785
61.855 7.204381
61.860 7.339868
61.865 7.351706
61.870 7.623903
61.875 7.570828
61.880 7.673843
61.885 7.775561
61.890 7.18307
61.895 7.302536
61.900 7.262113
61.905 6.789349
61.910 6.635826
61.915 6.527526
61.920 6.433347
61.925 6.246738
61.930 6.175272
61.935 6.623882
61.940 6.57616
61.945 6.328868
61.950 6.137119
61.955 6.415648
61.960 6.481348
61.965 6.497423
61.970 6.5391
61.975 6.934132
61.980 7.091027
61.985 7.076023
61.990 7.076075
61.995 7.317581
62.000 7.069736
62.005 6.669038
62.010 6.851299
62.015 7.078494
62.020 7.318396
62.025 7.210264
62.030 7.062026
62.035 7.246469
62.040 6.949737
62.045 6.538609
62.050 6.290708
62.055 6.033496
62.060 6.071432
62.065 6.0795
62.070 6.181581
62.075 6.432422
62.080 6.512898
62.085 6.750799
62.090 6.761451
62.095 6.443226
62.100 6.348466
62.105 5.920924
62.110 5.906136
62.115 5.921158
62.120 6.166982
62.125 6.562518
62.130 6.736771
62.135 6.561474
62.140 7.062685
62.145 7.108119
62.150 7.073946
62.155 6.82318
62.160 6.790463
62.165 7.097453
62.170 7.337151
62.175 7.191466
62.180 7.682557
62.185 7.880641
62.190 7.80344
62.195 7.432182
62.200 7.457238
62.205 7.572494
62.210 7.655062
62.215 7.53765
62.220 7.430054
62.225 7.547011
62.230 7.612021
62.235 7.426745
62.240 7.295146
62.245 7.348811
62.250 7.171883
62.255 7.255073
62.260 7.363298
62.265 7.474893
62.270 7.470859
62.275 7.234037
62.280 7.257946
62.285 7.115287
62.290 6.858009
62.295 6.504464
62.300 6.449984
62.305 6.649752
62.310 7.104436
62.315 7.031539
62.320 7.071327
62.325 7.176966
62.330 7.272143
62.335 7.170576
62.340 6.752213
62.345 6.27396
62.350 5.946047
62.355 6.047106
62.360 6.618289
62.365 7.079428
62.370 7.40655
62.375 7.775434
62.380 7.790102
62.385 7.777891
62.390 7.638216
62.395 7.780133
62.400 7.536968
62.405 7.285792
62.410 7.148546
62.415 7.627296
62.420 7.669832
62.425 7.634418
62.430 6.954636
62.435 6.981198
62.440 7.052773
62.445 7.203187
62.450 7.44236
62.455 7.980713
62.460 8.455021
62.465 8.541502
62.470 8.789497
62.475 9.176515
62.480 8.751263
62.485 8.279879
62.490 7.971589
62.495 7.565768
62.500 7.44281
62.505 6.69901
62.510 6.409567
62.515 6.616633
62.520 6.591037
62.525 6.448858
62.530 6.625674
62.535 6.779293
62.540 7.114806
62.545 7.471916
62.550 7.727871
62.555 7.889924
62.560 8.018673
62.565 7.892917
62.570 7.939048
62.575 7.844513
62.580 7.679437
62.585 7.26712
62.590 6.913076
62.595 6.873716
62.600 6.978068
62.605 7.010497
62.610 7.174413
62.615 6.890568
62.620 6.862648
62.625 7.724352
62.630 7.812337
62.635 7.507734
62.640 7.547363
62.645 7.746065
62.650 8.142046
62.655 8.5099
62.660 7.799174
62.665 7.785952
62.670 7.979542
62.675 8.302098
62.680 8.055322
62.685 7.988489
62.690 7.717943
62.695 7.873882
62.700 7.50747
62.705 7.180997
62.710 7.115916
62.715 7.276555
62.720 6.992846
62.725 6.631525
62.730 6.871228
62.735 7.262001
62.740 7.597168
62.745 7.560065
62.750 7.34228
62.755 7.612019
62.760 7.949903
62.765 7.557621
62.770 7.090737
62.775 6.701948
62.780 6.701297
62.785 7.03741
62.790 6.963815
62.795 6.927095
62.800 7.110789
62.805 7.36764
62.810 7.342652
62.815 6.965549
62.820 6.850431
62.825 7.051261
62.830 7.220773
62.835 7.340745
62.840 7.148577
62.845 7.654569
62.850 7.768304
62.855 7.554346
62.860 7.534085
62.865 7.509268
62.870 7.378334
62.875 7.47334
62.880 7.110617
62.885 6.979629
62.890 6.845098
62.895 6.861835
62.900 6.789805
62.905 7.057995
62.910 7.491428
62.915 7.664721
62.920 8.279153
62.925 8.587722
62.930 8.366448
62.935 7.973213
62.940 7.532453
62.945 6.85665
62.950 6.501242
62.955 6.086111
62.960 5.910123
62.965 5.909515
62.970 6.831479
62.975 7.198368
62.980 7.38313
62.985 7.654795
62.990 7.524154
62.995 7.696537
63.000 7.500327
63.005 6.769886
63.010 7.069886
63.015 7.204321
63.020 7.357701
63.025 7.555812
63.030 7.787654
63.035 8.566359
63.040 8.884302
63.045 8.441047
63.050 8.143267
63.055 7.872691
63.060 7.788268
63.065 7.137464
63.070 6.481708
63.075 6.326532
63.080 6.707723
63.085 6.864119
63.090 6.795306
63.095 6.725814
63.100 7.05013
63.105 7.050909
63.110 6.896138
63.115 6.608372
63.120 6.497396
63.125 6.572026
63.130 6.424879
63.135 6.576631
63.140 6.544201
63.145 6.520476
63.150 6.757257
63.155 7.3939
63.160 7.515999
63.165 8.040597
63.170 7.912312
63.175 8.23072
63.180 8.552353
63.185 8.322557
63.190 8.040081
63.195 8.078976
63.200 8.259465
63.205 8.471571
63.210 8.42786
63.215 8.639484
63.220 8.545567
63.225 8.47889
63.230 8.285294
63.235 7.950877
63.240 7.919739
63.245 7.484963
63.250 7.026534
63.255 7.331047
63.260 7.194768
63.265 7.601216
63.270 7.529675
63.275 7.776253
63.280 8.107108
63.285 8.164912
63.290 7.682069
63.295 7.59786
63.300 7.459395
63.305 7.252392
63.310 7.4139
63.315 7.651147
63.320 8.106036
63.325 8.540727
63.330 8.52822
63.335 8.076044
63.340 7.97047
63.345 7.681041
63.350 7.295822
63.355 7.251971
63.360 7.237756
63.365 7.696239
63.370 8.213675
63.375 8.449368
63.380 8.27519
63.385 8.661132
63.390 8.372063
63.395 8.414495
63.400 7.703125
63.405 7.549235
63.410 7.768046
63.415 7.957007
63.420 7.984085
63.425 8.169933
63.430 8.497985
63.435 9.018552
63.440 9.108395
63.445 8.871525
63.450 8.936658
63.455 9.163057
63.460 9.064055
63.465 8.981796
63.470 9.137755
63.475 8.983513
63.480 8.632934
63.485 8.392788
63.490 7.642509
63.495 7.390545
63.500 7.092031
63.505 6.881547
63.510 7.033874
63.515 7.490782
63.520 7.877956
63.525 8.125853
63.530 8.617502
63.535 8.455789
63.540 8.334714
63.545 8.357765
63.550 7.867123
63.555 7.932409
63.560 8.134894
63.565 7.892389
63.570 7.781891
63.575 7.823247
63.580 7.75025
63.585 7.834871
63.590 7.68948
63.595 7.868386
63.600 7.75478
63.605 8.065424
63.610 8.472395
63.615 8.475819
63.620 8.314831
63.625 7.993062
63.630 8.195294
63.635 8.653339
63.640 8.952899
63.645 9.006532
63.650 8.918762
63.655 8.983018
63.660 9.159774
63.665 8.921493
63.670 8.70609
63.675 8.156442
63.680 7.828393
63.685 8.086941
63.690 8.441859
63.695 8.451021
63.700 7.926301
63.705 7.827075
63.710 7.794908
63.715 7.801457
63.720 7.442396
63.725 6.988603
63.730 6.993582
63.735 7.187642
63.740 7.569501
63.745 7.717516
63.750 7.671932
63.755 7.770815
63.760 8.178351
63.765 8.562457
63.770 8.670572
63.775 8.935898
63.780 9.172069
63.785 9.624729
63.790 9.714493
63.795 9.55825
63.800 9.096589
63.805 8.528488
63.810 7.683558
63.815 7.587532
63.820 7.144587
63.825 7.180993
63.830 7.395899
63.835 7.293833
63.840 7.799974
63.845 7.837922
63.850 7.466356
63.855 7.235108
63.860 6.88343
63.865 6.778339
63.870 6.993218
63.875 7.356777
63.880 7.431316
63.885 7.778341
63.890 8.163615
63.895 8.599508
63.900 8.763283
63.905 8.517129
63.910 8.113781
63.915 8.518713
63.920 8.57259
63.925 8.666079
63.930 8.659586
63.935 8.513055
63.940 8.570534
63.945 8.802197
63.950 8.503289
63.955 8.523161
63.960 8.510015
63.965 8.404969
63.970 8.656693
63.975 9.025216
63.980 9.066122
63.985 9.457021
63.990 9.650498
63.995 10.227653
64.000 10.000281
64.005 9.74007
64.010 9.744395
64.015 9.792363
64.020 9.977778
64.025 10.030059
64.030 9.736803
64.035 10.747025
64.040 10.866092
64.045 10.580452
64.050 10.531547
64.055 10.349414
64.060 9.751937
64.065 9.57543
64.070 9.308169
64.075 9.474669
64.080 9.552437
64.085 9.904746
64.090 10.16092
64.095 10.81409
64.100 10.564301
64.105 10.475774
64.110 10.649707
64.115 10.517669
64.120 10.292041
64.125 10.168286
64.130 9.871075
64.135 9.842856
64.140 9.546307
64.145 9.438317
64.150 9.535191
64.155 9.511051
64.160 9.540955
64.165 9.914104
64.170 10.110029
64.175 10.050817
64.180 10.348111
64.185 10.375825
64.190 10.343209
64.195 10.607532
64.200 10.671022
64.205 10.815715
64.210 11.08081
64.215 11.117404
64.220 11.393464
64.225 11.620487
64.230 11.668206
64.235 12.036141
64.240 12.002831
64.245 12.029149
64.250 12.293679
64.255 12.974304
64.260 13.079654
64.265 13.294902
64.270 13.273233
64.275 13.438006
64.280 13.739355
64.285 13.802869
64.290 13.77837
64.295 14.245488
64.300 14.431285
64.305 14.585171
64.310 15.225264
64.315 15.263289
64.320 15.247534
64.325 15.520729
64.330 15.337716
64.335 15.078807
64.340 14.824079
64.345 14.800347
64.350 15.541151
64.355 16.006203
64.360 15.94682
64.365 15.826231
64.370 16.396542
64.375 16.663565
64.380 16.85899
64.385 16.772261
64.390 16.434006
64.395 16.480291
64.400 16.877712
64.405 16.918642
64.410 16.835264
64.415 16.45982
64.420 16.286484
64.425 16.361668
64.430 16.467066
64.435 16.871302
64.440 17.216917
64.445 17.940001
64.450 18.408319
64.455 18.631462
64.460 19.044521
64.465 19.338799
64.470 19.450035
64.475 19.750557
64.480 19.561434
64.485 20.126394
64.490 20.304691
64.495 20.155121
64.500 20.28245
64.505 19.930132
64.510 19.18475
64.515 18.624243
64.520 18.231165
64.525 18.34038
64.530 18.71154
64.535 18.461655
64.540 18.381418
64.545 18.321117
64.550 18.27088
64.555 17.63765
64.560 17.150452
64.565 16.768269
64.570 16.12187
64.575 15.808883
64.580 16.011007
64.585 15.975639
64.590 15.67398
64.595 14.985169
64.600 14.548381
64.605 14.711672
64.610 14.373677
64.615 14.247787
64.620 14.434731
64.625 14.623555
64.630 14.614775
64.635 14.666012
64.640 14.866127
64.645 15.178872
64.650 14.733679
64.655 14.199159
64.660 13.88547
64.665 13.754438
64.670 14.046465
64.675 13.892552
64.680 13.72167
64.685 13.645094
64.690 13.717876
64.695 13.980346
64.700 14.101518
64.705 13.722361
64.710 13.037565
64.715 12.783066
64.720 12.935652
64.725 12.544082
64.730 12.604958
64.735 12.429838
64.740 12.420962
64.745 12.567103
64.750 12.168257
64.755 11.838172
64.760 11.659422
64.765 11.628548
64.770 11.689607
64.775 11.625059
64.780 11.546788
64.785 11.836235
64.790 12.043254
64.795 11.616055
64.800 11.057833
64.805 11.140316
64.810 10.938473
64.815 11.014165
64.820 11.183929
64.825 11.270687
64.830 11.315165
64.835 11.600644
64.840 11.634309
64.845 11.195206
64.850 10.954032
64.855 10.409878
64.860 10.291388
64.865 10.650774
64.870 10.169371
64.875 9.992203
64.880 10.136753
64.885 10.256721
64.890 10.308913
64.895 9.837346
64.900 9.609378
64.905 9.723178
64.910 9.678555
64.915 9.845026
64.920 9.892755
64.925 10.135434
64.930 10.359134
64.935 10.516851
64.940 10.639464
64.945 10.797873
64.950 10.736451
64.955 10.517656
64.960 10.689298
64.965 10.708995
64.970 10.644285
64.975 10.731298
64.980 10.991253
64.985 11.766849
64.990 12.053392
64.995 12.017967
65.000 12.254628
65.005 12.555999
65.010 12.45284
65.015 12.042394
65.020 11.459783
65.025 11.504381
65.030 11.493264
65.035 11.991424
65.040 12.146574
65.045 12.145681
65.050 12.081348
65.055 12.435617
65.060 12.538171
65.065 12.450644
65.070 12.368561
65.075 12.295077
65.080 12.418508
65.085 12.838595
65.090 13.229218
65.095 13.087976
65.100 12.886675
65.105 12.945206
65.110 12.891446
65.115 13.348045
65.120 13.263522
65.125 12.974543
65.130 13.496052
65.135 14.229234
65.140 14.314136
65.145 14.838518
65.150 14.544219
65.155 14.889044
65.160 15.338711
65.165 15.985182
65.170 16.128807
65.175 16.026068
65.180 15.845321
65.185 15.809493
65.190 15.451197
65.195 15.28079
65.200 14.785998
65.205 14.619117
65.210 14.439576
65.215 14.28163
65.220 13.79991
65.225 14.02754
65.230 14.061006
65.235 14.163001
65.240 14.191151
65.245 14.354428
65.250 14.522182
65.255 15.205527
65.260 15.402079
65.265 15.263419
65.270 14.867773
65.275 15.105193
65.280 14.823892
65.285 14.999641
65.290 15.213208
65.295 14.713058
65.300 14.651122
65.305 14.99014
65.310 15.06146
65.315 15.650629
65.320 15.985225
65.325 16.082615
65.330 16.502998
65.335 16.697355
65.340 16.36904
65.345 15.97129
65.350 15.737899
65.355 15.160492
65.360 14.76994
65.365 14.855588
65.370 14.766126
65.375 14.601514
65.380 14.765783
65.385 14.552452
65.390 14.807418
65.395 15.198354
65.400 15.182472
65.405 15.574128
65.410 15.884532
65.415 15.764948
65.420 15.722937
65.425 16.45727
65.430 16.460901
65.435 16.043077
65.440 15.841629
65.445 16.264086
65.450 16.414463
65.455 16.256792
65.460 15.586749
65.465 15.272238
65.470 15.412625
65.475 15.785594
65.480 15.614528
65.485 15.967038
65.490 16.093493
65.495 15.644474
65.500 15.489481
65.505 15.310134
65.510 14.470221
65.515 14.483379
65.520 14.264898
65.525 14.71328
65.530 15.154926
65.535 15.130721
65.540 14.916733
65.545 15.58857
65.550 15.724789
65.555 15.289
65.560 14.642918
65.565 14.428246
65.570 14.503031
65.575 15.17586
65.580 15.05319
65.585 14.747331
65.590 15.312307
65.595 15.04756
65.600 14.791666
65.605 15.49731
65.610 15.157382
65.615 14.906674
65.620 14.806261
65.625 15.272429
65.630 15.651857
65.635 15.732857
65.640 15.082694
65.645 15.309783
65.650 15.255878
65.655 15.378155
65.660 14.608745
65.665 14.790642
65.670 14.65083
65.675 14.497755
65.680 14.154596
65.685 13.699977
65.690 13.460591
65.695 13.086029
65.700 12.678621
65.705 12.635335
65.710 12.71463
65.715 12.876545
65.720 13.238586
65.725 13.443027
65.730 13.956896
65.735 13.932249
65.740 14.018652
65.745 13.984501
65.750 14.030803
65.755 13.865195
65.760 13.84614
65.765 13.949314
65.770 14.302664
65.775 14.651618
65.780 14.488871
65.785 14.022441
65.790 13.930026
65.795 13.852204
65.800 13.395782
65.805 13.088598
65.810 12.310999
65.815 12.256124
65.820 12.23993
65.825 12.058094
65.830 11.916869
65.835 12.14061
65.840 12.434413
65.845 12.730125
65.850 13.114338
65.855 13.314697
65.860 13.134727
65.865 13.292487
65.870 13.111062
65.875 12.802418
65.880 12.531563
65.885 12.125066
65.890 11.759794
65.895 11.90939
65.900 11.827374
65.905 11.842834
65.910 11.849947
65.915 12.101731
65.920 11.941389
65.925 12.193553
65.930 12.075398
65.935 11.662882
65.940 11.313949
65.945 11.607234
65.950 11.238801
65.955 11.234793
65.960 10.774054
65.965 11.015664
65.970 11.252539
65.975 11.378483
65.980 11.167552
65.985 11.09636
65.990 11.265816
65.995 11.506651
66.000 11.353023
66.005 11.426774
66.010 11.30294
66.015 10.868761
66.020 10.680642
66.025 10.204247
66.030 10.038075
66.035 9.800466
66.040 9.801491
66.045 10.12944
66.050 10.90277
66.055 10.999314
66.060 11.151296
66.065 11.490541
66.070 11.772687
66.075 11.509839
66.080 10.924042
66.085 10.537692
66.090 10.651627
66.095 10.339499
66.100 9.791386
66.105 9.526942
66.110 9.584421
66.115 9.8486
66.120 9.804994
66.125 9.854597
66.130 9.655978
66.135 9.870484
66.140 10.217701
66.145 10.248135
66.150 10.118006
66.155 10.03809
66.160 10.349315
66.165 10.480641
66.170 10.005883
66.175 9.367263
66.180 9.060808
66.185 9.092106
66.190 9.167083
66.195 9.023335
66.200 8.85094
66.205 8.811698
66.210 8.826751
66.215 8.707029
66.220 8.531434
66.225 8.321834
66.230 8.440202
66.235 8.964493
66.240 9.013201
66.245 9.016804
66.250 9.179717
66.255 9.467701
66.260 9.684938
66.265 9.375974
66.270 9.267603
66.275 9.360811
66.280 9.382463
66.285 9.335554
66.290 9.101512
66.295 8.95116
66.300 9.293498
66.305 8.9626
66.310 8.877623
66.315 8.886714
66.320 8.923922
66.325 9.041323
66.330 9.163791
66.335 9.261596
66.340 9.248143
66.345 9.378114
66.350 9.376487
66.355 9.347246
66.360 9.27248
66.365 8.885567
66.370 8.355509
66.375 8.592301
66.380 8.042576
66.385 7.966185
66.390 7.882694
66.395 7.896939
66.400 7.845969
66.405 7.929267
66.410 7.9623
66.415 8.832167
66.420 8.911593
66.425 9.091764
66.430 8.970796
66.435 9.133518
66.440 9.188578
66.445 9.24453
66.450 9.077724
66.455 9.197281
66.460 8.981672
66.465 9.116458
66.470 9.414482
66.475 9.532521
66.480 9.167795
66.485 8.551242
66.490 8.244712
66.495 7.988845
66.500 7.683574
66.505 7.628197
66.510 7.74435
66.515 7.948034
66.520 8.314694
66.525 8.515031
66.530 8.758828
66.535 9.123027
66.540 8.939094
66.545 9.014488
66.550 8.857453
66.555 9.146146
66.560 9.721266
66.565 9.93456
66.570 10.138957
66.575 9.771128
66.580 9.508538
66.585 9.424359
66.590 8.852651
66.595 8.450351
66.600 8.218929
66.605 7.892845
66.610 7.896776
66.615 8.199888
66.620 8.618532
66.625 9.202833
66.630 9.109525
66.635 9.308884
66.640 9.521277
66.645 9.727341
66.650 10.2244
66.655 10.039967
66.660 9.860667
66.665 10.11686
66.670 9.9886
66.675 9.777358
66.680 9.837111
66.685 9.119465
66.690 9.038568
66.695 8.891786
66.700 8.264598
66.705 8.210043
66.710 8.23121
66.715 8.342004
66.720 9.381269
66.725 9.68384
66.730 9.97875
66.735 10.360702
66.740 10.183771
66.745 10.309827
66.750 10.050275
66.755 9.481913
66.760 9.487021
66.765 9.484453
66.770 9.565685
66.775 9.662954
66.780 9.730799
66.785 9.703905
66.790 9.022977
66.795 8.727886
66.800 8.346828
66.805 8.17602
66.810 7.87854
66.815 7.880665
66.820 8.117304
66.825 8.535935
66.830 8.501092
66.835 8.949552
66.840 8.98113
66.845 9.179409
66.850 8.925654
66.855 8.790452
66.860 8.585082
66.865 8.563293
66.870 8.32269
66.875 8.215178
66.880 8.032903
66.885 8.311169
66.890 8.373228
66.895 8.720991
66.900 8.718344
66.905 8.488049
66.910 8.668194
66.915 9.007477
66.920 8.841338
66.925 8.714017
66.930 8.625538
66.935 8.55021
66.940 8.723423
66.945 8.957299
66.950 8.860976
66.955 8.920988
66.960 9.21985
66.965 9.765965
66.970 9.808549
66.975 10.118067
66.980 10.379155
66.985 10.227278
66.990 10.482129
66.995 10.32454
67.000 9.970567
67.005 10.137646
67.010 9.989268
67.015 9.997879
67.020 10.019305
67.025 9.675275
67.030 9.75451
67.035 10.058574
67.040 9.423107
67.045 8.979836
67.050 8.494889
67.055 8.440846
67.060 8.437293
67.065 8.099261
67.070 7.904025
67.075 8.355001
67.080 8.420348
67.085 8.930324
67.090 9.14989
67.095 9.173347
67.100 9.163931
67.105 8.866726
67.110 8.811133
67.115 8.848011
67.120 8.625688
67.125 8.586995
67.130 8.653246
67.135 8.440963
67.140 8.980761
67.145 9.213601
67.150 9.210202
67.155 9.367499
67.160 9.431891
67.165 9.503624
67.170 9.94703
67.175 9.39817
67.180 9.329776
67.185 9.129558
67.190 9.154903
67.195 8.936805
67.200 8.885879
67.205 8.784616
67.210 9.077039
67.215 9.321105
67.220 9.446004
67.225 9.20813
67.230 9.199595
67.235 8.975804
67.240 9.061098
67.245 8.875505
67.250 8.39993
67.255 8.555318
67.260 8.929805
67.265 9.153819
67.270 9.6461
67.275 9.642971
67.280 9.652855
67.285 10.186316
67.290 10.144518
67.295 9.859126
67.300 9.752257
67.305 9.515076
67.310 9.625216
67.315 9.643884
67.320 9.423107
67.325 9.254231
67.330 9.345667
67.335 9.18671
67.340 8.97095
67.345 8.774678
67.350 8.561722
67.355 8.333302
67.360 8.28431
67.365 8.468014
67.370 8.909783
67.375 9.467948
67.380 9.842805
67.385 10.046391
67.390 10.260257
67.395 10.293586
67.400 9.739222
67.405 9.266783
67.410 8.955508
67.415 8.582743
67.420 8.54503
67.425 8.410141
67.430 8.527264
67.435 8.627594
67.440 8.982491
67.445 9.231929
67.450 9.289834
67.455 9.089159
67.460 9.203403
67.465 8.978389
67.470 9.189286
67.475 8.778926
67.480 8.675038
67.485 8.859154
67.490 9.195053
67.495 9.401557
67.500 10.040773
67.505 10.221439
67.510 10.436217
67.515 10.481211
67.520 10.537236
67.525 10.627781
67.530 10.203606
67.535 10.078267
67.540 9.990466
67.545 9.952104
67.550 10.34142
67.555 10.124889
67.560 9.808391
67.565 9.419074
67.570 8.98846
67.575 8.959911
67.580 8.604212
67.585 8.399426
67.590 8.499437
67.595 8.69343
67.600 8.79206
67.605 8.792624
67.610 8.704597
67.615 8.913478
67.620 8.669701
67.625 8.301799
67.630 8.318269
67.635 8.879837
67.640 9.040783
67.645 9.028867
67.650 8.989556
67.655 9.124552
67.660 9.289566
67.665 9.008679
67.670 8.340924
67.675 8.238891
67.680 8.376668
67.685 8.334082
67.690 8.437857
67.695 8.578502
67.700 8.716512
67.705 9.05714
67.710 9.218385
67.715 9.178739
67.720 9.051632
67.725 9.335608
67.730 9.253279
67.735 9.15892
67.740 8.96768
67.745 8.604218
67.750 8.748741
67.755 8.652982
67.760 7.827332
67.765 8.007065
67.770 8.531251
67.775 8.796151
67.780 9.146593
67.785 8.903117
67.790 8.998174
67.795 9.487341
67.800 9.32215
67.805 9.19682
67.810 9.320529
67.815 9.737417
67.820 9.818692
67.825 9.878628
67.830 9.517537
67.835 9.297369
67.840 8.919997
67.845 8.540138
67.850 8.322477
67.855 8.930215
67.860 9.043695
67.865 9.560572
67.870 9.884086
67.875 10.119452
67.880 10.253651
67.885 10.155334
67.890 9.633575
67.895 9.574168
67.900 9.179468
67.905 8.970201
67.910 8.799261
67.915 8.791098
67.920 8.285276
67.925 8.521192
67.930 8.612718
67.935 9.058083
67.940 9.078261
67.945 9.230098
67.950 9.538671
67.955 10.12314
67.960 10.175823
67.965 10.379069
67.970 10.019542
67.975 10.26923
67.980 10.141066
67.985 10.048471
67.990 9.899422
67.995 9.356464
68.000 9.391638
68.005 9.685841
68.010 9.904375
68.015 10.154645
68.020 10.011298
68.025 9.872212
68.030 10.079576
68.035 9.82382
68.040 9.905327
68.045 9.850006
68.050 9.526106
68.055 9.499254
68.060 9.557118
68.065 9.77795
68.070 9.647886
68.075 9.303355
68.080 9.252288
68.085 9.803266
68.090 9.883272
68.095 10.026781
68.100 10.269262
68.105 11.028441
68.110 10.824517
68.115 10.599798
68.120 10.171023
68.125 10.112911
68.130 9.96314
68.135 10.240478
68.140 10.149307
68.145 10.155166
68.150 9.797313
68.155 10.035315
68.160 10.23001
68.165 9.976089
68.170 9.699584
68.175 9.448732
68.180 9.86124
68.185 10.459364
68.190 10.579352
68.195 10.641071
68.200 10.770022
68.205 10.831402
68.210 10.783443
68.215 10.52268
68.220 10.034253
68.225 9.769177
68.230 9.53421
68.235 9.632452
68.240 9.058006
68.245 9.059995
68.250 9.314057
68.255 9.736296
68.260 9.926111
68.265 10.359176
68.270 10.245826
68.275 10.785989
68.280 11.164904
68.285 11.125359
68.290 11.100427
68.295 11.159883
68.300 10.81867
68.305 10.922902
68.310 10.657884
68.315 10.376482
68.320 10.663681
68.325 10.691669
68.330 11.085656
68.335 11.739375
68.340 11.722638
68.345 12.264689
68.350 12.513764
68.355 12.501799
68.360 12.325402
68.365 12.076775
68.370 11.865859
68.375 11.54939
68.380 11.60441
68.385 12.016383
68.390 12.132393
68.395 12.305639
68.400 12.143806
68.405 12.33995
68.410 12.704697
68.415 12.91561
68.420 13.305521
68.425 13.571774
68.430 14.253029
68.435 13.981804
68.440 13.956216
68.445 14.262497
68.450 13.985919
68.455 13.814257
68.460 13.684414
68.465 13.725711
68.470 14.419234
68.475 14.550674
68.480 14.603411
68.485 14.717928
68.490 14.530516
68.495 14.531437
68.500 14.168268
68.505 14.096049
68.510 14.079052
68.515 14.368236
68.520 14.63554
68.525 14.940342
68.530 15.198864
68.535 15.378132
68.540 15.512366
68.545 15.680516
68.550 15.77384
68.555 15.973061
68.560 16.149685
68.565 15.933368
68.570 16.07568
68.575 16.348312
68.580 16.087248
68.585 15.711744
68.590 15.298652
68.595 15.009704
68.600 14.737907
68.605 14.633117
68.610 14.739631
68.615 14.910678
68.620 14.862404
68.625 15.409849
68.630 15.744355
68.635 16.046703
68.640 16.175259
68.645 16.017414
68.650 15.941358
68.655 16.73559
68.660 16.416384
68.665 16.007963
68.670 15.690207
68.675 15.297773
68.680 15.570436
68.685 15.604374
68.690 15.131938
68.695 14.654366
68.700 14.676607
68.705 15.139307
68.710 15.334716
68.715 14.572198
68.720 14.535108
68.725 15.049135
68.730 15.457766
68.735 15.246228
68.740 15.07513
68.745 14.926256
68.750 14.97434
68.755 14.635838
68.760 14.706505
68.765 14.741199
68.770 15.045815
68.775 15.167865
68.780 15.410415
68.785 15.684065
68.790 16.000555
68.795 16.342541
68.800 16.755959
68.805 16.683554
68.810 16.950668
68.815 16.943794
68.820 17.073606
68.825 16.874523
68.830 16.81341
68.835 16.526358
68.840 16.476814
68.845 16.009947
68.850 15.674454
68.855 15.404074
68.860 15.049037
68.865 14.060319
68.870 13.819519
68.875 13.405722
68.880 13.52098
68.885 13.615511
68.890 13.665545
68.895 13.678074
68.900 13.767142
68.905 14.369884
68.910 15.033233
68.915 15.455991
68.920 15.913161
68.925 16.218918
68.930 16.064886
68.935 15.956286
68.940 15.202421
68.945 14.297171
68.950 13.772285
68.955 13.310965
68.960 12.801253
68.965 13.196946
68.970 12.97875
68.975 12.798915
68.980 12.798198
68.985 12.669613
68.990 12.962708
68.995 13.026225
69.000 12.769009
69.005 13.027121
69.010 13.666865
69.015 13.65481
69.020 13.781875
69.025 13.760723
69.030 13.977524
69.035 14.016125
69.040 13.712626
69.045 13.899985
69.050 14.188704
69.055 13.982691
69.060 13.574376
69.065 12.896375
69.070 13.11228
69.075 13.462291
69.080 13.065735
69.085 12.828634
69.090 12.781835
69.095 12.670741
69.100 13.149784
69.105 13.131262
69.110 12.966116
69.115 13.079611
69.120 13.081983
69.125 12.889653
69.130 13.12328
69.135 12.5018
69.140 11.922767
69.145 11.216668
69.150 11.313839
69.155 11.475717
69.160 11.382482
69.165 11.046283
69.170 10.832047
69.175 11.11883
69.180 11.457178
69.185 11.598269
69.190 11.604053
69.195 11.718112
69.200 11.617579
69.205 12.012016
69.210 12.066797
69.215 11.71937
69.220 11.167542
69.225 10.821816
69.230 10.745923
69.235 10.864271
69.240 10.404062
69.245 10.385547
69.250 10.456704
69.255 10.379937
69.260 10.675774
69.265 10.915925
69.270 10.924013
69.275 10.941372
69.280 10.915608
69.285 10.909498
69.290 10.789074
69.295 10.716703
69.300 10.504502
69.305 10.415957
69.310 10.447403
69.315 10.499467
69.320 10.553294
69.325 10.50683
69.330 9.974853
69.335 9.88738
69.340 9.974795
69.345 9.755465
69.350 9.630183
69.355 9.901266
69.360 10.276715
69.365 10.544518
69.370 10.583237
69.375 10.345334
69.380 9.98085
69.385 9.713859
69.390 9.318371
69.395 8.875577
69.400 9.293562
69.405 9.469656
69.410 9.871269
69.415 10.050027
69.420 10.14892
69.425 10.510945
69.430 10.877801
69.435 10.8436
69.440 10.655468
69.445 10.901226
69.450 11.246692
69.455 10.989844
69.460 10.697934
69.465 10.342017
69.470 10.123098
69.475 10.207842
69.480 9.821324
69.485 10.112068
69.490 10.316055
69.495 10.066507
69.500 9.885026
69.505 9.903511
69.510 9.836191
69.515 10.191934
69.520 9.833617
69.525 9.607807
69.530 10.189766
69.535 10.607131
69.540 10.500195
69.545 10.361934
69.550 10.154181
69.555 10.141411
69.560 10.256989
69.565 10.072559
69.570 10.092132
69.575 9.916174
69.580 9.840554
69.585 9.834199
69.590 9.943959
69.595 9.899378
69.600 9.774392
69.605 9.825426
69.610 10.300563
69.615 10.226066
69.620 10.302197
69.625 10.379887
69.630 10.424472
69.635 10.532402
69.640 10.051588
69.645 9.880432
69.650 10.066104
69.655 10.007968
69.660 9.992216
69.665 9.975123
69.670 9.853547
69.675 10.066961
69.680 10.161441
69.685 10.225281
69.690 10.193674
69.695 9.925104
69.700 9.939937
69.705 9.578158
69.710 9.136021
69.715 9.100921
69.720 9.385718
69.725 9.417061
69.730 9.620899
69.735 10.072511
69.740 10.508105
69.745 10.894966
69.750 10.596883
69.755 10.873358
69.760 11.347096
69.765 11.129716
69.770 11.180617
69.775 10.992928
69.780 11.030954
69.785 11.053124
69.790 10.244203
69.795 9.916831
69.800 9.894329
69.805 9.384961
69.810 9.684359
69.815 10.091053
69.820 10.02778
69.825 10.066714
69.830 10.563931
69.835 10.494034
69.840 10.5893
69.845 10.298056
69.850 10.047597
69.855 10.264755
69.860 10.14515
69.865 9.997748
69.870 10.289725
69.875 10.233978
69.880 9.678763
69.885 9.394588
69.890 9.124904
69.895 8.898053
69.900 8.459915
69.905 8.400059
69.910 9.019663
69.915 9.432102
69.920 9.576798
69.925 9.613417
69.930 9.673707
69.935 9.796765
69.940 9.83948
69.945 10.215719
69.950 10.494184
69.955 10.835021
69.960 10.965527
69.965 11.263003
69.970 11.224447
69.975 10.954731
69.980 10.491673
69.985 10.358739
69.990 9.872563
69.995 9.552275
70.000 9.303757
70.005 9.072539
70.010 9.0328
70.015 8.901759
70.020 8.872742
70.025 8.986443
70.030 9.176562
70.035 9.415388
70.040 9.356547
70.045 8.95672
70.050 8.942484
70.055 9.098088
70.060 9.335827
70.065 9.892523
70.070 10.403305
70.075 10.990935
70.080 10.895643
70.085 10.956658
70.090 10.764649
70.095 10.423105
70.100 10.12795
70.105 9.451155
70.110 9.129713
70.115 9.44244
70.120 9.384989
70.125 9.424131
70.130 9.15678
70.135 9.408052
70.140 9.474965
70.145 9.592913
70.150 9.287984
70.155 9.281257
70.160 9.367126
70.165 9.056638
70.170 8.646104
70.175 8.684715
70.180 8.912624
70.185 9.158487
70.190 9.219535
70.195 9.530372
70.200 9.730558
70.205 9.506455
70.210 9.781784
70.215 9.896646
70.220 9.750499
70.225 9.57182
70.230 9.586635
70.235 10.040942
70.240 10.258109
70.245 10.123394
70.250 10.060868
70.255 10.293314
70.260 9.979291
70.265 9.817197
70.270 9.601574
70.275 9.66597
70.280 9.415456
70.285 9.404548
70.290 9.20097
70.295 9.250862
70.300 9.457047
70.305 9.473071
70.310 9.499006
70.315 9.672365
70.320 9.62902
70.325 9.696059
70.330 9.640342
70.335 9.327998
70.340 9.010931
70.345 8.936746
70.350 8.556741
70.355 8.827127
70.360 9.208427
70.365 9.391099
70.370 9.869577
70.375 10.022633
70.380 9.951843
70.385 10.175092
70.390 10.00706
70.395 9.798254
70.400 9.573468
70.405 9.346572
70.410 9.565499
70.415 9.455615
70.420 9.065644
70.425 8.774965
70.430 8.67086
70.435 8.819947
70.440 8.863328
70.445 8.992558
70.450 9.040868
70.455 9.830889
70.460 10.260715
70.465 10.362561
70.470 10.384695
70.475 9.983949
70.480 9.475619
70.485 9.784904
70.490 9.373262
70.495 9.006644
70.500 8.929005
70.505 9.249499
70.510 9.983824
70.515 10.295278
70.520 9.913271
70.525 9.864137
70.530 9.761433
70.535 9.39778
70.540 9.596231
70.545 9.666266
70.550 9.774096
70.555 9.824972
70.560 9.892569
70.565 10.041165
70.570 10.375896
70.575 9.78754
70.580 9.347507
70.585 9.381404
70.590 9.232346
70.595 9.022472
70.600 8.901925
70.605 9.22162
70.610 9.540531
70.615 9.867828
70.620 9.892518
70.625 10.189922
70.630 10.407965
70.635 10.419406
70.640 9.86843
70.645 9.659934
70.650 9.636596
70.655 9.800859
70.660 10.150856
70.665 9.979808
70.670 10.127426
70.675 10.274589
70.680 10.115339
70.685 10.158188
70.690 10.340709
70.695 9.856291
70.700 9.892605
70.705 10.180859
70.710 9.867831
70.715 10.051471
70.720 9.35489
70.725 8.899066
70.730 9.448213
70.735 9.048321
70.740 8.806419
70.745 8.844363
70.750 8.947248
70.755 9.608712
70.760 10.027082
70.765 10.163542
70.770 10.277311
70.775 10.027205
70.780 10.10976
70.785 9.876618
70.790 9.415843
70.795 8.767136
70.800 8.33089
70.805 8.741198
70.810 9.448024
70.815 9.626394
70.820 9.506833
70.825 9.717751
70.830 10.301051
70.835 10.443275
70.840 10.154734
70.845 9.397867
70.850 9.184804
70.855 9.574243
70.860 9.407207
70.865 8.745817
70.870 8.531057
70.875 8.613102
70.880 8.851658
70.885 9.034591
70.890 9.402511
70.895 9.457422
70.900 10.018624
70.905 10.072361
70.910 10.126988
70.915 10.267689
70.920 9.964529
70.925 9.729623
70.930 10.398834
70.935 10.230904
70.940 10.1208
70.945 9.969595
70.950 9.981619
70.955 10.052299
70.960 9.411922
70.965 8.402721
70.970 8.465262
70.975 8.918459
70.980 9.152022
70.985 9.052567
70.990 8.908375
70.995 9.241701
71.000 9.530384
71.005 9.431356
71.010 9.104938
71.015 8.847256
71.020 9.169456
71.025 9.314473
71.030 9.499942
71.035 9.805085
71.040 9.839625
71.045 9.831993
71.050 10.236404
71.055 9.933809
71.060 9.919323
71.065 9.678061
71.070 8.887392
71.075 8.921593
71.080 8.879523
71.085 9.04821
71.090 9.045181
71.095 9.395866
71.100 9.89704
71.105 10.406051
71.110 10.477278
71.115 10.211113
71.120 10.167297
71.125 10.1682
71.130 10.013549
71.135 9.679871
71.140 9.935845
71.145 9.99576
71.150 9.990834
71.155 9.632056
71.160 9.395876
71.165 9.247502
71.170 9.514221
71.175 9.02205
71.180 8.904298
71.185 8.904453
71.190 8.984966
71.195 9.480194
71.200 9.697268
71.205 9.855565
71.210 10.028127
71.215 9.963264
71.220 9.946952
71.225 10.099321
71.230 9.800183
71.235 9.611147
71.240 9.299723
71.245 9.44021
71.250 10.017433
71.255 9.957008
71.260 10.15648
71.265 10.272885
71.270 10.476089
71.275 10.423328
71.280 10.053875
71.285 9.55048
71.290 9.574863
71.295 9.157743
71.300 8.681278
71.305 8.67881
71.310 8.680116
71.315 9.126648
71.320 9.604197
71.325 9.546399
71.330 10.12264
71.335 10.410759
71.340 10.485929
71.345 10.652387
71.350 9.747785
71.355 9.414909
71.360 9.104947
71.365 9.056198
71.370 9.127174
71.375 9.173887
71.380 9.214896
71.385 9.526073
71.390 9.753631
71.395 9.785904
71.400 9.673068
71.405 9.50701
71.410 9.68917
71.415 9.905872
71.420 9.944684
71.425 9.63593
71.430 9.268053
71.435 9.05127
71.440 8.615579
71.445 8.329295
71.450 8.794273
71.455 9.003412
71.460 9.732212
71.465 10.008099
71.470 10.035298
71.475 10.513649
71.480 10.471409
71.485 10.211299
71.490 10.234612
71.495 10.305264
71.500 10.231976
71.505 10.588392
71.510 10.716667
71.515 10.627785
71.520 10.120431
71.525 9.711815
71.530 9.567392
71.535 9.274806
71.540 9.272498
71.545 9.491626
71.550 9.35393
71.555 9.760034
71.560 9.935407
71.565 9.825744
71.570 9.900948
71.575 9.192093
71.580 8.933689
71.585 9.175555
71.590 9.033217
71.595 9.399332
71.600 9.60992
71.605 9.23002
71.610 9.615834
71.615 9.455811
71.620 9.039538
71.625 9.183383
71.630 8.84686
71.635 8.9883
71.640 9.391213
71.645 9.595055
71.650 9.652877
71.655 9.577398
71.660 8.801437
71.665 9.068398
71.670 8.736867
71.675 8.588112
71.680 8.625336
71.685 9.156591
71.690 9.74586
71.695 10.562578
71.700 10.222829
71.705 10.644004
71.710 10.770919
71.715 10.57562
71.720 10.325741
71.725 9.913578
71.730 9.383618
71.735 9.477778
71.740 9.20365
71.745 8.970388
71.750 9.328423
71.755 9.319488
71.760 9.479777
71.765 9.660919
71.770 9.845597
71.775 10.002885
71.780 9.943359
71.785 9.719613
71.790 9.899302
71.795 9.931404
71.800 10.218677
71.805 9.724328
71.810 9.465197
71.815 9.650026
71.820 9.687046
71.825 9.431928
71.830 9.478984
71.835 9.180131
71.840 9.287305
71.845 9.161782
71.850 8.777086
71.855 8.927841
71.860 8.959681
71.865 8.961931
71.870 8.916844
71.875 9.205632
71.880 9.293097
71.885 9.406099
71.890 9.084302
71.895 9.208951
71.900 9.050466
71.905 9.401236
71.910 9.823048
71.915 9.53561
71.920 9.715746
71.925 9.803056
71.930 9.760739
71.935 9.806231
71.940 9.56597
71.945 9.167118
71.950 9.424048
71.955 9.163052
71.960 8.840176
71.965 8.957872
71.970 8.932182
71.975 9.001019
71.980 9.228132
71.985 9.157825
71.990 9.23393
71.995 9.50865
72.000 9.658238
72.005 9.713313
72.010 9.597073
72.015 9.150129
72.020 9.325958
72.025 9.545938
72.030 9.674018
72.035 9.70037
72.040 9.827903
72.045 10.342993
72.050 10.466694
72.055 9.861645
72.060 9.738637
72.065 9.573245
72.070 9.292514
72.075 9.123226
72.080 8.998927
72.085 9.450869
72.090 9.803202
72.095 9.818748
72.100 10.242284
72.105 10.311405
72.110 10.597292
72.115 11.080035
72.120 11.026792
72.125 11.393855
72.130 11.155224
72.135 10.8747
72.140 10.911453
72.145 10.503594
72.150 10.459189
72.155 10.838718
72.160 10.813032
72.165 10.673656
72.170 10.728595
72.175 10.50034
72.180 9.923246
72.185 8.874722
72.190 8.543304
72.195 8.340592
72.200 8.369858
72.205 8.171994
72.210 8.323648
72.215 9.122466
72.220 9.504084
72.225 9.246646
72.230 9.095774
72.235 9.477593
72.240 9.847135
72.245 9.608713
72.250 9.1972
72.255 9.195416
72.260 9.387275
72.265 9.46049
72.270 9.191494
72.275 8.782516
72.280 8.917928
72.285 8.63123
72.290 8.609552
72.295 8.206136
72.300 8.37925
72.305 8.326979
72.310 8.638898
72.315 9.206635
72.320 9.26583
72.325 9.529633
72.330 9.836506
72.335 10.215836
72.340 10.326512
72.345 10.304985
72.350 10.580902
72.355 10.92132
72.360 10.71029
72.365 10.261782
72.370 10.045077
72.375 9.955816
72.380 9.846544
72.385 9.043815
72.390 8.472063
72.395 8.463192
72.400 8.372002
72.405 8.415731
72.410 8.504206
72.415 8.514467
72.420 8.93017
72.425 9.083164
72.430 9.680363
72.435 9.708193
72.440 9.717551
72.445 9.569578
72.450 9.415422
72.455 9.654702
72.460 9.779966
72.465 9.355158
72.470 9.224382
72.475 8.999576
72.480 9.114682
72.485 8.843667
72.490 8.548008
72.495 8.748942
72.500 8.841519
72.505 8.866102
72.510 8.937075
72.515 9.108033
72.520 10.090745
72.525 10.470984
72.530 10.454935
72.535 10.949035
72.540 10.573798
72.545 10.015531
72.550 9.948656
72.555 9.632553
72.560 9.708151
72.565 9.54934
72.570 9.212512
72.575 9.636524
72.580 9.858837
72.585 9.698196
72.590 9.579978
72.595 9.618105
72.600 9.619129
72.605 9.806053
72.610 9.913836
72.615 10.301857
72.620 9.839739
72.625 9.384104
72.630 9.297888
72.635 9.417473
72.640 9.40367
72.645 9.255013
72.650 8.988449
72.655 9.321053
72.660 9.340492
72.665 8.989858
72.670 9.038376
72.675 9.015746
72.680 8.786161
72.685 9.0021
72.690 9.04372
72.695 8.956181
72.700 9.089946
72.705 9.150686
72.710 9.306595
72.715 9.071294
72.720 9.042602
72.725 9.257092
72.730 9.751063
72.735 10.025503
72.740 9.861948
72.745 9.881721
72.750 9.798162
72.755 9.837934
72.760 9.351229
72.765 8.993848
72.770 8.704725
72.775 8.83145
72.780 9.00396
72.785 9.251863
72.790 8.633717
72.795 9.132907
72.800 9.359513
72.805 9.20678
72.810 9.10953
72.815 9.169269
72.820 8.948684
72.825 8.677773
72.830 8.410938
72.835 8.632878
72.840 9.031272
72.845 9.065357
72.850 9.091385
72.855 9.659582
72.860 10.233786
72.865 10.375701
72.870 10.163108
72.875 9.648021
72.880 9.436546
72.885 9.432735
72.890 9.129265
72.895 8.834298
72.900 8.838841
72.905 8.76857
72.910 8.72796
72.915 8.60165
72.920 8.398245
72.925 8.379853
72.930 8.656731
72.935 8.478253
72.940 8.757243
72.945 9.173184
72.950 9.56144
72.955 9.993037
72.960 9.743845
72.965 9.325589
72.970 9.437482
72.975 9.805849
72.980 9.677735
72.985 9.320308
72.990 9.317457
72.995 9.91724
73.000 9.867426
