!@!!GADDS PLOTSO FILE: Chi integration type
!@!!Title/SampleName: map-1d
!@!!Comment: ?
!@!!User: Bruker Instrument Administrator
!@!!Site: University of Illinois Chicago
!@!!Frame: map-1d_01_000.gfrm
!@!!Wavelengths    1.54184   1.54056   1.54439
!@!!Frame angles: 2Theta: 63.000 Omega: 50.000 Phi: 0.000 Chi: 90.000
!@!!Integration range: 2Theta: 53.000 to 73.000  Gamma: -105.000 to -75.000
!@!!Integration method: bin normalized
!@!N
!@!SS
!@!M
!@!L 0.0 0.0 0.0 0.0
!@!XDegrees
!@!YCounts
53.000 8.369353
53.005 8.48003
53.010 8.291979
53.015 8.169826
53.020 8.215731
53.025 8.028109
53.030 7.56268
53.035 7.786747
53.040 7.982871
53.045 8.59218
53.050 8.881335
53.055 9.171011
53.060 9.347999
53.065 9.114268
53.070 8.953876
53.075 8.67471
53.080 8.69637
53.085 9.327763
53.090 9.256526
53.095 9.516704
53.100 9.375621
53.105 9.716727
53.110 9.787017
53.115 9.412132
53.120 9.042261
53.125 8.579004
53.130 8.563094
53.135 8.587116
53.140 8.446876
53.145 8.377385
53.150 8.059582
53.155 8.017733
53.160 8.1133
53.165 7.969137
53.170 7.971254
53.175 7.908861
53.180 8.26485
53.185 8.462504
53.190 8.721384
53.195 8.994425
53.200 9.249445
53.205 9.290005
53.210 9.307472
53.215 8.907299
53.220 8.765833
53.225 8.447033
53.230 8.412125
53.235 8.531243
53.240 8.246611
53.245 7.857594
53.250 7.972841
53.255 8.354282
53.260 8.267532
53.265 8.310774
53.270 8.299543
53.275 8.526657
53.280 8.627337
53.285 8.769389
53.290 9.181117
53.295 9.657031
53.300 9.638206
53.305 9.246267
53.310 9.405729
53.315 9.291076
53.320 9.049229
53.325 8.437387
53.330 8.866448
53.335 9.21268
53.340 9.736385
53.345 10.211643
53.350 10.754714
53.355 10.786661
53.360 10.481162
53.365 9.731457
53.370 9.872865
53.375 9.737448
53.380 9.312375
53.385 8.868983
53.390 9.084824
53.395 9.677097
53.400 9.541591
53.405 9.265863
53.410 9.471865
53.415 9.595943
53.420 9.577967
53.425 9.482527
53.430 9.492987
53.435 9.600208
53.440 9.351052
53.445 8.842202
53.450 8.804568
53.455 9.052259
53.460 8.850814
53.465 8.519471
53.470 8.472198
53.475 9.000924
53.480 9.602418
53.485 9.856346
53.490 9.961468
53.495 10.338946
53.500 10.383814
53.505 10.072716
53.510 9.357002
53.515 8.932593
53.520 8.774425
53.525 9.298683
53.530 9.55951
53.535 9.660465
53.540 9.765532
53.545 9.986157
53.550 10.05092
53.555 9.789801
53.560 9.472455
53.565 9.552086
53.570 10.015987
53.575 10.298394
53.580 10.615997
53.585 10.695475
53.590 10.536215
53.595 10.152143
53.600 9.909936
53.605 9.580482
53.610 9.198148
53.615 8.902308
53.620 8.987574
53.625 8.69792
53.630 8.478862
53.635 8.197208
53.640 7.954515
53.645 7.87132
53.650 7.703646
53.655 7.651303
53.660 8.18801
53.665 8.685905
53.670 8.90661
53.675 9.681963
53.680 10.096618
53.685 10.063374
53.690 10.486896
53.695 10.187523
53.700 9.861623
53.705 10.028592
53.710 9.789687
53.715 9.671816
53.720 9.602124
53.725 9.386649
53.730 9.387863
53.735 9.842715
53.740 9.776343
53.745 9.986198
53.750 10.299779
53.755 10.538203
53.760 10.972798
53.765 11.60772
53.770 11.569715
53.775 11.33808
53.780 11.32317
53.785 11.467254
53.790 11.3001
53.795 11.17403
53.800 10.908608
53.805 11.185092
53.810 11.176426
53.815 10.936518
53.820 10.957561
53.825 11.041842
53.830 10.882284
53.835 10.446107
53.840 10.216121
53.845 9.74542
53.850 9.424556
53.855 9.087087
53.860 9.307569
53.865 9.243357
53.870 9.386575
53.875 9.626785
53.880 9.887268
53.885 9.883611
53.890 9.343427
53.895 8.54834
53.900 8.391088
53.905 8.515821
53.910 8.812748
53.915 9.266237
53.920 9.362141
53.925 9.653044
53.930 10.163204
53.935 10.511894
53.940 10.279031
53.945 9.986233
53.950 9.731931
53.955 9.909402
53.960 9.674672
53.965 9.431814
53.970 9.362224
53.975 9.206059
53.980 8.68539
53.985 8.297956
53.990 8.397285
53.995 8.457784
54.000 8.162118
54.005 8.151795
54.010 8.67571
54.015 8.96069
54.020 9.077816
54.025 8.913634
54.030 9.300925
54.035 9.122187
54.040 8.747624
54.045 8.988731
54.050 9.349477
54.055 9.751612
54.060 9.954748
54.065 10.161612
54.070 10.615124
54.075 10.388681
54.080 10.034189
54.085 9.66426
54.090 9.555802
54.095 9.729689
54.100 9.783103
54.105 10.054033
54.110 9.874093
54.115 9.592388
54.120 10.173162
54.125 10.478333
54.130 9.994007
54.135 9.853253
54.140 9.878368
54.145 10.63181
54.150 10.694638
54.155 10.543779
54.160 10.157762
54.165 10.188358
54.170 10.003538
54.175 9.667813
54.180 9.467837
54.185 9.24363
54.190 8.929994
54.195 9.562148
54.200 10.212347
54.205 10.274626
54.210 10.128567
54.215 9.982383
54.220 9.914178
54.225 9.711287
54.230 8.884674
54.235 8.649922
54.240 9.240685
54.245 9.636997
54.250 10.240771
54.255 10.877654
54.260 11.171408
54.265 11.459269
54.270 11.255347
54.275 10.838953
54.280 10.609682
54.285 10.239661
54.290 10.076207
54.295 10.232252
54.300 10.239548
54.305 10.405379
54.310 10.58962
54.315 11.185882
54.320 11.331956
54.325 11.416144
54.330 11.709579
54.335 11.84573
54.340 11.791658
54.345 11.719647
54.350 10.9955
54.355 11.102135
54.360 11.376031
54.365 10.914765
54.370 10.93679
54.375 10.752931
54.380 10.452309
54.385 10.371898
54.390 10.224316
54.395 9.983729
54.400 10.155308
54.405 10.054195
54.410 10.54847
54.415 11.380952
54.420 11.622951
54.425 11.384315
54.430 11.298083
54.435 11.533139
54.440 11.401029
54.445 11.141011
54.450 10.805743
54.455 10.348219
54.460 10.685908
54.465 10.799427
54.470 10.746342
54.475 10.833838
54.480 10.370192
54.485 10.227774
54.490 10.14061
54.495 10.039732
54.500 9.751254
54.505 9.761703
54.510 9.901963
54.515 10.273801
54.520 10.948596
54.525 10.947888
54.530 10.974344
54.535 11.415291
54.540 11.427835
54.545 11.494957
54.550 11.786957
54.555 11.657777
54.560 11.785648
54.565 11.519257
54.570 11.214498
54.575 11.057294
54.580 11.242908
54.585 11.387502
54.590 11.813497
54.595 11.471689
54.600 11.641829
54.605 12.080344
54.610 11.852618
54.615 11.394573
54.620 10.961313
54.625 10.633476
54.630 10.899673
54.635 10.376316
54.640 10.055014
54.645 10.52319
54.650 10.68437
54.655 10.563893
54.660 10.620575
54.665 10.591722
54.670 11.032121
54.675 10.92477
54.680 10.899946
54.685 10.908809
54.690 11.071869
54.695 11.032837
54.700 11.071185
54.705 10.891418
54.710 10.476302
54.715 10.01114
54.720 9.7662
54.725 9.956509
54.730 10.021832
54.735 10.490528
54.740 11.409713
54.745 11.957831
54.750 11.914318
54.755 12.213142
54.760 12.519603
54.765 12.614151
54.770 11.782313
54.775 11.340899
54.780 11.117167
54.785 10.869744
54.790 11.104555
54.795 10.643256
54.800 10.430792
54.805 10.5166
54.810 10.906723
54.815 11.426317
54.820 11.332845
54.825 11.26142
54.830 11.5498
54.835 11.572095
54.840 11.588923
54.845 11.167848
54.850 11.011593
54.855 11.308937
54.860 10.791829
54.865 10.376911
54.870 10.33398
54.875 9.743471
54.880 9.424109
54.885 9.604749
54.890 9.402349
54.895 9.956411
54.900 10.371063
54.905 10.671451
54.910 11.32343
54.915 11.69865
54.920 11.127206
54.925 11.260914
54.930 10.699809
54.935 10.394881
54.940 9.890433
54.945 9.977843
54.950 10.367991
54.955 10.474179
54.960 10.275903
54.965 10.325125
54.970 10.328678
54.975 10.462224
54.980 9.988692
54.985 9.937136
54.990 9.89107
54.995 9.472663
55.000 9.593575
55.005 10.090271
55.010 10.10957
55.015 10.25966
55.020 10.031585
55.025 10.288879
55.030 10.511652
55.035 10.517544
55.040 9.875995
55.045 10.209559
55.050 10.289514
55.055 10.478406
55.060 10.599109
55.065 10.990117
55.070 11.36064
55.075 11.682855
55.080 11.427826
55.085 11.532969
55.090 11.288644
55.095 11.409517
55.100 11.773124
55.105 11.515269
55.110 11.729565
55.115 11.768974
55.120 11.661283
55.125 11.816925
55.130 11.792371
55.135 11.418261
55.140 11.926041
55.145 11.86162
55.150 11.637321
55.155 11.431361
55.160 10.983363
55.165 11.204014
55.170 11.318619
55.175 11.338479
55.180 11.466162
55.185 12.006108
55.190 12.104509
55.195 12.331868
55.200 11.944657
55.205 11.306071
55.210 10.842878
55.215 10.574812
55.220 10.339814
55.225 10.68557
55.230 10.646446
55.235 10.955478
55.240 11.305772
55.245 11.717985
55.250 11.768221
55.255 11.741448
55.260 11.185827
55.265 11.181445
55.270 11.106897
55.275 11.18035
55.280 11.31727
55.285 11.45984
55.290 11.564691
55.295 11.431745
55.300 11.29412
55.305 11.183177
55.310 11.297496
55.315 11.024316
55.320 10.951358
55.325 10.928806
55.330 11.155634
55.335 11.084417
55.340 10.82856
55.345 10.52577
55.350 10.49544
55.355 10.395347
55.360 10.789041
55.365 10.97043
55.370 10.599754
55.375 10.386772
55.380 10.797952
55.385 11.114519
55.390 11.246914
55.395 11.314129
55.400 10.996911
55.405 11.608041
55.410 12.058082
55.415 11.850596
55.420 11.673099
55.425 11.341987
55.430 11.385795
55.435 11.573223
55.440 11.27144
55.445 11.256614
55.450 10.987186
55.455 10.82183
55.460 11.203718
55.465 11.305385
55.470 12.008415
55.475 12.091495
55.480 11.923347
55.485 12.205173
55.490 12.625922
55.495 12.753245
55.500 13.116251
55.505 13.302085
55.510 13.265502
55.515 12.983495
55.520 12.857972
55.525 12.57852
55.530 12.101151
55.535 11.477632
55.540 10.649808
55.545 10.726656
55.550 10.760051
55.555 10.390955
55.560 10.33452
55.565 10.207234
55.570 10.027968
55.575 10.292852
55.580 10.8771
55.585 11.260579
55.590 11.209766
55.595 11.051651
55.600 10.674067
55.605 10.281754
55.610 10.39713
55.615 9.576353
55.620 9.498658
55.625 9.392331
55.630 9.141677
55.635 9.671633
55.640 9.885166
55.645 9.26001
55.650 9.478978
55.655 9.562827
55.660 10.493214
55.665 11.160804
55.670 11.363629
55.675 11.722378
55.680 12.234465
55.685 12.168239
55.690 12.059887
55.695 11.805112
55.700 11.359548
55.705 11.240587
55.710 11.315279
55.715 10.938853
55.720 11.072865
55.725 11.150314
55.730 10.847783
55.735 11.184563
55.740 11.371871
55.745 11.491098
55.750 11.868961
55.755 11.879962
55.760 12.170218
55.765 12.425891
55.770 12.41488
55.775 12.178687
55.780 12.338194
55.785 12.554528
55.790 12.776254
55.795 12.293797
55.800 12.039021
55.805 12.468642
55.810 12.197824
55.815 11.968352
55.820 11.652924
55.825 11.781661
55.830 12.45043
55.835 12.843979
55.840 12.662338
55.845 12.878789
55.850 12.701488
55.855 12.7179
55.860 12.205062
55.865 11.608201
55.870 11.004136
55.875 11.165085
55.880 11.225389
55.885 11.420415
55.890 11.731282
55.895 12.232769
55.900 12.594874
55.905 12.793772
55.910 12.507995
55.915 12.456788
55.920 12.279622
55.925 12.194361
55.930 11.926668
55.935 11.713986
55.940 11.561512
55.945 11.888244
55.950 12.014925
55.955 12.05344
55.960 11.771426
55.965 11.244893
55.970 11.059046
55.975 11.176714
55.980 11.176966
55.985 11.177438
55.990 11.186808
55.995 11.743122
56.000 12.238318
56.005 12.52023
56.010 12.762276
56.015 12.568748
56.020 12.371025
56.025 12.559397
56.030 12.908779
56.035 13.125
56.040 13.195917
56.045 12.850631
56.050 12.514313
56.055 12.760845
56.060 12.274212
56.065 11.9266
56.070 12.182723
56.075 12.288174
56.080 12.312314
56.085 12.626558
56.090 12.39581
56.095 12.349199
56.100 12.082662
56.105 11.838291
56.110 11.839274
56.115 12.271788
56.120 12.393938
56.125 12.371984
56.130 12.046164
56.135 12.116556
56.140 12.494977
56.145 12.817052
56.150 12.79285
56.155 12.73523
56.160 13.253494
56.165 13.708454
56.170 13.725153
56.175 13.129677
56.180 12.0813
56.185 11.65559
56.190 11.511512
56.195 11.286437
56.200 11.206157
56.205 11.208588
56.210 11.492929
56.215 12.239963
56.220 12.600528
56.225 12.981076
56.230 13.275039
56.235 13.832119
56.240 14.079056
56.245 14.427189
56.250 14.394853
56.255 14.24544
56.260 13.664146
56.265 13.433245
56.270 12.90065
56.275 12.730616
56.280 12.352528
56.285 12.454146
56.290 12.859382
56.295 13.291849
56.300 12.791522
56.305 12.643678
56.310 12.606751
56.315 12.689546
56.320 12.033796
56.325 11.397583
56.330 11.394376
56.335 11.796581
56.340 12.313836
56.345 12.150007
56.350 12.508215
56.355 13.056923
56.360 13.133564
56.365 13.113541
56.370 13.111846
56.375 13.198439
56.380 13.352342
56.385 12.942531
56.390 12.631104
56.395 12.368652
56.400 12.008193
56.405 11.769223
56.410 10.989433
56.415 10.31613
56.420 10.427643
56.425 10.595218
56.430 10.966552
56.435 10.794171
56.440 10.581534
56.445 11.056767
56.450 11.534048
56.455 11.357821
56.460 11.242411
56.465 11.141453
56.470 11.647795
56.475 11.75074
56.480 11.82114
56.485 11.990197
56.490 12.952208
56.495 13.234442
56.500 13.227041
56.505 13.409992
56.510 13.08051
56.515 12.87718
56.520 12.442652
56.525 11.654696
56.530 11.806668
56.535 11.753845
56.540 11.842627
56.545 12.33919
56.550 12.362556
56.555 12.537196
56.560 13.010621
56.565 13.285001
56.570 13.443448
56.575 13.236189
56.580 13.333179
56.585 13.523298
56.590 13.750244
56.595 13.537408
56.600 13.406431
56.605 13.015795
56.610 12.920731
56.615 13.08684
56.620 13.539721
56.625 13.490052
56.630 13.023918
56.635 12.984792
56.640 13.284723
56.645 13.62847
56.650 13.488778
56.655 13.100315
56.660 13.191403
56.665 13.1754
56.670 13.05308
56.675 12.867988
56.680 12.414268
56.685 12.421912
56.690 12.315923
56.695 12.060942
56.700 11.962405
56.705 12.22903
56.710 12.486201
56.715 12.54015
56.720 12.235058
56.725 11.738703
56.730 12.201483
56.735 12.525641
56.740 12.411854
56.745 12.674417
56.750 13.019026
56.755 13.565291
56.760 13.908662
56.765 14.243924
56.770 14.419889
56.775 14.405376
56.780 14.567462
56.785 14.159884
56.790 14.346056
56.795 14.696691
56.800 14.18433
56.805 14.486468
56.810 14.426886
56.815 13.865804
56.820 13.989894
56.825 13.924124
56.830 13.80637
56.835 13.940762
56.840 14.171398
56.845 14.313788
56.850 14.363746
56.855 13.932523
56.860 13.174968
56.865 12.790616
56.870 12.418184
56.875 11.977822
56.880 11.974826
56.885 12.5464
56.890 13.142144
56.895 13.590796
56.900 13.969541
56.905 14.07957
56.910 13.824123
56.915 13.579607
56.920 13.149077
56.925 13.02368
56.930 13.009227
56.935 13.110793
56.940 13.177313
56.945 13.570606
56.950 13.34977
56.955 13.362797
56.960 13.35782
56.965 12.806771
56.970 12.477535
56.975 12.71399
56.980 12.602061
56.985 13.437235
56.990 13.794359
56.995 13.650878
57.000 13.883586
57.005 14.478986
57.010 14.791853
57.015 14.831685
57.020 14.455628
57.025 14.42552
57.030 14.838929
57.035 15.635445
57.040 15.134715
57.045 14.726518
57.050 15.103642
57.055 15.238038
57.060 14.963549
57.065 14.646844
57.070 14.152907
57.075 13.951456
57.080 13.862703
57.085 13.204776
57.090 13.062212
57.095 13.489627
57.100 13.628734
57.105 13.26639
57.110 13.496957
57.115 13.155908
57.120 13.018361
57.125 12.35112
57.130 11.972394
57.135 12.070799
57.140 12.270153
57.145 12.009594
57.150 12.566804
57.155 12.918857
57.160 13.373321
57.165 13.202197
57.170 13.380794
57.175 13.597591
57.180 13.685028
57.185 13.243814
57.190 12.988173
57.195 12.836599
57.200 13.202999
57.205 12.763291
57.210 12.657867
57.215 12.656173
57.220 12.883244
57.225 13.191007
57.230 13.405527
57.235 13.101206
57.240 13.358704
57.245 13.874322
57.250 14.388288
57.255 14.382237
57.260 14.121678
57.265 13.690121
57.270 13.970406
57.275 13.952806
57.280 13.397949
57.285 12.890423
57.290 13.173443
57.295 13.312217
57.300 13.603733
57.305 13.4814
57.310 13.570376
57.315 14.038674
57.320 14.109566
57.325 13.875979
57.330 13.782356
57.335 13.835901
57.340 13.58763
57.345 13.119503
57.350 12.315345
57.355 12.574526
57.360 13.111969
57.365 13.899773
57.370 13.985
57.375 14.269559
57.380 14.531838
57.385 14.758172
57.390 14.946944
57.395 14.355327
57.400 14.291547
57.405 14.009856
57.410 14.11619
57.415 14.229048
57.420 14.61984
57.425 14.283175
57.430 14.301269
57.435 14.291355
57.440 14.489418
57.445 14.348571
57.450 14.577137
57.455 14.395267
57.460 14.91962
57.465 15.166879
57.470 14.882863
57.475 14.436273
57.480 13.930068
57.485 13.33968
57.490 13.209025
57.495 13.063668
57.500 13.036736
57.505 13.266798
57.510 13.795841
57.515 14.618867
57.520 15.311648
57.525 14.84897
57.530 14.437086
57.535 13.66343
57.540 13.220734
57.545 13.000881
57.550 12.443102
57.555 12.056033
57.560 12.407528
57.565 12.353579
57.570 12.97205
57.575 13.623533
57.580 13.694431
57.585 14.068842
57.590 13.943854
57.595 14.303885
57.600 14.681442
57.605 14.587212
57.610 14.39345
57.615 14.562819
57.620 14.614431
57.625 15.480486
57.630 15.259607
57.635 14.704112
57.640 14.697897
57.645 14.519134
57.650 14.224167
57.655 14.155276
57.660 13.29518
57.665 13.557032
57.670 13.705564
57.675 13.549894
57.680 13.933798
57.685 13.844731
57.690 13.826062
57.695 13.867583
57.700 13.912372
57.705 14.041433
57.710 13.94941
57.715 13.557204
57.720 13.76627
57.725 13.721886
57.730 13.930305
57.735 13.838125
57.740 13.864766
57.745 13.925421
57.750 14.151678
57.755 14.159311
57.760 14.517264
57.765 15.312884
57.770 15.461445
57.775 15.342486
57.780 15.399234
57.785 15.519145
57.790 15.52983
57.795 15.12577
57.800 14.492863
57.805 14.616415
57.810 14.978515
57.815 15.127234
57.820 14.847647
57.825 14.804714
57.830 14.79903
57.835 14.652433
57.840 14.29647
57.845 14.208782
57.850 13.938837
57.855 14.056211
57.860 14.098117
57.865 14.172247
57.870 14.396756
57.875 14.680571
57.880 14.628547
57.885 15.033607
57.890 15.034381
57.895 14.760059
57.900 14.404637
57.905 14.425388
57.910 14.581147
57.915 14.942578
57.920 14.707344
57.925 14.707274
57.930 14.974522
57.935 14.903025
57.940 14.44524
57.945 13.970952
57.950 13.599679
57.955 13.466486
57.960 13.506668
57.965 13.584612
57.970 13.8223
57.975 13.955762
57.980 14.457376
57.985 15.171795
57.990 15.466828
57.995 15.994003
58.000 16.419876
58.005 16.928314
58.010 17.238235
58.015 16.856113
58.020 16.12219
58.025 16.234993
58.030 16.028507
58.035 15.635391
58.040 15.323961
58.045 15.481624
58.050 15.597207
58.055 15.470316
58.060 15.320007
58.065 15.29617
58.070 15.363512
58.075 15.031552
58.080 15.05367
58.085 15.713443
58.090 16.038298
58.095 15.959654
58.100 15.642059
58.105 15.792773
58.110 16.420774
58.115 16.18334
58.120 16.387625
58.125 17.028673
58.130 16.862192
58.135 16.953224
58.140 16.686827
58.145 16.323744
58.150 16.165567
58.155 15.860884
58.160 15.467869
58.165 15.758192
58.170 16.39572
58.175 16.339716
58.180 15.895366
58.185 15.706779
58.190 15.500019
58.195 15.21103
58.200 15.357838
58.205 15.317218
58.210 15.159909
58.215 15.228462
58.220 15.457379
58.225 15.427815
58.230 15.281427
58.235 15.189632
58.240 15.092706
58.245 15.722567
58.250 16.37571
58.255 16.749506
58.260 16.655447
58.265 16.632309
58.270 16.581451
58.275 16.852098
58.280 17.288555
58.285 16.810848
58.290 16.559216
58.295 17.626345
58.300 17.929867
58.305 17.818638
58.310 17.54808
58.315 17.694939
58.320 17.834494
58.325 17.157877
58.330 16.849318
58.335 17.229336
58.340 17.5898
58.345 17.288704
58.350 16.838034
58.355 16.937866
58.360 17.184561
58.365 17.104574
58.370 16.85022
58.375 17.058748
58.380 17.464319
58.385 17.493046
58.390 17.468927
58.395 17.340792
58.400 17.163021
58.405 17.608284
58.410 16.938158
58.415 16.468508
58.420 17.000919
58.425 18.214212
58.430 19.327717
58.435 19.075615
58.440 18.801786
58.445 19.37451
58.450 20.162489
58.455 19.970926
58.460 18.920271
58.465 18.051985
58.470 18.272926
58.475 18.643648
58.480 18.797306
58.485 18.445633
58.490 18.985006
58.495 20.037279
58.500 20.750639
58.505 20.680792
58.510 19.796797
58.515 19.167585
58.520 19.320496
58.525 19.45409
58.530 19.525087
58.535 19.854494
58.540 20.425041
58.545 21.020773
58.550 21.155479
58.555 20.676451
58.560 20.333689
58.565 19.645336
58.570 18.848642
58.575 18.441692
58.580 18.552776
58.585 19.044678
58.590 19.21541
58.595 19.334215
58.600 19.170076
58.605 19.280989
58.610 19.318041
58.615 19.380102
58.620 19.029591
58.625 18.736959
58.630 18.268553
58.635 18.306906
58.640 17.935913
58.645 18.337683
58.650 18.712978
58.655 18.638739
58.660 19.100891
58.665 19.704767
58.670 19.628307
58.675 19.840078
58.680 19.016552
58.685 18.740437
58.690 19.13715
58.695 18.817797
58.700 18.638184
58.705 18.715309
58.710 18.380484
58.715 18.61202
58.720 18.183718
58.725 18.29426
58.730 17.847294
58.735 17.776493
58.740 18.632095
58.745 19.603659
58.750 20.10887
58.755 20.337177
58.760 20.761618
58.765 20.985641
58.770 20.865025
58.775 20.484234
58.780 19.794054
58.785 19.361614
58.790 19.385754
58.795 19.46382
58.800 19.980261
58.805 20.01811
58.810 19.547045
58.815 19.940886
58.820 19.674467
58.825 19.343962
58.830 18.677002
58.835 17.685455
58.840 17.171974
58.845 17.358955
58.850 16.737846
58.855 17.086796
58.860 17.025658
58.865 17.494173
58.870 17.495584
58.875 17.580992
58.880 17.95993
58.885 18.208382
58.890 18.593134
58.895 18.237232
58.900 17.73567
58.905 18.118326
58.910 18.386353
58.915 18.035839
58.920 17.770428
58.925 17.054058
58.930 17.453981
58.935 17.723209
58.940 18.093794
58.945 18.406006
58.950 18.445841
58.955 18.999353
58.960 19.577206
58.965 19.462248
58.970 19.300447
58.975 19.088902
58.980 18.534306
58.985 18.034691
58.990 17.317436
58.995 17.159071
59.000 17.041082
59.005 16.966848
59.010 17.342726
59.015 17.092749
59.020 16.967592
59.025 17.297724
59.030 17.706341
59.035 17.83757
59.040 18.252527
59.045 17.814508
59.050 18.033838
59.055 18.494867
59.060 18.551735
59.065 18.551336
59.070 18.657072
59.075 18.445526
59.080 18.847025
59.085 19.000797
59.090 18.734297
59.095 18.236256
59.100 17.696611
59.105 17.733192
59.110 17.44388
59.115 17.217726
59.120 17.576757
59.125 17.655333
59.130 17.702791
59.135 17.566122
59.140 17.858032
59.145 18.477671
59.150 17.582518
59.155 17.253328
59.160 17.058208
59.165 17.231789
59.170 17.30908
59.175 16.844221
59.180 16.746744
59.185 17.908199
59.190 17.690311
59.195 18.024643
59.200 18.400864
59.205 18.438414
59.210 18.238506
59.215 17.966608
59.220 17.714899
59.225 18.076124
59.230 17.93894
59.235 17.971708
59.240 18.03228
59.245 18.253029
59.250 18.345196
59.255 18.257877
59.260 18.614168
59.265 18.5718
59.270 17.95883
59.275 17.871319
59.280 17.712147
59.285 17.5114
59.290 17.701952
59.295 17.767323
59.300 18.036133
59.305 18.206186
59.310 18.515976
59.315 18.480728
59.320 18.749125
59.325 18.51956
59.330 17.683651
59.335 17.725443
59.340 17.773165
59.345 17.443792
59.350 17.474684
59.355 17.173998
59.360 17.352793
59.365 17.555948
59.370 17.21946
59.375 17.205713
59.380 17.186615
59.385 17.066525
59.390 17.543886
59.395 17.316896
59.400 17.373289
59.405 17.591015
59.410 17.693096
59.415 18.173653
59.420 18.525434
59.425 18.388443
59.430 18.407711
59.435 18.187317
59.440 17.999159
59.445 17.850975
59.450 17.538017
59.455 17.108217
59.460 17.029709
59.465 17.592516
59.470 17.978235
59.475 18.146641
59.480 18.549154
59.485 18.607847
59.490 19.02076
59.495 19.308935
59.500 18.792643
59.505 19.332544
59.510 19.028454
59.515 18.701233
59.520 18.209023
59.525 17.932913
59.530 17.778612
59.535 17.736734
59.540 17.711346
59.545 18.006826
59.550 17.827425
59.555 18.418224
59.560 18.544676
59.565 18.578646
59.570 18.567474
59.575 18.234119
59.580 18.462013
59.585 18.63414
59.590 18.477985
59.595 18.011509
59.600 17.595703
59.605 17.731077
59.610 17.750801
59.615 17.321211
59.620 17.555485
59.625 17.520922
59.630 18.01581
59.635 18.185194
59.640 18.244347
59.645 17.845266
59.650 18.066687
59.655 17.917618
59.660 18.397207
59.665 18.410631
59.670 18.546583
59.675 18.286446
59.680 18.470396
59.685 18.629274
59.690 19.094368
59.695 18.8839
59.700 19.274574
59.705 19.41675
59.710 19.741148
59.715 19.52309
59.720 19.469336
59.725 18.994884
59.730 18.929688
59.735 18.622475
59.740 19.083048
59.745 19.214645
59.750 19.794403
59.755 19.786989
59.760 19.953497
59.765 19.752323
59.770 19.683798
59.775 19.482441
59.780 19.06459
59.785 18.496241
59.790 18.379845
59.795 18.708847
59.800 19.307339
59.805 19.014561
59.810 19.073362
59.815 19.420927
59.820 20.024963
59.825 20.359102
59.830 20.30777
59.835 20.004993
59.840 19.714161
59.845 19.698301
59.850 19.59823
59.855 18.917717
59.860 18.516911
59.865 18.775871
59.870 19.111788
59.875 19.5263
59.880 18.794905
59.885 19.327057
59.890 19.965017
59.895 20.384943
59.900 20.14809
59.905 19.984797
59.910 20.318975
59.915 20.889601
59.920 20.636559
59.925 20.293402
59.930 19.716881
59.935 20.114538
59.940 20.475521
59.945 19.993
59.950 19.096888
59.955 18.860876
59.960 19.101133
59.965 19.476059
59.970 18.998022
59.975 18.745401
59.980 19.085752
59.985 19.689566
59.990 19.791819
59.995 19.218153
60.000 18.967407
60.005 18.651604
60.010 19.096586
60.015 19.296354
60.020 19.664068
60.025 19.825907
60.030 20.180746
60.035 20.20756
60.040 21.012945
60.045 21.348022
60.050 21.124441
60.055 20.984196
60.060 21.122452
60.065 21.191601
60.070 21.69537
60.075 21.374012
60.080 20.776979
60.085 20.659607
60.090 20.281427
60.095 19.893854
60.100 19.873716
60.105 19.970604
60.110 19.609709
60.115 19.447281
60.120 19.549501
60.125 19.416107
60.130 19.484173
60.135 19.690699
60.140 19.223139
60.145 18.782394
60.150 18.644648
60.155 19.09166
60.160 19.755836
60.165 20.086208
60.170 19.768248
60.175 20.238111
60.180 20.62673
60.185 20.425903
60.190 19.847605
60.195 19.877487
60.200 19.998913
60.205 20.082975
60.210 19.498957
60.215 19.308754
60.220 18.925684
60.225 19.376009
60.230 18.656544
60.235 18.474579
60.240 18.045527
60.245 18.350838
60.250 18.894615
60.255 19.840662
60.260 19.166857
60.265 19.529896
60.270 19.567915
60.275 19.400946
60.280 19.352779
60.285 19.016413
60.290 17.764383
60.295 17.420549
60.300 16.690016
60.305 16.341606
60.310 16.090612
60.315 15.797124
60.320 16.008669
60.325 16.319628
60.330 17.058889
60.335 17.640305
60.340 17.636484
60.345 18.084686
60.350 18.416779
60.355 18.046465
60.360 18.282064
60.365 17.848379
60.370 18.350872
60.375 18.610849
60.380 18.720181
60.385 17.875942
60.390 17.619228
60.395 17.92742
60.400 18.47574
60.405 17.960135
60.410 18.012617
60.415 17.628157
60.420 18.561728
60.425 19.455751
60.430 19.507786
60.435 19.285206
60.440 19.494061
60.445 19.422174
60.450 19.292439
60.455 18.664352
60.460 18.085863
60.465 17.964003
60.470 18.100704
60.475 17.621206
60.480 17.323572
60.485 17.138475
60.490 17.143248
60.495 16.8967
60.500 16.007988
60.505 15.558922
60.510 15.121461
60.515 15.554913
60.520 15.746802
60.525 16.218378
60.530 16.372612
60.535 16.926537
60.540 17.133022
60.545 17.793921
60.550 17.335194
60.555 17.260563
60.560 17.002422
60.565 16.992575
60.570 17.04994
60.575 16.898396
60.580 16.860601
60.585 17.564465
60.590 17.796507
60.595 18.007401
60.600 18.308146
60.605 18.404963
60.610 18.677656
60.615 18.167002
60.620 18.002874
60.625 17.943958
60.630 18.083887
60.635 17.760759
60.640 17.18828
60.645 16.965038
60.650 17.088631
60.655 17.009241
60.660 17.10268
60.665 16.935385
60.670 16.825478
60.675 16.948587
60.680 17.067047
60.685 17.018354
60.690 16.962994
60.695 16.458624
60.700 16.401655
60.705 16.493998
60.710 16.335636
60.715 16.496035
60.720 16.514856
60.725 16.384155
60.730 16.857494
60.735 16.88022
60.740 17.19466
60.745 17.467525
60.750 17.109102
60.755 17.111229
60.760 16.424595
60.765 16.193476
60.770 16.065617
60.775 15.411301
60.780 15.063763
60.785 15.185766
60.790 15.351393
60.795 15.629853
60.800 16.035278
60.805 15.781115
60.810 16.015396
60.815 16.655231
60.820 16.599585
60.825 17.078091
60.830 17.176212
60.835 17.252377
60.840 17.269901
60.845 17.189566
60.850 17.401491
60.855 17.459858
60.860 16.756136
60.865 16.549198
60.870 16.209011
60.875 16.419291
60.880 16.558828
60.885 15.761558
60.890 15.557048
60.895 15.48437
60.900 15.823939
60.905 15.724259
60.910 15.461412
60.915 15.165877
60.920 15.608458
60.925 15.811993
60.930 16.143232
60.935 16.12908
60.940 15.537948
60.945 15.605869
60.950 15.687428
60.955 16.157362
60.960 16.327362
60.965 16.02158
60.970 15.935435
60.975 16.54792
60.980 16.764748
60.985 17.547235
60.990 16.840181
60.995 16.597475
61.000 16.735029
61.005 16.905344
61.010 16.895145
61.015 16.758011
61.020 16.883144
61.025 16.894283
61.030 16.626387
61.035 16.745701
61.040 16.866064
61.045 16.811268
61.050 16.682507
61.055 15.402195
61.060 15.663635
61.065 16.082239
61.070 16.147066
61.075 16.169111
61.080 16.086681
61.085 16.339817
61.090 17.145029
61.095 16.754772
61.100 16.270292
61.105 15.838283
61.110 15.561316
61.115 15.83596
61.120 15.224709
61.125 15.139783
61.130 15.102949
61.135 15.085748
61.140 15.008882
61.145 15.332404
61.150 15.470636
61.155 15.83229
61.160 16.201811
61.165 16.679192
61.170 17.051874
61.175 17.49964
61.180 16.994394
61.185 16.750782
61.190 16.753489
61.195 16.288359
61.200 16.143318
61.205 15.997617
61.210 15.967072
61.215 16.180124
61.220 16.425779
61.225 17.160772
61.230 17.76033
61.235 17.69973
61.240 17.907433
61.245 18.207451
61.250 18.382032
61.255 18.426493
61.260 17.657101
61.265 17.302999
61.270 17.324272
61.275 17.289875
61.280 17.315353
61.285 17.367285
61.290 17.244337
61.295 17.657452
61.300 17.645704
61.305 17.679209
61.310 17.537863
61.315 17.327909
61.320 16.810093
61.325 16.556141
61.330 16.168701
61.335 16.248606
61.340 16.548586
61.345 16.765202
61.350 16.61709
61.355 16.926716
61.360 16.208878
61.365 15.960661
61.370 15.596557
61.375 15.092856
61.380 15.027761
61.385 15.439608
61.390 15.701271
61.395 16.328707
61.400 16.780956
61.405 17.4554
61.410 17.329117
61.415 17.520502
61.420 17.243114
61.425 16.976089
61.430 16.803419
61.435 16.195814
61.440 15.908834
61.445 16.029545
61.450 15.704883
61.455 15.704956
61.460 16.017696
61.465 16.460119
61.470 16.289362
61.475 16.199833
61.480 16.545359
61.485 16.589321
61.490 16.457993
61.495 16.182896
61.500 16.612698
61.505 17.566181
61.510 17.933527
61.515 18.261608
61.520 18.15065
61.525 18.396446
61.530 18.406687
61.535 17.947973
61.540 17.460705
61.545 17.878498
61.550 17.728542
61.555 18.024794
61.560 17.867445
61.565 17.511087
61.570 17.556665
61.575 17.444796
61.580 16.522003
61.585 16.50452
61.590 16.32353
61.595 16.659807
61.600 16.998653
61.605 17.146395
61.610 17.554892
61.615 17.294992
61.620 16.782375
61.625 16.741348
61.630 16.404448
61.635 16.379877
61.640 16.416346
61.645 15.879899
61.650 16.195917
61.655 16.571529
61.660 16.542692
61.665 16.389496
61.670 16.174816
61.675 16.303291
61.680 16.549234
61.685 16.396381
61.690 15.727466
61.695 15.862205
61.700 16.051435
61.705 16.341433
61.710 16.20174
61.715 16.483505
61.720 16.300661
61.725 16.692272
61.730 16.422634
61.735 16.185499
61.740 15.512151
61.745 15.387714
61.750 15.30251
61.755 15.417294
61.760 15.462883
61.765 15.677332
61.770 16.264442
61.775 16.242811
61.780 16.116779
61.785 16.321547
61.790 16.198566
61.795 16.163857
61.800 16.050343
61.805 15.932076
61.810 16.289318
61.815 16.307949
61.820 16.536406
61.825 16.993353
61.830 17.453516
61.835 17.445295
61.840 17.388376
61.845 17.429331
61.850 17.275957
61.855 17.337954
61.860 17.51528
61.865 17.432547
61.870 17.489519
61.875 17.492373
61.880 17.465164
61.885 18.04669
61.890 17.875652
61.895 17.145601
61.900 17.112278
61.905 16.862854
61.910 16.579599
61.915 16.561604
61.920 16.491213
61.925 16.722242
61.930 16.767279
61.935 16.685511
61.940 16.748024
61.945 16.382082
61.950 15.920438
61.955 15.834246
61.960 15.349463
61.965 15.845716
61.970 16.152533
61.975 16.534225
61.980 16.658884
61.985 16.882618
61.990 17.020315
61.995 16.990887
62.000 16.327915
62.005 15.414331
62.010 14.919637
62.015 15.24733
62.020 14.873861
62.025 14.820677
62.030 15.244861
62.035 15.668509
62.040 16.346029
62.045 16.537952
62.050 16.673727
62.055 17.223104
62.060 17.335716
62.065 17.063465
62.070 16.92481
62.075 16.81155
62.080 16.85384
62.085 17.003904
62.090 16.627008
62.095 16.29435
62.100 16.299414
62.105 16.342134
62.110 16.707907
62.115 16.243418
62.120 15.801038
62.125 16.2694
62.130 16.565884
62.135 17.362452
62.140 18.16382
62.145 17.804312
62.150 17.814938
62.155 18.10198
62.160 18.04273
62.165 18.046255
62.170 17.644791
62.175 16.932413
62.180 17.412218
62.185 17.918472
62.190 18.010242
62.195 17.539917
62.200 17.106516
62.205 16.633181
62.210 16.47167
62.215 16.808113
62.220 16.812387
62.225 16.263781
62.230 16.19182
62.235 15.847221
62.240 16.450708
62.245 16.855867
62.250 16.576292
62.255 16.549683
62.260 17.089514
62.265 17.402878
62.270 17.239725
62.275 16.774792
62.280 16.33987
62.285 16.407776
62.290 16.100727
62.295 16.031191
62.300 15.894073
62.305 16.404947
62.310 16.78673
62.315 16.533449
62.320 16.647348
62.325 16.872589
62.330 16.607069
62.335 16.975445
62.340 16.957573
62.345 17.158205
62.350 17.402317
62.355 16.890759
62.360 16.972664
62.365 17.088331
62.370 16.79866
62.375 16.520624
62.380 15.99791
62.385 15.865741
62.390 15.588149
62.395 15.645286
62.400 15.517058
62.405 15.803999
62.410 16.154621
62.415 16.264278
62.420 16.405645
62.425 16.954693
62.430 17.153662
62.435 17.046028
62.440 17.190956
62.445 17.375107
62.450 18.127943
62.455 18.265871
62.460 17.959616
62.465 17.584286
62.470 17.858532
62.475 18.245813
62.480 18.683493
62.485 18.254013
62.490 18.6106
62.495 18.984379
62.500 19.198256
62.505 18.853119
62.510 18.237553
62.515 18.051161
62.520 18.383381
62.525 19.045616
62.530 19.09429
62.535 18.732828
62.540 18.809975
62.545 18.247662
62.550 17.82164
62.555 16.913008
62.560 15.659626
62.565 15.190402
62.570 15.097082
62.575 14.868607
62.580 15.117039
62.585 14.986896
62.590 14.745805
62.595 14.743398
62.600 15.436436
62.605 15.462304
62.610 15.167389
62.615 15.012585
62.620 14.917585
62.625 15.515059
62.630 15.537216
62.635 15.311423
62.640 15.646533
62.645 16.403658
62.650 16.361345
62.655 16.667009
62.660 17.049545
62.665 16.920683
62.670 17.148239
62.675 17.106297
62.680 16.762568
62.685 17.200224
62.690 17.012892
62.695 16.745552
62.700 17.238224
62.705 17.139286
62.710 17.386955
62.715 17.808128
62.720 17.855444
62.725 17.806341
62.730 17.998453
62.735 18.8342
62.740 18.722672
62.745 18.312748
62.750 18.088867
62.755 17.873789
62.760 17.575142
62.765 17.474726
62.770 16.05859
62.775 16.344347
62.780 16.730648
62.785 16.748966
62.790 16.95459
62.795 17.834373
62.800 17.999565
62.805 18.678774
62.810 17.869368
62.815 17.736769
62.820 17.896336
62.825 17.727497
62.830 17.101139
62.835 16.927923
62.840 16.852943
62.845 17.00799
62.850 17.03224
62.855 17.182087
62.860 16.71048
62.865 16.377705
62.870 16.284061
62.875 16.00728
62.880 16.165792
62.885 15.940393
62.890 15.864328
62.895 15.858056
62.900 16.268167
62.905 16.597651
62.910 16.304129
62.915 16.721781
62.920 16.456635
62.925 16.434572
62.930 16.90144
62.935 17.056433
62.940 16.54591
62.945 17.181534
62.950 16.915941
62.955 16.571133
62.960 16.666307
62.965 16.485901
62.970 16.750607
62.975 17.000296
62.980 17.123861
62.985 17.744488
62.990 18.321491
62.995 18.194592
63.000 18.13043
63.005 18.077793
63.010 17.852694
63.015 17.047335
63.020 16.139889
63.025 15.690288
63.030 15.686544
63.035 15.955462
63.040 16.00145
63.045 15.976473
63.050 16.459881
63.055 16.792233
63.060 17.360941
63.065 17.093941
63.070 16.74258
63.075 16.312191
63.080 16.522867
63.085 16.745256
63.090 17.019461
63.095 17.24287
63.100 18.080145
63.105 18.41341
63.110 18.808958
63.115 18.947578
63.120 18.497028
63.125 18.359707
63.130 18.018997
63.135 17.183882
63.140 16.980989
63.145 16.290342
63.150 15.735584
63.155 15.836745
63.160 15.499507
63.165 15.729013
63.170 16.18257
63.175 16.696777
63.180 17.83688
63.185 18.304768
63.190 18.38344
63.195 18.312113
63.200 18.096319
63.205 17.386332
63.210 16.817616
63.215 15.785455
63.220 15.492283
63.225 15.262623
63.230 15.242443
63.235 15.081916
63.240 15.206159
63.245 15.178513
63.250 15.793845
63.255 16.076317
63.260 16.230507
63.265 16.158245
63.270 16.397123
63.275 16.979853
63.280 17.612417
63.285 17.788427
63.290 17.904766
63.295 18.267109
63.300 18.26569
63.305 18.423174
63.310 18.679274
63.315 18.622728
63.320 18.475149
63.325 18.735762
63.330 19.150028
63.335 18.924746
63.340 18.318516
63.345 17.892429
63.350 17.156778
63.355 16.745035
63.360 16.446836
63.365 16.285589
63.370 16.731972
63.375 16.963278
63.380 16.572424
63.385 16.84247
63.390 17.108854
63.395 16.602818
63.400 15.849598
63.405 15.832285
63.410 16.11096
63.415 16.659315
63.420 17.49427
63.425 17.913939
63.430 18.538445
63.435 19.681911
63.440 19.575474
63.445 19.668633
63.450 19.355688
63.455 18.706818
63.460 18.730301
63.465 18.674128
63.470 18.881878
63.475 19.269178
63.480 19.677763
63.485 19.940516
63.490 19.466898
63.495 18.997061
63.500 19.005253
63.505 19.018282
63.510 18.570156
63.515 18.021013
63.520 18.239035
63.525 18.833477
63.530 19.218117
63.535 19.486515
63.540 18.410032
63.545 18.38735
63.550 18.318899
63.555 18.331532
63.560 18.574781
63.565 18.727478
63.570 18.367495
63.575 18.937721
63.580 19.057995
63.585 18.74369
63.590 18.764793
63.595 18.64426
63.600 18.687353
63.605 19.163519
63.610 19.75536
63.615 19.973024
63.620 20.208591
63.625 20.098631
63.630 20.126511
63.635 20.037344
63.640 19.618441
63.645 19.296541
63.650 19.104961
63.655 19.189793
63.660 19.455738
63.665 19.270391
63.670 18.844791
63.675 18.838369
63.680 18.58795
63.685 18.532711
63.690 18.36882
63.695 18.68668
63.700 19.147678
63.705 20.046751
63.710 20.287754
63.715 20.925476
63.720 21.231962
63.725 21.142235
63.730 20.741663
63.735 20.36631
63.740 19.47942
63.745 19.009171
63.750 18.834887
63.755 19.273802
63.760 18.83625
63.765 18.679569
63.770 18.465082
63.775 18.791536
63.780 18.985569
63.785 18.730766
63.790 18.505388
63.795 19.798761
63.800 19.796099
63.805 20.254885
63.810 20.667278
63.815 20.90041
63.820 20.843344
63.825 20.786034
63.830 20.012764
63.835 20.980516
63.840 20.966446
63.845 20.376379
63.850 20.077997
63.855 20.102402
63.860 20.136028
63.865 19.984514
63.870 19.207037
63.875 19.399218
63.880 20.381868
63.885 20.986248
63.890 21.424997
63.895 21.410742
63.900 21.901516
63.905 22.065952
63.910 22.085417
63.915 21.340101
63.920 21.067972
63.925 20.899895
63.930 20.613403
63.935 20.28026
63.940 20.591211
63.945 20.615871
63.950 20.679813
63.955 20.924709
63.960 20.863041
63.965 21.21237
63.970 21.321217
63.975 20.947342
63.980 20.850517
63.985 21.453136
63.990 21.61447
63.995 22.252075
64.000 22.652416
64.005 22.700748
64.010 22.96048
64.015 23.601822
64.020 23.198435
64.025 22.925852
64.030 22.809916
64.035 22.19471
64.040 22.401773
64.045 22.704847
64.050 22.871298
64.055 22.721464
64.060 22.842119
64.065 23.062517
64.070 23.530346
64.075 23.921247
64.080 23.807409
64.085 24.026749
64.090 24.384287
64.095 24.179188
64.100 23.913776
64.105 24.006907
64.110 23.147898
64.115 22.90295
64.120 22.94838
64.125 22.652218
64.130 21.96114
64.135 21.820454
64.140 21.701973
64.145 22.002604
64.150 21.296438
64.155 20.862146
64.160 21.544245
64.165 23.064373
64.170 23.384087
64.175 23.616528
64.180 23.05278
64.185 22.70365
64.190 22.168718
64.195 21.015684
64.200 20.072777
64.205 19.624861
64.210 19.594412
64.215 20.10136
64.220 21.16222
64.225 21.902597
64.230 22.805059
64.235 23.246405
64.240 22.927547
64.245 22.540541
64.250 22.749434
64.255 22.272015
64.260 21.791506
64.265 21.715225
64.270 21.572094
64.275 21.657194
64.280 21.664036
64.285 22.287624
64.290 22.470594
64.295 22.146336
64.300 21.858976
64.305 21.648426
64.310 22.026653
64.315 21.709087
64.320 20.885822
64.325 20.769552
64.330 20.762356
64.335 20.459654
64.340 20.947163
64.345 21.332212
64.350 21.460716
64.355 21.980637
64.360 22.134928
64.365 22.622604
64.370 22.475668
64.375 21.939047
64.380 21.78145
64.385 21.977573
64.390 21.795589
64.395 22.286291
64.400 22.492239
64.405 22.88822
64.410 23.186485
64.415 22.911701
64.420 22.925694
64.425 22.78684
64.430 22.754606
64.435 22.761982
64.440 22.757704
64.445 23.551661
64.450 23.710768
64.455 23.615776
64.460 23.355835
64.465 23.054476
64.470 22.833567
64.475 23.140127
64.480 22.823694
64.485 23.039083
64.490 23.327291
64.495 23.948751
64.500 23.659096
64.505 23.019745
64.510 22.000946
64.515 21.701353
64.520 21.337502
64.525 20.94663
64.530 20.695436
64.535 21.237469
64.540 22.244722
64.545 22.949505
64.550 22.587309
64.555 22.85763
64.560 23.292311
64.565 23.230789
64.570 22.222763
64.575 21.608898
64.580 21.572874
64.585 21.750385
64.590 21.793663
64.595 21.448463
64.600 21.458376
64.605 21.140682
64.610 21.016342
64.615 21.140417
64.620 20.984547
64.625 20.654293
64.630 20.43648
64.635 20.443468
64.640 21.314896
64.645 21.198057
64.650 20.557673
64.655 20.224405
64.660 20.281738
64.665 20.290285
64.670 20.081848
64.675 19.733601
64.680 20.18309
64.685 20.647537
64.690 21.332567
64.695 21.948977
64.700 22.73312
64.705 22.680534
64.710 22.363878
64.715 22.260464
64.720 22.346205
64.725 21.635834
64.730 21.003353
64.735 20.810621
64.740 21.29455
64.745 21.089441
64.750 20.632172
64.755 20.375917
64.760 20.155537
64.765 19.921188
64.770 19.700029
64.775 19.727819
64.780 20.513937
64.785 20.659271
64.790 20.595404
64.795 20.978727
64.800 21.634148
64.805 21.811581
64.810 22.352667
64.815 22.676497
64.820 23.274805
64.825 24.005892
64.830 24.337967
64.835 24.566671
64.840 24.481289
64.845 23.912058
64.850 23.340952
64.855 23.163801
64.860 22.65081
64.865 21.967062
64.870 21.536907
64.875 21.729759
64.880 21.48274
64.885 20.859755
64.890 20.185692
64.895 20.550306
64.900 20.85602
64.905 20.45175
64.910 20.124165
64.915 19.63702
64.920 20.349918
64.925 20.802269
64.930 20.81736
64.935 20.690514
64.940 21.118704
64.945 21.266127
64.950 22.334438
64.955 22.290285
64.960 22.150026
64.965 22.273235
64.970 22.279047
64.975 21.686596
64.980 21.944418
64.985 22.327635
64.990 22.734486
64.995 22.371803
65.000 22.195951
65.005 22.422487
65.010 22.828331
65.015 23.141069
65.020 22.684862
65.025 22.065235
65.030 22.446493
65.035 22.634336
65.040 22.985859
65.045 22.671015
65.050 22.119265
65.055 22.574333
65.060 23.151947
65.065 22.954041
65.070 22.720829
65.075 22.441343
65.080 23.319954
65.085 23.657753
65.090 24.211185
65.095 24.57102
65.100 25.046816
65.105 25.621637
65.110 25.716675
65.115 24.639259
65.120 24.549435
65.125 24.490911
65.130 24.154255
65.135 23.713831
65.140 23.253843
65.145 23.500463
65.150 24.357857
65.155 24.72813
65.160 24.366337
65.165 24.575153
65.170 24.624046
65.175 24.324524
65.180 23.663492
65.185 22.797352
65.190 22.438379
65.195 21.818542
65.200 22.080788
65.205 22.83362
65.210 23.248331
65.215 23.876732
65.220 24.225912
65.225 24.29705
65.230 25.233006
65.235 24.590094
65.240 23.755695
65.245 23.383959
65.250 22.956871
65.255 22.693794
65.260 22.742611
65.265 22.174393
65.270 22.102585
65.275 22.259972
65.280 22.778639
65.285 22.931173
65.290 22.778196
65.295 22.78252
65.300 23.176609
65.305 23.25724
65.310 23.542397
65.315 23.116945
65.320 23.01416
65.325 23.191206
65.330 22.458275
65.335 22.115685
65.340 22.094585
65.345 21.988573
65.350 22.688025
65.355 23.442085
65.360 23.700815
65.365 24.193459
65.370 24.458563
65.375 24.692463
65.380 24.692667
65.385 23.89971
65.390 23.416464
65.395 23.50577
65.400 22.807901
65.405 22.450014
65.410 22.529507
65.415 22.781609
65.420 23.420279
65.425 23.324263
65.430 22.662172
65.435 23.406702
65.440 23.538546
65.445 23.513605
65.450 23.824587
65.455 23.710821
65.460 24.624062
65.465 25.334621
65.470 25.530745
65.475 25.428467
65.480 25.473291
65.485 24.921129
65.490 25.230679
65.495 25.273613
65.500 25.40741
65.505 25.060297
65.510 25.710985
65.515 25.750977
65.520 25.745722
65.525 25.228613
65.530 25.033531
65.535 24.857872
65.540 25.343243
65.545 25.738949
65.550 26.688293
65.555 27.729006
65.560 27.739513
65.565 27.293175
65.570 27.382864
65.575 27.426357
65.580 27.243582
65.585 26.473234
65.590 26.093435
65.595 26.652025
65.600 27.307947
65.605 26.905396
65.610 27.072836
65.615 26.791321
65.620 26.621107
65.625 26.717577
65.630 25.899393
65.635 25.480911
65.640 25.910337
65.645 26.441242
65.650 26.757015
65.655 27.559626
65.660 27.792673
65.665 28.769726
65.670 29.056797
65.675 29.510311
65.680 29.506187
65.685 30.0054
65.690 30.079008
65.695 30.263933
65.700 30.224936
65.705 30.654539
65.710 31.027004
65.715 31.734554
65.720 32.165276
65.725 32.459694
65.730 32.47327
65.735 32.267029
65.740 32.291592
65.745 32.157944
65.750 32.564644
65.755 32.46553
65.760 31.996315
65.765 31.691029
65.770 32.625694
65.775 32.803211
65.780 32.609276
65.785 31.436472
65.790 31.069782
65.795 31.774305
65.800 32.364956
65.805 32.212708
65.810 32.243801
65.815 32.280827
65.820 33.128342
65.825 33.470665
65.830 33.650917
65.835 33.830837
65.840 34.051186
65.845 34.063301
65.850 34.236481
65.855 34.848198
65.860 35.272011
65.865 35.418091
65.870 35.312977
65.875 35.268757
65.880 35.009094
65.885 35.058128
65.890 34.849972
65.895 34.944443
65.900 34.731232
65.905 34.471882
65.910 34.601257
65.915 35.24176
65.920 35.212391
65.925 35.413219
65.930 35.473301
65.935 35.948456
65.940 36.218838
65.945 36.295582
65.950 36.418858
65.955 37.143009
65.960 37.865044
65.965 38.323997
65.970 38.725365
65.975 38.974098
65.980 38.438126
65.985 37.848026
65.990 37.706524
65.995 38.016487
66.000 37.574387
66.005 37.860111
66.010 38.051819
66.015 38.617802
66.020 38.371315
66.025 37.432899
66.030 36.96909
66.035 36.857456
66.040 36.739742
66.045 36.795769
66.050 36.030869
66.055 36.511852
66.060 36.62891
66.065 37.073643
66.070 37.534336
66.075 38.488297
66.080 39.534893
66.085 40.400146
66.090 41.201542
66.095 42.441723
66.100 42.296333
66.105 42.152367
66.110 41.62331
66.115 40.622768
66.120 40.636803
66.125 40.603096
66.130 39.986176
66.135 40.05806
66.140 39.455902
66.145 38.978203
66.150 39.621353
66.155 39.543968
66.160 38.38969
66.165 38.013943
66.170 37.182026
66.175 37.214466
66.180 37.2458
66.185 37.243877
66.190 37.865692
66.195 38.641594
66.200 38.158699
66.205 38.446808
66.210 38.534084
66.215 38.113907
66.220 38.487251
66.225 37.981628
66.230 37.101147
66.235 36.606842
66.240 36.752888
66.245 37.555267
66.250 37.179829
66.255 36.29282
66.260 36.276695
66.265 36.424198
66.270 37.427097
66.275 38.181271
66.280 37.595207
66.285 37.902996
66.290 38.370831
66.295 38.477829
66.300 38.993919
66.305 38.639328
66.310 37.538059
66.315 37.339825
66.320 37.510853
66.325 37.219765
66.330 37.434834
66.335 37.127731
66.340 36.236389
66.345 35.592789
66.350 34.925686
66.355 34.552368
66.360 35.053047
66.365 34.408115
66.370 33.94001
66.375 34.657356
66.380 34.501526
66.385 34.309109
66.390 33.330952
66.395 33.143307
66.400 33.822296
66.405 34.225056
66.410 33.230778
66.415 33.304527
66.420 33.352882
66.425 33.312988
66.430 32.393826
66.435 31.740822
66.440 31.975994
66.445 32.394222
66.450 32.414639
66.455 32.482422
66.460 32.870411
66.465 32.901482
66.470 32.461552
66.475 31.980831
66.480 32.316277
66.485 31.405058
66.490 31.010612
66.495 30.577337
66.500 30.413185
66.505 30.196144
66.510 29.334583
66.515 28.305134
66.520 28.914461
66.525 29.138245
66.530 28.99354
66.535 28.597902
66.540 28.590487
66.545 28.91728
66.550 29.716627
66.555 29.022591
66.560 28.311867
66.565 27.84848
66.570 27.287848
66.575 27.040512
66.580 26.304117
66.585 26.105906
66.590 26.227274
66.595 26.218092
66.600 26.52644
66.605 26.509876
66.610 25.756205
66.615 25.25131
66.620 24.459154
66.625 24.312744
66.630 23.970243
66.635 23.452984
66.640 23.613234
66.645 23.983356
66.650 23.473045
66.655 22.740654
66.660 22.291138
66.665 22.147259
66.670 22.316483
66.675 22.128834
66.680 22.445316
66.685 22.97575
66.690 23.737389
66.695 23.329464
66.700 23.111856
66.705 22.970079
66.710 22.167194
66.715 21.701107
66.720 21.877296
66.725 21.461226
66.730 22.061634
66.735 22.103153
66.740 22.760786
66.745 23.166056
66.750 23.630301
66.755 23.545498
66.760 23.854204
66.765 23.525494
66.770 23.262388
66.775 22.593521
66.780 23.196789
66.785 23.253967
66.790 22.620844
66.795 22.148218
66.800 22.442429
66.805 22.556057
66.810 22.317308
66.815 21.832567
66.820 21.775988
66.825 21.706427
66.830 21.304583
66.835 21.60877
66.840 21.523588
66.845 21.234318
66.850 20.961784
66.855 20.576956
66.860 20.766062
66.865 21.417181
66.870 21.300856
66.875 20.696203
66.880 20.538736
66.885 21.177847
66.890 22.211348
66.895 22.826979
66.900 22.504812
66.905 22.424871
66.910 23.272886
66.915 23.233994
66.920 22.521444
66.925 22.053167
66.930 21.413168
66.935 21.099667
66.940 20.863955
66.945 20.222017
66.950 20.355431
66.955 19.611088
66.960 18.593073
66.965 18.288935
66.970 18.284832
66.975 19.15064
66.980 20.05459
66.985 20.14407
66.990 20.513927
66.995 20.869389
67.000 20.93714
67.005 21.092669
67.010 20.642544
67.015 20.237469
67.020 20.523922
67.025 21.060995
67.030 21.468365
67.035 21.324356
67.040 21.139008
67.045 21.159813
67.050 21.0443
67.055 21.054705
67.060 21.068834
67.065 21.051033
67.070 21.55146
67.075 21.610643
67.080 21.627928
67.085 21.471552
67.090 21.070303
67.095 20.199343
67.100 19.774117
67.105 19.706718
67.110 19.526592
67.115 19.979004
67.120 20.035362
67.125 20.461613
67.130 20.785709
67.135 20.335157
67.140 20.241112
67.145 20.354019
67.150 20.011019
67.155 19.830801
67.160 19.880684
67.165 20.26589
67.170 20.724737
67.175 20.845837
67.180 20.431049
67.185 19.979412
67.190 20.608274
67.195 20.503521
67.200 20.486786
67.205 20.195778
67.210 20.252016
67.215 21.002617
67.220 21.128601
67.225 20.915674
67.230 20.840952
67.235 20.604734
67.240 20.470989
67.245 19.959343
67.250 19.484076
67.255 19.498173
67.260 19.438377
67.265 19.398451
67.270 19.634342
67.275 19.89135
67.280 20.174311
67.285 20.524515
67.290 20.506876
67.295 20.155806
67.300 20.152113
67.305 20.035978
67.310 19.837475
67.315 19.77952
67.320 19.575323
67.325 19.243431
67.330 19.235556
67.335 19.065718
67.340 19.205544
67.345 19.641787
67.350 19.485161
67.355 19.633957
67.360 19.921885
67.365 19.995325
67.370 19.603157
67.375 19.747557
67.380 19.664686
67.385 19.797674
67.390 19.82942
67.395 19.975399
67.400 19.83852
67.405 20.479507
67.410 20.569843
67.415 20.394722
67.420 20.11005
67.425 20.072952
67.430 19.89616
67.435 20.565187
67.440 20.407537
67.445 20.270166
67.450 20.614727
67.455 21.568987
67.460 21.670845
67.465 21.405342
67.470 20.824518
67.475 20.687988
67.480 19.892889
67.485 19.920624
67.490 19.626415
67.495 19.470476
67.500 20.277609
67.505 20.910913
67.510 21.290989
67.515 22.009277
67.520 22.046862
67.525 21.886278
67.530 22.28756
67.535 21.474148
67.540 21.071417
67.545 21.114611
67.550 21.502653
67.555 20.876925
67.560 20.428013
67.565 20.148233
67.570 20.236687
67.575 19.991964
67.580 19.593523
67.585 19.510262
67.590 20.125036
67.595 20.357306
67.600 20.15484
67.605 19.910463
67.610 20.2917
67.615 21.003563
67.620 21.447363
67.625 21.121796
67.630 21.078094
67.635 21.341936
67.640 21.271173
67.645 21.021601
67.650 20.724337
67.655 20.345383
67.660 20.588673
67.665 20.913122
67.670 20.917986
67.675 21.163319
67.680 21.098797
67.685 20.478884
67.690 20.248791
67.695 20.639278
67.700 20.84199
67.705 21.197165
67.710 20.928682
67.715 21.056889
67.720 20.926973
67.725 19.993692
67.730 19.148151
67.735 19.02401
67.740 19.101677
67.745 19.59774
67.750 19.624508
67.755 20.135273
67.760 20.677097
67.765 20.645668
67.770 20.27405
67.775 19.541414
67.780 19.157703
67.785 19.373631
67.790 19.25
67.795 18.894447
67.800 18.718922
67.805 18.446638
67.810 19.000267
67.815 18.990757
67.820 18.470095
67.825 18.426111
67.830 18.90909
67.835 19.345968
67.840 18.954363
67.845 18.888258
67.850 19.193293
67.855 19.239891
67.860 18.79812
67.865 18.457064
67.870 18.423035
67.875 18.798176
67.880 18.409225
67.885 18.252977
67.890 18.853445
67.895 19.163406
67.900 19.025593
67.905 19.254707
67.910 18.938528
67.915 18.938892
67.920 19.120373
67.925 18.855553
67.930 19.24754
67.935 19.410992
67.940 18.839972
67.945 19.273289
67.950 19.748888
67.955 19.712446
67.960 19.474401
67.965 19.643852
67.970 20.168451
67.975 21.324541
67.980 21.508804
67.985 21.522943
67.990 21.546106
67.995 21.743788
68.000 21.472675
68.005 20.842045
68.010 19.990091
68.015 19.541859
68.020 19.386202
68.025 19.517279
68.030 19.735502
68.035 20.454527
68.040 20.796288
68.045 21.493004
68.050 21.620106
68.055 21.498186
68.060 21.370586
68.065 21.131149
68.070 20.658808
68.075 20.164343
68.080 19.639599
68.085 20.420404
68.090 20.500004
68.095 20.739826
68.100 20.754848
68.105 20.72797
68.110 21.451777
68.115 21.402149
68.120 20.703085
68.125 20.577805
68.130 20.425444
68.135 20.395645
68.140 20.289385
68.145 19.876762
68.150 20.023052
68.155 19.984646
68.160 20.404104
68.165 20.124214
68.170 20.083639
68.175 20.15848
68.180 20.567373
68.185 20.686697
68.190 21.066502
68.195 20.812096
68.200 20.499626
68.205 20.268366
68.210 20.077963
68.215 20.020535
68.220 20.00304
68.225 19.306087
68.230 19.59075
68.235 19.644648
68.240 19.708208
68.245 19.321842
68.250 19.811703
68.255 20.172308
68.260 21.064398
68.265 20.370657
68.270 20.837839
68.275 21.416922
68.280 21.526493
68.285 20.959896
68.290 19.600224
68.295 18.746668
68.300 18.845251
68.305 18.672232
68.310 18.271156
68.315 18.223406
68.320 18.244001
68.325 18.743019
68.330 19.248837
68.335 20.044878
68.340 20.248894
68.345 20.772081
68.350 21.112087
68.355 21.01075
68.360 20.858692
68.365 20.442215
68.370 20.061028
68.375 20.083658
68.380 19.425522
68.385 19.276302
68.390 19.386683
68.395 19.955507
68.400 20.340307
68.405 20.037947
68.410 20.262941
68.415 20.327271
68.420 20.132256
68.425 19.837496
68.430 19.758162
68.435 19.690529
68.440 20.157103
68.445 19.529812
68.450 19.61788
68.455 20.537935
68.460 20.82892
68.465 20.291445
68.470 20.417927
68.475 20.302532
68.480 21.226908
68.485 21.221169
68.490 20.760715
68.495 21.138924
68.500 21.674911
68.505 21.400829
68.510 21.498688
68.515 21.453114
68.520 22.083807
68.525 22.357151
68.530 22.684004
68.535 22.696459
68.540 22.855562
68.545 22.547131
68.550 22.151684
68.555 22.389246
68.560 22.21418
68.565 21.311813
68.570 20.821705
68.575 20.542414
68.580 20.851103
68.585 20.500788
68.590 19.24843
68.595 18.876476
68.600 19.635012
68.605 20.597374
68.610 21.045767
68.615 20.663868
68.620 21.002817
68.625 21.68087
68.630 21.840832
68.635 21.737
68.640 21.171757
68.645 21.258966
68.650 21.540863
68.655 21.378124
68.660 20.614609
68.665 20.605589
68.670 20.769623
68.675 20.731052
68.680 20.520868
68.685 20.847349
68.690 21.640717
68.695 21.907084
68.700 21.347702
68.705 20.984148
68.710 20.610271
68.715 20.357384
68.720 20.125847
68.725 19.93652
68.730 20.547102
68.735 21.00341
68.740 21.423807
68.745 22.035225
68.750 21.703283
68.755 21.627428
68.760 21.536724
68.765 21.181236
68.770 20.999649
68.775 21.167431
68.780 21.113724
68.785 21.123476
68.790 21.181091
68.795 20.875998
68.800 21.559759
68.805 21.600664
68.810 21.603624
68.815 22.072832
68.820 22.6495
68.825 22.994436
68.830 23.138058
68.835 22.733776
68.840 23.071659
68.845 23.108532
68.850 23.196003
68.855 23.151531
68.860 23.055523
68.865 23.613205
68.870 23.750525
68.875 23.06814
68.880 22.139696
68.885 21.830656
68.890 21.768589
68.895 21.666641
68.900 21.609533
68.905 21.419741
68.910 22.612873
68.915 23.39263
68.920 23.302979
68.925 23.437607
68.930 23.234579
68.935 22.677137
68.940 22.965631
68.945 21.767282
68.950 21.870024
68.955 21.971495
68.960 21.576752
68.965 22.070147
68.970 23.252157
68.975 23.416471
68.980 24.24716
68.985 24.00515
68.990 24.214186
68.995 24.05868
69.000 24.028519
69.005 23.878178
69.010 24.09803
69.015 23.998507
69.020 24.424616
69.025 24.397665
69.030 24.347519
69.035 24.364491
69.040 24.449846
69.045 24.803698
69.050 24.990995
69.055 25.463501
69.060 25.832811
69.065 26.354944
69.070 26.792694
69.075 26.949272
69.080 27.024895
69.085 27.262262
69.090 27.182238
69.095 27.271622
69.100 28.097364
69.105 28.299114
69.110 28.164316
69.115 27.847603
69.120 27.849749
69.125 28.033398
69.130 28.399902
69.135 27.780188
69.140 27.297642
69.145 26.901703
69.150 26.302256
69.155 26.675911
69.160 26.674297
69.165 26.236685
69.170 26.60232
69.175 27.457613
69.180 28.106953
69.185 28.659266
69.190 28.747433
69.195 28.879047
69.200 29.05278
69.205 28.454
69.210 28.284307
69.215 28.689003
69.220 29.119011
69.225 29.034412
69.230 28.805811
69.235 29.417786
69.240 30.134508
69.245 29.606911
69.250 29.50955
69.255 28.93243
69.260 28.810019
69.265 29.170849
69.270 28.560818
69.275 28.210192
69.280 28.192427
69.285 28.666979
69.290 28.456831
69.295 28.04228
69.300 27.875738
69.305 27.96557
69.310 28.486448
69.315 29.095573
69.320 28.903181
69.325 29.464367
69.330 30.283823
69.335 31.114431
69.340 31.376417
69.345 31.104208
69.350 31.242416
69.355 31.722637
69.360 31.602392
69.365 31.065599
69.370 30.90748
69.375 31.015471
69.380 31.189304
69.385 31.214968
69.390 31.128986
69.395 30.936424
69.400 31.282242
69.405 31.117052
69.410 31.340897
69.415 31.066683
69.420 30.508558
69.425 30.568802
69.430 30.804169
69.435 31.21607
69.440 31.546711
69.445 31.923948
69.450 32.206146
69.455 32.265617
69.460 32.717537
69.465 32.930882
69.470 32.607361
69.475 32.073963
69.480 32.153248
69.485 32.380661
69.490 32.238285
69.495 31.792677
69.500 31.33172
69.505 31.121229
69.510 31.231825
69.515 31.055031
69.520 30.451731
69.525 30.711369
69.530 31.035091
69.535 31.268948
69.540 30.870512
69.545 30.367445
69.550 30.649363
69.555 31.187231
69.560 31.362389
69.565 31.047131
69.570 31.565386
69.575 32.050777
69.580 32.44239
69.585 31.476845
69.590 30.839212
69.595 30.426224
69.600 30.445793
69.605 30.594866
69.610 30.791527
69.615 30.818821
69.620 31.611216
69.625 32.02998
69.630 32.197262
69.635 32.670376
69.640 32.323708
69.645 32.525894
69.650 32.207584
69.655 31.806574
69.660 31.505548
69.665 31.277496
69.670 30.564899
69.675 30.179968
69.680 29.691883
69.685 29.672953
69.690 30.1117
69.695 29.927711
69.700 29.720394
69.705 29.420921
69.710 28.934475
69.715 28.700819
69.720 28.228304
69.725 27.471088
69.730 27.298407
69.735 27.367926
69.740 27.557596
69.745 27.786232
69.750 27.914562
69.755 27.925861
69.760 29.008883
69.765 29.415621
69.770 29.212421
69.775 29.107502
69.780 28.653645
69.785 28.023571
69.790 27.719128
69.795 26.871479
69.800 26.133892
69.805 25.849915
69.810 25.633589
69.815 25.656956
69.820 26.204844
69.825 26.305876
69.830 26.248083
69.835 27.329971
69.840 27.786144
69.845 27.833981
69.850 27.691505
69.855 27.228901
69.860 26.74577
69.865 26.335136
69.870 24.881948
69.875 24.267738
69.880 24.079023
69.885 23.762508
69.890 22.990057
69.895 22.936865
69.900 22.965134
69.905 23.235661
69.910 22.831097
69.915 22.538321
69.920 23.250256
69.925 23.718761
69.930 24.005751
69.935 23.942245
69.940 23.582539
69.945 23.721357
69.950 24.08304
69.955 24.377399
69.960 24.43928
69.965 23.809763
69.970 23.811619
69.975 24.238762
69.980 23.953369
69.985 23.227669
69.990 22.751806
69.995 22.295372
70.000 22.595978
70.005 22.336338
70.010 21.396704
70.015 21.749012
70.020 21.995543
70.025 22.417099
70.030 22.330309
70.035 21.35103
70.040 21.624668
70.045 22.253012
70.050 21.88904
70.055 21.982677
70.060 21.21566
70.065 21.037663
70.070 21.515297
70.075 21.322105
70.080 21.105982
70.085 20.852243
70.090 20.565849
70.095 20.485672
70.100 20.564104
70.105 19.933201
70.110 19.920216
70.115 20.760511
70.120 21.479641
70.125 21.797161
70.130 22.412327
70.135 22.658625
70.140 22.964769
70.145 22.864729
70.150 21.927578
70.155 21.427839
70.160 20.975002
70.165 21.06208
70.170 20.649906
70.175 21.024817
70.180 20.726164
70.185 21.010363
70.190 21.305161
70.195 21.31011
70.200 21.227823
70.205 21.134708
70.210 20.762251
70.215 21.107786
70.220 20.786654
70.225 20.642427
70.230 20.242014
70.235 19.886673
70.240 19.026136
70.245 18.666367
70.250 18.494461
70.255 18.527201
70.260 18.157276
70.265 18.362396
70.270 18.608368
70.275 19.172581
70.280 19.333778
70.285 19.431318
70.290 19.442083
70.295 20.097191
70.300 19.951511
70.305 19.760736
70.310 19.178825
70.315 19.306362
70.320 18.860479
70.325 18.528353
70.330 17.83988
70.335 17.890045
70.340 18.466978
70.345 18.548706
70.350 18.667347
70.355 19.232332
70.360 19.648548
70.365 20.192701
70.370 20.20223
70.375 20.662611
70.380 21.145451
70.385 20.900181
70.390 20.244883
70.395 19.705929
70.400 19.445402
70.405 19.67433
70.410 19.346052
70.415 19.38862
70.420 19.347088
70.425 19.448006
70.430 19.94051
70.435 20.117594
70.440 19.56814
70.445 18.919344
70.450 18.589081
70.455 19.154551
70.460 19.820559
70.465 20.53232
70.470 20.751356
70.475 21.419235
70.480 21.968529
70.485 22.244528
70.490 21.893694
70.495 21.277834
70.500 20.943434
70.505 20.935148
70.510 20.51943
70.515 20.637463
70.520 20.482874
70.525 20.695404
70.530 20.510502
70.535 20.009813
70.540 19.857616
70.545 20.835375
70.550 20.764421
70.555 20.401011
70.560 20.078543
70.565 20.429762
70.570 20.861345
70.575 20.716156
70.580 19.38323
70.585 19.180027
70.590 19.006828
70.595 18.96003
70.600 18.689045
70.605 17.761541
70.610 17.645374
70.615 18.631399
70.620 18.72106
70.625 19.554604
70.630 19.554089
70.635 19.251499
70.640 19.792082
70.645 18.97834
70.650 17.96702
70.655 17.420683
70.660 16.477245
70.665 16.501513
70.670 16.4718
70.675 16.53257
70.680 17.435863
70.685 17.886122
70.690 18.264975
70.695 18.548073
70.700 18.985476
70.705 19.273731
70.710 18.962318
70.715 18.879589
70.720 18.595203
70.725 18.283665
70.730 18.213966
70.735 17.6971
70.740 17.921219
70.745 17.643242
70.750 17.325974
70.755 17.274727
70.760 17.149075
70.765 17.649353
70.770 17.584393
70.775 17.270077
70.780 17.989069
70.785 18.465586
70.790 19.739462
70.795 19.553221
70.800 19.393936
70.805 19.764355
70.810 19.932468
70.815 20.15053
70.820 20.675064
70.825 20.165222
70.830 20.377123
70.835 20.398464
70.840 20.399183
70.845 20.761141
70.850 20.020611
70.855 18.928576
70.860 18.601055
70.865 18.86392
70.870 18.250433
70.875 17.836891
70.880 17.782717
70.885 18.193813
70.890 18.291464
70.895 18.209806
70.900 18.411715
70.905 18.655426
70.910 18.862541
70.915 18.939098
70.920 18.81461
70.925 19.549835
70.930 19.802652
70.935 19.818232
70.940 19.68668
70.945 19.157995
70.950 18.882257
70.955 18.67721
70.960 17.980291
70.965 18.329338
70.970 18.530663
70.975 19.076361
70.980 19.042418
70.985 19.429073
70.990 19.566591
70.995 20.073528
71.000 19.767393
71.005 19.493788
71.010 19.631775
71.015 19.849741
71.020 19.254709
71.025 19.050716
71.030 18.67399
71.035 18.429789
71.040 18.599272
71.045 18.538191
71.050 19.016453
71.055 19.365402
71.060 19.197559
71.065 19.150562
71.070 19.779129
71.075 19.536577
71.080 19.626518
71.085 19.793859
71.090 19.996136
71.095 20.618866
71.100 20.151443
71.105 19.70158
71.110 19.156246
71.115 18.581244
71.120 18.140739
71.125 17.885628
71.130 17.534275
71.135 18.024923
71.140 18.233868
71.145 18.405697
71.150 18.344152
71.155 18.572227
71.160 18.893919
71.165 19.058565
71.170 19.037252
71.175 19.107552
71.180 18.986708
71.185 18.928659
71.190 18.06769
71.195 17.674706
71.200 17.829359
71.205 17.8333
71.210 17.952641
71.215 17.819717
71.220 17.37746
71.225 17.215378
71.230 17.373188
71.235 17.485872
71.240 17.124283
71.245 17.056259
71.250 17.609829
71.255 18.606003
71.260 18.958265
71.265 18.948215
71.270 18.168419
71.275 17.76119
71.280 18.064737
71.285 17.851952
71.290 17.787022
71.295 18.006243
71.300 18.677588
71.305 19.333742
71.310 19.521538
71.315 18.656933
71.320 18.919756
71.325 18.450464
71.330 18.338043
71.335 17.652435
71.340 17.763405
71.345 18.06612
71.350 18.25897
71.355 18.825209
71.360 19.084476
71.365 18.512999
71.370 18.049347
71.375 17.820196
71.380 17.822165
71.385 17.323469
71.390 16.666508
71.395 17.016739
71.400 17.451464
71.405 18.355436
71.410 18.869516
71.415 18.956419
71.420 19.36458
71.425 19.708096
71.430 19.506943
71.435 20.085316
71.440 19.263178
71.445 19.204716
71.450 19.110811
71.455 19.280869
71.460 19.469355
71.465 19.225731
71.470 19.355206
71.475 19.779518
71.480 20.141418
71.485 20.323311
71.490 20.384029
71.495 20.159212
71.500 20.312733
71.505 20.085768
71.510 19.628073
71.515 19.46279
71.520 19.208931
71.525 19.078701
71.530 19.233793
71.535 19.267458
71.540 19.182093
71.545 19.23307
71.550 18.483555
71.555 18.328991
71.560 18.252113
71.565 17.784588
71.570 16.862638
71.575 16.925549
71.580 17.697029
71.585 17.976139
71.590 17.541853
71.595 17.880514
71.600 18.04895
71.605 18.759157
71.610 18.292528
71.615 18.190155
71.620 18.712046
71.625 18.965679
71.630 19.44821
71.635 19.703213
71.640 19.874926
71.645 19.844603
71.650 19.81819
71.655 19.337961
71.660 19.199018
71.665 18.887617
71.670 18.617931
71.675 17.928564
71.680 17.75625
71.685 18.111933
71.690 18.18502
71.695 18.295031
71.700 18.470158
71.705 18.923126
71.710 18.941946
71.715 19.127653
71.720 18.770472
71.725 18.614691
71.730 18.235481
71.735 18.33886
71.740 19.172915
71.745 19.668488
71.750 19.839989
71.755 20.059996
71.760 20.257616
71.765 20.179089
71.770 20.391861
71.775 20.160465
71.780 20.017042
71.785 19.535568
71.790 19.54859
71.795 19.400341
71.800 19.292938
71.805 19.120516
71.810 19.235813
71.815 19.496449
71.820 19.640221
71.825 19.88797
71.830 19.761574
71.835 19.367825
71.840 19.184418
71.845 18.275597
71.850 17.751371
71.855 17.78005
71.860 17.538754
71.865 17.405863
71.870 17.045847
71.875 17.336252
71.880 17.807734
71.885 18.342821
71.890 18.312126
71.895 18.647444
71.900 18.875072
71.905 19.084284
71.910 19.12961
71.915 19.700035
71.920 19.350857
71.925 19.061409
71.930 19.223219
71.935 19.214506
71.940 19.195425
71.945 18.538868
71.950 17.946127
71.955 18.446228
71.960 18.540943
71.965 18.503571
71.970 18.855083
71.975 18.74651
71.980 19.313725
71.985 19.609282
71.990 19.588369
71.995 20.494183
72.000 20.658951
72.005 20.656876
72.010 20.768826
72.015 20.49921
72.020 20.005638
72.025 19.602663
72.030 18.859499
72.035 18.682821
72.040 18.76899
72.045 19.100599
72.050 19.30154
72.055 19.777277
72.060 20.042849
72.065 19.903675
72.070 20.024765
72.075 19.517153
72.080 18.9417
72.085 18.67219
72.090 18.497328
72.095 18.43021
72.100 18.374636
72.105 18.39061
72.110 18.385763
72.115 18.349085
72.120 18.467508
72.125 18.461958
72.130 18.07991
72.135 18.293247
72.140 18.538246
72.145 18.813066
72.150 19.481054
72.155 19.518248
72.160 20.114355
72.165 19.876049
72.170 19.761005
72.175 19.521845
72.180 19.381067
72.185 19.378302
72.190 19.478676
72.195 19.668573
72.200 19.900475
72.205 19.697416
72.210 19.622768
72.215 18.833836
72.220 18.372028
72.225 17.610674
72.230 17.241121
72.235 17.602058
72.240 17.601112
72.245 18.028334
72.250 18.226643
72.255 18.241835
72.260 19.097435
72.265 18.963776
72.270 19.10211
72.275 19.587982
72.280 19.255375
72.285 19.055731
72.290 18.095287
72.295 17.502264
72.300 17.545977
72.305 17.056944
72.310 16.840992
72.315 17.687933
72.320 17.636028
72.325 18.246729
72.330 18.819389
72.335 18.967386
72.340 18.941879
72.345 18.754131
72.350 18.404112
72.355 19.24391
72.360 18.551624
72.365 18.558485
72.370 18.866156
72.375 18.988529
72.380 19.06559
72.385 19.081322
72.390 18.97438
72.395 18.866377
72.400 19.145414
72.405 18.665325
72.410 18.079285
72.415 17.881027
72.420 17.398987
72.425 17.183729
72.430 17.417002
72.435 16.876654
72.440 17.002213
72.445 16.900875
72.450 17.089891
72.455 17.445688
72.460 17.463083
72.465 17.487768
72.470 17.201078
72.475 17.381065
72.480 17.482132
72.485 17.175953
72.490 17.411964
72.495 17.335175
72.500 17.086859
72.505 17.128263
72.510 17.441273
72.515 17.843884
72.520 18.067665
72.525 18.157007
72.530 18.164921
72.535 17.984285
72.540 17.78001
72.545 17.202272
72.550 16.912132
72.555 16.256067
72.560 15.757804
72.565 15.451785
72.570 15.813415
72.575 15.617406
72.580 15.782537
72.585 16.017965
72.590 16.396858
72.595 16.907446
72.600 17.023544
72.605 17.167603
72.610 17.453718
72.615 17.470171
72.620 17.946083
72.625 17.921913
72.630 18.172144
72.635 18.579977
72.640 19.167629
72.645 18.847198
72.650 18.569769
72.655 18.559347
72.660 18.792389
72.665 19.069839
72.670 18.898914
72.675 18.945816
72.680 19.256987
72.685 18.852592
72.690 18.283758
72.695 18.856596
72.700 18.45857
72.705 18.41732
72.710 18.157429
72.715 18.458096
72.720 19.195871
72.725 18.309027
72.730 17.991796
72.735 17.862566
72.740 17.148029
72.745 16.999807
72.750 16.4764
72.755 16.622192
72.760 17.314548
72.765 17.291117
72.770 17.105331
72.775 17.431231
72.780 16.986509
72.785 16.921175
72.790 16.798832
72.795 16.316839
72.800 16.218094
72.805 16.172293
72.810 16.019951
72.815 16.380409
72.820 16.209154
72.825 15.779553
72.830 15.635485
72.835 16.277412
72.840 16.473162
72.845 16.176676
72.850 15.844196
72.855 15.825515
72.860 16.106489
72.865 15.964918
72.870 15.454535
72.875 15.340041
72.880 15.719377
72.885 15.939732
72.890 16.23255
72.895 15.768169
72.900 15.272038
72.905 15.464926
72.910 15.785463
72.915 16.18545
72.920 16.525892
72.925 16.37709
72.930 17.311132
72.935 17.696882
72.940 17.582106
72.945 17.566845
72.950 17.297482
72.955 18.202642
72.960 18.51639
72.965 18.56662
72.970 18.926365
72.975 19.246258
72.980 19.36339
72.985 19.329929
72.990 18.864594
72.995 18.192312
73.000 17.877239
