!@!!GADDS PLOTSO FILE: Chi integration type
!@!!Title/SampleName: map-a6
!@!!Comment: ?
!@!!User: Bruker Instrument Administrator
!@!!Site: University of Illinois Chicago
!@!!Frame: map-a6_01_000.gfrm
!@!!Wavelengths    1.54184   1.54056   1.54439
!@!!Frame angles: 2Theta: 63.000 Omega: 50.000 Phi: 0.000 Chi: 90.000
!@!!Integration range: 2Theta: 53.000 to 73.000  Gamma: -105.000 to -75.000
!@!!Integration method: bin normalized
!@!N
!@!SS
!@!M
!@!L 0.0 0.0 0.0 0.0
!@!XDegrees
!@!YCounts
53.000 7.583872
53.005 7.40489
53.010 7.124979
53.015 6.752752
53.020 6.832559
53.025 6.676923
53.030 6.516943
53.035 6.702703
53.040 6.840326
53.045 6.797334
53.050 6.540966
53.055 6.770306
53.060 7.090009
53.065 7.096964
53.070 6.815932
53.075 6.869975
53.080 7.258395
53.085 7.676333
53.090 7.65717
53.095 7.868418
53.100 8.164537
53.105 8.381494
53.110 8.280993
53.115 8.369409
53.120 7.790077
53.125 7.503228
53.130 7.150237
53.135 6.964972
53.140 7.231642
53.145 7.311209
53.150 7.255375
53.155 7.174456
53.160 7.22815
53.165 7.398478
53.170 7.026608
53.175 6.591704
53.180 6.60863
53.185 6.615458
53.190 6.887341
53.195 6.905635
53.200 6.665062
53.205 6.802835
53.210 7.051895
53.215 6.718559
53.220 6.877824
53.225 6.731913
53.230 6.695908
53.235 6.96361
53.240 7.0437
53.245 7.129866
53.250 7.465714
53.255 7.549143
53.260 7.444687
53.265 7.532814
53.270 7.4789
53.275 7.355838
53.280 7.341759
53.285 6.888316
53.290 6.998676
53.295 7.317509
53.300 7.180856
53.305 7.256275
53.310 7.272817
53.315 7.188807
53.320 7.261069
53.325 6.955408
53.330 6.855278
53.335 7.008153
53.340 6.984825
53.345 7.132036
53.350 7.417214
53.355 8.13695
53.360 8.621259
53.365 8.670917
53.370 8.293025
53.375 8.619882
53.380 8.593114
53.385 8.41628
53.390 7.54737
53.395 7.459879
53.400 7.611956
53.405 7.532625
53.410 7.107657
53.415 6.901721
53.420 7.064981
53.425 7.012796
53.430 6.473368
53.435 6.602969
53.440 6.934204
53.445 7.136653
53.450 7.296082
53.455 7.170763
53.460 7.172789
53.465 7.543144
53.470 7.619574
53.475 7.259552
53.480 7.207359
53.485 7.195363
53.490 7.382014
53.495 7.215324
53.500 6.862938
53.505 7.25509
53.510 7.678919
53.515 7.976884
53.520 7.918126
53.525 8.115746
53.530 8.456999
53.535 8.738155
53.540 8.520935
53.545 8.362011
53.550 8.061412
53.555 7.87546
53.560 7.951932
53.565 7.943924
53.570 7.433553
53.575 7.14207
53.580 7.229933
53.585 7.191242
53.590 7.189448
53.595 7.062525
53.600 7.09901
53.605 7.162086
53.610 7.246623
53.615 7.052806
53.620 6.91236
53.625 6.491632
53.630 6.42732
53.635 6.590426
53.640 6.482555
53.645 6.314996
53.650 6.460686
53.655 6.82309
53.660 7.217546
53.665 7.329251
53.670 7.12293
53.675 7.511999
53.680 7.661978
53.685 7.707462
53.690 7.955626
53.695 7.72156
53.700 7.561232
53.705 7.618589
53.710 7.507852
53.715 7.417435
53.720 7.2758
53.725 7.527106
53.730 7.904317
53.735 7.731891
53.740 7.554948
53.745 7.901451
53.750 8.145784
53.755 8.264871
53.760 7.902277
53.765 8.142649
53.770 8.47886
53.775 8.624802
53.780 8.674019
53.785 8.51513
53.790 8.668154
53.795 8.156223
53.800 7.92976
53.805 7.965457
53.810 7.838234
53.815 7.749971
53.820 7.467073
53.825 7.689843
53.830 8.455191
53.835 8.500443
53.840 8.466066
53.845 8.480609
53.850 8.51445
53.855 8.287442
53.860 8.218861
53.865 8.018991
53.870 7.998106
53.875 7.754679
53.880 7.531134
53.885 7.415855
53.890 7.395205
53.895 7.275717
53.900 7.200453
53.905 7.359917
53.910 7.958368
53.915 8.467351
53.920 8.576953
53.925 8.717979
53.930 8.715752
53.935 8.28431
53.940 8.105999
53.945 7.623904
53.950 7.408378
53.955 7.668429
53.960 7.777645
53.965 7.999406
53.970 8.348042
53.975 8.493384
53.980 8.615554
53.985 8.73696
53.990 8.468843
53.995 8.307467
54.000 7.976608
54.005 7.976767
54.010 8.330528
54.015 8.516135
54.020 8.497484
54.025 8.655059
54.030 8.935244
54.035 9.418375
54.040 9.439138
54.045 9.283313
54.050 8.974196
54.055 9.289886
54.060 9.150166
54.065 8.992473
54.070 9.106061
54.075 9.176958
54.080 9.060968
54.085 9.469517
54.090 9.235325
54.095 8.97976
54.100 8.662751
54.105 8.618974
54.110 8.923658
54.115 8.812959
54.120 8.87462
54.125 9.168137
54.130 9.27107
54.135 9.575549
54.140 9.455045
54.145 9.336689
54.150 9.433702
54.155 9.415094
54.160 9.492702
54.165 9.371825
54.170 9.343232
54.175 9.31167
54.180 9.268403
54.185 9.020529
54.190 8.672208
54.195 8.326311
54.200 8.488316
54.205 8.580325
54.210 8.713482
54.215 8.705886
54.220 8.72829
54.225 9.016047
54.230 9.49521
54.235 9.693733
54.240 9.730095
54.245 9.906056
54.250 9.977798
54.255 10.469067
54.260 10.948361
54.265 10.811244
54.270 10.82865
54.275 10.557697
54.280 10.416063
54.285 10.176182
54.290 9.80027
54.295 9.278992
54.300 8.941267
54.305 9.211421
54.310 9.173056
54.315 9.318545
54.320 9.293081
54.325 8.926595
54.330 8.932933
54.335 8.863776
54.340 8.384663
54.345 8.18901
54.350 8.250651
54.355 8.62721
54.360 9.187443
54.365 9.391011
54.370 9.325586
54.375 9.866891
54.380 10.077677
54.385 9.578885
54.390 9.206406
54.395 8.816603
54.400 8.864696
54.405 9.143042
54.410 8.474429
54.415 8.454351
54.420 8.641005
54.425 8.729856
54.430 8.608042
54.435 8.328898
54.440 8.59525
54.445 8.894737
54.450 9.17206
54.455 8.988708
54.460 9.06756
54.465 9.363029
54.470 9.301346
54.475 9.129272
54.480 8.922386
54.485 8.689601
54.490 8.733305
54.495 8.407877
54.500 8.498108
54.505 8.68897
54.510 8.728164
54.515 8.667936
54.520 8.864278
54.525 8.790244
54.530 9.028604
54.535 8.57515
54.540 8.421586
54.545 8.431154
54.550 8.42438
54.555 8.569491
54.560 9.149991
54.565 9.418163
54.570 9.535645
54.575 9.751053
54.580 9.584645
54.585 9.854324
54.590 9.97408
54.595 9.51767
54.600 9.233191
54.605 9.545287
54.610 9.397512
54.615 9.806293
54.620 9.693739
54.625 10.209462
54.630 10.203548
54.635 10.190448
54.640 9.842349
54.645 9.807214
54.650 9.630712
54.655 9.257593
54.660 9.149447
54.665 9.434506
54.670 9.848317
54.675 9.851548
54.680 9.607431
54.685 9.703389
54.690 9.540193
54.695 8.817323
54.700 8.439669
54.705 8.364154
54.710 8.774015
54.715 8.848586
54.720 8.744026
54.725 9.22576
54.730 9.553782
54.735 9.336477
54.740 8.706438
54.745 8.684306
54.750 9.232065
54.755 9.217793
54.760 8.984681
54.765 9.435166
54.770 9.976713
54.775 10.461908
54.780 10.33731
54.785 10.004053
54.790 9.933634
54.795 10.027882
54.800 9.500577
54.805 9.173148
54.810 8.867932
54.815 8.768697
54.820 8.775434
54.825 8.729232
54.830 8.888144
54.835 8.777483
54.840 9.219656
54.845 9.50723
54.850 9.792713
54.855 9.657798
54.860 10.0104
54.865 10.023792
54.870 10.342584
54.875 10.372931
54.880 10.439708
54.885 10.205939
54.890 10.48061
54.895 10.13149
54.900 9.655581
54.905 9.349237
54.910 9.24339
54.915 9.647256
54.920 9.448728
54.925 9.120458
54.930 8.892715
54.935 9.373039
54.940 9.549041
54.945 9.430575
54.950 9.261021
54.955 9.626574
54.960 9.745973
54.965 10.032694
54.970 9.937911
54.975 9.507523
54.980 9.481228
54.985 9.573133
54.990 9.439735
54.995 9.181423
55.000 9.111697
55.005 8.89787
55.010 9.141834
55.015 8.838117
55.020 8.5507
55.025 8.387564
55.030 8.250049
55.035 8.100501
55.040 8.393335
55.045 8.338679
55.050 8.322551
55.055 8.537389
55.060 8.733824
55.065 9.115819
55.070 9.357073
55.075 9.184355
55.080 9.361761
55.085 9.508701
55.090 9.408444
55.095 9.708669
55.100 9.605108
55.105 9.848498
55.110 9.874831
55.115 9.705495
55.120 10.140153
55.125 10.333642
55.130 10.68974
55.135 11.102401
55.140 11.16225
55.145 11.170665
55.150 11.050003
55.155 10.846644
55.160 10.446376
55.165 9.919771
55.170 9.671882
55.175 9.521058
55.180 9.476858
55.185 9.431837
55.190 9.470788
55.195 9.289538
55.200 9.039598
55.205 9.359435
55.210 9.606324
55.215 9.916635
55.220 9.964398
55.225 9.911061
55.230 10.325853
55.235 10.24709
55.240 9.787071
55.245 9.819381
55.250 10.029437
55.255 9.948477
55.260 9.905446
55.265 10.019708
55.270 10.170598
55.275 10.263791
55.280 9.735253
55.285 9.434067
55.290 9.489899
55.295 9.432856
55.300 9.107279
55.305 9.149901
55.310 9.43072
55.315 9.819835
55.320 9.918812
55.325 10.030663
55.330 10.080886
55.335 9.698055
55.340 9.210664
55.345 8.979007
55.350 8.745524
55.355 8.567777
55.360 8.996991
55.365 9.480064
55.370 10.043275
55.375 10.112469
55.380 9.974837
55.385 10.068499
55.390 10.089738
55.395 9.58785
55.400 9.595712
55.405 9.426033
55.410 9.598362
55.415 9.608254
55.420 9.773274
55.425 9.946757
55.430 9.9965
55.435 9.803016
55.440 9.762594
55.445 9.847459
55.450 10.345062
55.455 10.592218
55.460 10.700786
55.465 10.767809
55.470 10.736705
55.475 11.054872
55.480 10.862828
55.485 10.329217
55.490 10.234002
55.495 9.88661
55.500 9.90285
55.505 10.288558
55.510 10.282043
55.515 10.537293
55.520 10.871227
55.525 10.970411
55.530 10.87151
55.535 10.950116
55.540 10.852482
55.545 11.064075
55.550 11.156132
55.555 11.123245
55.560 11.176606
55.565 11.19313
55.570 11.223115
55.575 10.935084
55.580 10.430171
55.585 10.12706
55.590 10.073636
55.595 10.037107
55.600 9.881524
55.605 9.866047
55.610 9.914658
55.615 9.918937
55.620 10.07952
55.625 9.503098
55.630 9.635781
55.635 9.630538
55.640 9.646585
55.645 9.596613
55.650 9.815419
55.655 9.79574
55.660 10.057727
55.665 9.957654
55.670 9.909602
55.675 9.99569
55.680 10.088288
55.685 9.827044
55.690 9.536145
55.695 9.280703
55.700 9.26767
55.705 9.435778
55.710 9.35863
55.715 9.413024
55.720 9.523438
55.725 10.060658
55.730 10.16985
55.735 10.31113
55.740 10.194328
55.745 10.309293
55.750 10.173999
55.755 10.255486
55.760 9.797839
55.765 9.825412
55.770 9.795218
55.775 10.178417
55.780 10.636723
55.785 10.312472
55.790 10.277946
55.795 10.814978
55.800 10.47543
55.805 10.339931
55.810 10.051251
55.815 9.83914
55.820 10.781798
55.825 10.627177
55.830 10.908514
55.835 11.684752
55.840 11.919905
55.845 11.849566
55.850 12.021653
55.855 12.087938
55.860 12.446225
55.865 12.167488
55.870 11.593901
55.875 11.213915
55.880 11.212915
55.885 10.503114
55.890 9.720057
55.895 9.277472
55.900 9.601522
55.905 10.382369
55.910 10.995346
55.915 11.565206
55.920 12.338971
55.925 12.820283
55.930 12.961967
55.935 12.776174
55.940 12.185965
55.945 12.244802
55.950 11.877489
55.955 11.588381
55.960 11.354841
55.965 10.975507
55.970 10.676259
55.975 10.567046
55.980 9.739043
55.985 9.640741
55.990 9.184754
55.995 9.014327
56.000 9.176019
56.005 9.343605
56.010 9.354296
56.015 9.966609
56.020 9.95871
56.025 10.352476
56.030 10.698635
56.035 10.901582
56.040 10.605958
56.045 10.681705
56.050 10.583287
56.055 10.82965
56.060 10.64702
56.065 10.405811
56.070 10.57638
56.075 11.294271
56.080 11.335896
56.085 11.923629
56.090 12.072965
56.095 12.233603
56.100 12.160079
56.105 11.692786
56.110 11.136763
56.115 11.113182
56.120 10.386003
56.125 9.982174
56.130 9.855497
56.135 9.536951
56.140 9.496296
56.145 10.054862
56.150 10.313752
56.155 10.547399
56.160 10.944935
56.165 11.382255
56.170 11.930496
56.175 11.701177
56.180 11.039932
56.185 10.999473
56.190 11.454755
56.195 11.115493
56.200 10.71785
56.205 10.946332
56.210 11.266369
56.215 11.554027
56.220 11.314614
56.225 10.954087
56.230 10.99441
56.235 11.327514
56.240 11.317129
56.245 11.448156
56.250 11.356396
56.255 10.936937
56.260 10.870419
56.265 11.215532
56.270 11.373079
56.275 11.188087
56.280 11.041135
56.285 11.004673
56.290 11.278655
56.295 11.879628
56.300 11.43684
56.305 11.133484
56.310 11.37199
56.315 11.573121
56.320 11.550947
56.325 11.498941
56.330 11.173086
56.335 11.131634
56.340 11.671371
56.345 11.828614
56.350 12.083955
56.355 12.560113
56.360 12.88303
56.365 12.907176
56.370 13.455125
56.375 13.127497
56.380 12.838254
56.385 12.226614
56.390 12.030758
56.395 11.815454
56.400 11.822759
56.405 11.530108
56.410 11.453904
56.415 11.194974
56.420 11.168023
56.425 10.878058
56.430 10.3522
56.435 10.113071
56.440 9.658455
56.445 9.242698
56.450 9.295386
56.455 9.120455
56.460 9.45747
56.465 9.971133
56.470 10.338885
56.475 10.550921
56.480 10.830596
56.485 10.682235
56.490 10.534175
56.495 10.399701
56.500 9.895266
56.505 9.639258
56.510 9.733792
56.515 9.795433
56.520 9.980122
56.525 10.417762
56.530 10.547881
56.535 10.919912
56.540 11.057636
56.545 11.052497
56.550 11.213103
56.555 11.400941
56.560 11.672504
56.565 11.486619
56.570 11.599633
56.575 11.574701
56.580 11.616937
56.585 11.669305
56.590 11.311241
56.595 10.707377
56.600 10.759533
56.605 10.478416
56.610 10.43678
56.615 10.683625
56.620 10.769822
56.625 11.106717
56.630 11.453693
56.635 11.294996
56.640 11.182333
56.645 11.448306
56.650 11.376236
56.655 11.020451
56.660 11.020021
56.665 11.444104
56.670 12.209093
56.675 12.080726
56.680 11.54464
56.685 11.154055
56.690 11.170794
56.695 11.171025
56.700 10.974001
56.705 10.787666
56.710 10.712498
56.715 10.928439
56.720 11.300436
56.725 11.408265
56.730 11.892759
56.735 11.842137
56.740 11.962728
56.745 12.106445
56.750 12.560735
56.755 12.761978
56.760 12.497023
56.765 11.879235
56.770 12.410074
56.775 12.755472
56.780 12.93718
56.785 12.412093
56.790 12.346144
56.795 12.244686
56.800 11.902191
56.805 11.546069
56.810 11.604717
56.815 11.765144
56.820 12.356261
56.825 12.78137
56.830 12.825103
56.835 12.734591
56.840 12.787243
56.845 12.360498
56.850 11.757088
56.855 11.176618
56.860 11.131313
56.865 10.925961
56.870 10.731041
56.875 10.536888
56.880 10.662357
56.885 10.625344
56.890 10.320603
56.895 10.114151
56.900 10.384967
56.905 10.729635
56.910 10.691943
56.915 10.96068
56.920 11.089573
56.925 11.445234
56.930 11.415236
56.935 11.493616
56.940 11.374442
56.945 11.30128
56.950 11.312293
56.955 11.51263
56.960 11.346571
56.965 11.572083
56.970 11.726666
56.975 11.437472
56.980 11.214039
56.985 11.477626
56.990 11.69384
56.995 11.972033
57.000 12.00535
57.005 11.947804
57.010 12.145267
57.015 12.600671
57.020 12.461926
57.025 12.085943
57.030 11.85999
57.035 12.174519
57.040 12.761981
57.045 13.491913
57.050 13.290985
57.055 12.97604
57.060 13.06835
57.065 12.859944
57.070 12.918447
57.075 12.682871
57.080 12.002433
57.085 12.201801
57.090 12.503746
57.095 12.274641
57.100 12.375689
57.105 11.992038
57.110 11.869176
57.115 11.831462
57.120 11.814009
57.125 11.837335
57.130 12.159382
57.135 12.174854
57.140 11.900679
57.145 11.679238
57.150 11.536897
57.155 11.1676
57.160 10.932127
57.165 10.560868
57.170 10.261168
57.175 10.778316
57.180 11.041396
57.185 11.560218
57.190 11.754249
57.195 12.16894
57.200 12.788986
57.205 13.369658
57.210 13.636456
57.215 14.203178
57.220 14.137324
57.225 14.741921
57.230 15.01879
57.235 14.787627
57.240 14.539362
57.245 13.730097
57.250 13.261235
57.255 13.542706
57.260 13.38668
57.265 13.231521
57.270 13.602772
57.275 13.762403
57.280 13.907571
57.285 13.744514
57.290 13.26967
57.295 12.95019
57.300 12.783265
57.305 12.322018
57.310 12.127508
57.315 12.765631
57.320 13.189471
57.325 13.350362
57.330 13.891274
57.335 14.328636
57.340 14.32146
57.345 14.115036
57.350 13.77545
57.355 13.77779
57.360 13.591353
57.365 13.132008
57.370 13.293772
57.375 14.018571
57.380 14.124459
57.385 14.185455
57.390 13.796069
57.395 13.837992
57.400 14.206597
57.405 13.811031
57.410 13.382538
57.415 13.37611
57.420 13.287889
57.425 13.189344
57.430 12.81307
57.435 12.774944
57.440 12.575259
57.445 12.695988
57.450 12.321104
57.455 12.568521
57.460 13.39956
57.465 13.614032
57.470 13.375706
57.475 13.492534
57.480 13.372367
57.485 13.633121
57.490 13.206943
57.495 12.895298
57.500 12.497348
57.505 11.977119
57.510 11.960845
57.515 12.115074
57.520 11.877769
57.525 12.056018
57.530 12.412476
57.535 12.470827
57.540 12.603904
57.545 12.650154
57.550 12.535197
57.555 13.07378
57.560 12.410321
57.565 12.135488
57.570 12.549183
57.575 12.6288
57.580 12.116537
57.585 11.754351
57.590 11.388083
57.595 11.560783
57.600 11.325327
57.605 11.161714
57.610 10.954364
57.615 11.166692
57.620 11.566908
57.625 11.617046
57.630 12.133126
57.635 12.472204
57.640 12.573995
57.645 12.930044
57.650 13.174036
57.655 13.560197
57.660 13.401667
57.665 12.751778
57.670 12.366027
57.675 12.443615
57.680 12.182638
57.685 12.303324
57.690 11.673055
57.695 11.690073
57.700 11.925767
57.705 12.037035
57.710 12.090716
57.715 12.690122
57.720 13.076447
57.725 13.304701
57.730 13.909842
57.735 14.118017
57.740 13.980781
57.745 14.017181
57.750 13.147806
57.755 12.756084
57.760 13.20451
57.765 13.088202
57.770 12.666327
57.775 12.709791
57.780 12.537337
57.785 12.908152
57.790 12.927584
57.795 12.501267
57.800 11.872836
57.805 11.811233
57.810 12.089004
57.815 12.111372
57.820 12.111392
57.825 11.745011
57.830 11.565372
57.835 12.026333
57.840 12.660816
57.845 12.169548
57.850 11.952299
57.855 11.789935
57.860 12.300544
57.865 13.042466
57.870 13.050519
57.875 12.71147
57.880 13.180535
57.885 13.615391
57.890 13.475224
57.895 12.843092
57.900 12.458301
57.905 12.299466
57.910 12.406235
57.915 11.997285
57.920 12.158767
57.925 12.136563
57.930 12.143346
57.935 12.202584
57.940 12.053325
57.945 12.337185
57.950 13.194043
57.955 13.424635
57.960 13.522704
57.965 13.875444
57.970 14.139672
57.975 14.677367
57.980 13.950199
57.985 13.293796
57.990 12.907843
57.995 12.704934
58.000 12.819093
58.005 12.801984
58.010 13.174438
58.015 13.766595
58.020 14.07608
58.025 14.748848
58.030 15.181393
58.035 15.26014
58.040 14.861305
58.045 14.360696
58.050 14.252463
58.055 14.170667
58.060 14.018453
58.065 14.22118
58.070 14.289518
58.075 14.305692
58.080 13.905628
58.085 13.176595
58.090 12.481232
58.095 12.342383
58.100 11.759291
58.105 11.103786
58.110 10.763568
58.115 11.069469
58.120 12.012219
58.125 12.667008
58.130 12.981751
58.135 13.238403
58.140 13.115784
58.145 13.910492
58.150 13.929156
58.155 13.236728
58.160 12.634855
58.165 12.600751
58.170 12.660094
58.175 13.267094
58.180 12.980816
58.185 13.465343
58.190 13.829086
58.195 14.159786
58.200 13.938433
58.205 13.982782
58.210 13.601074
58.215 13.694885
58.220 12.918259
58.225 12.820398
58.230 12.195875
58.235 11.784022
58.240 12.009865
58.245 11.901908
58.250 11.994415
58.255 12.683291
58.260 12.700587
58.265 13.226695
58.270 13.575262
58.275 13.600567
58.280 14.107924
58.285 14.08093
58.290 13.947
58.295 14.107202
58.300 14.466989
58.305 15.006858
58.310 15.089191
58.315 14.950759
58.320 14.825328
58.325 14.974825
58.330 15.012658
58.335 14.890311
58.340 14.568501
58.345 14.382799
58.350 14.036508
58.355 14.304848
58.360 14.088805
58.365 13.724687
58.370 13.615428
58.375 13.591493
58.380 13.66524
58.385 13.722738
58.390 13.815564
58.395 13.554635
58.400 13.917746
58.405 13.499444
58.410 13.535873
58.415 13.798895
58.420 13.882626
58.425 13.919726
58.430 14.283177
58.435 14.145851
58.440 14.140108
58.445 14.356415
58.450 14.256572
58.455 13.848259
58.460 13.712715
58.465 14.236112
58.470 14.494515
58.475 14.082787
58.480 13.491288
58.485 13.284349
58.490 13.535505
58.495 13.477485
58.500 13.193609
58.505 12.892797
58.510 13.102076
58.515 13.109582
58.520 13.678678
58.525 14.107705
58.530 14.195636
58.535 13.888809
58.540 13.774225
58.545 13.69425
58.550 13.815125
58.555 13.109875
58.560 12.906919
58.565 12.75717
58.570 12.853921
58.575 13.07374
58.580 13.277212
58.585 13.221842
58.590 13.502446
58.595 13.804873
58.600 14.003061
58.605 14.152184
58.610 14.055885
58.615 13.773702
58.620 14.004785
58.625 14.135949
58.630 13.78296
58.635 14.258468
58.640 14.493975
58.645 15.301644
58.650 15.289995
58.655 15.071207
58.660 15.102321
58.665 14.972201
58.670 14.891905
58.675 15.03195
58.680 15.291724
58.685 15.360692
58.690 14.876066
58.695 14.942996
58.700 14.587956
58.705 13.958146
58.710 13.350029
58.715 13.070853
58.720 13.153021
58.725 13.501315
58.730 12.709309
58.735 12.970151
58.740 13.061388
58.745 12.868889
58.750 12.564256
58.755 12.500381
58.760 12.46044
58.765 12.92192
58.770 12.607517
58.775 12.804841
58.780 13.55257
58.785 14.162827
58.790 14.572252
58.795 15.339999
58.800 15.76343
58.805 16.400276
58.810 16.011887
58.815 15.487386
58.820 14.87376
58.825 14.167871
58.830 13.348585
58.835 12.497323
58.840 11.975766
58.845 12.22459
58.850 12.324934
58.855 12.524447
58.860 12.494567
58.865 12.50613
58.870 12.955886
58.875 13.753453
58.880 13.681498
58.885 13.532083
58.890 13.515145
58.895 14.146654
58.900 14.413688
58.905 14.073399
58.910 13.19395
58.915 13.320984
58.920 13.577152
58.925 14.305229
58.930 14.290152
58.935 14.707429
58.940 15.0467
58.945 15.356368
58.950 15.434545
58.955 15.042583
58.960 14.947816
58.965 15.080793
58.970 14.472107
58.975 14.429698
58.980 13.873
58.985 13.28335
58.990 13.467059
58.995 12.950707
59.000 12.722906
59.005 13.269464
59.010 13.694306
59.015 14.361824
59.020 14.633584
59.025 14.384989
59.030 14.385418
59.035 14.373508
59.040 14.303734
59.045 14.104521
59.050 14.447749
59.055 14.30058
59.060 14.357411
59.065 14.622759
59.070 14.96159
59.075 15.492297
59.080 16.290138
59.085 16.618671
59.090 16.936962
59.095 17.304651
59.100 17.280884
59.105 16.949022
59.110 16.035559
59.115 15.409425
59.120 15.437088
59.125 15.979401
59.130 15.780241
59.135 15.376785
59.140 14.994346
59.145 14.742043
59.150 14.200086
59.155 14.03278
59.160 13.778472
59.165 13.955481
59.170 14.372949
59.175 14.525611
59.180 14.843855
59.185 15.203908
59.190 15.155741
59.195 15.420377
59.200 15.645328
59.205 15.608692
59.210 16.279623
59.215 16.264572
59.220 15.556592
59.225 15.515177
59.230 15.619482
59.235 15.291054
59.240 15.371347
59.245 15.056364
59.250 14.604992
59.255 15.393912
59.260 15.039423
59.265 14.435586
59.270 14.556821
59.275 14.481522
59.280 14.606418
59.285 14.877454
59.290 14.569473
59.295 14.467918
59.300 14.961298
59.305 15.052756
59.310 14.987468
59.315 14.994622
59.320 15.860402
59.325 16.23703
59.330 17.026814
59.335 16.733906
59.340 16.500576
59.345 16.269823
59.350 16.033697
59.355 15.12061
59.360 14.764887
59.365 14.05259
59.370 13.719034
59.375 13.973183
59.380 14.08227
59.385 14.708652
59.390 15.009215
59.395 14.732347
59.400 14.95356
59.405 14.863778
59.410 14.402061
59.415 14.502405
59.420 14.365306
59.425 14.321673
59.430 14.301567
59.435 14.287434
59.440 14.408739
59.445 14.457296
59.450 14.100202
59.455 14.283145
59.460 15.130713
59.465 15.182392
59.470 15.219781
59.475 15.597129
59.480 16.297487
59.485 16.647976
59.490 16.504154
59.495 15.824861
59.500 16.013817
59.505 16.1574
59.510 15.961382
59.515 15.816872
59.520 16.092413
59.525 16.136053
59.530 15.45048
59.535 16.173586
59.540 16.357746
59.545 16.211803
59.550 16.109156
59.555 15.823063
59.560 15.666607
59.565 15.990042
59.570 15.041157
59.575 14.995461
59.580 15.15203
59.585 14.604516
59.590 14.419075
59.595 15.02084
59.600 15.826889
59.605 16.023523
59.610 15.688139
59.615 15.842756
59.620 16.028624
59.625 16.008179
59.630 16.041006
59.635 15.925138
59.640 16.122536
59.645 16.773769
59.650 16.753212
59.655 17.023485
59.660 17.111544
59.665 16.87134
59.670 16.653669
59.675 16.99519
59.680 16.718571
59.685 16.531782
59.690 16.616608
59.695 16.543058
59.700 16.961836
59.705 16.624763
59.710 16.50448
59.715 16.831469
59.720 17.236126
59.725 17.806757
59.730 17.636677
59.735 17.895962
59.740 18.66531
59.745 18.624786
59.750 18.579468
59.755 18.204224
59.760 17.966764
59.765 17.898293
59.770 17.491659
59.775 17.701437
59.780 17.89053
59.785 18.048498
59.790 18.244602
59.795 18.337332
59.800 18.485085
59.805 18.198547
59.810 18.154123
59.815 18.080221
59.820 17.828764
59.825 17.625978
59.830 17.30649
59.835 17.280075
59.840 17.243282
59.845 16.998802
59.850 16.932432
59.855 16.638144
59.860 16.633652
59.865 16.92882
59.870 16.964384
59.875 16.670214
59.880 16.590115
59.885 16.623266
59.890 17.247044
59.895 17.498575
59.900 17.394577
59.905 17.35865
59.910 17.299021
59.915 17.007885
59.920 16.89143
59.925 16.902346
59.930 17.357069
59.935 17.489677
59.940 17.733397
59.945 18.784624
59.950 19.177614
59.955 19.873632
59.960 19.730743
59.965 19.785812
59.970 19.74221
59.975 20.019865
59.980 19.68314
59.985 19.348673
59.990 18.034056
59.995 17.787325
60.000 17.524738
60.005 17.882189
60.010 17.743597
60.015 18.03779
60.020 18.320171
60.025 18.619778
60.030 18.860462
60.035 19.114641
60.040 18.930918
60.045 18.737001
60.050 18.674953
60.055 19.270691
60.060 20.260612
60.065 20.296814
60.070 20.152702
60.075 19.746225
60.080 19.596228
60.085 19.66979
60.090 19.638742
60.095 19.823799
60.100 19.76046
60.105 19.584126
60.110 19.856365
60.115 19.886461
60.120 19.800846
60.125 19.546728
60.130 19.055918
60.135 18.417419
60.140 18.132799
60.145 18.300001
60.150 17.943567
60.155 17.72806
60.160 17.603065
60.165 17.712141
60.170 18.834202
60.175 19.430534
60.180 19.692146
60.185 19.611763
60.190 19.504658
60.195 19.614746
60.200 19.606293
60.205 19.512922
60.210 19.416239
60.215 19.118595
60.220 19.735451
60.225 19.730322
60.230 19.571217
60.235 19.195341
60.240 18.36879
60.245 17.771488
60.250 17.769815
60.255 17.868006
60.260 17.682299
60.265 17.350746
60.270 17.790026
60.275 18.473866
60.280 19.19878
60.285 19.289457
60.290 19.131458
60.295 19.676414
60.300 20.032497
60.305 20.539335
60.310 20.800097
60.315 21.12302
60.320 21.5009
60.325 21.650541
60.330 21.783504
60.335 21.486137
60.340 20.711266
60.345 20.154089
60.350 19.412146
60.355 19.291313
60.360 19.314754
60.365 18.462332
60.370 18.967428
60.375 18.873882
60.380 18.935232
60.385 19.485353
60.390 18.802809
60.395 18.225065
60.400 18.608738
60.405 18.153671
60.410 18.358025
60.415 18.866898
60.420 18.656158
60.425 19.192013
60.430 18.757183
60.435 18.87291
60.440 19.234417
60.445 19.5159
60.450 19.102797
60.455 18.850288
60.460 18.987101
60.465 19.912827
60.470 20.259098
60.475 20.57066
60.480 20.361237
60.485 20.090271
60.490 19.513008
60.495 19.48971
60.500 19.451731
60.505 19.401041
60.510 19.265831
60.515 19.377968
60.520 19.506638
60.525 19.948059
60.530 19.931438
60.535 19.404985
60.540 19.206856
60.545 18.841494
60.550 18.743837
60.555 19.088387
60.560 19.267263
60.565 18.787172
60.570 18.650852
60.575 18.306873
60.580 17.981817
60.585 17.764345
60.590 17.379564
60.595 17.032049
60.600 16.992901
60.605 16.977657
60.610 16.863358
60.615 17.132317
60.620 17.197483
60.625 17.535379
60.630 17.823898
60.635 17.390621
60.640 17.005442
60.645 16.915756
60.650 17.05975
60.655 17.11132
60.660 16.912258
60.665 17.009518
60.670 17.502914
60.675 18.118011
60.680 18.090078
60.685 17.961884
60.690 18.282642
60.695 18.447458
60.700 18.283794
60.705 18.622108
60.710 19.055874
60.715 19.267986
60.720 18.913116
60.725 18.154882
60.730 17.262186
60.735 17.553587
60.740 17.340178
60.745 16.945017
60.750 16.235859
60.755 16.411449
60.760 16.604753
60.765 17.584656
60.770 17.664158
60.775 17.130558
60.780 16.980892
60.785 17.308899
60.790 18.041992
60.795 18.072584
60.800 17.554974
60.805 17.478313
60.810 17.990889
60.815 18.255932
60.820 17.770279
60.825 17.301249
60.830 17.489477
60.835 17.267965
60.840 16.990696
60.845 17.494413
60.850 17.632368
60.855 17.750053
60.860 17.31109
60.865 17.287075
60.870 17.122429
60.875 16.929491
60.880 16.098814
60.885 16.016119
60.890 15.86468
60.895 16.077389
60.900 15.765384
60.905 15.893353
60.910 16.111668
60.915 15.733232
60.920 15.736754
60.925 16.436005
60.930 16.811699
60.935 16.842085
60.940 16.732002
60.945 16.500172
60.950 16.797749
60.955 17.124222
60.960 16.967001
60.965 17.047806
60.970 17.365299
60.975 17.413155
60.980 17.777071
60.985 17.893459
60.990 17.343018
60.995 16.589413
61.000 16.080023
61.005 16.16477
61.010 15.770969
61.015 15.355375
61.020 15.105779
61.025 15.342733
61.030 15.777937
61.035 16.171066
61.040 15.974617
61.045 16.17931
61.050 15.925202
61.055 15.260725
61.060 15.079999
61.065 14.414437
61.070 13.913815
61.075 14.077848
61.080 14.57293
61.085 15.252697
61.090 16.560921
61.095 16.842152
61.100 17.258921
61.105 17.534781
61.110 17.513285
61.115 17.415535
61.120 17.4457
61.125 17.460598
61.130 17.345369
61.135 16.948847
61.140 16.808018
61.145 16.520496
61.150 16.075628
61.155 16.144522
61.160 16.156046
61.165 16.071398
61.170 16.381397
61.175 16.007589
61.180 15.80991
61.185 16.013443
61.190 15.572621
61.195 15.49285
61.200 16.542667
61.205 16.960787
61.210 17.167261
61.215 17.475672
61.220 17.289656
61.225 16.966167
61.230 16.362028
61.235 15.60127
61.240 15.809816
61.245 16.125738
61.250 16.15304
61.255 16.830011
61.260 17.158035
61.265 17.249823
61.270 16.534225
61.275 15.640142
61.280 15.421365
61.285 15.125113
61.290 14.291714
61.295 14.145288
61.300 13.855391
61.305 14.519315
61.310 14.75975
61.315 15.392606
61.320 16.19136
61.325 16.572845
61.330 16.440615
61.335 16.828854
61.340 17.370325
61.345 17.806515
61.350 17.136068
61.355 16.795929
61.360 16.67341
61.365 16.719654
61.370 16.507986
61.375 16.370298
61.380 15.893278
61.385 16.149269
61.390 15.547146
61.395 15.238992
61.400 15.088805
61.405 14.758988
61.410 13.962936
61.415 13.744388
61.420 13.740064
61.425 14.134255
61.430 14.511019
61.435 14.552736
61.440 14.80064
61.445 15.573955
61.450 15.765121
61.455 15.660689
61.460 15.900665
61.465 16.209129
61.470 16.603996
61.475 16.66415
61.480 16.400839
61.485 16.546721
61.490 16.880089
61.495 17.139441
61.500 17.260199
61.505 17.171528
61.510 17.061337
61.515 16.862724
61.520 17.141489
61.525 16.97534
61.530 16.807812
61.535 16.23283
61.540 16.316473
61.545 17.296534
61.550 17.631405
61.555 17.516039
61.560 17.585817
61.565 17.439404
61.570 17.727724
61.575 17.056135
61.580 16.019558
61.585 15.410116
61.590 14.847205
61.595 14.79893
61.600 14.917768
61.605 15.144519
61.610 15.310816
61.615 15.71148
61.620 16.831392
61.625 17.303144
61.630 17.170364
61.635 17.265659
61.640 17.261387
61.645 17.309237
61.650 17.103308
61.655 16.983879
61.660 16.745081
61.665 16.717443
61.670 16.746729
61.675 16.796345
61.680 16.32946
61.685 15.611804
61.690 15.53248
61.695 15.435298
61.700 15.13323
61.705 14.239924
61.710 13.729417
61.715 13.95514
61.720 14.42032
61.725 14.366086
61.730 14.704856
61.735 15.360125
61.740 15.802862
61.745 15.909677
61.750 16.397842
61.755 15.98544
61.760 15.456972
61.765 15.25149
61.770 14.59366
61.775 14.624888
61.780 14.589291
61.785 14.055297
61.790 14.153256
61.795 14.771539
61.800 14.737841
61.805 15.104329
61.810 15.385632
61.815 15.599272
61.820 15.947614
61.825 16.317808
61.830 16.481344
61.835 16.759914
61.840 16.719051
61.845 16.590969
61.850 16.414902
61.855 16.331141
61.860 16.877481
61.865 17.123337
61.870 17.486828
61.875 18.328571
61.880 18.406719
61.885 18.751429
61.890 19.19009
61.895 18.612625
61.900 18.098761
61.905 17.909369
61.910 16.949982
61.915 16.343794
61.920 16.224545
61.925 15.799215
61.930 15.489263
61.935 14.640569
61.940 14.372501
61.945 15.06811
61.950 16.043592
61.955 16.012285
61.960 15.721033
61.965 15.866672
61.970 16.250128
61.975 16.06398
61.980 15.34515
61.985 15.392396
61.990 15.620969
61.995 15.377676
62.000 15.314285
62.005 15.516206
62.010 15.693304
62.015 16.023518
62.020 15.61218
62.025 15.580198
62.030 16.095213
62.035 16.747168
62.040 17.449343
62.045 17.637922
62.050 17.398315
62.055 17.132311
62.060 17.252062
62.065 17.127924
62.070 16.500099
62.075 16.332783
62.080 16.32539
62.085 16.582989
62.090 16.983185
62.095 16.835814
62.100 16.466402
62.105 16.71455
62.110 16.004587
62.115 15.263318
62.120 14.703015
62.125 14.822894
62.130 14.685593
62.135 14.628956
62.140 14.337598
62.145 14.601847
62.150 15.275134
62.155 15.80919
62.160 15.598101
62.165 16.245781
62.170 16.930088
62.175 17.382389
62.180 17.404177
62.185 17.396418
62.190 17.378941
62.195 17.316265
62.200 16.853867
62.205 15.939095
62.210 15.148421
62.215 15.175623
62.220 15.181622
62.225 14.876313
62.230 14.768684
62.235 14.773954
62.240 15.382767
62.245 15.861647
62.250 15.951866
62.255 15.821903
62.260 15.524344
62.265 15.484373
62.270 15.569733
62.275 16.032726
62.280 16.376778
62.285 16.095182
62.290 16.261906
62.295 17.169828
62.300 17.662764
62.305 17.804544
62.310 17.284052
62.315 17.099274
62.320 17.049267
62.325 17.033981
62.330 16.700014
62.335 16.201118
62.340 15.520996
62.345 15.061327
62.350 14.490658
62.355 14.391389
62.360 14.092184
62.365 14.192212
62.370 13.897141
62.375 14.546843
62.380 15.631268
62.385 17.088186
62.390 17.191641
62.395 17.298788
62.400 17.182608
62.405 17.740749
62.410 17.904945
62.415 16.883915
62.420 16.013704
62.425 16.382954
62.430 16.344328
62.435 16.315418
62.440 15.931106
62.445 15.76128
62.450 16.464235
62.455 16.302509
62.460 16.20046
62.465 16.089785
62.470 16.248707
62.475 16.229946
62.480 15.938142
62.485 15.359008
62.490 15.286723
62.495 14.848883
62.500 14.997919
62.505 14.65322
62.510 14.86196
62.515 14.744412
62.520 15.139856
62.525 15.13657
62.530 15.334353
62.535 14.986693
62.540 15.067338
62.545 15.385084
62.550 15.792314
62.555 15.643926
62.560 15.940753
62.565 15.762171
62.570 16.037197
62.575 16.12262
62.580 15.890591
62.585 15.368864
62.590 15.706515
62.595 15.647059
62.600 15.964524
62.605 15.88328
62.610 16.198101
62.615 16.193043
62.620 15.84308
62.625 15.598619
62.630 15.864375
62.635 15.76228
62.640 15.936537
62.645 15.356216
62.650 15.23178
62.655 15.725494
62.660 15.701178
62.665 14.939929
62.670 15.264847
62.675 15.604836
62.680 15.804281
62.685 16.248501
62.690 16.872469
62.695 17.325111
62.700 17.933641
62.705 17.416155
62.710 17.436646
62.715 17.714317
62.720 17.637936
62.725 17.502413
62.730 17.319805
62.735 17.141346
62.740 17.166937
62.745 16.484938
62.750 16.107626
62.755 15.955953
62.760 15.713904
62.765 15.74599
62.770 15.533153
62.775 15.651985
62.780 15.504519
62.785 15.194386
62.790 14.988513
62.795 15.518312
62.800 15.79804
62.805 16.550245
62.810 17.021919
62.815 17.772808
62.820 18.130018
62.825 18.406712
62.830 17.680187
62.835 17.160419
62.840 17.271601
62.845 17.086601
62.850 17.15276
62.855 16.919689
62.860 16.705273
62.865 16.489735
62.870 17.043705
62.875 16.376017
62.880 15.811543
62.885 15.296073
62.890 14.924113
62.895 15.092578
62.900 15.65701
62.905 14.964486
62.910 14.637798
62.915 14.790877
62.920 15.052564
62.925 15.488342
62.930 15.550414
62.935 14.77974
62.940 14.789508
62.945 15.08949
62.950 15.310949
62.955 15.527301
62.960 15.721199
62.965 15.22802
62.970 15.951217
62.975 16.59708
62.980 16.715897
62.985 16.668339
62.990 16.632591
62.995 16.699984
63.000 16.856127
63.005 16.418386
63.010 16.231907
63.015 16.240803
63.020 16.332064
63.025 16.270781
63.030 16.45225
63.035 16.665682
63.040 17.25802
63.045 17.425117
63.050 17.904043
63.055 18.025751
63.060 18.150471
63.065 17.847773
63.070 17.823256
63.075 17.390062
63.080 17.057646
63.085 16.700069
63.090 16.50705
63.095 16.386177
63.100 16.32625
63.105 16.720987
63.110 17.035198
63.115 17.103407
63.120 16.902899
63.125 16.821142
63.130 16.970875
63.135 16.590982
63.140 15.940984
63.145 15.820953
63.150 15.72008
63.155 16.53442
63.160 16.773827
63.165 16.749226
63.170 17.085667
63.175 17.481722
63.180 17.554005
63.185 17.578041
63.190 17.431549
63.195 17.224333
63.200 17.134855
63.205 17.160221
63.210 17.15506
63.215 16.941866
63.220 16.81465
63.225 16.400829
63.230 16.499077
63.235 16.4613
63.240 16.507151
63.245 16.265732
63.250 16.524305
63.255 17.085449
63.260 17.111139
63.265 16.848005
63.270 16.574274
63.275 16.416605
63.280 16.616829
63.285 16.64459
63.290 16.500483
63.295 16.868479
63.300 17.257378
63.305 17.676611
63.310 17.93927
63.315 17.549644
63.320 17.717035
63.325 17.579515
63.330 17.350988
63.335 17.286066
63.340 17.255409
63.345 16.768505
63.350 16.543991
63.355 16.205202
63.360 15.931829
63.365 16.018961
63.370 15.797574
63.375 15.848092
63.380 16.096081
63.385 16.432587
63.390 16.486441
63.395 16.310493
63.400 16.215195
63.405 16.185421
63.410 15.531219
63.415 15.418402
63.420 15.495585
63.425 15.521289
63.430 15.995191
63.435 15.654003
63.440 15.544115
63.445 16.579617
63.450 16.794678
63.455 16.681879
63.460 16.746191
63.465 16.992262
63.470 17.799528
63.475 18.2861
63.480 17.479456
63.485 17.365267
63.490 17.56678
63.495 17.569149
63.500 16.867174
63.505 16.26087
63.510 16.257381
63.515 16.824272
63.520 16.856228
63.525 16.600761
63.530 16.307402
63.535 16.363905
63.540 16.68227
63.545 16.215605
63.550 15.877455
63.555 15.697949
63.560 16.204554
63.565 16.844193
63.570 17.047874
63.575 17.372419
63.580 17.679859
63.585 18.081081
63.590 18.330984
63.595 18.03231
63.600 18.20595
63.605 18.119892
63.610 17.981112
63.615 17.92519
63.620 17.449326
63.625 16.940603
63.630 16.632948
63.635 16.436182
63.640 16.316166
63.645 16.083679
63.650 16.063032
63.655 16.420832
63.660 16.71282
63.665 17.184563
63.670 17.232744
63.675 16.762667
63.680 16.842196
63.685 16.938057
63.690 16.891893
63.695 17.215435
63.700 16.694532
63.705 16.849188
63.710 17.393549
63.715 17.106436
63.720 17.262491
63.725 16.751137
63.730 16.590395
63.735 16.801683
63.740 16.607037
63.745 16.317623
63.750 16.491804
63.755 16.691624
63.760 16.986498
63.765 16.849022
63.770 16.706173
63.775 16.821209
63.780 17.514894
63.785 17.299198
63.790 16.640686
63.795 16.951977
63.800 16.909494
63.805 17.318251
63.810 17.272484
63.815 17.009256
63.820 17.229666
63.825 18.055901
63.830 18.329391
63.835 18.782738
63.840 19.196039
63.845 18.94582
63.850 18.990051
63.855 18.804399
63.860 18.575563
63.865 18.537001
63.870 17.693264
63.875 16.551188
63.880 16.536926
63.885 16.307045
63.890 15.986775
63.895 15.34432
63.900 15.468219
63.905 16.193218
63.910 16.565546
63.915 16.484545
63.920 16.657173
63.925 16.630886
63.930 17.140017
63.935 16.872772
63.940 16.600021
63.945 16.864626
63.950 16.564043
63.955 17.097994
63.960 17.986496
63.965 17.95188
63.970 17.903116
63.975 17.947821
63.980 18.068705
63.985 18.863552
63.990 18.760223
63.995 18.602203
64.000 18.118235
64.005 17.915806
64.010 17.805756
64.015 18.161461
64.020 18.067133
64.025 17.615885
64.030 17.493761
64.035 17.84144
64.040 18.147348
64.045 18.463276
64.050 17.889843
64.055 17.927511
64.060 18.075676
64.065 17.873981
64.070 17.688231
64.075 17.454229
64.080 17.044151
64.085 17.448177
64.090 17.369745
64.095 17.480766
64.100 17.980938
64.105 18.073078
64.110 17.836201
64.115 17.578882
64.120 17.536957
64.125 17.258928
64.130 17.043581
64.135 16.56282
64.140 16.071846
64.145 16.690336
64.150 16.672277
64.155 16.435602
64.160 16.609343
64.165 16.659786
64.170 16.95804
64.175 16.950777
64.180 16.475492
64.185 16.652449
64.190 16.662334
64.195 16.461742
64.200 16.652723
64.205 16.986649
64.210 17.425142
64.215 17.992481
64.220 18.214647
64.225 18.315378
64.230 18.254509
64.235 18.143642
64.240 17.738935
64.245 17.868004
64.250 17.204273
64.255 17.031399
64.260 17.39632
64.265 17.479895
64.270 17.40169
64.275 17.576178
64.280 17.497303
64.285 17.35247
64.290 17.478022
64.295 17.25885
64.300 17.703997
64.305 18.139677
64.310 18.097446
64.315 18.155581
64.320 18.43136
64.325 18.167385
64.330 17.440163
64.335 16.921246
64.340 16.495455
64.345 16.125233
64.350 16.689413
64.355 16.925722
64.360 17.434053
64.365 18.21489
64.370 18.182228
64.375 18.12854
64.380 17.779701
64.385 17.151041
64.390 17.317644
64.395 17.496275
64.400 17.786772
64.405 17.828312
64.410 18.61562
64.415 19.248363
64.420 18.902719
64.425 18.846695
64.430 18.535444
64.435 18.655626
64.440 18.678135
64.445 18.233515
64.450 17.890823
64.455 18.473261
64.460 18.470432
64.465 18.691906
64.470 18.753389
64.475 18.864893
64.480 19.133318
64.485 19.644297
64.490 19.026209
64.495 18.654453
64.500 18.261229
64.505 18.156193
64.510 19.039005
64.515 18.889168
64.520 19.013638
64.525 19.860144
64.530 19.894417
64.535 19.24542
64.540 18.324471
64.545 17.592876
64.550 17.707035
64.555 17.811132
64.560 17.805208
64.565 17.817501
64.570 17.594007
64.575 17.459654
64.580 17.300571
64.585 17.633904
64.590 17.551868
64.595 17.244614
64.600 16.955839
64.605 16.874395
64.610 16.804913
64.615 16.44401
64.620 16.426226
64.625 16.474075
64.630 16.613247
64.635 17.12141
64.640 18.126427
64.645 18.747608
64.650 18.417665
64.655 17.519873
64.660 17.638899
64.665 17.326664
64.670 17.548267
64.675 17.431643
64.680 17.230904
64.685 17.741615
64.690 18.28783
64.695 17.988729
64.700 18.444668
64.705 18.17453
64.710 18.385695
64.715 18.751778
64.720 18.807343
64.725 18.636375
64.730 19.005804
64.735 19.123861
64.740 20.027246
64.745 20.485229
64.750 20.337475
64.755 20.571455
64.760 20.537142
64.765 20.296112
64.770 19.810045
64.775 19.177923
64.780 18.027861
64.785 17.95171
64.790 17.866186
64.795 17.886837
64.800 17.833355
64.805 17.718597
64.810 18.026875
64.815 18.615557
64.820 18.430096
64.825 18.413723
64.830 18.536728
64.835 18.672606
64.840 18.870293
64.845 18.244446
64.850 18.464844
64.855 19.284483
64.860 19.472017
64.865 20.321659
64.870 20.259525
64.875 20.475496
64.880 20.627914
64.885 20.108919
64.890 19.627415
64.895 19.236988
64.900 18.886051
64.905 19.086241
64.910 18.608511
64.915 18.56752
64.920 18.719158
64.925 18.467417
64.930 18.185347
64.935 18.011196
64.940 17.960331
64.945 18.248425
64.950 18.707239
64.955 18.949537
64.960 19.571585
64.965 20.151073
64.970 19.706236
64.975 19.668009
64.980 20.103016
64.985 20.223989
64.990 19.99452
64.995 19.640465
65.000 19.733328
65.005 19.939503
65.010 19.901972
65.015 19.751196
65.020 20.542719
65.025 21.490677
65.030 21.708237
65.035 21.506119
65.040 21.731834
65.045 21.840715
65.050 21.86157
65.055 21.3211
65.060 20.438047
65.065 20.007475
65.070 19.824892
65.075 19.433689
65.080 19.485588
65.085 19.455011
65.090 19.102842
65.095 19.531536
65.100 19.965004
65.105 20.326124
65.110 20.249746
65.115 19.503237
65.120 18.936241
65.125 19.614134
65.130 19.724504
65.135 19.817141
65.140 19.749146
65.145 20.119492
65.150 20.814089
65.155 21.198215
65.160 21.433281
65.165 20.959467
65.170 21.08482
65.175 21.250086
65.180 21.039209
65.185 20.774397
65.190 20.783316
65.195 20.629414
65.200 21.047298
65.205 21.156525
65.210 21.713011
65.215 22.13752
65.220 22.560223
65.225 22.841587
65.230 22.986662
65.235 23.315434
65.240 23.576122
65.245 23.410292
65.250 23.895569
65.255 24.478634
65.260 24.249037
65.265 23.640413
65.270 23.073328
65.275 22.641209
65.280 22.371664
65.285 21.576427
65.290 20.941595
65.295 21.326714
65.300 21.602762
65.305 22.420485
65.310 22.7572
65.315 22.737144
65.320 22.955261
65.325 22.829227
65.330 22.618183
65.335 22.73802
65.340 21.971945
65.345 21.329062
65.350 21.317266
65.355 21.183468
65.360 20.746845
65.365 20.299154
65.370 20.126436
65.375 20.216309
65.380 20.93915
65.385 21.121845
65.390 21.458191
65.395 21.876186
65.400 22.051678
65.405 22.187441
65.410 21.984922
65.415 21.709583
65.420 21.798838
65.425 22.154352
65.430 22.541889
65.435 22.851215
65.440 22.943752
65.445 23.448298
65.450 23.647427
65.455 23.844316
65.460 23.559412
65.465 23.261307
65.470 23.033869
65.475 23.643793
65.480 23.229727
65.485 23.124153
65.490 22.925272
65.495 23.289009
65.500 23.892618
65.505 25.086113
65.510 25.456692
65.515 25.949469
65.520 26.053137
65.525 26.615412
65.530 27.333839
65.535 27.50029
65.540 26.780281
65.545 25.969669
65.550 26.138939
65.555 26.298801
65.560 26.4151
65.565 26.245348
65.570 26.19698
65.575 27.045021
65.580 28.288671
65.585 29.257626
65.590 29.740959
65.595 29.091181
65.600 29.194366
65.605 29.540552
65.610 29.406364
65.615 28.980267
65.620 29.032324
65.625 28.938171
65.630 29.520538
65.635 28.816244
65.640 28.478783
65.645 28.384932
65.650 28.821625
65.655 28.044014
65.660 28.096699
65.665 28.923943
65.670 29.822515
65.675 30.549814
65.680 31.325989
65.685 31.155413
65.690 31.537264
65.695 31.993881
65.700 31.491249
65.705 31.70083
65.710 31.854074
65.715 31.840107
65.720 32.715687
65.725 33.36541
65.730 33.230042
65.735 33.319927
65.740 33.130325
65.745 32.871086
65.750 32.782761
65.755 32.785595
65.760 33.053635
65.765 33.41024
65.770 33.871529
65.775 34.356102
65.780 34.262138
65.785 35.158474
65.790 35.538723
65.795 35.592957
65.800 35.322548
65.805 34.679031
65.810 33.77026
65.815 33.278107
65.820 33.224709
65.825 32.643227
65.830 32.174244
65.835 31.922794
65.840 32.352158
65.845 32.982967
65.850 32.89925
65.855 31.945946
65.860 32.215923
65.865 32.494781
65.870 32.958912
65.875 33.764931
65.880 34.061932
65.885 34.545151
65.890 34.390003
65.895 34.14996
65.900 34.730156
65.905 34.636921
65.910 34.334621
65.915 34.388454
65.920 34.952053
65.925 35.74049
65.930 35.288372
65.935 35.488945
65.940 35.786774
65.945 35.621918
65.950 36.041584
65.955 35.880692
65.960 36.128746
65.965 36.84729
65.970 36.158028
65.975 35.777214
65.980 35.862392
65.985 35.504002
65.990 35.254765
65.995 35.046143
66.000 34.893909
66.005 35.149639
66.010 35.780701
66.015 35.797928
66.020 35.839016
66.025 35.762978
66.030 35.556183
66.035 36.317242
66.040 36.034775
66.045 34.940716
66.050 34.15789
66.055 33.692432
66.060 33.720215
66.065 32.961052
66.070 32.596302
66.075 32.413261
66.080 33.354656
66.085 33.659096
66.090 33.915531
66.095 34.552177
66.100 34.130074
66.105 34.157799
66.110 34.150356
66.115 33.849159
66.120 33.924953
66.125 34.045044
66.130 33.595875
66.135 34.182209
66.140 33.518147
66.145 32.225464
66.150 31.549709
66.155 32.343838
66.160 32.425564
66.165 32.350655
66.170 31.063591
66.175 31.105719
66.180 32.478859
66.185 32.463596
66.190 31.359529
66.195 30.759798
66.200 32.150883
66.205 33.62006
66.210 33.696785
66.215 33.426079
66.220 33.251232
66.225 33.231174
66.230 32.49485
66.235 31.149189
66.240 30.367689
66.245 30.117622
66.250 30.222738
66.255 30.016899
66.260 29.86232
66.265 29.782597
66.270 28.887239
66.275 28.825134
66.280 28.624826
66.285 28.345665
66.290 28.470648
66.295 28.712408
66.300 29.041719
66.305 29.390377
66.310 28.570021
66.315 28.814152
66.320 28.871119
66.325 28.337776
66.330 28.340677
66.335 28.400198
66.340 29.254675
66.345 29.777592
66.350 29.838638
66.355 30.05928
66.360 30.731699
66.365 30.03842
66.370 29.01223
66.375 28.322033
66.380 27.816565
66.385 27.07896
66.390 27.550362
66.395 27.457733
66.400 27.914749
66.405 28.49585
66.410 28.628706
66.415 29.186966
66.420 29.621677
66.425 29.023468
66.430 28.40468
66.435 28.257
66.440 28.35713
66.445 28.474707
66.450 27.408119
66.455 26.752634
66.460 26.41568
66.465 26.570061
66.470 26.477392
66.475 25.836868
66.480 25.63143
66.485 26.249926
66.490 26.824459
66.495 26.517769
66.500 26.535803
66.505 26.768278
66.510 26.893982
66.515 27.005423
66.520 26.238319
66.525 26.143703
66.530 26.369713
66.535 26.247061
66.540 25.762527
66.545 24.962599
66.550 24.838305
66.555 24.926973
66.560 24.80382
66.565 25.148436
66.570 25.179008
66.575 25.406397
66.580 25.288416
66.585 24.955065
66.590 25.066683
66.595 24.773043
66.600 23.878443
66.605 23.599358
66.610 23.349176
66.615 23.836643
66.620 24.206196
66.625 24.077639
66.630 24.077114
66.635 24.621954
66.640 25.054714
66.645 25.219383
66.650 24.956476
66.655 24.604427
66.660 24.930645
66.665 24.831404
66.670 24.767538
66.675 24.863483
66.680 24.90967
66.685 24.799086
66.690 24.411217
66.695 23.815363
66.700 24.208025
66.705 24.221041
66.710 23.79192
66.715 23.45825
66.720 23.74551
66.725 23.869637
66.730 23.770899
66.735 23.039801
66.740 22.782396
66.745 22.839085
66.750 22.681711
66.755 23.094442
66.760 23.595518
66.765 24.406519
66.770 24.495279
66.775 24.706429
66.780 24.676014
66.785 24.57958
66.790 23.703606
66.795 24.218636
66.800 24.553879
66.805 24.825008
66.810 24.927835
66.815 24.807381
66.820 25.219589
66.825 25.28587
66.830 24.470732
66.835 23.416527
66.840 22.996086
66.845 23.072893
66.850 23.207436
66.855 22.81776
66.860 23.643232
66.865 23.621572
66.870 24.316854
66.875 24.548378
66.880 23.685171
66.885 23.805006
66.890 23.861631
66.895 23.590523
66.900 24.10247
66.905 23.556957
66.910 22.906929
66.915 23.21475
66.920 22.893637
66.925 22.043064
66.930 21.371937
66.935 20.648405
66.940 20.528662
66.945 21.031013
66.950 20.924927
66.955 20.797016
66.960 21.147333
66.965 21.202299
66.970 21.263063
66.975 21.294283
66.980 21.381441
66.985 21.707479
66.990 22.819822
66.995 23.043087
67.000 22.512691
67.005 22.632032
67.010 22.115282
67.015 21.576849
67.020 21.123657
67.025 20.551506
67.030 20.706049
67.035 21.455147
67.040 22.016855
67.045 22.519148
67.050 22.738419
67.055 23.047546
67.060 23.197655
67.065 23.393768
67.070 22.658625
67.075 22.258457
67.080 22.263073
67.085 22.295353
67.090 22.284229
67.095 21.938639
67.100 21.884178
67.105 21.748871
67.110 21.614248
67.115 21.729544
67.120 21.985102
67.125 22.092352
67.130 21.914484
67.135 21.675369
67.140 21.31921
67.145 21.134884
67.150 21.59804
67.155 21.069862
67.160 21.08219
67.165 21.200832
67.170 21.163746
67.175 21.565159
67.180 21.598007
67.185 21.135616
67.190 21.266886
67.195 20.564262
67.200 19.735664
67.205 19.390627
67.210 19.601419
67.215 19.732868
67.220 19.693754
67.225 19.393435
67.230 19.909048
67.235 20.533184
67.240 21.561993
67.245 21.414351
67.250 21.600519
67.255 21.569551
67.260 21.725262
67.265 21.805939
67.270 22.133718
67.275 22.037844
67.280 22.771931
67.285 22.600956
67.290 21.967289
67.295 21.825756
67.300 21.764513
67.305 21.851507
67.310 21.358669
67.315 20.852053
67.320 20.488747
67.325 20.701632
67.330 21.011908
67.335 20.535854
67.340 20.379436
67.345 21.285398
67.350 21.293657
67.355 21.873411
67.360 21.963203
67.365 22.296875
67.370 22.553989
67.375 22.650623
67.380 22.232584
67.385 21.847387
67.390 21.318251
67.395 20.617931
67.400 20.360695
67.405 20.359007
67.410 19.743923
67.415 19.652079
67.420 20.445839
67.425 21.214745
67.430 21.941484
67.435 22.155022
67.440 22.17952
67.445 22.42107
67.450 22.66721
67.455 22.281286
67.460 21.981861
67.465 21.557903
67.470 21.075472
67.475 20.781023
67.480 20.642126
67.485 20.536621
67.490 20.849539
67.495 21.151636
67.500 21.718227
67.505 21.679966
67.510 22.034899
67.515 22.115196
67.520 21.274214
67.525 20.618326
67.530 20.401524
67.535 19.938484
67.540 19.91898
67.545 19.836935
67.550 19.743149
67.555 19.775961
67.560 20.105249
67.565 20.607952
67.570 21.29438
67.575 21.516748
67.580 22.066017
67.585 22.331322
67.590 22.383024
67.595 21.928541
67.600 21.852139
67.605 21.813709
67.610 21.742428
67.615 21.529467
67.620 21.930826
67.625 22.247881
67.630 22.586868
67.635 21.876867
67.640 21.3529
67.645 21.457684
67.650 21.552031
67.655 21.440191
67.660 21.435745
67.665 21.8088
67.670 21.835524
67.675 21.412899
67.680 21.097549
67.685 20.943396
67.690 20.731352
67.695 20.630754
67.700 20.619354
67.705 20.795546
67.710 21.171623
67.715 21.60257
67.720 22.273926
67.725 22.185495
67.730 22.360878
67.735 21.885992
67.740 21.781693
67.745 21.65526
67.750 21.137451
67.755 20.145086
67.760 19.282953
67.765 19.145737
67.770 19.18152
67.775 19.70492
67.780 19.516827
67.785 19.52434
67.790 19.927603
67.795 20.177225
67.800 20.143993
67.805 20.173916
67.810 19.780983
67.815 20.114294
67.820 19.631733
67.825 19.135584
67.830 19.249022
67.835 18.922867
67.840 18.597221
67.845 18.849224
67.850 18.551325
67.855 19.045488
67.860 19.38768
67.865 19.940197
67.870 20.378708
67.875 20.765755
67.880 20.286972
67.885 20.540472
67.890 21.330517
67.895 21.176905
67.900 20.586029
67.905 20.821241
67.910 21.421053
67.915 22.003632
67.920 21.459713
67.925 20.873964
67.930 21.038677
67.935 21.627199
67.940 21.729443
67.945 21.234335
67.950 20.767006
67.955 20.563068
67.960 20.269732
67.965 20.678524
67.970 20.425894
67.975 20.27779
67.980 20.983156
67.985 21.35006
67.990 21.489962
67.995 21.52582
68.000 21.075495
68.005 21.120165
68.010 21.239061
68.015 21.055246
68.020 21.323467
68.025 21.272194
68.030 21.099533
68.035 21.453709
68.040 21.244642
68.045 21.185369
68.050 21.140903
68.055 21.15428
68.060 21.451799
68.065 21.239283
68.070 20.042955
68.075 19.675222
68.080 19.311451
68.085 19.047489
68.090 18.772125
68.095 19.00985
68.100 19.611876
68.105 20.830542
68.110 21.441637
68.115 21.416994
68.120 21.128326
68.125 21.095098
68.130 20.803534
68.135 20.599741
68.140 19.907494
68.145 19.704941
68.150 20.009218
68.155 20.263113
68.160 20.143322
68.165 20.612732
68.170 20.928692
68.175 20.816565
68.180 20.987558
68.185 21.692812
68.190 21.911514
68.195 22.023348
68.200 21.162319
68.205 20.884882
68.210 21.015633
68.215 20.264982
68.220 19.673748
68.225 19.552338
68.230 19.793518
68.235 19.98196
68.240 19.466869
68.245 19.147333
68.250 19.697643
68.255 19.604692
68.260 20.006865
68.265 20.182642
68.270 20.123682
68.275 20.115091
68.280 19.766684
68.285 19.186848
68.290 18.860542
68.295 18.783855
68.300 18.241331
68.305 18.615032
68.310 18.797422
68.315 18.747795
68.320 19.741615
68.325 19.580025
68.330 19.36352
68.335 19.529881
68.340 19.709396
68.345 20.010311
68.350 20.336239
68.355 19.818966
68.360 19.743296
68.365 19.98806
68.370 20.038607
68.375 19.711744
68.380 19.364359
68.385 18.777103
68.390 18.420238
68.395 18.549925
68.400 18.429464
68.405 18.091208
68.410 17.616491
68.415 18.250896
68.420 18.828512
68.425 19.016695
68.430 18.868252
68.435 18.782949
68.440 18.997849
68.445 18.954193
68.450 18.258814
68.455 18.214735
68.460 18.650862
68.465 18.595394
68.470 18.594816
68.475 19.266029
68.480 19.980791
68.485 20.271748
68.490 20.257771
68.495 20.672476
68.500 20.892372
68.505 21.072338
68.510 20.651485
68.515 20.346859
68.520 20.836689
68.525 21.209623
68.530 21.354229
68.535 21.624954
68.540 21.561064
68.545 22.002361
68.550 21.801849
68.555 21.141186
68.560 20.825979
68.565 20.459196
68.570 21.07523
68.575 21.433601
68.580 21.747673
68.585 21.942837
68.590 21.797852
68.595 21.513039
68.600 20.919758
68.605 20.135206
68.610 19.374884
68.615 19.024969
68.620 19.187826
68.625 18.99124
68.630 18.922295
68.635 18.9233
68.640 19.207575
68.645 19.55862
68.650 19.814077
68.655 20.471039
68.660 21.062243
68.665 21.318291
68.670 21.758669
68.675 21.81591
68.680 22.058336
68.685 22.178583
68.690 21.810177
68.695 21.72838
68.700 21.783134
68.705 21.197979
68.710 20.664505
68.715 20.319813
68.720 20.395107
68.725 20.645374
68.730 20.903582
68.735 20.746548
68.740 20.891649
68.745 20.826027
68.750 20.640621
68.755 20.314819
68.760 19.954515
68.765 20.320391
68.770 20.2197
68.775 20.143723
68.780 20.399492
68.785 20.596842
68.790 20.955328
68.795 20.942678
68.800 20.468328
68.805 20.685123
68.810 20.995037
68.815 21.04631
68.820 20.962191
68.825 21.1992
68.830 21.669132
68.835 21.554224
68.840 21.458775
68.845 21.844679
68.850 22.317223
68.855 22.590998
68.860 22.420433
68.865 21.766886
68.870 22.277903
68.875 22.550356
68.880 22.649544
68.885 22.950445
68.890 22.783466
68.895 23.2659
68.900 23.905331
68.905 24.271875
68.910 24.331938
68.915 23.802814
68.920 23.631491
68.925 23.644526
68.930 23.239067
68.935 23.291842
68.940 22.591347
68.945 22.319197
68.950 22.412226
68.955 22.177906
68.960 22.044565
68.965 21.984186
68.970 21.890226
68.975 22.140553
68.980 22.196144
68.985 22.702513
68.990 23.286558
68.995 23.256462
69.000 23.667311
69.005 24.301661
69.010 25.076521
69.015 25.260456
69.020 24.803785
69.025 24.385788
69.030 24.301874
69.035 24.386055
69.040 24.535843
69.045 24.362667
69.050 24.155708
69.055 24.433132
69.060 24.402718
69.065 24.500483
69.070 23.712746
69.075 22.419044
69.080 22.735353
69.085 22.969971
69.090 23.056278
69.095 22.638899
69.100 23.037476
69.105 24.162664
69.110 25.004444
69.115 24.864281
69.120 24.940825
69.125 24.851398
69.130 24.901775
69.135 24.887848
69.140 24.877625
69.145 24.979153
69.150 24.226217
69.155 24.608208
69.160 24.527374
69.165 24.218693
69.170 24.404549
69.175 23.970926
69.180 23.325006
69.185 24.230442
69.190 24.013439
69.195 24.666388
69.200 25.105856
69.205 24.95952
69.210 25.606857
69.215 25.994005
69.220 25.726444
69.225 25.578991
69.230 25.42045
69.235 24.976002
69.240 24.616716
69.245 24.222633
69.250 24.701927
69.255 25.033981
69.260 25.275837
69.265 24.979248
69.270 25.483002
69.275 26.242403
69.280 26.751135
69.285 26.499607
69.290 26.559528
69.295 26.353209
69.300 26.445034
69.305 25.919577
69.310 25.6534
69.315 25.081816
69.320 25.214161
69.325 25.60651
69.330 26.159243
69.335 26.599285
69.340 26.720377
69.345 26.36002
69.350 27.132204
69.355 26.743513
69.360 26.972452
69.365 26.759655
69.370 26.265114
69.375 25.811234
69.380 25.579571
69.385 24.850504
69.390 24.980648
69.395 24.532879
69.400 24.914486
69.405 25.08046
69.410 25.479588
69.415 26.656046
69.420 27.188063
69.425 26.984333
69.430 27.258978
69.435 27.721308
69.440 28.284328
69.445 28.79875
69.450 27.794128
69.455 27.389904
69.460 27.374672
69.465 27.134649
69.470 26.874006
69.475 26.841633
69.480 26.226299
69.485 26.142105
69.490 26.519661
69.495 26.572996
69.500 26.862654
69.505 26.575579
69.510 26.450306
69.515 26.479473
69.520 25.989658
69.525 26.044701
69.530 25.980721
69.535 25.689434
69.540 25.7649
69.545 25.583179
69.550 26.292459
69.555 27.233171
69.560 27.362406
69.565 27.876829
69.570 28.332644
69.575 29.110189
69.580 29.400576
69.585 29.395254
69.590 29.264872
69.595 28.57164
69.600 28.062401
69.605 27.294916
69.610 26.787401
69.615 27.327457
69.620 26.627974
69.625 25.990143
69.630 26.372723
69.635 26.410355
69.640 26.097998
69.645 25.498281
69.650 24.475435
69.655 24.676361
69.660 24.942459
69.665 25.60251
69.670 25.793558
69.675 25.82065
69.680 26.119476
69.685 26.637007
69.690 27.12948
69.695 27.151361
69.700 26.404333
69.705 26.175604
69.710 25.678694
69.715 25.404093
69.720 25.078951
69.725 24.307367
69.730 23.559305
69.735 23.411583
69.740 24.122923
69.745 24.32967
69.750 23.520748
69.755 23.20434
69.760 23.211121
69.765 22.768135
69.770 22.091864
69.775 21.438757
69.780 22.086367
69.785 22.986956
69.790 23.548712
69.795 24.267508
69.800 25.290194
69.805 25.737688
69.810 26.114191
69.815 25.939646
69.820 25.657249
69.825 25.59597
69.830 24.97887
69.835 24.950315
69.840 24.77442
69.845 24.644827
69.850 24.625975
69.855 24.163767
69.860 23.180517
69.865 22.941292
69.870 22.881025
69.875 22.98316
69.880 22.957235
69.885 22.974056
69.890 22.855337
69.895 23.365904
69.900 23.414396
69.905 22.865246
69.910 22.980164
69.915 22.423603
69.920 22.060024
69.925 22.417807
69.930 22.175663
69.935 22.069435
69.940 22.062258
69.945 22.032597
69.950 22.510132
69.955 22.775368
69.960 22.683594
69.965 22.696545
69.970 22.480358
69.975 22.175146
69.980 21.675001
69.985 21.264389
69.990 20.994043
69.995 21.237225
70.000 21.125538
70.005 20.697958
70.010 20.901714
70.015 20.874498
70.020 20.911715
70.025 20.80048
70.030 19.925585
70.035 19.912802
70.040 20.147371
70.045 20.295092
70.050 19.734907
70.055 19.437052
70.060 19.602179
70.065 19.428978
70.070 19.449062
70.075 19.413094
70.080 19.039238
70.085 19.82432
70.090 20.039577
70.095 20.549681
70.100 21.064646
70.105 20.987349
70.110 20.688135
70.115 20.893087
70.120 20.899773
70.125 20.812031
70.130 21.283144
70.135 21.27507
70.140 21.642315
70.145 22.292521
70.150 21.623329
70.155 20.861729
70.160 20.395306
70.165 20.022221
70.170 19.86097
70.175 19.825377
70.180 19.596891
70.185 20.08824
70.190 20.511667
70.195 21.050808
70.200 20.770317
70.205 20.890062
70.210 20.550632
70.215 21.413044
70.220 21.528074
70.225 21.382513
70.230 20.420877
70.235 20.389278
70.240 19.945967
70.245 19.698658
70.250 18.984299
70.255 19.110229
70.260 19.994333
70.265 20.145033
70.270 20.833073
70.275 20.970207
70.280 20.652508
70.285 21.11285
70.290 20.729908
70.295 20.446299
70.300 20.291107
70.305 20.07674
70.310 20.294289
70.315 20.334164
70.320 19.437325
70.325 19.295242
70.330 19.511379
70.335 19.742317
70.340 19.706787
70.345 19.835585
70.350 19.736187
70.355 20.423506
70.360 20.420559
70.365 20.498121
70.370 20.37957
70.375 19.399252
70.380 19.557438
70.385 20.061287
70.390 19.89142
70.395 19.531956
70.400 18.874723
70.405 18.861099
70.410 19.71451
70.415 19.230288
70.420 18.466484
70.425 18.184694
70.430 18.070024
70.435 18.382305
70.440 18.808374
70.445 18.97728
70.450 19.292776
70.455 19.761036
70.460 19.555265
70.465 19.644169
70.470 19.805847
70.475 19.531898
70.480 19.415966
70.485 19.015759
70.490 18.578701
70.495 18.673782
70.500 18.920511
70.505 18.727289
70.510 18.498672
70.515 18.03224
70.520 17.971722
70.525 18.422882
70.530 19.054251
70.535 19.037466
70.540 18.84277
70.545 18.885689
70.550 18.835491
70.555 19.117823
70.560 18.867599
70.565 18.722067
70.570 18.4396
70.575 18.494339
70.580 19.153151
70.585 19.788136
70.590 20.328796
70.595 20.730156
70.600 20.629557
70.605 21.093531
70.610 21.566303
70.615 21.092546
70.620 21.192808
70.625 20.860207
70.630 20.407476
70.635 20.20433
70.640 19.474451
70.645 19.027781
70.650 19.394712
70.655 19.183611
70.660 19.046097
70.665 19.073462
70.670 19.213667
70.675 19.227427
70.680 18.543146
70.685 18.600193
70.690 19.042133
70.695 19.890224
70.700 19.991362
70.705 19.552004
70.710 20.137436
70.715 20.671473
70.720 20.936241
70.725 20.282927
70.730 19.533079
70.735 19.231747
70.740 19.768946
70.745 19.571035
70.750 18.75765
70.755 18.888544
70.760 19.348082
70.765 19.54949
70.770 19.387749
70.775 19.22105
70.780 19.52566
70.785 20.138535
70.790 19.58069
70.795 19.260954
70.800 19.218552
70.805 18.985922
70.810 18.641726
70.815 18.496973
70.820 18.520052
70.825 18.618605
70.830 18.631899
70.835 19.069063
70.840 19.436071
70.845 19.559551
70.850 19.411283
70.855 18.72127
70.860 18.686888
70.865 19.116463
70.870 19.059525
70.875 19.506197
70.880 19.391388
70.885 19.674137
70.890 20.107994
70.895 20.392332
70.900 20.281672
70.905 19.640284
70.910 19.507368
70.915 19.532858
70.920 19.297949
70.925 19.358147
70.930 19.503635
70.935 19.461416
70.940 19.695126
70.945 20.212107
70.950 20.159761
70.955 19.874516
70.960 19.217896
70.965 18.699509
70.970 18.771687
70.975 18.970766
70.980 18.795603
70.985 18.907255
70.990 18.986492
70.995 19.289307
71.000 19.254299
71.005 19.058144
71.010 18.968155
71.015 18.822409
71.020 19.224566
71.025 18.63991
71.030 18.742363
71.035 19.746542
71.040 19.624983
71.045 19.118868
71.050 19.000612
71.055 18.962364
71.060 18.896648
71.065 18.062677
71.070 17.160564
71.075 17.590595
71.080 18.026485
71.085 18.199856
71.090 18.794706
71.095 19.003214
71.100 19.50489
71.105 19.406433
71.110 19.010712
71.115 18.687258
71.120 18.169519
71.125 18.097355
71.130 17.747122
71.135 17.522354
71.140 18.438597
71.145 18.860952
71.150 19.242376
71.155 18.958426
71.160 19.143394
71.165 19.763115
71.170 19.526878
71.175 18.218859
71.180 17.456623
71.185 17.378422
71.190 17.889797
71.195 18.134722
71.200 18.462772
71.205 18.6378
71.210 19.261747
71.215 19.921864
71.220 19.716013
71.225 19.344431
71.230 18.370665
71.235 18.404455
71.240 17.971931
71.245 17.401447
71.250 17.315815
71.255 16.993586
71.260 16.715761
71.265 16.611115
71.270 16.691275
71.275 16.956173
71.280 17.562868
71.285 17.98534
71.290 18.059101
71.295 18.536444
71.300 19.012379
71.305 18.519053
71.310 18.385574
71.315 17.801754
71.320 17.788519
71.325 18.046112
71.330 17.84297
71.335 18.106493
71.340 18.443069
71.345 18.446568
71.350 18.109867
71.355 17.803877
71.360 18.004995
71.365 17.93445
71.370 17.694328
71.375 18.220675
71.380 18.672161
71.385 19.551083
71.390 19.698244
71.395 19.961832
71.400 19.997574
71.405 19.905132
71.410 19.985834
71.415 19.631233
71.420 19.24996
71.425 18.835567
71.430 18.341614
71.435 18.791513
71.440 18.633261
71.445 17.744366
71.450 18.00695
71.455 18.04221
71.460 17.913837
71.465 17.354425
71.470 17.830553
71.475 17.916771
71.480 18.620066
71.485 18.098991
71.490 18.347979
71.495 19.295332
71.500 19.254961
71.505 18.630945
71.510 18.810965
71.515 19.079575
71.520 19.148775
71.525 18.546753
71.530 17.810843
71.535 17.89222
71.540 18.403849
71.545 18.282703
71.550 18.23189
71.555 18.273159
71.560 18.380754
71.565 19.004576
71.570 18.927498
71.575 18.360912
71.580 18.057938
71.585 18.115479
71.590 18.271832
71.595 18.251198
71.600 17.9839
71.605 17.665476
71.610 17.88702
71.615 17.638947
71.620 17.071093
71.625 16.839582
71.630 17.251125
71.635 17.450474
71.640 17.554008
71.645 17.117498
71.650 17.511509
71.655 17.892076
71.660 17.663025
71.665 16.992775
71.670 17.197128
71.675 17.221071
71.680 17.438822
71.685 17.564442
71.690 17.47212
71.695 17.874783
71.700 17.969671
71.705 18.2946
71.710 18.86931
71.715 19.000525
71.720 19.342863
71.725 19.265274
71.730 19.625813
71.735 19.359835
71.740 19.533098
71.745 19.037304
71.750 18.783669
71.755 18.621138
71.760 18.452154
71.765 18.421207
71.770 18.047596
71.775 17.591791
71.780 17.235041
71.785 17.633568
71.790 17.738533
71.795 17.59416
71.800 17.421606
71.805 17.693285
71.810 17.931591
71.815 17.907747
71.820 17.749699
71.825 17.854877
71.830 17.976692
71.835 18.244574
71.840 18.144165
71.845 18.459242
71.850 18.221558
71.855 17.839325
71.860 17.866116
71.865 17.61581
71.870 17.282173
71.875 17.079622
71.880 17.061895
71.885 17.179932
71.890 16.846952
71.895 16.828558
71.900 16.920498
71.905 16.859369
71.910 17.214155
71.915 17.560732
71.920 18.830406
71.925 19.078499
71.930 19.12623
71.935 18.888136
71.940 19.09927
71.945 18.904936
71.950 18.859735
71.955 18.433214
71.960 18.483578
71.965 18.69261
71.970 18.642317
71.975 18.050037
71.980 17.249332
71.985 16.648844
71.990 15.772677
71.995 15.692197
72.000 15.425739
72.005 15.887301
72.010 15.844723
72.015 16.606777
72.020 16.841764
72.025 17.220417
72.030 17.487722
72.035 17.844238
72.040 18.471806
72.045 18.641947
72.050 17.837446
72.055 17.808243
72.060 18.07675
72.065 18.060476
72.070 17.431465
72.075 16.553558
72.080 16.985609
72.085 17.212427
72.090 17.401987
72.095 17.327648
72.100 17.463722
72.105 17.945873
72.110 17.744539
72.115 17.192644
72.120 17.839462
72.125 17.775463
72.130 17.776604
72.135 17.490818
72.140 18.224779
72.145 19.214104
72.150 19.353354
72.155 19.349121
72.160 19.49099
72.165 19.557322
72.170 20.062159
72.175 18.999992
72.180 18.177099
72.185 18.026093
72.190 17.490652
72.195 17.336702
72.200 16.686544
72.205 16.282284
72.210 17.388533
72.215 17.354923
72.220 18.150457
72.225 18.356432
72.230 18.071981
72.235 18.547871
72.240 18.301756
72.245 17.909651
72.250 17.934044
72.255 18.014463
72.260 17.882696
72.265 17.946756
72.270 18.012457
72.275 18.096214
72.280 18.338713
72.285 17.814459
72.290 17.080206
72.295 16.843649
72.300 16.632149
72.305 16.724331
72.310 17.027571
72.315 17.62887
72.320 17.686914
72.325 17.85639
72.330 18.224688
72.335 18.401514
72.340 17.628872
72.345 17.045746
72.350 17.522366
72.355 17.905621
72.360 17.84939
72.365 17.411835
72.370 18.023291
72.375 18.4832
72.380 18.254862
72.385 17.676987
72.390 17.772942
72.395 18.3696
72.400 18.348248
72.405 17.786848
72.410 17.602463
72.415 18.356461
72.420 18.80781
72.425 18.631733
72.430 18.20138
72.435 18.214619
72.440 18.394539
72.445 18.598083
72.450 17.492399
72.455 17.231256
72.460 17.471588
72.465 17.291565
72.470 17.190119
72.475 16.664381
72.480 16.330574
72.485 16.754906
72.490 16.669048
72.495 16.464443
72.500 16.786394
72.505 16.986759
72.510 17.652697
72.515 17.849579
72.520 17.571091
72.525 17.820971
72.530 18.538311
72.535 19.065195
72.540 19.000528
72.545 19.088987
72.550 19.522766
72.555 20.025408
72.560 19.541595
72.565 18.720417
72.570 17.748104
72.575 17.247803
72.580 17.453728
72.585 17.686234
72.590 18.004147
72.595 18.493259
72.600 19.257385
72.605 19.651541
72.610 19.788887
72.615 19.07445
72.620 18.740612
72.625 18.912237
72.630 18.158119
72.635 18.197491
72.640 18.083448
72.645 18.009529
72.650 18.056314
72.655 17.773363
72.660 17.366337
72.665 17.516045
72.670 17.272854
72.675 17.249817
72.680 16.893972
72.685 16.679834
72.690 16.2966
72.695 16.390867
72.700 16.072969
72.705 15.847095
72.710 15.776082
72.715 16.038544
72.720 15.936564
72.725 16.242813
72.730 16.214453
72.735 16.592695
72.740 17.214273
72.745 17.793943
72.750 17.497007
72.755 17.96562
72.760 17.641199
72.765 17.81148
72.770 17.897078
72.775 17.725924
72.780 17.661196
72.785 17.64398
72.790 17.836489
72.795 17.876841
72.800 17.89385
72.805 18.211723
72.810 18.349623
72.815 18.275669
72.820 18.069458
72.825 17.842665
72.830 17.410677
72.835 17.013937
72.840 16.936817
72.845 16.967175
72.850 17.293495
72.855 16.537138
72.860 16.089062
72.865 15.858459
72.870 16.106968
72.875 15.669047
72.880 15.546818
72.885 15.953649
72.890 16.612131
72.895 17.285286
72.900 17.378025
72.905 17.199677
72.910 17.28422
72.915 16.587664
72.920 16.680758
72.925 15.960753
72.930 15.842882
72.935 15.987654
72.940 15.515949
72.945 15.964939
72.950 16.005558
72.955 16.027803
72.960 16.918491
72.965 16.987881
72.970 16.751358
72.975 17.171591
72.980 17.420444
72.985 17.719044
72.990 17.896847
72.995 18.361633
73.000 18.626534
