!@!!GADDS PLOTSO FILE: Chi integration type
!@!!Title/SampleName: map-6f
!@!!Comment: ?
!@!!User: Bruker Instrument Administrator
!@!!Site: University of Illinois Chicago
!@!!Frame: map-6f_01_000.gfrm
!@!!Wavelengths    1.54184   1.54056   1.54439
!@!!Frame angles: 2Theta: 63.000 Omega: 50.000 Phi: 0.000 Chi: 90.000
!@!!Integration range: 2Theta: 53.000 to 73.000  Gamma: -105.000 to -75.000
!@!!Integration method: bin normalized
!@!N
!@!SS
!@!M
!@!L 0.0 0.0 0.0 0.0
!@!XDegrees
!@!YCounts
53.000 10.524456
53.005 10.694596
53.010 10.713803
53.015 10.832838
53.020 10.690395
53.025 11.158028
53.030 10.915702
53.035 10.616364
53.040 10.68526
53.045 10.777165
53.050 10.764589
53.055 10.080856
53.060 9.62411
53.065 9.65124
53.070 9.766432
53.075 9.635445
53.080 9.878008
53.085 9.569592
53.090 9.831831
53.095 10.015899
53.100 10.267101
53.105 10.362317
53.110 10.451966
53.115 10.803218
53.120 11.24047
53.125 11.021568
53.130 10.830454
53.135 10.814453
53.140 10.909531
53.145 10.639844
53.150 10.338758
53.155 10.3264
53.160 10.5616
53.165 10.652143
53.170 10.293391
53.175 9.896956
53.180 9.74628
53.185 9.614763
53.190 9.47047
53.195 9.49061
53.200 9.728321
53.205 10.483232
53.210 10.50681
53.215 10.748813
53.220 11.800197
53.225 12.183407
53.230 11.780818
53.235 11.207763
53.240 10.658858
53.245 10.660851
53.250 10.364448
53.255 9.760338
53.260 9.646865
53.265 9.814854
53.270 9.782071
53.275 10.187122
53.280 10.216079
53.285 9.81581
53.290 10.389525
53.295 10.478365
53.300 10.323748
53.305 10.089657
53.310 9.875767
53.315 9.706956
53.320 9.66631
53.325 9.242077
53.330 9.300138
53.335 9.765726
53.340 10.17582
53.345 10.502683
53.350 11.265041
53.355 11.377414
53.360 11.456636
53.365 12.10856
53.370 12.103732
53.375 11.940754
53.380 11.459727
53.385 10.723045
53.390 10.816891
53.395 10.776958
53.400 10.477883
53.405 10.526474
53.410 10.438663
53.415 10.795971
53.420 10.695382
53.425 10.378437
53.430 10.102536
53.435 9.954801
53.440 10.188573
53.445 10.22078
53.450 9.989784
53.455 10.160786
53.460 9.803171
53.465 9.854377
53.470 9.898662
53.475 9.782262
53.480 10.153725
53.485 10.562163
53.490 11.596088
53.495 12.579606
53.500 12.794877
53.505 12.899283
53.510 13.034224
53.515 13.153896
53.520 13.186939
53.525 12.42728
53.530 12.283978
53.535 11.757448
53.540 11.472977
53.545 11.388545
53.550 11.381109
53.555 11.516865
53.560 11.274
53.565 11.063391
53.570 11.445979
53.575 11.547333
53.580 11.342228
53.585 11.18512
53.590 10.947672
53.595 10.823097
53.600 10.562551
53.605 10.429064
53.610 10.6779
53.615 10.310843
53.620 9.929298
53.625 10.035175
53.630 10.541442
53.635 10.853933
53.640 10.900279
53.645 10.868955
53.650 11.372633
53.655 11.589612
53.660 11.547062
53.665 11.869197
53.670 12.311604
53.675 12.131622
53.680 11.903402
53.685 11.326617
53.690 11.413352
53.695 11.185041
53.700 10.838417
53.705 10.234815
53.710 10.634903
53.715 10.910611
53.720 11.252577
53.725 11.544327
53.730 11.354715
53.735 11.317755
53.740 11.422161
53.745 11.191391
53.750 11.166911
53.755 10.565454
53.760 10.116003
53.765 10.19922
53.770 10.089245
53.775 10.101536
53.780 10.068001
53.785 10.291628
53.790 10.559621
53.795 10.312552
53.800 10.364751
53.805 10.725949
53.810 10.556676
53.815 11.104741
53.820 10.931338
53.825 11.467015
53.830 11.807179
53.835 11.482159
53.840 11.436721
53.845 11.177332
53.850 10.741944
53.855 10.909055
53.860 11.109948
53.865 11.417717
53.870 11.586212
53.875 11.254428
53.880 11.37008
53.885 11.066194
53.890 10.401522
53.895 9.848691
53.900 9.487196
53.905 9.572118
53.910 9.917472
53.915 10.178032
53.920 10.796599
53.925 11.365374
53.930 11.808479
53.935 11.817095
53.940 11.909149
53.945 11.357496
53.950 10.954091
53.955 10.911517
53.960 10.929128
53.965 10.650248
53.970 10.738433
53.975 11.313389
53.980 11.681108
53.985 11.70001
53.990 11.947298
53.995 11.885827
54.000 11.943892
54.005 11.638059
54.010 11.36635
54.015 11.815513
54.020 11.964199
54.025 12.026609
54.030 12.13811
54.035 12.225246
54.040 12.269836
54.045 11.946034
54.050 11.40856
54.055 10.825664
54.060 10.430677
54.065 10.285498
54.070 10.212518
54.075 10.162077
54.080 10.682124
54.085 10.857198
54.090 11.07338
54.095 11.018043
54.100 10.717693
54.105 10.536046
54.110 10.80988
54.115 11.064311
54.120 11.200263
54.125 11.242846
54.130 11.514742
54.135 11.699384
54.140 11.953152
54.145 11.256453
54.150 10.741549
54.155 10.951033
54.160 10.688294
54.165 10.377899
54.170 10.822451
54.175 11.290538
54.180 11.847299
54.185 12.128381
54.190 12.212204
54.195 12.221107
54.200 12.681002
54.205 12.084922
54.210 11.801032
54.215 11.541799
54.220 11.055295
54.225 11.041285
54.230 11.38435
54.235 11.437077
54.240 11.699425
54.245 11.958375
54.250 11.759558
54.255 11.74739
54.260 11.857507
54.265 11.772016
54.270 11.391895
54.275 11.077121
54.280 11.095786
54.285 11.224115
54.290 11.302009
54.295 11.280319
54.300 10.700387
54.305 10.750039
54.310 10.544311
54.315 10.36077
54.320 10.876185
54.325 10.679589
54.330 10.389033
54.335 10.717691
54.340 10.865715
54.345 10.859773
54.350 10.705599
54.355 10.416412
54.360 10.8398
54.365 11.082603
54.370 10.947906
54.375 11.622786
54.380 11.825167
54.385 12.37264
54.390 12.502717
54.395 12.184838
54.400 12.152993
54.405 12.232243
54.410 11.755533
54.415 11.726339
54.420 11.709522
54.425 11.973114
54.430 11.581599
54.435 11.897022
54.440 11.844036
54.445 11.94937
54.450 11.61414
54.455 11.063333
54.460 10.859894
54.465 11.241823
54.470 11.032048
54.475 10.45181
54.480 10.647611
54.485 10.996799
54.490 11.618694
54.495 12.219842
54.500 12.286639
54.505 12.741753
54.510 13.373549
54.515 13.088042
54.520 12.840385
54.525 12.305561
54.530 12.243899
54.535 12.362674
54.540 11.876382
54.545 12.05851
54.550 12.611174
54.555 12.558884
54.560 12.474852
54.565 12.318584
54.570 12.323145
54.575 12.112261
54.580 11.698295
54.585 11.407977
54.590 11.763371
54.595 12.197034
54.600 12.58742
54.605 12.18656
54.610 12.293118
54.615 12.123663
54.620 12.179657
54.625 11.897971
54.630 11.419261
54.635 10.996354
54.640 10.900353
54.645 10.896885
54.650 11.012363
54.655 11.195884
54.660 11.582336
54.665 11.64032
54.670 11.741592
54.675 12.355982
54.680 12.081157
54.685 11.750401
54.690 11.432707
54.695 11.27953
54.700 11.287897
54.705 11.314344
54.710 10.922773
54.715 11.240051
54.720 11.181296
54.725 11.361398
54.730 11.27936
54.735 11.431549
54.740 11.570951
54.745 11.64091
54.750 11.827317
54.755 11.346717
54.760 10.979099
54.765 10.741383
54.770 10.913832
54.775 10.945319
54.780 11.579041
54.785 11.7015
54.790 11.820029
54.795 12.022129
54.800 12.221825
54.805 12.135607
54.810 12.265299
54.815 12.011809
54.820 12.077724
54.825 12.343858
54.830 12.305918
54.835 12.419686
54.840 12.492377
54.845 12.503146
54.850 12.735959
54.855 12.871592
54.860 12.992124
54.865 13.250883
54.870 13.082273
54.875 12.91633
54.880 12.10904
54.885 12.012811
54.890 11.882832
54.895 11.557203
54.900 11.155273
54.905 11.077194
54.910 11.382202
54.915 12.39616
54.920 11.986423
54.925 12.042216
54.930 12.153927
54.935 12.381125
54.940 12.277878
54.945 11.882867
54.950 11.796657
54.955 12.229966
54.960 12.338913
54.965 12.406889
54.970 12.098391
54.975 12.413295
54.980 12.729781
54.985 12.936883
54.990 12.960048
54.995 12.778243
55.000 13.003119
55.005 13.03997
55.010 12.95695
55.015 12.67287
55.020 12.518524
55.025 12.574173
55.030 12.955269
55.035 12.656213
55.040 12.531021
55.045 12.695582
55.050 13.048226
55.055 13.032521
55.060 12.792241
55.065 12.280434
55.070 12.649865
55.075 13.121893
55.080 12.945718
55.085 12.026378
55.090 11.5519
55.095 11.516818
55.100 11.600137
55.105 11.367497
55.110 10.879365
55.115 11.056661
55.120 11.60888
55.125 11.791684
55.130 12.106969
55.135 12.46447
55.140 12.593477
55.145 12.441231
55.150 12.197433
55.155 11.957362
55.160 12.194515
55.165 11.699022
55.170 11.803067
55.175 11.955092
55.180 12.3113
55.185 12.41808
55.190 12.46172
55.195 12.408626
55.200 12.622169
55.205 12.265406
55.210 12.177818
55.215 12.576365
55.220 12.405891
55.225 11.689945
55.230 11.285755
55.235 11.212767
55.240 11.396247
55.245 11.723082
55.250 11.28751
55.255 11.504167
55.260 12.232653
55.265 12.645779
55.270 12.746796
55.275 12.294703
55.280 12.29003
55.285 12.567753
55.290 12.321928
55.295 12.252264
55.300 11.94942
55.305 12.624265
55.310 13.260438
55.315 12.863043
55.320 13.163294
55.325 13.346136
55.330 13.286602
55.335 13.281946
55.340 12.812629
55.345 12.262424
55.350 12.023286
55.355 11.318391
55.360 11.583385
55.365 11.669774
55.370 11.436919
55.375 11.504617
55.380 11.615133
55.385 12.050674
55.390 12.520394
55.395 12.535698
55.400 12.540329
55.405 12.374815
55.410 12.590018
55.415 12.784585
55.420 12.78485
55.425 12.94074
55.430 13.378377
55.435 13.760665
55.440 13.62007
55.445 13.176516
55.450 13.139223
55.455 13.132908
55.460 12.926894
55.465 12.675738
55.470 12.56842
55.475 13.156012
55.480 13.287167
55.485 12.749525
55.490 12.786729
55.495 12.912491
55.500 12.407784
55.505 12.275562
55.510 12.389495
55.515 12.476713
55.520 12.672083
55.525 12.620875
55.530 11.544362
55.535 12.040433
55.540 11.525646
55.545 10.994595
55.550 11.169993
55.555 11.57048
55.560 11.848028
55.565 12.432219
55.570 12.284034
55.575 12.76925
55.580 13.232427
55.585 13.166022
55.590 12.556764
55.595 12.174918
55.600 11.542476
55.605 11.895036
55.610 11.665006
55.615 11.147427
55.620 10.864811
55.625 11.079283
55.630 11.692127
55.635 12.141561
55.640 12.053833
55.645 12.225314
55.650 12.316581
55.655 12.280107
55.660 11.813137
55.665 11.941473
55.670 11.659011
55.675 11.505572
55.680 11.272993
55.685 11.090216
55.690 10.853085
55.695 11.025268
55.700 11.203723
55.705 11.39925
55.710 11.593508
55.715 11.744748
55.720 11.97313
55.725 12.667884
55.730 12.662923
55.735 12.227143
55.740 12.160141
55.745 12.035902
55.750 11.87671
55.755 12.1935
55.760 11.876929
55.765 12.531041
55.770 12.806211
55.775 13.256413
55.780 13.598276
55.785 13.900104
55.790 13.608863
55.795 13.282362
55.800 12.448888
55.805 12.402528
55.810 12.151887
55.815 11.830719
55.820 12.077357
55.825 12.221838
55.830 12.496043
55.835 13.579414
55.840 13.76587
55.845 13.439887
55.850 13.416318
55.855 13.142241
55.860 13.267296
55.865 13.340538
55.870 11.889595
55.875 11.968052
55.880 12.336295
55.885 12.246928
55.890 12.360916
55.895 12.327519
55.900 12.474331
55.905 12.788666
55.910 12.283197
55.915 12.046888
55.920 12.330979
55.925 11.945113
55.930 11.747396
55.935 12.41263
55.940 12.994514
55.945 13.735952
55.950 14.028637
55.955 14.234499
55.960 14.487654
55.965 14.582463
55.970 13.940609
55.975 13.952771
55.980 13.753019
55.985 13.601213
55.990 13.152276
55.995 13.316545
56.000 12.738217
56.005 12.525573
56.010 12.402841
56.015 12.385187
56.020 12.431363
56.025 12.540329
56.030 12.368938
56.035 12.792093
56.040 12.823764
56.045 12.746168
56.050 12.579627
56.055 12.544234
56.060 12.224233
56.065 12.569304
56.070 12.580455
56.075 12.65954
56.080 12.929182
56.085 13.31707
56.090 13.294801
56.095 13.587308
56.100 13.151214
56.105 13.104033
56.110 12.685603
56.115 12.113738
56.120 12.071038
56.125 12.063888
56.130 12.083992
56.135 12.271268
56.140 12.286294
56.145 12.77559
56.150 13.735347
56.155 13.947486
56.160 13.970217
56.165 13.920422
56.170 13.80223
56.175 13.81135
56.180 13.843214
56.185 13.195425
56.190 13.233345
56.195 13.276076
56.200 13.416257
56.205 13.645003
56.210 13.335191
56.215 13.315631
56.220 13.112632
56.225 13.230848
56.230 13.647669
56.235 13.761503
56.240 13.505225
56.245 13.749841
56.250 13.617668
56.255 13.18102
56.260 12.705832
56.265 12.412952
56.270 12.448359
56.275 12.267689
56.280 12.501341
56.285 13.141768
56.290 13.463703
56.295 13.8453
56.300 14.075824
56.305 14.462381
56.310 14.492367
56.315 14.022643
56.320 14.164689
56.325 14.364355
56.330 14.297526
56.335 13.403525
56.340 13.204644
56.345 13.712408
56.350 13.928554
56.355 13.625872
56.360 13.579762
56.365 13.71616
56.370 13.939503
56.375 13.352781
56.380 12.819282
56.385 12.516747
56.390 12.206584
56.395 12.101458
56.400 12.3256
56.405 12.925789
56.410 13.348048
56.415 13.531647
56.420 13.58548
56.425 13.506266
56.430 13.22471
56.435 12.662553
56.440 12.227069
56.445 11.910021
56.450 12.087214
56.455 12.177316
56.460 12.629487
56.465 12.56871
56.470 13.05594
56.475 13.701836
56.480 14.485919
56.485 14.340252
56.490 14.37848
56.495 13.641383
56.500 13.763182
56.505 13.063491
56.510 12.410382
56.515 11.513412
56.520 11.602759
56.525 11.614533
56.530 11.752107
56.535 11.598593
56.540 11.68469
56.545 11.887915
56.550 12.578403
56.555 12.81824
56.560 12.703625
56.565 12.834424
56.570 12.926749
56.575 13.358517
56.580 13.248418
56.585 13.303096
56.590 13.325067
56.595 13.394941
56.600 13.728861
56.605 13.983396
56.610 13.855724
56.615 13.838674
56.620 13.302698
56.625 13.240661
56.630 13.027083
56.635 12.656325
56.640 12.089498
56.645 12.141728
56.650 12.342162
56.655 12.452458
56.660 12.686579
56.665 13.484321
56.670 13.970882
56.675 14.607232
56.680 14.330546
56.685 14.479941
56.690 14.797195
56.695 15.012282
56.700 14.948982
56.705 15.230963
56.710 15.669408
56.715 16.196276
56.720 16.561956
56.725 16.614031
56.730 16.322367
56.735 16.138494
56.740 15.988776
56.745 15.565322
56.750 15.296862
56.755 15.156466
56.760 15.225345
56.765 15.222419
56.770 15.425802
56.775 15.504299
56.780 15.333768
56.785 15.382031
56.790 15.234498
56.795 14.900111
56.800 14.779506
56.805 14.626388
56.810 14.23243
56.815 14.221307
56.820 13.865313
56.825 13.762667
56.830 14.051499
56.835 14.560909
56.840 15.259991
56.845 15.169372
56.850 14.79512
56.855 14.923648
56.860 14.411242
56.865 13.913976
56.870 13.740681
56.875 13.594398
56.880 14.052557
56.885 14.112991
56.890 14.049098
56.895 14.558983
56.900 14.5784
56.905 13.951608
56.910 13.111383
56.915 12.862088
56.920 12.867469
56.925 12.804001
56.930 12.987924
56.935 13.099647
56.940 13.534225
56.945 13.897195
56.950 14.246899
56.955 14.872741
56.960 14.701251
56.965 14.465005
56.970 14.377936
56.975 14.224533
56.980 13.924943
56.985 13.692081
56.990 13.793592
56.995 13.774662
57.000 13.907754
57.005 13.775211
57.010 13.751721
57.015 13.82717
57.020 13.852584
57.025 13.934084
57.030 13.712419
57.035 14.103527
57.040 13.852959
57.045 13.649298
57.050 14.063121
57.055 14.098974
57.060 13.951548
57.065 14.010366
57.070 13.2792
57.075 13.80073
57.080 14.0498
57.085 13.590923
57.090 13.716285
57.095 13.618979
57.100 13.847733
57.105 13.930885
57.110 14.007229
57.115 14.163327
57.120 14.476412
57.125 14.14775
57.130 14.013022
57.135 13.980341
57.140 14.367103
57.145 14.7484
57.150 13.95018
57.155 13.848996
57.160 13.778777
57.165 14.142095
57.170 13.995729
57.175 13.643594
57.180 13.425442
57.185 13.526399
57.190 13.219572
57.195 13.33007
57.200 13.912056
57.205 13.968957
57.210 13.805228
57.215 13.496887
57.220 14.057292
57.225 14.31461
57.230 14.183185
57.235 13.649509
57.240 13.311211
57.245 13.818855
57.250 14.246596
57.255 14.121146
57.260 14.2689
57.265 14.436873
57.270 14.798698
57.275 15.253191
57.280 15.299684
57.285 15.411038
57.290 15.201064
57.295 15.233157
57.300 15.095415
57.305 14.940706
57.310 14.516912
57.315 14.652989
57.320 15.182619
57.325 15.822871
57.330 15.452933
57.335 15.435455
57.340 15.662455
57.345 16.214497
57.350 16.28561
57.355 15.639878
57.360 15.11728
57.365 15.645063
57.370 15.874544
57.375 15.552477
57.380 15.243417
57.385 14.803628
57.390 15.117895
57.395 15.509274
57.400 15.541826
57.405 15.4544
57.410 15.409292
57.415 15.537896
57.420 15.545319
57.425 15.093148
57.430 14.738815
57.435 14.330334
57.440 13.829346
57.445 13.590176
57.450 13.451347
57.455 13.461392
57.460 14.388891
57.465 14.76535
57.470 14.943027
57.475 15.460077
57.480 15.940947
57.485 15.852521
57.490 15.723955
57.495 14.974671
57.500 14.901971
57.505 15.057151
57.510 15.125471
57.515 15.530758
57.520 15.48837
57.525 14.772677
57.530 14.923617
57.535 14.468806
57.540 14.381021
57.545 14.178542
57.550 13.752146
57.555 13.921231
57.560 14.603978
57.565 14.550041
57.570 14.901709
57.575 14.795447
57.580 14.428555
57.585 14.358626
57.590 14.829926
57.595 14.990952
57.600 15.863379
57.605 16.240803
57.610 16.834797
57.615 17.047552
57.620 16.965689
57.625 16.599302
57.630 16.054182
57.635 15.421643
57.640 14.649194
57.645 13.93832
57.650 13.618671
57.655 14.285344
57.660 14.556583
57.665 14.614179
57.670 14.161209
57.675 14.59001
57.680 15.189575
57.685 15.378145
57.690 15.379238
57.695 15.774007
57.700 15.82214
57.705 16.297297
57.710 15.911153
57.715 15.844493
57.720 15.714917
57.725 15.151102
57.730 15.430284
57.735 15.142213
57.740 15.285583
57.745 16.082827
57.750 16.45624
57.755 16.229385
57.760 16.263973
57.765 16.165064
57.770 16.32571
57.775 15.910541
57.780 15.655917
57.785 15.291904
57.790 15.566923
57.795 15.309016
57.800 14.615889
57.805 14.543348
57.810 14.757371
57.815 14.463676
57.820 14.988295
57.825 15.096716
57.830 14.884164
57.835 15.25695
57.840 15.800261
57.845 16.204788
57.850 16.431076
57.855 16.204323
57.860 16.568821
57.865 17.13792
57.870 17.348919
57.875 17.293612
57.880 16.716988
57.885 16.739847
57.890 16.636724
57.895 16.167698
57.900 15.39306
57.905 14.655605
57.910 14.517838
57.915 14.627001
57.920 14.740635
57.925 14.642539
57.930 15.225303
57.935 15.847616
57.940 15.892402
57.945 15.79226
57.950 16.092731
57.955 15.983938
57.960 16.087835
57.965 15.782598
57.970 16.082684
57.975 16.167765
57.980 16.291386
57.985 16.17065
57.990 15.957768
57.995 15.435669
58.000 15.627813
58.005 15.964697
58.010 15.962391
58.015 15.67804
58.020 15.659373
58.025 16.053455
58.030 16.714968
58.035 16.933842
58.040 16.521799
58.045 16.598131
58.050 16.836706
58.055 17.049938
58.060 16.956293
58.065 16.761723
58.070 16.67214
58.075 16.774971
58.080 16.667122
58.085 16.19627
58.090 15.742565
58.095 15.674283
58.100 15.511797
58.105 15.359762
58.110 15.604227
58.115 16.23185
58.120 16.89467
58.125 17.032179
58.130 17.592892
58.135 18.036472
58.140 17.909885
58.145 17.364513
58.150 16.979042
58.155 16.978735
58.160 17.079609
58.165 16.778965
58.170 16.301191
58.175 16.280453
58.180 16.678495
58.185 17.105545
58.190 16.960346
58.195 17.028299
58.200 16.972126
58.205 17.030275
58.210 17.073446
58.215 17.372591
58.220 17.336964
58.225 17.369814
58.230 17.474817
58.235 18.082829
58.240 18.457644
58.245 18.630703
58.250 18.570507
58.255 18.270618
58.260 18.093809
58.265 17.964218
58.270 18.069902
58.275 18.460207
58.280 18.452311
58.285 18.62661
58.290 19.076002
58.295 19.157425
58.300 19.16424
58.305 18.936581
58.310 18.899792
58.315 18.892212
58.320 18.361275
58.325 18.592108
58.330 19.255253
58.335 19.500326
58.340 19.627205
58.345 20.203787
58.350 20.500246
58.355 21.174841
58.360 21.653917
58.365 21.8424
58.370 21.914791
58.375 22.331482
58.380 22.426464
58.385 22.112631
58.390 21.747259
58.395 21.272873
58.400 21.262383
58.405 21.763395
58.410 22.076696
58.415 22.38883
58.420 23.395859
58.425 24.671038
58.430 25.17655
58.435 24.882191
58.440 24.479895
58.445 24.400761
58.450 24.479536
58.455 24.940151
58.460 24.712746
58.465 25.169706
58.470 26.051626
58.475 26.21718
58.480 26.912756
58.485 27.770933
58.490 28.28297
58.495 28.583242
58.500 28.756834
58.505 29.529003
58.510 30.101334
58.515 30.524788
58.520 30.583099
58.525 31.455992
58.530 32.609127
58.535 33.122963
58.540 33.445583
58.545 33.718246
58.550 33.462357
58.555 33.569202
58.560 33.72813
58.565 33.776146
58.570 33.553513
58.575 33.69099
58.580 34.167389
58.585 34.454769
58.590 34.912594
58.595 35.624256
58.600 35.929447
58.605 37.408535
58.610 38.13755
58.615 38.291252
58.620 39.024448
58.625 39.757343
58.630 39.818279
58.635 39.880547
58.640 39.57935
58.645 39.438667
58.650 39.261593
58.655 38.733105
58.660 38.271488
58.665 37.900314
58.670 38.23999
58.675 37.688129
58.680 37.537598
58.685 38.142025
58.690 37.656002
58.695 37.403336
58.700 36.915745
58.705 36.564163
58.710 36.635056
58.715 36.423733
58.720 35.794464
58.725 35.941441
58.730 36.496815
58.735 36.364799
58.740 35.735344
58.745 35.735397
58.750 35.650589
58.755 34.930111
58.760 34.982445
58.765 33.445698
58.770 33.517052
58.775 33.802544
58.780 33.550686
58.785 32.99448
58.790 32.789631
58.795 32.778473
58.800 32.92535
58.805 32.19109
58.810 31.252939
58.815 30.50913
58.820 29.852148
58.825 29.376038
58.830 28.542473
58.835 28.779308
58.840 28.918818
58.845 28.724342
58.850 28.513668
58.855 28.282648
58.860 28.630178
58.865 28.209663
58.870 26.192833
58.875 25.651289
58.880 25.481571
58.885 25.79031
58.890 26.306011
58.895 26.179251
58.900 26.050459
58.905 26.410042
58.910 26.019611
58.915 25.443264
58.920 23.758272
58.925 22.858955
58.930 22.49614
58.935 22.552929
58.940 22.170713
58.945 21.747375
58.950 21.778053
58.955 22.067539
58.960 21.853251
58.965 21.886736
58.970 21.600208
58.975 21.195528
58.980 20.927164
58.985 20.556076
58.990 20.733839
58.995 20.820608
59.000 20.468529
59.005 20.751722
59.010 20.667789
59.015 20.328798
59.020 20.020382
59.025 19.585009
59.030 19.283941
59.035 18.844107
59.040 18.636591
59.045 18.768463
59.050 18.638546
59.055 18.818155
59.060 19.137569
59.065 19.063581
59.070 18.957306
59.075 18.390787
59.080 18.119364
59.085 18.369961
59.090 18.168625
59.095 17.564922
59.100 17.514429
59.105 17.799906
59.110 17.713608
59.115 17.620354
59.120 17.009472
59.125 17.218018
59.130 17.777472
59.135 18.233727
59.140 18.063902
59.145 18.535532
59.150 18.598343
59.155 18.717407
59.160 18.388762
59.165 18.219675
59.170 18.121588
59.175 18.982697
59.180 19.336836
59.185 19.446749
59.190 19.574417
59.195 19.600092
59.200 18.914787
59.205 18.651876
59.210 18.148359
59.215 17.264357
59.220 17.317669
59.225 17.211979
59.230 17.095814
59.235 16.754812
59.240 16.303299
59.245 15.550512
59.250 15.056733
59.255 14.622314
59.260 14.740397
59.265 14.957332
59.270 14.997639
59.275 15.195026
59.280 15.324878
59.285 14.991687
59.290 15.157849
59.295 14.792405
59.300 14.696244
59.305 14.837129
59.310 14.53471
59.315 14.704185
59.320 15.000176
59.325 15.299913
59.330 15.540375
59.335 15.476501
59.340 15.72632
59.345 15.693403
59.350 16.016994
59.355 16.219362
59.360 15.866731
59.365 16.042767
59.370 16.21526
59.375 15.991717
59.380 16.31551
59.385 16.549229
59.390 16.879314
59.395 16.784605
59.400 16.681696
59.405 16.558222
59.410 16.471642
59.415 16.567188
59.420 16.111605
59.425 15.773029
59.430 15.794824
59.435 15.623559
59.440 16.497633
59.445 16.71875
59.450 16.352486
59.455 16.421589
59.460 17.000582
59.465 17.511982
59.470 17.898712
59.475 16.906525
59.480 17.540134
59.485 17.908016
59.490 17.60396
59.495 16.95853
59.500 16.734606
59.505 16.590712
59.510 16.448999
59.515 15.691187
59.520 15.934843
59.525 16.277132
59.530 16.416445
59.535 16.14183
59.540 16.018324
59.545 16.489946
59.550 16.329229
59.555 15.580252
59.560 15.162562
59.565 15.112874
59.570 15.295811
59.575 15.548527
59.580 14.857626
59.585 14.39353
59.590 14.876197
59.595 15.188368
59.600 15.206172
59.605 14.946115
59.610 14.698837
59.615 14.729815
59.620 14.730655
59.625 14.262115
59.630 14.444469
59.635 14.368647
59.640 14.402712
59.645 14.596382
59.650 15.034712
59.655 15.894709
59.660 16.40259
59.665 15.41215
59.670 15.116598
59.675 15.208426
59.680 15.282094
59.685 15.496099
59.690 15.329917
59.695 15.393437
59.700 16.935568
59.705 17.377764
59.710 17.87182
59.715 17.817894
59.720 17.389616
59.725 17.156668
59.730 16.900511
59.735 16.590971
59.740 16.639782
59.745 16.67066
59.750 16.826313
59.755 16.825241
59.760 16.683353
59.765 16.705576
59.770 16.557283
59.775 16.657187
59.780 16.726582
59.785 16.890966
59.790 17.189562
59.795 17.612604
59.800 17.486176
59.805 17.615107
59.810 17.025393
59.815 16.944998
59.820 16.719364
59.825 16.793629
59.830 17.325151
59.835 18.135
59.840 18.138866
59.845 18.526964
59.850 18.351757
59.855 18.575161
59.860 18.394665
59.865 17.342789
59.870 16.598175
59.875 16.148802
59.880 16.181446
59.885 16.01992
59.890 15.676418
59.895 15.314585
59.900 16.163403
59.905 16.840641
59.910 16.352684
59.915 15.744828
59.920 15.593896
59.925 15.679543
59.930 15.300912
59.935 14.296337
59.940 13.863979
59.945 14.505542
59.950 14.794854
59.955 14.870894
59.960 14.959282
59.965 15.622463
59.970 15.381725
59.975 15.372064
59.980 15.37569
59.985 15.557812
59.990 15.797465
59.995 15.60785
60.000 15.433642
60.005 15.796184
60.010 15.980911
60.015 16.162724
60.020 15.7286
60.025 15.447296
60.030 16.020578
60.035 16.089294
60.040 16.146105
60.045 16.050432
60.050 16.46406
60.055 17.287729
60.060 17.659733
60.065 17.367411
60.070 17.700306
60.075 18.100952
60.080 18.527554
60.085 18.749346
60.090 18.393103
60.095 18.561541
60.100 18.82592
60.105 18.834698
60.110 18.386522
60.115 18.160175
60.120 17.959223
60.125 17.922394
60.130 17.41581
60.135 17.169355
60.140 17.015324
60.145 17.122013
60.150 16.3629
60.155 15.676835
60.160 15.598498
60.165 15.554135
60.170 15.630809
60.175 15.488477
60.180 15.396935
60.185 15.741181
60.190 15.739551
60.195 15.233232
60.200 15.49379
60.205 15.108846
60.210 14.810968
60.215 15.084157
60.220 15.641767
60.225 16.397957
60.230 16.874161
60.235 16.657646
60.240 16.45668
60.245 16.410204
60.250 16.242985
60.255 15.758822
60.260 15.081717
60.265 14.977509
60.270 15.180917
60.275 15.742445
60.280 16.310974
60.285 15.984929
60.290 15.350263
60.295 15.60513
60.300 15.530195
60.305 15.87794
60.310 15.777371
60.315 15.538123
60.320 15.37932
60.325 15.389084
60.330 15.202461
60.335 15.557749
60.340 15.037882
60.345 14.962114
60.350 15.152244
60.355 15.248219
60.360 15.639562
60.365 15.747058
60.370 15.823147
60.375 16.002581
60.380 15.90027
60.385 15.582491
60.390 15.564571
60.395 16.31246
60.400 16.144464
60.405 16.077969
60.410 16.303331
60.415 16.506065
60.420 16.628796
60.425 16.586325
60.430 16.08717
60.435 15.857482
60.440 15.461136
60.445 15.251204
60.450 15.099766
60.455 15.131787
60.460 15.416412
60.465 15.498831
60.470 15.965108
60.475 16.468363
60.480 16.476328
60.485 16.789211
60.490 16.390224
60.495 16.337894
60.500 16.058123
60.505 15.968425
60.510 16.017061
60.515 16.23365
60.520 16.279894
60.525 17.032488
60.530 16.883751
60.535 16.51948
60.540 16.727888
60.545 16.601177
60.550 16.18082
60.555 16.073423
60.560 16.076916
60.565 16.172058
60.570 16.680704
60.575 16.347391
60.580 16.042086
60.585 16.358147
60.590 16.96121
60.595 17.089266
60.600 17.326708
60.605 17.235859
60.610 17.245562
60.615 17.583179
60.620 17.220167
60.625 16.747381
60.630 16.029522
60.635 15.738406
60.640 16.146059
60.645 16.083019
60.650 15.545314
60.655 15.467139
60.660 15.359082
60.665 15.571508
60.670 15.874745
60.675 15.837492
60.680 16.102461
60.685 16.315222
60.690 16.234484
60.695 15.932436
60.700 15.841731
60.705 15.618136
60.710 15.178096
60.715 14.906043
60.720 14.792501
60.725 14.537087
60.730 14.670758
60.735 15.019841
60.740 15.164322
60.745 15.137592
60.750 15.336212
60.755 16.084253
60.760 16.736156
60.765 16.759024
60.770 16.390326
60.775 16.050156
60.780 16.344006
60.785 15.646294
60.790 15.130091
60.795 15.783478
60.800 15.983435
60.805 16.178131
60.810 16.087389
60.815 16.006529
60.820 17.382589
60.825 17.273026
60.830 16.710897
60.835 17.105326
60.840 16.996246
60.845 17.348965
60.850 17.575823
60.855 16.526163
60.860 16.54265
60.865 16.707436
60.870 16.316717
60.875 16.328915
60.880 16.002075
60.885 16.151842
60.890 16.417387
60.895 16.495937
60.900 16.0966
60.905 16.401333
60.910 17.02722
60.915 17.533335
60.920 17.372871
60.925 17.27833
60.930 17.327068
60.935 17.123764
60.940 16.970514
60.945 16.194338
60.950 15.74076
60.955 16.190248
60.960 16.500122
60.965 16.105749
60.970 16.032185
60.975 15.341931
60.980 15.623944
60.985 15.824216
60.990 15.354754
60.995 15.405019
61.000 15.708825
61.005 16.0793
61.010 16.745302
61.015 16.478884
61.020 16.644156
61.025 16.448338
61.030 16.095726
61.035 16.081114
61.040 16.37513
61.045 16.220734
61.050 16.263323
61.055 15.804794
61.060 15.906014
61.065 16.086369
61.070 16.061897
61.075 15.860609
61.080 16.298105
61.085 16.061001
61.090 15.871193
61.095 15.591899
61.100 15.416416
61.105 15.605658
61.110 15.242163
61.115 15.030002
61.120 15.797226
61.125 15.802164
61.130 15.740047
61.135 15.24519
61.140 15.034223
61.145 15.285123
61.150 15.085424
61.155 14.828711
61.160 14.717718
61.165 14.718438
61.170 15.112321
61.175 15.376193
61.180 15.529933
61.185 15.672079
61.190 15.612003
61.195 16.331717
61.200 17.606388
61.205 17.610455
61.210 17.070522
61.215 17.160311
61.220 17.366751
61.225 17.488132
61.230 17.305264
61.235 16.288633
61.240 16.314007
61.245 16.556753
61.250 16.268063
61.255 16.780485
61.260 16.841066
61.265 17.27474
61.270 17.955576
61.275 17.587465
61.280 17.117609
61.285 16.755566
61.290 16.044832
61.295 16.353106
61.300 15.899269
61.305 15.955737
61.310 16.528011
61.315 16.81151
61.320 16.702036
61.325 16.757761
61.330 16.526773
61.335 16.283215
61.340 16.000034
61.345 16.249508
61.350 16.396294
61.355 16.623899
61.360 16.518986
61.365 16.088514
61.370 16.175989
61.375 16.10673
61.380 16.270634
61.385 16.12764
61.390 16.415417
61.395 16.856379
61.400 17.647928
61.405 17.7481
61.410 17.593958
61.415 17.007721
61.420 16.804508
61.425 16.27775
61.430 15.975995
61.435 15.644599
61.440 15.665438
61.445 15.613182
61.450 15.738543
61.455 15.738232
61.460 15.785541
61.465 15.89631
61.470 16.133831
61.475 16.427298
61.480 16.273094
61.485 16.052984
61.490 16.187902
61.495 16.057755
61.500 16.115974
61.505 15.995687
61.510 16.451447
61.515 17.516769
61.520 17.833487
61.525 18.476768
61.530 18.93401
61.535 19.04101
61.540 18.812372
61.545 18.172619
61.550 17.460466
61.555 17.59478
61.560 17.205753
61.565 17.095779
61.570 17.00362
61.575 17.11599
61.580 16.951921
61.585 17.032291
61.590 16.886284
61.595 17.33824
61.600 17.438288
61.605 17.448284
61.610 17.92522
61.615 18.039677
61.620 17.859074
61.625 17.586611
61.630 16.983944
61.635 16.644985
61.640 16.351955
61.645 16.203079
61.650 15.835838
61.655 15.604592
61.660 15.81001
61.665 16.279726
61.670 16.51918
61.675 16.083782
61.680 15.530789
61.685 15.580656
61.690 15.851522
61.695 15.689038
61.700 14.883154
61.705 14.817767
61.710 15.53827
61.715 16.315254
61.720 17.012442
61.725 16.871986
61.730 16.740191
61.735 17.526327
61.740 17.577066
61.745 17.239573
61.750 17.02047
61.755 16.714264
61.760 16.640995
61.765 17.038223
61.770 16.990126
61.775 16.723112
61.780 16.729998
61.785 16.571287
61.790 16.741198
61.795 17.398617
61.800 17.364088
61.805 16.818398
61.810 17.363678
61.815 17.220303
61.820 17.106888
61.825 17.150154
61.830 16.741123
61.835 16.575214
61.840 16.634455
61.845 16.043488
61.850 15.721053
61.855 16.281494
61.860 16.797653
61.865 17.447451
61.870 18.118578
61.875 18.614401
61.880 18.84716
61.885 19.444485
61.890 18.854839
61.895 18.419991
61.900 17.900557
61.905 17.35512
61.910 16.769564
61.915 16.629198
61.920 16.448399
61.925 16.355486
61.930 15.930917
61.935 15.91875
61.940 16.262074
61.945 16.705173
61.950 16.753775
61.955 16.742558
61.960 16.354382
61.965 16.516148
61.970 16.845215
61.975 16.77758
61.980 16.721361
61.985 16.633734
61.990 16.720015
61.995 17.230917
62.000 17.432121
62.005 17.009531
62.010 16.837502
62.015 17.099026
62.020 16.739908
62.025 16.178791
62.030 15.85945
62.035 15.847469
62.040 16.383999
62.045 16.596952
62.050 16.597664
62.055 17.206867
62.060 17.574089
62.065 17.581137
62.070 17.694979
62.075 17.204762
62.080 16.889454
62.085 17.088715
62.090 16.679983
62.095 16.789621
62.100 16.19903
62.105 15.276864
62.110 15.504154
62.115 15.980102
62.120 15.939679
62.125 16.258566
62.130 16.458004
62.135 17.488773
62.140 17.389118
62.145 17.151726
62.150 16.683779
62.155 16.499104
62.160 16.489429
62.165 16.772947
62.170 16.890759
62.175 17.6339
62.180 17.540659
62.185 17.773632
62.190 17.888216
62.195 17.77294
62.200 16.98687
62.205 16.148853
62.210 15.974386
62.215 15.786061
62.220 15.148293
62.225 15.349817
62.230 14.996475
62.235 15.557764
62.240 15.639066
62.245 16.111837
62.250 16.778257
62.255 17.057398
62.260 17.160454
62.265 17.868092
62.270 18.155216
62.275 18.401041
62.280 18.103327
62.285 18.126226
62.290 17.993462
62.295 17.578638
62.300 17.519003
62.305 17.241446
62.310 17.547482
62.315 17.316324
62.320 16.837013
62.325 17.042511
62.330 17.258904
62.335 17.018885
62.340 16.884813
62.345 16.659231
62.350 16.879959
62.355 17.187571
62.360 17.004982
62.365 16.524967
62.370 16.6047
62.375 16.578939
62.380 16.048756
62.385 15.945024
62.390 15.860734
62.395 15.833879
62.400 16.175207
62.405 16.101974
62.410 16.992582
62.415 17.751234
62.420 17.662451
62.425 17.917582
62.430 18.292124
62.435 18.580412
62.440 18.500572
62.445 18.215473
62.450 18.228186
62.455 18.534443
62.460 18.688713
62.465 19.207062
62.470 19.26362
62.475 19.728371
62.480 19.557665
62.485 19.873419
62.490 20.247242
62.495 20.176916
62.500 19.761494
62.505 19.230597
62.510 18.870274
62.515 18.568027
62.520 17.933504
62.525 16.83843
62.530 16.01919
62.535 15.837388
62.540 15.91392
62.545 15.672251
62.550 14.822009
62.555 14.843431
62.560 14.908601
62.565 14.819584
62.570 14.737683
62.575 14.550861
62.580 15.283216
62.585 16.08428
62.590 16.607048
62.595 16.789806
62.600 17.111408
62.605 16.954576
62.610 17.120092
62.615 16.937195
62.620 16.901537
62.625 16.424931
62.630 16.885681
62.635 17.404583
62.640 17.941492
62.645 17.887381
62.650 17.655012
62.655 18.098177
62.660 18.897068
62.665 18.956903
62.670 18.677395
62.675 18.660751
62.680 18.653826
62.685 18.819761
62.690 18.419102
62.695 17.955351
62.700 17.834555
62.705 17.36224
62.710 17.457226
62.715 17.288153
62.720 17.218792
62.725 17.308966
62.730 17.165905
62.735 17.177216
62.740 17.530293
62.745 17.176113
62.750 17.339314
62.755 17.588692
62.760 17.588346
62.765 17.510765
62.770 17.089283
62.775 17.219816
62.780 17.789236
62.785 18.468824
62.790 18.43021
62.795 18.607023
62.800 18.486998
62.805 18.733343
62.810 18.776794
62.815 18.187641
62.820 17.522972
62.825 17.431099
62.830 17.25696
62.835 17.582987
62.840 17.682524
62.845 17.657314
62.850 17.702026
62.855 17.558857
62.860 17.081596
62.865 17.027477
62.870 16.383694
62.875 15.973343
62.880 15.606688
62.885 16.228167
62.890 16.176386
62.895 16.115108
62.900 16.212212
62.905 16.56925
62.910 17.128077
62.915 17.180279
62.920 17.116402
62.925 17.524149
62.930 17.583763
62.935 17.74053
62.940 17.923817
62.945 17.831242
62.950 17.995743
62.955 17.740204
62.960 17.81979
62.965 17.608452
62.970 17.335375
62.975 17.522572
62.980 17.164185
62.985 16.553455
62.990 16.209568
62.995 16.339703
63.000 17.606134
63.005 17.656588
63.010 17.390352
63.015 17.773357
63.020 18.301161
63.025 18.798357
63.030 19.136585
63.035 18.67186
63.040 18.790192
63.045 18.737331
63.050 18.533245
63.055 18.538727
63.060 18.90621
63.065 19.467747
63.070 19.413073
63.075 19.166302
63.080 19.290087
63.085 19.208784
63.090 19.478504
63.095 18.543354
63.100 17.497585
63.105 17.617601
63.110 18.087046
63.115 18.458714
63.120 18.732487
63.125 19.182037
63.130 19.541616
63.135 19.486864
63.140 19.677479
63.145 19.542263
63.150 18.560087
63.155 18.141497
63.160 17.706656
63.165 17.383265
63.170 17.932478
63.175 17.967035
63.180 17.997587
63.185 18.363346
63.190 18.343832
63.195 18.116055
63.200 17.963003
63.205 17.118208
63.210 16.722786
63.215 16.679594
63.220 16.323895
63.225 16.19821
63.230 16.447756
63.235 16.419159
63.240 16.342562
63.245 16.524399
63.250 16.83779
63.255 17.440434
63.260 17.593149
63.265 17.659927
63.270 17.90716
63.275 18.16942
63.280 17.668505
63.285 17.95216
63.290 17.933325
63.295 17.842943
63.300 17.733086
63.305 17.900587
63.310 18.221958
63.315 18.862989
63.320 18.885336
63.325 19.00493
63.330 19.207426
63.335 19.214787
63.340 19.031809
63.345 18.695263
63.350 18.900015
63.355 19.230995
63.360 19.457561
63.365 19.791796
63.370 19.878979
63.375 20.205727
63.380 20.157866
63.385 19.795734
63.390 19.218964
63.395 18.707499
63.400 17.945686
63.405 17.748323
63.410 17.475515
63.415 17.464073
63.420 16.677237
63.425 16.157921
63.430 15.999818
63.435 16.525091
63.440 16.567669
63.445 16.60125
63.450 17.052454
63.455 18.111446
63.460 18.982822
63.465 19.600344
63.470 19.267895
63.475 18.712727
63.480 18.379465
63.485 18.124718
63.490 17.384689
63.495 16.830175
63.500 16.734921
63.505 17.389898
63.510 17.942459
63.515 18.105335
63.520 18.205662
63.525 18.408413
63.530 18.365059
63.535 18.310247
63.540 17.946625
63.545 17.770521
63.550 18.249598
63.555 18.062407
63.560 17.209873
63.565 17.110783
63.570 17.034636
63.575 17.01215
63.580 17.257263
63.585 16.8645
63.590 16.963034
63.595 18.213497
63.600 18.149904
63.605 18.683104
63.610 18.90291
63.615 18.49502
63.620 18.496027
63.625 18.636547
63.630 18.331289
63.635 18.511297
63.640 17.87326
63.645 17.587782
63.650 17.700855
63.655 17.855164
63.660 17.648039
63.665 18.173986
63.670 17.878952
63.675 18.035265
63.680 18.541769
63.685 19.324326
63.690 19.717106
63.695 19.642214
63.700 19.240467
63.705 19.37719
63.710 19.091465
63.715 18.653753
63.720 17.972939
63.725 17.575918
63.730 17.394913
63.735 17.512794
63.740 18.039833
63.745 18.480465
63.750 18.844753
63.755 19.019257
63.760 19.361309
63.765 19.85928
63.770 20.520864
63.775 20.723547
63.780 20.757153
63.785 21.205404
63.790 21.552608
63.795 21.649437
63.800 21.424835
63.805 20.563475
63.810 20.315134
63.815 20.386398
63.820 19.676838
63.825 19.322987
63.830 19.176071
63.835 19.331238
63.840 19.449963
63.845 19.460413
63.850 19.990189
63.855 19.687944
63.860 19.587528
63.865 19.623198
63.870 19.553108
63.875 19.359529
63.880 19.007965
63.885 18.333191
63.890 19.335798
63.895 19.989208
63.900 20.059309
63.905 19.978258
63.910 20.082167
63.915 20.357323
63.920 20.236778
63.925 19.405085
63.930 19.448692
63.935 19.579216
63.940 19.958988
63.945 20.390358
63.950 21.220392
63.955 22.520622
63.960 23.161949
63.965 23.311914
63.970 23.411413
63.975 23.624508
63.980 23.451529
63.985 22.646851
63.990 22.315388
63.995 22.044075
64.000 22.247726
64.005 22.830912
64.010 23.024611
64.015 23.691387
64.020 24.407499
64.025 24.714153
64.030 25.272087
64.035 24.959707
64.040 24.749975
64.045 25.111225
64.050 25.112471
64.055 24.857525
64.060 24.547806
64.065 24.206505
64.070 24.319136
64.075 24.347288
64.080 23.885763
64.085 23.90107
64.090 23.514982
64.095 23.739111
64.100 24.384308
64.105 24.604744
64.110 25.27346
64.115 26.004948
64.120 26.892923
64.125 27.308609
64.130 27.815493
64.135 28.514833
64.140 28.674839
64.145 28.766243
64.150 28.527569
64.155 28.32373
64.160 28.903696
64.165 29.268761
64.170 29.391417
64.175 30.011391
64.180 30.222466
64.185 31.626619
64.190 33.393944
64.195 34.338566
64.200 35.076172
64.205 35.13221
64.210 35.526596
64.215 36.040756
64.220 35.947582
64.225 36.014866
64.230 36.422737
64.235 36.209286
64.240 36.333755
64.245 36.009502
64.250 36.275368
64.255 37.814236
64.260 38.818748
64.265 39.063549
64.270 40.12714
64.275 41.080227
64.280 41.883034
64.285 42.492359
64.290 42.404816
64.295 42.224396
64.300 42.782707
64.305 42.263073
64.310 42.865398
64.315 43.235512
64.320 43.181652
64.325 43.170696
64.330 43.417278
64.335 44.197025
64.340 44.599316
64.345 45.459057
64.350 45.224113
64.355 46.093773
64.360 47.719849
64.365 48.032085
64.370 48.565758
64.375 49.535069
64.380 49.653515
64.385 50.321949
64.390 49.87175
64.395 50.410793
64.400 50.517738
64.405 50.671455
64.410 50.706539
64.415 50.737591
64.420 51.046459
64.425 50.214882
64.430 49.182743
64.435 49.030243
64.440 49.236244
64.445 49.140198
64.450 48.704208
64.455 47.909538
64.460 48.107552
64.465 48.503292
64.470 47.957397
64.475 47.246536
64.480 46.784199
64.485 46.880154
64.490 46.959335
64.495 47.424129
64.500 46.675152
64.505 46.169945
64.510 46.15654
64.515 46.289406
64.520 45.743233
64.525 45.049648
64.530 43.97681
64.535 44.163681
64.540 43.947487
64.545 42.219692
64.550 41.480244
64.555 41.852798
64.560 41.807922
64.565 41.824471
64.570 40.529449
64.575 39.445671
64.580 39.229664
64.585 38.478729
64.590 37.339272
64.595 37.230679
64.600 36.980427
64.605 36.749111
64.610 37.159851
64.615 36.853329
64.620 36.894394
64.625 37.02462
64.630 36.245178
64.635 35.138641
64.640 34.473228
64.645 34.146912
64.650 33.349583
64.655 32.755157
64.660 32.661339
64.665 32.474644
64.670 32.174324
64.675 31.92746
64.680 31.261562
64.685 30.727806
64.690 29.228338
64.695 27.697176
64.700 27.330868
64.705 26.969835
64.710 26.185581
64.715 26.420155
64.720 26.552462
64.725 26.956099
64.730 26.848164
64.735 26.041739
64.740 25.281816
64.745 24.890373
64.750 24.450077
64.755 23.758385
64.760 23.418201
64.765 23.793612
64.770 24.106894
64.775 24.500484
64.780 24.388714
64.785 23.527094
64.790 23.767307
64.795 23.875675
64.800 23.338203
64.805 23.351109
64.810 23.205114
64.815 22.859205
64.820 23.089924
64.825 22.822769
64.830 22.961401
64.835 23.269327
64.840 23.747244
64.845 23.043222
64.850 23.354153
64.855 23.321114
64.860 23.476833
64.865 23.335926
64.870 23.315819
64.875 23.021318
64.880 23.083609
64.885 22.896191
64.890 23.117882
64.895 23.231575
64.900 23.594879
64.905 23.543289
64.910 23.685429
64.915 23.841494
64.920 23.611187
64.925 23.342354
64.930 23.600092
64.935 23.762562
64.940 24.168438
64.945 24.496588
64.950 24.97464
64.955 25.632818
64.960 25.927877
64.965 25.877771
64.970 25.693922
64.975 25.494198
64.980 25.860823
64.985 26.407579
64.990 26.636593
64.995 27.405275
65.000 28.183147
65.005 28.626474
65.010 29.262791
65.015 29.852518
65.020 30.407988
65.025 30.60906
65.030 30.771984
65.035 30.837601
65.040 30.192341
65.045 29.888187
65.050 29.472389
65.055 29.767784
65.060 30.565258
65.065 30.644508
65.070 30.586273
65.075 31.198484
65.080 30.817265
65.085 30.829571
65.090 30.986557
65.095 30.882477
65.100 30.773266
65.105 31.389317
65.110 31.874846
65.115 32.537815
65.120 32.70388
65.125 32.9683
65.130 33.090717
65.135 33.522038
65.140 33.344025
65.145 33.3717
65.150 33.84679
65.155 34.644875
65.160 35.109169
65.165 35.442577
65.170 35.047176
65.175 35.895199
65.180 35.810795
65.185 35.180714
65.190 34.762398
65.195 34.898949
65.200 35.061359
65.205 35.514259
65.210 35.247257
65.215 36.458469
65.220 36.826466
65.225 36.533401
65.230 36.078667
65.235 36.163818
65.240 36.142078
65.245 36.517723
65.250 36.473118
65.255 36.394482
65.260 36.706291
65.265 36.794273
65.270 36.685837
65.275 36.638096
65.280 36.192883
65.285 35.751705
65.290 36.375198
65.295 37.28299
65.300 38.50193
65.305 38.797249
65.310 39.124153
65.315 38.965298
65.320 39.321991
65.325 39.074894
65.330 38.465778
65.335 38.001896
65.340 38.101273
65.345 38.115795
65.350 38.10984
65.355 37.308262
65.360 37.367905
65.365 37.572071
65.370 37.434219
65.375 37.129635
65.380 36.795616
65.385 36.890213
65.390 37.051331
65.395 37.102768
65.400 36.910427
65.405 36.00631
65.410 36.890373
65.415 36.904499
65.420 36.643269
65.425 36.64254
65.430 37.081642
65.435 37.632687
65.440 38.307854
65.445 38.494137
65.450 38.593418
65.455 39.356571
65.460 39.282288
65.465 38.336239
65.470 37.661648
65.475 37.735561
65.480 37.725739
65.485 37.580063
65.490 36.46196
65.495 36.111042
65.500 36.171253
65.505 36.199085
65.510 35.22884
65.515 34.599163
65.520 34.36898
65.525 35.041042
65.530 35.684856
65.535 35.991608
65.540 36.04538
65.545 36.61837
65.550 37.491322
65.555 37.508518
65.560 37.539738
65.565 37.294262
65.570 37.260487
65.575 37.948669
65.580 38.637554
65.585 38.690376
65.590 39.45826
65.595 39.625328
65.600 40.62323
65.605 40.989227
65.610 40.031448
65.615 40.218143
65.620 40.40871
65.625 40.673111
65.630 40.813347
65.635 40.453178
65.640 40.129723
65.645 40.727425
65.650 40.320557
65.655 39.720413
65.660 39.414768
65.665 38.89267
65.670 37.99287
65.675 38.605465
65.680 38.616291
65.685 38.280006
65.690 38.033714
65.695 38.338146
65.700 38.735973
65.705 38.579506
65.710 38.282974
65.715 38.383984
65.720 38.083225
65.725 38.535503
65.730 38.566303
65.735 38.58128
65.740 39.10223
65.745 38.857506
65.750 37.781704
65.755 38.110996
65.760 37.284966
65.765 36.426575
65.770 36.188244
65.775 35.377483
65.780 34.541218
65.785 34.80928
65.790 34.340473
65.795 34.284771
65.800 34.018372
65.805 32.935383
65.810 32.531281
65.815 33.12981
65.820 32.192371
65.825 31.586403
65.830 31.458361
65.835 31.506987
65.840 32.360203
65.845 32.312851
65.850 32.597252
65.855 32.6306
65.860 32.930954
65.865 32.38924
65.870 32.562939
65.875 32.818817
65.880 32.874203
65.885 32.94873
65.890 32.628914
65.895 32.376827
65.900 32.978153
65.905 33.041798
65.910 32.913567
65.915 32.779446
65.920 32.708214
65.925 31.676104
65.930 30.577017
65.935 29.90885
65.940 28.86866
65.945 28.36488
65.950 27.74843
65.955 26.607792
65.960 27.184404
65.965 27.455578
65.970 27.235882
65.975 27.914116
65.980 27.430269
65.985 27.626366
65.990 27.540789
65.995 26.668871
66.000 26.432983
66.005 26.165676
66.010 25.176571
66.015 25.131367
66.020 24.949993
66.025 24.774233
66.030 24.952045
66.035 24.217287
66.040 23.852741
66.045 23.807878
66.050 23.482815
66.055 23.202585
66.060 23.350945
66.065 22.812572
66.070 22.789932
66.075 22.709045
66.080 22.737497
66.085 22.905758
66.090 22.776781
66.095 22.352493
66.100 22.157139
66.105 21.677372
66.110 21.864519
66.115 21.584389
66.120 21.135698
66.125 21.031895
66.130 20.962736
66.135 21.122234
66.140 21.16021
66.145 20.697977
66.150 20.542259
66.155 20.643288
66.160 20.663212
66.165 20.694885
66.170 20.825788
66.175 20.245657
66.180 19.916473
66.185 19.747345
66.190 19.383781
66.195 19.291443
66.200 19.126245
66.205 19.078394
66.210 19.475765
66.215 19.587996
66.220 19.649256
66.225 19.492716
66.230 19.297293
66.235 18.85202
66.240 18.317635
66.245 17.925289
66.250 17.706625
66.255 17.528872
66.260 17.545393
66.265 18.101881
66.270 18.16082
66.275 18.000439
66.280 18.774529
66.285 19.440931
66.290 20.019003
66.295 20.234449
66.300 20.511637
66.305 20.831009
66.310 21.122847
66.315 20.617989
66.320 20.002672
66.325 19.633467
66.330 19.42618
66.335 19.576139
66.340 19.717127
66.345 20.222952
66.350 20.650944
66.355 21.340784
66.360 21.350258
66.365 21.394842
66.370 20.711786
66.375 20.292253
66.380 19.728178
66.385 18.904165
66.390 18.248194
66.395 18.587866
66.400 18.551508
66.405 18.964067
66.410 18.648712
66.415 18.897274
66.420 19.398964
66.425 19.92408
66.430 19.811541
66.435 19.786787
66.440 20.315739
66.445 20.940334
66.450 20.677704
66.455 20.368052
66.460 19.794724
66.465 19.488956
66.470 19.38863
66.475 18.59273
66.480 18.442665
66.485 18.854715
66.490 18.842228
66.495 19.114803
66.500 18.970482
66.505 18.584179
66.510 18.469007
66.515 18.432781
66.520 18.307156
66.525 18.139339
66.530 18.389557
66.535 19.015244
66.540 20.306404
66.545 20.602108
66.550 20.548544
66.555 20.840725
66.560 20.859869
66.565 20.286329
66.570 20.033127
66.575 19.06728
66.580 19.191845
66.585 19.127079
66.590 19.254269
66.595 19.859161
66.600 20.019949
66.605 20.411257
66.610 20.54952
66.615 20.064608
66.620 19.934452
66.625 19.857485
66.630 19.859417
66.635 19.667219
66.640 19.038361
66.645 18.317997
66.650 18.196718
66.655 17.676678
66.660 17.271723
66.665 16.993399
66.670 17.10832
66.675 17.004082
66.680 17.467798
66.685 18.229399
66.690 19.133671
66.695 19.215723
66.700 19.26161
66.705 19.196768
66.710 19.543383
66.715 19.54701
66.720 18.786201
66.725 18.468668
66.730 18.273325
66.735 18.465912
66.740 19.162174
66.745 19.577965
66.750 19.612812
66.755 19.939039
66.760 20.119305
66.765 20.192698
66.770 20.03389
66.775 19.612984
66.780 19.429493
66.785 19.516647
66.790 19.730696
66.795 19.781782
66.800 20.124458
66.805 20.156734
66.810 20.332333
66.815 20.139893
66.820 19.54364
66.825 19.449348
66.830 19.166729
66.835 18.744497
66.840 18.823793
66.845 18.562057
66.850 19.541109
66.855 20.545769
66.860 19.980429
66.865 19.721544
66.870 19.815586
66.875 19.932243
66.880 19.42041
66.885 18.388556
66.890 17.915792
66.895 18.335688
66.900 18.154045
66.905 17.556358
66.910 16.94363
66.915 17.417273
66.920 17.434052
66.925 17.676458
66.930 17.646442
66.935 18.263521
66.940 18.483999
66.945 19.120241
66.950 18.697922
66.955 18.675348
66.960 18.546776
66.965 18.963137
66.970 18.503195
66.975 18.990799
66.980 18.727949
66.985 19.198114
66.990 19.193615
66.995 19.093184
67.000 18.420967
67.005 18.448553
67.010 17.921345
67.015 17.715485
67.020 17.586838
67.025 17.515686
67.030 17.355719
67.035 17.142992
67.040 16.904423
67.045 16.978941
67.050 16.822021
67.055 16.162157
67.060 15.959155
67.065 16.524406
67.070 16.823839
67.075 17.50288
67.080 17.819754
67.085 17.9858
67.090 18.946539
67.095 19.083645
67.100 19.129055
67.105 19.481016
67.110 19.168058
67.115 19.350887
67.120 19.802725
67.125 19.749458
67.130 19.902952
67.135 19.731018
67.140 19.875607
67.145 19.803699
67.150 19.11018
67.155 18.907948
67.160 18.458332
67.165 18.572386
67.170 18.86931
67.175 19.184635
67.180 19.728601
67.185 20.008228
67.190 20.42255
67.195 20.645107
67.200 20.265091
67.205 19.608076
67.210 19.058681
67.215 18.735109
67.220 18.473316
67.225 17.840216
67.230 17.680119
67.235 17.41511
67.240 17.611938
67.245 17.53541
67.250 17.385527
67.255 18.129614
67.260 17.980247
67.265 18.188538
67.270 18.848648
67.275 19.016327
67.280 18.948286
67.285 18.294035
67.290 18.200483
67.295 18.441401
67.300 18.347536
67.305 17.978081
67.310 17.818628
67.315 18.013071
67.320 18.541168
67.325 18.225349
67.330 18.018879
67.335 17.550695
67.340 17.953045
67.345 17.81284
67.350 17.930113
67.355 17.170454
67.360 16.896917
67.365 16.75701
67.370 17.168264
67.375 16.670574
67.380 17.08036
67.385 17.377226
67.390 18.159134
67.395 18.819496
67.400 18.726875
67.405 18.561607
67.410 18.291912
67.415 17.938852
67.420 18.121281
67.425 18.008417
67.430 17.946596
67.435 18.69276
67.440 18.723248
67.445 19.4743
67.450 19.110466
67.455 18.412838
67.460 18.427286
67.465 18.181625
67.470 17.812225
67.475 17.523756
67.480 17.669909
67.485 18.110479
67.490 18.391102
67.495 17.905092
67.500 18.12434
67.505 18.153263
67.510 18.347832
67.515 17.490423
67.520 17.552351
67.525 18.083031
67.530 18.570858
67.535 18.927917
67.540 18.974112
67.545 19.410151
67.550 20.067228
67.555 20.076862
67.560 19.836937
67.565 19.719854
67.570 19.548943
67.575 20.141171
67.580 19.861748
67.585 20.148764
67.590 20.134167
67.595 19.718351
67.600 19.162855
67.605 18.943048
67.610 18.327461
67.615 18.412142
67.620 18.326462
67.625 18.023863
67.630 18.306082
67.635 18.492403
67.640 18.355438
67.645 18.033962
67.650 17.977816
67.655 18.199318
67.660 18.208601
67.665 18.458107
67.670 19.039995
67.675 19.503172
67.680 19.872158
67.685 19.965202
67.690 19.577379
67.695 19.583643
67.700 19.636709
67.705 19.644577
67.710 19.094694
67.715 19.200731
67.720 19.00631
67.725 19.162378
67.730 19.068096
67.735 19.074036
67.740 19.799765
67.745 19.92774
67.750 19.703196
67.755 19.543228
67.760 19.856623
67.765 19.958986
67.770 19.354212
67.775 19.23933
67.780 19.510412
67.785 19.294298
67.790 19.00116
67.795 18.633505
67.800 18.867891
67.805 19.149857
67.810 19.008907
67.815 18.743572
67.820 18.906914
67.825 19.63773
67.830 19.506962
67.835 19.925093
67.840 19.457523
67.845 19.245995
67.850 19.456169
67.855 19.561705
67.860 19.329168
67.865 18.948223
67.870 18.562004
67.875 18.586029
67.880 18.706842
67.885 18.83872
67.890 18.801517
67.895 18.797201
67.900 19.266466
67.905 19.705734
67.910 20.287951
67.915 20.175444
67.920 19.842731
67.925 19.86648
67.930 19.895758
67.935 19.923189
67.940 19.560263
67.945 19.298574
67.950 18.980492
67.955 19.152426
67.960 18.594414
67.965 18.277748
67.970 17.534533
67.975 17.672272
67.980 17.573448
67.985 17.686966
67.990 17.458723
67.995 17.627403
68.000 18.132675
68.005 18.414684
68.010 18.328037
68.015 18.471046
68.020 18.98122
68.025 19.34832
68.030 19.760212
68.035 20.00219
68.040 20.216478
68.045 19.640156
68.050 19.950722
68.055 20.375172
68.060 20.339216
68.065 20.00012
68.070 19.60692
68.075 18.972265
68.080 19.837135
68.085 19.530416
68.090 18.977623
68.095 18.616888
68.100 18.438837
68.105 18.556293
68.110 18.885239
68.115 18.080782
68.120 18.129202
68.125 18.414293
68.130 18.526222
68.135 18.672579
68.140 19.031363
68.145 19.540575
68.150 20.229658
68.155 20.437801
68.160 20.735228
68.165 20.641235
68.170 20.990715
68.175 21.060972
68.180 20.919199
68.185 20.734692
68.190 20.947313
68.195 20.986633
68.200 21.191181
68.205 21.135511
68.210 21.2528
68.215 21.997425
68.220 22.161127
68.225 21.931379
68.230 22.167244
68.235 22.490555
68.240 22.925087
68.245 23.57642
68.250 23.83069
68.255 24.059566
68.260 24.742714
68.265 24.698561
68.270 25.14909
68.275 24.923439
68.280 24.428696
68.285 24.311708
68.290 23.981642
68.295 24.035288
68.300 24.52317
68.305 24.23794
68.310 24.771019
68.315 25.094368
68.320 24.752254
68.325 24.878483
68.330 24.638243
68.335 24.857105
68.340 24.775995
68.345 25.04483
68.350 25.497725
68.355 26.281219
68.360 26.54707
68.365 26.489191
68.370 26.757902
68.375 27.146448
68.380 27.457598
68.385 27.279381
68.390 27.418833
68.395 28.183165
68.400 28.587873
68.405 28.728743
68.410 29.275982
68.415 29.711294
68.420 30.572292
68.425 30.209057
68.430 29.874788
68.435 29.964071
68.440 30.030848
68.445 30.128515
68.450 29.717144
68.455 29.879396
68.460 30.179003
68.465 30.577251
68.470 30.531027
68.475 30.911884
68.480 30.856325
68.485 30.678715
68.490 30.930243
68.495 30.994175
68.500 31.304352
68.505 31.438869
68.510 31.040495
68.515 31.484917
68.520 31.871212
68.525 32.2286
68.530 32.419281
68.535 31.824259
68.540 31.740677
68.545 31.60577
68.550 31.519773
68.555 31.719007
68.560 31.103111
68.565 30.919638
68.570 31.297972
68.575 31.711899
68.580 32.004303
68.585 31.986393
68.590 32.096161
68.595 32.388577
68.600 32.64299
68.605 32.716679
68.610 32.702072
68.615 33.177551
68.620 33.243122
68.625 33.270664
68.630 33.71682
68.635 34.158875
68.640 34.416344
68.645 34.372555
68.650 34.241913
68.655 34.24918
68.660 34.305923
68.665 34.250648
68.670 34.12532
68.675 34.571346
68.680 34.204586
68.685 34.289272
68.690 34.705853
68.695 34.561024
68.700 35.217812
68.705 35.622433
68.710 35.571777
68.715 35.333889
68.720 34.563805
68.725 34.684319
68.730 35.229942
68.735 34.739304
68.740 34.621578
68.745 34.442493
68.750 34.745972
68.755 34.887058
68.760 34.77475
68.765 35.506817
68.770 36.727806
68.775 36.808743
68.780 37.276348
68.785 38.021561
68.790 38.763866
68.795 38.942047
68.800 38.428982
68.805 36.990494
68.810 36.533936
68.815 36.230061
68.820 36.439457
68.825 36.807903
68.830 36.284447
68.835 35.948376
68.840 37.100418
68.845 37.315315
68.850 37.21307
68.855 37.084099
68.860 36.12936
68.865 36.096481
68.870 35.420113
68.875 35.076801
68.880 35.380032
68.885 35.358746
68.890 35.74868
68.895 36.281586
68.900 36.58197
68.905 36.877106
68.910 35.64175
68.915 35.709435
68.920 35.118397
68.925 34.39521
68.930 33.254253
68.935 32.36132
68.940 32.768997
68.945 32.685669
68.950 32.87711
68.955 33.319321
68.960 33.638107
68.965 34.286968
68.970 34.575314
68.975 34.624073
68.980 34.710377
68.985 34.351315
68.990 33.61327
68.995 33.242634
69.000 32.964809
69.005 32.705681
69.010 31.898516
69.015 31.357803
69.020 30.860708
69.025 31.299891
69.030 31.300251
69.035 31.187714
69.040 31.436203
69.045 31.265482
69.050 31.326214
69.055 31.986485
69.060 31.505373
69.065 31.012005
69.070 30.354729
69.075 29.752207
69.080 29.363613
69.085 29.463312
69.090 29.674051
69.095 29.972151
69.100 30.645197
69.105 31.183664
69.110 30.851318
69.115 30.607306
69.120 29.660147
69.125 28.714808
69.130 27.855314
69.135 27.343826
69.140 26.835981
69.145 27.250937
69.150 27.588352
69.155 27.946005
69.160 28.389811
69.165 28.043468
69.170 27.585588
69.175 26.548782
69.180 25.808483
69.185 25.387018
69.190 24.881773
69.195 24.155092
69.200 24.865574
69.205 25.36656
69.210 26.064413
69.215 25.953949
69.220 25.499777
69.225 25.448761
69.230 25.958744
69.235 24.673571
69.240 24.130058
69.245 23.821573
69.250 24.28149
69.255 24.544891
69.260 24.862934
69.265 24.5916
69.270 24.526142
69.275 24.1332
69.280 23.66428
69.285 23.467123
69.290 23.243795
69.295 22.697327
69.300 22.998383
69.305 23.223558
69.310 23.990582
69.315 23.960789
69.320 23.859636
69.325 23.572275
69.330 23.410351
69.335 23.040419
69.340 22.849745
69.345 22.369236
69.350 22.202513
69.355 22.178349
69.360 22.058622
69.365 21.699173
69.370 21.368856
69.375 21.223833
69.380 20.934357
69.385 20.60627
69.390 20.274376
69.395 20.157295
69.400 20.597109
69.405 20.129225
69.410 20.435696
69.415 20.858017
69.420 20.687584
69.425 20.71801
69.430 20.704576
69.435 20.306471
69.440 20.429329
69.445 20.571085
69.450 20.306154
69.455 20.382133
69.460 20.285112
69.465 19.798538
69.470 20.509348
69.475 20.517025
69.480 19.604656
69.485 19.476995
69.490 19.20792
69.495 19.047199
69.500 19.385366
69.505 18.484091
69.510 18.119659
69.515 18.332947
69.520 18.073448
69.525 18.527212
69.530 18.361799
69.535 17.870348
69.540 18.377188
69.545 19.101635
69.550 19.859306
69.555 20.35516
69.560 20.26885
69.565 20.663599
69.570 21.635534
69.575 22.155243
69.580 22.330832
69.585 22.109379
69.590 21.91844
69.595 21.937119
69.600 21.7167
69.605 20.942928
69.610 20.307629
69.615 20.013096
69.620 20.047377
69.625 19.412706
69.630 18.844486
69.635 18.99822
69.640 19.149509
69.645 19.181664
69.650 18.652151
69.655 18.33882
69.660 19.504803
69.665 19.43331
69.670 19.054348
69.675 18.851734
69.680 18.760633
69.685 19.023956
69.690 18.25721
69.695 17.731152
69.700 18.142792
69.705 17.947176
69.710 17.721346
69.715 17.652664
69.720 17.8002
69.725 17.959259
69.730 18.411028
69.735 18.976177
69.740 19.512407
69.745 19.978752
69.750 20.042423
69.755 20.201059
69.760 20.525434
69.765 20.225325
69.770 19.647795
69.775 19.7528
69.780 19.500126
69.785 19.246485
69.790 19.487133
69.795 19.817326
69.800 20.062866
69.805 19.670935
69.810 19.547768
69.815 19.387756
69.820 19.335279
69.825 19.111578
69.830 18.005146
69.835 18.192884
69.840 18.349474
69.845 18.099144
69.850 17.86655
69.855 17.785412
69.860 18.486631
69.865 19.304049
69.870 18.880236
69.875 19.565243
69.880 19.706982
69.885 20.604689
69.890 20.638369
69.895 19.643305
69.900 19.285749
69.905 19.337057
69.910 19.003836
69.915 19.134306
69.920 18.979183
69.925 18.547056
69.930 18.769306
69.935 18.689962
69.940 18.35745
69.945 18.153076
69.950 18.206436
69.955 18.130754
69.960 18.399813
69.965 18.681686
69.970 18.756926
69.975 18.695789
69.980 18.58626
69.985 18.931623
69.990 18.44478
69.995 18.513445
70.000 18.55859
70.005 18.75914
70.010 18.743528
70.015 18.77014
70.020 18.68384
70.025 18.970991
70.030 18.431124
70.035 18.744406
70.040 19.041586
70.045 19.368288
70.050 19.400101
70.055 19.388916
70.060 19.182413
70.065 19.380001
70.070 19.954327
70.075 19.804689
70.080 19.546944
70.085 18.664366
70.090 18.428129
70.095 18.31855
70.100 17.331156
70.105 16.670271
70.110 17.042274
70.115 17.119202
70.120 17.607121
70.125 18.253113
70.130 18.824764
70.135 19.106995
70.140 19.073877
70.145 19.211695
70.150 19.517426
70.155 19.25016
70.160 18.860027
70.165 18.160975
70.170 18.517706
70.175 18.595491
70.180 18.574957
70.185 19.606997
70.190 19.642849
70.195 20.001337
70.200 20.679817
70.205 20.259266
70.210 19.558016
70.215 18.801556
70.220 17.662201
70.225 17.353935
70.230 17.044287
70.235 16.737164
70.240 17.427866
70.245 17.85578
70.250 17.96537
70.255 18.493196
70.260 18.694431
70.265 18.949944
70.270 18.924011
70.275 18.14941
70.280 17.892437
70.285 17.911716
70.290 18.207476
70.295 18.248125
70.300 17.70953
70.305 17.772091
70.310 18.364279
70.315 18.474413
70.320 18.180431
70.325 18.0266
70.330 17.746754
70.335 17.781502
70.340 16.934347
70.345 16.494511
70.350 16.286263
70.355 16.274099
70.360 16.489664
70.365 16.760454
70.370 17.423708
70.375 18.150007
70.380 18.617067
70.385 18.624033
70.390 18.391552
70.395 18.526621
70.400 18.769018
70.405 18.584103
70.410 18.793686
70.415 18.232109
70.420 18.296341
70.425 18.393274
70.430 18.078348
70.435 17.787323
70.440 17.43392
70.445 17.377497
70.450 18.167965
70.455 18.494781
70.460 19.185341
70.465 19.645859
70.470 20.237373
70.475 20.956377
70.480 20.91181
70.485 20.459232
70.490 20.113749
70.495 19.417099
70.500 18.780359
70.505 19.013052
70.510 18.458754
70.515 18.735197
70.520 18.738918
70.525 18.662905
70.530 18.749586
70.535 18.631094
70.540 18.250208
70.545 18.734972
70.550 18.765631
70.555 19.290249
70.560 19.084919
70.565 19.32826
70.570 19.494478
70.575 19.080618
70.580 18.577118
70.585 17.908665
70.590 17.886873
70.595 17.879105
70.600 17.857079
70.605 18.247311
70.610 18.33815
70.615 18.330872
70.620 18.572889
70.625 19.030268
70.630 19.195475
70.635 18.924362
70.640 18.203051
70.645 18.15159
70.650 18.299013
70.655 18.610294
70.660 18.863947
70.665 18.649883
70.670 18.622442
70.675 18.723946
70.680 18.814741
70.685 18.449989
70.690 18.39645
70.695 18.001926
70.700 18.091358
70.705 18.04332
70.710 18.267473
70.715 18.25359
70.720 18.307537
70.725 17.499971
70.730 17.356604
70.735 17.386566
70.740 17.682255
70.745 17.740021
70.750 17.953482
70.755 17.760952
70.760 17.730284
70.765 17.668552
70.770 17.754335
70.775 17.349834
70.780 17.224585
70.785 17.032976
70.790 17.521927
70.795 17.579206
70.800 17.751196
70.805 17.652557
70.810 17.952885
70.815 17.985775
70.820 18.766321
70.825 18.723232
70.830 18.767345
70.835 18.710545
70.840 18.619478
70.845 18.415413
70.850 18.259466
70.855 17.825953
70.860 17.682882
70.865 17.739851
70.870 17.676508
70.875 17.725512
70.880 17.738573
70.885 17.731571
70.890 18.23793
70.895 18.912291
70.900 18.549629
70.905 18.556213
70.910 18.653362
70.915 19.178076
70.920 19.185213
70.925 18.264986
70.930 17.842621
70.935 18.028143
70.940 17.878056
70.945 17.968508
70.950 17.845552
70.955 18.238592
70.960 19.176262
70.965 19.504782
70.970 19.758726
70.975 20.073753
70.980 20.112215
70.985 19.834536
70.990 19.363049
70.995 18.551352
71.000 18.454102
71.005 18.456873
71.010 17.930407
71.015 17.516539
71.020 17.832085
71.025 17.523878
71.030 17.509769
71.035 17.433086
71.040 16.850122
71.045 17.175179
71.050 17.855408
71.055 18.096369
71.060 18.21722
71.065 17.877201
71.070 18.435257
71.075 18.322849
71.080 18.491367
71.085 18.239109
71.090 17.991508
71.095 18.250509
71.100 18.022928
71.105 17.439508
71.110 17.824911
71.115 17.488089
71.120 17.471277
71.125 17.354822
71.130 17.892338
71.135 17.966911
71.140 18.151581
71.145 18.463951
71.150 18.44381
71.155 18.634804
71.160 18.232353
71.165 18.570902
71.170 19.604742
71.175 19.40217
71.180 19.108007
71.185 19.073875
71.190 18.921993
71.195 18.721594
71.200 17.940683
71.205 17.411385
71.210 18.399742
71.215 18.72613
71.220 18.586102
71.225 18.699181
71.230 18.648918
71.235 19.336617
71.240 19.150961
71.245 18.206577
71.250 18.298061
71.255 18.089771
71.260 18.095053
71.265 18.636406
71.270 18.392097
71.275 18.154438
71.280 18.154388
71.285 18.434887
71.290 18.698481
71.295 18.263651
71.300 17.262943
71.305 17.187235
71.310 17.523903
71.315 17.923239
71.320 17.652613
71.325 17.76935
71.330 18.212578
71.335 18.69651
71.340 19.359428
71.345 19.009674
71.350 18.664524
71.355 19.040707
71.360 19.221657
71.365 19.142775
71.370 18.799814
71.375 18.664511
71.380 18.175856
71.385 18.156021
71.390 17.478981
71.395 17.097649
71.400 17.845837
71.405 17.661085
71.410 17.677843
71.415 18.295364
71.420 18.661161
71.425 18.278288
71.430 17.678038
71.435 17.015337
71.440 17.134542
71.445 17.050434
71.450 16.665764
71.455 16.686703
71.460 17.557293
71.465 18.490147
71.470 19.317276
71.475 19.419062
71.480 19.324162
71.485 19.749674
71.490 19.389151
71.495 19.236713
71.500 18.332924
71.505 17.558596
71.510 17.692125
71.515 17.641151
71.520 17.646461
71.525 17.753492
71.530 17.733202
71.535 17.847103
71.540 18.323305
71.545 18.400391
71.550 18.435429
71.555 18.457708
71.560 18.973688
71.565 18.640055
71.570 18.969065
71.575 18.970644
71.580 18.968317
71.585 18.706152
71.590 18.612785
71.595 18.346775
71.600 18.501635
71.605 18.55538
71.610 18.264719
71.615 17.682684
71.620 17.150431
71.625 17.493929
71.630 17.568953
71.635 17.505291
71.640 17.100578
71.645 17.610262
71.650 17.983025
71.655 17.811836
71.660 17.541124
71.665 17.797819
71.670 18.110561
71.675 18.61499
71.680 17.86651
71.685 17.895515
71.690 18.049646
71.695 17.818199
71.700 17.607306
71.705 17.98398
71.710 17.891962
71.715 18.201189
71.720 18.48842
71.725 18.663733
71.730 18.446819
71.735 18.368225
71.740 18.164478
71.745 17.740913
71.750 17.343008
71.755 17.204496
71.760 17.255909
71.765 17.995625
71.770 17.833847
71.775 18.129293
71.780 18.902119
71.785 19.775816
71.790 19.618788
71.795 20.405874
71.800 20.444237
71.805 20.556765
71.810 20.042309
71.815 18.914066
71.820 18.461451
71.825 18.365337
71.830 17.28339
71.835 16.949341
71.840 16.616392
71.845 17.009842
71.850 17.251745
71.855 17.502388
71.860 17.511889
71.865 17.531483
71.870 18.077734
71.875 18.32262
71.880 18.496038
71.885 18.599411
71.890 18.374912
71.895 18.545561
71.900 17.795357
71.905 17.03793
71.910 17.363951
71.915 17.465027
71.920 17.436159
71.925 17.528404
71.930 17.976217
71.935 18.192253
71.940 18.255484
71.945 17.794115
71.950 18.106081
71.955 18.438427
71.960 18.660492
71.965 18.432007
71.970 18.931234
71.975 18.357513
71.980 18.259363
71.985 18.745457
71.990 18.882946
71.995 18.796021
72.000 18.539011
72.005 18.374575
72.010 18.747456
72.015 18.384155
72.020 17.491291
72.025 16.994293
72.030 16.986732
72.035 17.01244
72.040 17.591192
72.045 17.349907
72.050 17.825523
72.055 18.199009
72.060 18.080582
72.065 17.890551
72.070 17.927563
72.075 17.378958
72.080 17.435686
72.085 17.304573
72.090 16.851221
72.095 17.173916
72.100 16.847061
72.105 16.988565
72.110 17.945362
72.115 18.723438
72.120 18.889282
72.125 19.920259
72.130 20.244066
72.135 20.618986
72.140 19.959568
72.145 19.318001
72.150 18.854462
72.155 19.082933
72.160 18.803669
72.165 18.358704
72.170 17.929899
72.175 17.768446
72.180 17.39872
72.185 16.685595
72.190 16.011686
72.195 16.264149
72.200 16.52084
72.205 17.150101
72.210 16.903807
72.215 17.312761
72.220 18.439447
72.225 18.559677
72.230 18.622627
72.235 19.201162
72.240 19.854673
72.245 20.46508
72.250 20.134367
72.255 19.271391
72.260 18.911205
72.265 19.123417
72.270 19.100407
72.275 18.8953
72.280 18.987354
72.285 18.617432
72.290 19.1091
72.295 19.467163
72.300 19.035011
72.305 18.825956
72.310 18.872917
72.315 18.992382
72.320 18.931664
72.325 18.501606
72.330 18.029415
72.335 17.90881
72.340 17.367908
72.345 16.886492
72.350 17.697767
72.355 17.976189
72.360 18.234276
72.365 17.770281
72.370 18.348225
72.375 18.039862
72.380 17.985434
72.385 17.256763
72.390 16.779531
72.395 17.256226
72.400 17.86661
72.405 17.971128
72.410 18.41234
72.415 18.716467
72.420 19.598549
72.425 19.747566
72.430 19.50279
72.435 19.132456
72.440 18.851179
72.445 18.500818
72.450 18.074245
72.455 17.647205
72.460 17.493168
72.465 17.191801
72.470 17.233435
72.475 17.277218
72.480 16.971798
72.485 17.359875
72.490 17.450815
72.495 17.262352
72.500 17.783571
72.505 17.894989
72.510 17.940823
72.515 18.28117
72.520 17.814632
72.525 18.488529
72.530 18.61672
72.535 18.518957
72.540 18.386446
72.545 18.43998
72.550 18.586639
72.555 18.884199
72.560 18.814653
72.565 18.658646
72.570 18.693449
72.575 19.310432
72.580 19.474436
72.585 19.488987
72.590 19.280542
72.595 19.091352
72.600 19.415371
72.605 19.790571
72.610 19.637058
72.615 19.502428
72.620 19.03653
72.625 19.563288
72.630 19.35808
72.635 18.07864
72.640 17.131727
72.645 17.119146
72.650 17.205938
72.655 17.537716
72.660 17.410616
72.665 17.426165
72.670 17.643251
72.675 17.536444
72.680 17.281801
72.685 17.255527
72.690 17.286718
72.695 17.371195
72.700 17.581728
72.705 17.611454
72.710 18.288322
72.715 18.594198
72.720 18.499643
72.725 18.122456
72.730 18.270504
72.735 18.689959
72.740 18.451288
72.745 18.307373
72.750 17.904491
72.755 18.422689
72.760 18.220116
72.765 17.114964
72.770 17.061209
72.775 17.252319
72.780 16.984514
72.785 16.739717
72.790 16.094282
72.795 16.419395
72.800 16.915503
72.805 16.972956
72.810 16.958084
72.815 16.982082
72.820 16.464214
72.825 16.460539
72.830 15.902557
72.835 16.328394
72.840 16.383444
72.845 16.661024
72.850 17.002954
72.855 17.246695
72.860 17.445517
72.865 17.735891
72.870 17.31041
72.875 17.179993
72.880 17.266302
72.885 17.026655
72.890 17.12295
72.895 17.411184
72.900 17.902853
72.905 18.488773
72.910 18.438986
72.915 18.486549
72.920 18.769171
72.925 18.769714
72.930 18.487923
72.935 17.721628
72.940 16.522709
72.945 16.150425
72.950 15.749356
72.955 15.959598
72.960 16.066214
72.965 16.614328
72.970 17.45178
72.975 18.126223
72.980 18.451225
72.985 18.615438
72.990 18.02846
72.995 18.409515
73.000 18.179861
