!@!!GADDS PLOTSO FILE: Chi integration type
!@!!Title/SampleName: map-10b
!@!!Comment: ?
!@!!User: Bruker Instrument Administrator
!@!!Site: University of Illinois Chicago
!@!!Frame: map-10b_01_000.gfrm
!@!!Wavelengths    1.54184   1.54056   1.54439
!@!!Frame angles: 2Theta: 63.000 Omega: 50.000 Phi: 0.000 Chi: 90.000
!@!!Integration range: 2Theta: 53.000 to 73.000  Gamma: -105.000 to -75.000
!@!!Integration method: bin normalized
!@!N
!@!SS
!@!M
!@!L 0.0 0.0 0.0 0.0
!@!XDegrees
!@!YCounts
53.000 7.892229
53.005 8.229919
53.010 8.634101
53.015 8.726912
53.020 9.004079
53.025 8.767626
53.030 9.218769
53.035 9.496162
53.040 9.418913
53.045 9.426122
53.050 9.697131
53.055 10.13499
53.060 10.073962
53.065 9.877378
53.070 9.911894
53.075 9.585393
53.080 8.886306
53.085 8.572544
53.090 8.659436
53.095 8.489952
53.100 8.190253
53.105 8.011786
53.110 8.234632
53.115 8.362982
53.120 8.036345
53.125 7.680529
53.130 7.915377
53.135 8.247649
53.140 8.514498
53.145 8.577938
53.150 8.67279
53.155 8.464478
53.160 8.347367
53.165 8.392502
53.170 8.099614
53.175 8.061128
53.180 7.711654
53.185 7.700752
53.190 8.33424
53.195 8.525688
53.200 8.18697
53.205 8.273315
53.210 8.077383
53.215 7.872763
53.220 7.850755
53.225 7.865063
53.230 7.988518
53.235 7.939174
53.240 8.14751
53.245 8.055899
53.250 8.811193
53.255 9.07002
53.260 8.888237
53.265 8.765918
53.270 8.983868
53.275 8.929214
53.280 9.216126
53.285 9.457541
53.290 9.509889
53.295 9.600441
53.300 9.858254
53.305 9.609712
53.310 9.521338
53.315 9.581124
53.320 9.089006
53.325 8.789758
53.330 8.965315
53.335 8.449637
53.340 8.697807
53.345 8.986034
53.350 9.127534
53.355 9.204339
53.360 8.945285
53.365 9.163193
53.370 9.828938
53.375 9.688421
53.380 9.505716
53.385 9.563498
53.390 9.643343
53.395 10.128278
53.400 9.738998
53.405 9.837292
53.410 10.162016
53.415 10.294504
53.420 10.450457
53.425 10.535006
53.430 10.696078
53.435 10.778371
53.440 10.479047
53.445 10.458705
53.450 10.382167
53.455 10.404442
53.460 10.304945
53.465 9.97514
53.470 10.021128
53.475 9.788361
53.480 9.521717
53.485 9.53605
53.490 9.356576
53.495 9.533595
53.500 9.878305
53.505 9.760228
53.510 9.67891
53.515 9.664805
53.520 9.197727
53.525 9.086693
53.530 9.09198
53.535 8.986438
53.540 9.191112
53.545 9.219428
53.550 9.25085
53.555 9.866784
53.560 9.81342
53.565 9.443146
53.570 9.380964
53.575 9.73385
53.580 9.864021
53.585 9.699395
53.590 9.20373
53.595 9.532062
53.600 9.987935
53.605 10.394032
53.610 10.6669
53.615 11.046552
53.620 11.229275
53.625 11.603663
53.630 11.447294
53.635 11.341379
53.640 11.192055
53.645 10.750317
53.650 10.817182
53.655 10.570354
53.660 10.46503
53.665 10.41893
53.670 10.193576
53.675 9.97909
53.680 9.939378
53.685 10.183109
53.690 10.408888
53.695 10.327156
53.700 9.812104
53.705 9.553061
53.710 9.292423
53.715 8.884986
53.720 8.171161
53.725 8.099313
53.730 8.29178
53.735 9.152258
53.740 9.517544
53.745 9.939445
53.750 10.35231
53.755 10.372051
53.760 10.303615
53.765 10.228663
53.770 9.975427
53.775 9.739626
53.780 9.789931
53.785 9.601603
53.790 9.778264
53.795 10.014771
53.800 10.028561
53.805 10.007668
53.810 10.212399
53.815 10.038932
53.820 10.188531
53.825 9.872928
53.830 9.875327
53.835 10.178818
53.840 10.093109
53.845 10.05111
53.850 9.893448
53.855 9.620891
53.860 9.618202
53.865 9.332347
53.870 9.039154
53.875 9.171371
53.880 9.240068
53.885 9.872231
53.890 10.230756
53.895 10.062512
53.900 10.078077
53.905 10.361242
53.910 10.417622
53.915 9.933418
53.920 10.055947
53.925 10.479733
53.930 10.784629
53.935 11.02663
53.940 10.597396
53.945 10.412108
53.950 10.582448
53.955 10.154949
53.960 9.863099
53.965 9.350957
53.970 8.917741
53.975 9.006514
53.980 8.898666
53.985 8.670547
53.990 8.791604
53.995 9.139485
54.000 9.723897
54.005 10.236401
54.010 10.654096
54.015 10.779123
54.020 10.727247
54.025 10.498709
54.030 9.939445
54.035 9.851425
54.040 9.718437
54.045 9.286457
54.050 9.504703
54.055 9.817575
54.060 10.114202
54.065 10.268238
54.070 10.08876
54.075 10.45411
54.080 10.605018
54.085 10.745109
54.090 10.338762
54.095 10.505137
54.100 11.120399
54.105 10.952212
54.110 10.70889
54.115 10.555352
54.120 10.38969
54.125 10.492862
54.130 10.14941
54.135 10.126278
54.140 10.786302
54.145 11.053724
54.150 10.963374
54.155 10.99804
54.160 10.962069
54.165 11.398945
54.170 10.961336
54.175 10.339705
54.180 10.223539
54.185 10.367764
54.190 10.413469
54.195 10.41557
54.200 9.80916
54.205 10.0584
54.210 10.47405
54.215 10.845461
54.220 10.891759
54.225 11.126261
54.230 11.61527
54.235 11.968302
54.240 11.773051
54.245 11.271871
54.250 11.130881
54.255 11.0939
54.260 10.912356
54.265 10.457222
54.270 10.019823
54.275 9.798704
54.280 9.830557
54.285 10.050391
54.290 10.125495
54.295 10.169053
54.300 10.368154
54.305 11.04119
54.310 10.727967
54.315 9.953679
54.320 9.41237
54.325 9.481882
54.330 9.823421
54.335 9.365328
54.340 9.007343
54.345 9.252892
54.350 10.009292
54.355 10.460565
54.360 10.087423
54.365 9.943331
54.370 9.880137
54.375 10.471797
54.380 10.957398
54.385 10.809795
54.390 10.34756
54.395 10.221589
54.400 10.193166
54.405 9.875336
54.410 9.712145
54.415 9.359505
54.420 9.647147
54.425 10.075311
54.430 10.199186
54.435 10.364004
54.440 10.246544
54.445 10.092122
54.450 10.031028
54.455 9.651804
54.460 9.673612
54.465 9.374203
54.470 8.984461
54.475 8.762546
54.480 8.831287
54.485 8.833755
54.490 8.54204
54.495 8.165977
54.500 8.191397
54.505 8.708589
54.510 9.024768
54.515 9.079734
54.520 9.139829
54.525 9.455901
54.530 9.892821
54.535 10.450688
54.540 10.841151
54.545 11.320741
54.550 11.662405
54.555 12.324529
54.560 12.557193
54.565 12.822166
54.570 12.776397
54.575 12.449982
54.580 11.912289
54.585 12.041642
54.590 12.054453
54.595 12.125822
54.600 12.067681
54.605 12.306469
54.610 12.486745
54.615 12.577288
54.620 12.342218
54.625 12.087862
54.630 11.78186
54.635 11.370965
54.640 10.841497
54.645 11.029365
54.650 11.246297
54.655 11.325057
54.660 11.569923
54.665 11.804066
54.670 12.114925
54.675 12.271187
54.680 11.969914
54.685 11.542825
54.690 11.087729
54.695 10.553447
54.700 10.043253
54.705 9.560523
54.710 9.099876
54.715 8.895729
54.720 9.273252
54.725 9.422062
54.730 9.835073
54.735 10.327692
54.740 10.537836
54.745 10.859103
54.750 10.759386
54.755 10.727543
54.760 11.130183
54.765 11.216927
54.770 11.088614
54.775 11.70804
54.780 11.979808
54.785 11.722205
54.790 11.398701
54.795 11.347673
54.800 11.382697
54.805 11.461867
54.810 11.492225
54.815 11.871696
54.820 11.987228
54.825 12.090063
54.830 11.613308
54.835 11.093322
54.840 10.710574
54.845 10.058815
54.850 10.298143
54.855 10.704443
54.860 10.725176
54.865 10.903687
54.870 11.549735
54.875 11.507837
54.880 12.0238
54.885 11.726974
54.890 11.826855
54.895 11.646182
54.900 11.620915
54.905 11.314947
54.910 10.985472
54.915 10.399636
54.920 9.666612
54.925 8.934894
54.930 9.197395
54.935 8.989711
54.940 9.461928
54.945 9.953397
54.950 10.474153
54.955 10.954709
54.960 11.384147
54.965 11.799582
54.970 12.388274
54.975 12.299268
54.980 12.146904
54.985 12.02943
54.990 12.251572
54.995 12.203811
55.000 12.080629
55.005 11.730278
55.010 12.120957
55.015 11.955822
55.020 11.781171
55.025 11.543463
55.030 11.357305
55.035 11.001125
55.040 10.873974
55.045 10.743615
55.050 10.73877
55.055 10.503194
55.060 11.098598
55.065 11.506148
55.070 11.95833
55.075 12.104701
55.080 11.931255
55.085 12.204161
55.090 12.338324
55.095 11.754224
55.100 11.460316
55.105 11.055284
55.110 11.399142
55.115 11.378928
55.120 11.495523
55.125 11.58467
55.130 11.201251
55.135 11.397117
55.140 11.605531
55.145 11.722658
55.150 11.749324
55.155 11.89077
55.160 12.182388
55.165 12.861454
55.170 12.855887
55.175 12.494003
55.180 11.913651
55.185 12.007224
55.190 11.625758
55.195 11.5535
55.200 10.813205
55.205 10.626515
55.210 10.545974
55.215 10.706185
55.220 10.446448
55.225 10.286393
55.230 10.49825
55.235 10.857699
55.240 10.795188
55.245 10.988684
55.250 11.090182
55.255 10.8864
55.260 10.823211
55.265 10.493619
55.270 10.512375
55.275 10.773269
55.280 10.81112
55.285 11.172106
55.290 11.940993
55.295 12.180873
55.300 12.3052
55.305 12.074422
55.310 11.930786
55.315 12.081429
55.320 11.896617
55.325 11.743225
55.330 11.892323
55.335 11.85098
55.340 11.440516
55.345 11.514682
55.350 11.373774
55.355 11.686487
55.360 11.48785
55.365 11.413988
55.370 11.923852
55.375 12.318583
55.380 12.337743
55.385 12.219438
55.390 12.256525
55.395 12.720944
55.400 12.357735
55.405 12.186794
55.410 12.22525
55.415 12.222754
55.420 12.21712
55.425 11.757122
55.430 11.64971
55.435 11.825665
55.440 11.489408
55.445 11.376638
55.450 11.28196
55.455 11.537565
55.460 11.100525
55.465 11.255761
55.470 11.650661
55.475 11.962479
55.480 12.149824
55.485 12.688614
55.490 12.840483
55.495 13.30794
55.500 13.236675
55.505 12.97481
55.510 13.024324
55.515 12.623899
55.520 12.276355
55.525 12.051771
55.530 11.852961
55.535 12.058414
55.540 12.023769
55.545 12.232833
55.550 12.556432
55.555 12.287108
55.560 12.390964
55.565 12.542895
55.570 12.10546
55.575 12.076973
55.580 11.981251
55.585 12.046046
55.590 12.202341
55.595 12.499204
55.600 12.148677
55.605 12.364015
55.610 12.411123
55.615 12.274187
55.620 12.365854
55.625 12.462768
55.630 11.80213
55.635 11.875682
55.640 11.517052
55.645 10.811849
55.650 10.586415
55.655 10.446342
55.660 10.230162
55.665 10.591853
55.670 10.612805
55.675 10.64961
55.680 10.684622
55.685 10.533661
55.690 10.226622
55.695 9.754553
55.700 10.128252
55.705 10.387843
55.710 10.711425
55.715 11.050914
55.720 11.627982
55.725 12.013892
55.730 12.277591
55.735 11.539701
55.740 11.587758
55.745 12.034965
55.750 12.382839
55.755 11.933774
55.760 11.843536
55.765 12.043768
55.770 12.671834
55.775 12.757872
55.780 12.390707
55.785 12.319373
55.790 12.844965
55.795 13.117393
55.800 12.905148
55.805 12.572304
55.810 12.325053
55.815 12.313851
55.820 11.920488
55.825 11.656671
55.830 11.761886
55.835 12.028057
55.840 12.283747
55.845 12.06926
55.850 12.036496
55.855 11.775905
55.860 11.63075
55.865 11.525808
55.870 11.431548
55.875 11.153036
55.880 11.461636
55.885 11.912011
55.890 12.148048
55.895 12.153979
55.900 11.949908
55.905 11.991001
55.910 12.475078
55.915 12.551507
55.920 12.609374
55.925 13.03621
55.930 13.374117
55.935 13.411646
55.940 13.069667
55.945 13.110222
55.950 13.096234
55.955 12.628922
55.960 12.363319
55.965 11.507458
55.970 11.497186
55.975 11.390321
55.980 11.016304
55.985 10.688705
55.990 10.611605
55.995 10.542067
56.000 11.094068
56.005 11.319099
56.010 11.568027
56.015 11.507389
56.020 12.196803
56.025 12.770699
56.030 12.599621
56.035 12.318814
56.040 12.097192
56.045 11.912434
56.050 12.005514
56.055 11.441283
56.060 11.384618
56.065 11.420008
56.070 11.754392
56.075 12.012073
56.080 12.254486
56.085 12.515562
56.090 12.562285
56.095 12.54437
56.100 12.414452
56.105 12.209435
56.110 11.964002
56.115 11.557814
56.120 10.982511
56.125 10.682201
56.130 10.89019
56.135 11.093586
56.140 11.630533
56.145 12.234876
56.150 12.470071
56.155 13.053393
56.160 13.646857
56.165 13.28128
56.170 13.112613
56.175 12.382049
56.180 12.507987
56.185 12.774351
56.190 12.331726
56.195 11.946284
56.200 12.76979
56.205 12.857572
56.210 12.863454
56.215 12.550203
56.220 12.243792
56.225 12.520891
56.230 12.880167
56.235 12.869306
56.240 13.149555
56.245 13.147429
56.250 13.084186
56.255 12.691241
56.260 12.538323
56.265 12.118444
56.270 11.39765
56.275 11.018918
56.280 10.880538
56.285 11.583849
56.290 12.611454
56.295 12.751373
56.300 13.069398
56.305 13.606179
56.310 13.98626
56.315 14.175444
56.320 13.948629
56.325 13.301904
56.330 13.433897
56.335 13.393476
56.340 13.480533
56.345 13.667948
56.350 13.652608
56.355 13.378491
56.360 13.357648
56.365 13.03256
56.370 12.975051
56.375 12.982362
56.380 12.80045
56.385 12.36059
56.390 12.36883
56.395 12.230028
56.400 11.966469
56.405 12.129668
56.410 11.979096
56.415 12.149062
56.420 12.595759
56.425 12.621823
56.430 12.637493
56.435 13.023969
56.440 12.564942
56.445 12.436242
56.450 12.396091
56.455 12.549274
56.460 12.52655
56.465 12.393968
56.470 12.405573
56.475 12.929899
56.480 13.105631
56.485 12.925023
56.490 12.80405
56.495 13.597529
56.500 13.721608
56.505 13.865212
56.510 14.187491
56.515 14.357678
56.520 14.876862
56.525 14.725001
56.530 14.249846
56.535 14.058477
56.540 13.896881
56.545 13.29515
56.550 13.143126
56.555 13.22826
56.560 13.330114
56.565 13.313711
56.570 13.509855
56.575 13.637741
56.580 13.364408
56.585 13.086932
56.590 12.792767
56.595 13.155928
56.600 13.063698
56.605 13.142725
56.610 13.725544
56.615 14.022802
56.620 14.385655
56.625 14.121527
56.630 13.403713
56.635 13.583141
56.640 13.283039
56.645 12.902883
56.650 12.763067
56.655 12.865307
56.660 12.466545
56.665 12.487175
56.670 12.708134
56.675 12.275553
56.680 12.205166
56.685 11.946116
56.690 12.386087
56.695 12.958404
56.700 13.36284
56.705 13.511522
56.710 14.148872
56.715 14.238028
56.720 14.273611
56.725 13.97364
56.730 13.998896
56.735 14.143769
56.740 13.850063
56.745 13.483923
56.750 13.584118
56.755 13.852396
56.760 13.829493
56.765 13.086991
56.770 12.67058
56.775 12.17893
56.780 12.414489
56.785 12.350162
56.790 12.183957
56.795 12.050431
56.800 12.623515
56.805 12.609974
56.810 12.732491
56.815 12.822209
56.820 12.670931
56.825 13.019726
56.830 13.32294
56.835 13.234682
56.840 13.506583
56.845 13.758499
56.850 13.421507
56.855 13.394804
56.860 13.206395
56.865 13.295471
56.870 13.534673
56.875 13.496402
56.880 13.735076
56.885 13.820681
56.890 13.871951
56.895 13.755058
56.900 13.365632
56.905 13.118567
56.910 12.756387
56.915 12.435669
56.920 12.354343
56.925 11.997035
56.930 11.982575
56.935 12.215465
56.940 12.602648
56.945 13.233431
56.950 13.42588
56.955 13.832544
56.960 14.26963
56.965 14.550164
56.970 14.906125
56.975 15.122623
56.980 15.169869
56.985 14.74045
56.990 14.505364
56.995 14.572893
57.000 14.179856
57.005 13.632484
57.010 13.337173
57.015 13.087361
57.020 13.464888
57.025 13.834793
57.030 13.863134
57.035 14.068492
57.040 13.873322
57.045 14.131428
57.050 14.300503
57.055 14.166098
57.060 13.862714
57.065 14.073409
57.070 13.941014
57.075 14.097998
57.080 14.179509
57.085 14.080842
57.090 14.40659
57.095 14.781898
57.100 14.92063
57.105 15.340939
57.110 15.325128
57.115 15.021277
57.120 14.908573
57.125 14.340408
57.130 13.819279
57.135 13.645002
57.140 13.667882
57.145 14.051319
57.150 14.638249
57.155 14.951153
57.160 14.833995
57.165 14.52319
57.170 14.137621
57.175 14.442696
57.180 14.222481
57.185 13.451133
57.190 13.452927
57.195 13.457659
57.200 13.823482
57.205 13.793564
57.210 13.538715
57.215 13.489266
57.220 13.633047
57.225 13.529186
57.230 13.597823
57.235 13.721076
57.240 14.572206
57.245 14.105238
57.250 13.878351
57.255 13.994301
57.260 14.23784
57.265 14.065693
57.270 13.678349
57.275 13.211317
57.280 13.403055
57.285 13.639917
57.290 13.454567
57.295 13.298703
57.300 13.841675
57.305 13.965549
57.310 13.824958
57.315 13.832014
57.320 13.704855
57.325 13.947592
57.330 14.30853
57.335 14.094954
57.340 14.022374
57.345 14.024623
57.350 14.004874
57.355 14.052594
57.360 13.680972
57.365 13.335773
57.370 13.77322
57.375 13.891828
57.380 14.347742
57.385 14.400416
57.390 14.578403
57.395 14.738054
57.400 14.62033
57.405 14.373281
57.410 14.42224
57.415 14.133163
57.420 13.927184
57.425 14.037018
57.430 14.749316
57.435 15.026825
57.440 14.843762
57.445 14.184042
57.450 14.055611
57.455 14.301885
57.460 14.351877
57.465 14.32796
57.470 14.62686
57.475 14.362904
57.480 14.921753
57.485 15.55127
57.490 15.28863
57.495 15.049394
57.500 14.390388
57.505 14.071439
57.510 14.185259
57.515 13.825067
57.520 13.037827
57.525 13.020347
57.530 12.62436
57.535 12.84871
57.540 13.315767
57.545 13.337117
57.550 13.4757
57.555 14.182211
57.560 14.760838
57.565 15.150031
57.570 14.781176
57.575 14.775205
57.580 14.701424
57.585 14.469022
57.590 13.880075
57.595 13.62492
57.600 13.674212
57.605 13.24604
57.610 13.413107
57.615 13.888094
57.620 14.330548
57.625 14.631871
57.630 14.294717
57.635 13.884726
57.640 14.096113
57.645 14.174977
57.650 14.101029
57.655 14.175995
57.660 14.851667
57.665 15.396641
57.670 15.134676
57.675 15.433551
57.680 14.980696
57.685 14.93661
57.690 14.715046
57.695 14.121098
57.700 13.811948
57.705 14.35621
57.710 14.039085
57.715 14.447839
57.720 14.549952
57.725 14.213481
57.730 14.646922
57.735 15.405024
57.740 15.314209
57.745 15.132807
57.750 14.591607
57.755 14.825921
57.760 15.425832
57.765 15.258582
57.770 14.554704
57.775 14.805348
57.780 14.910994
57.785 15.064967
57.790 14.634198
57.795 14.408283
57.800 13.798159
57.805 13.664433
57.810 13.520517
57.815 13.726364
57.820 13.472329
57.825 13.600002
57.830 13.480997
57.835 13.875005
57.840 14.674002
57.845 14.542691
57.850 14.742391
57.855 15.031524
57.860 15.28518
57.865 15.530541
57.870 15.754245
57.875 15.732405
57.880 15.763916
57.885 15.616486
57.890 15.239996
57.895 14.899181
57.900 15.021865
57.905 15.383793
57.910 15.237411
57.915 15.43082
57.920 15.882896
57.925 16.025078
57.930 16.266068
57.935 16.096544
57.940 15.942511
57.945 16.243027
57.950 16.044985
57.955 15.651509
57.960 15.802299
57.965 15.344311
57.970 15.09793
57.975 14.50441
57.980 13.749345
57.985 13.622258
57.990 13.42807
57.995 12.948788
58.000 13.272883
58.005 13.417849
58.010 14.024548
58.015 14.255926
58.020 14.462823
58.025 14.718981
58.030 15.058513
58.035 15.483871
58.040 15.566599
58.045 15.206369
58.050 15.549815
58.055 15.720357
58.060 15.84897
58.065 15.483761
58.070 15.058183
58.075 15.285169
58.080 14.881201
58.085 14.781733
58.090 14.427037
58.095 14.189371
58.100 14.282737
58.105 14.324767
58.110 14.560572
58.115 14.976106
58.120 14.947503
58.125 15.558984
58.130 15.820368
58.135 15.73448
58.140 15.321974
58.145 14.907583
58.150 14.828849
58.155 14.602224
58.160 14.105998
58.165 14.42605
58.170 14.799738
58.175 14.745059
58.180 14.359486
58.185 14.291353
58.190 14.679109
58.195 14.774878
58.200 14.348718
58.205 14.433527
58.210 14.595335
58.215 14.868234
58.220 14.894168
58.225 14.812977
58.230 14.801422
58.235 14.907323
58.240 14.703832
58.245 14.16238
58.250 13.772237
58.255 13.417471
58.260 13.175152
58.265 12.862928
58.270 12.900332
58.275 12.511208
58.280 12.842157
58.285 13.22836
58.290 13.510502
58.295 13.952221
58.300 14.263073
58.305 14.554853
58.310 14.947143
58.315 15.617595
58.320 15.839938
58.325 15.353689
58.330 14.844532
58.335 14.987899
58.340 14.853549
58.345 15.015635
58.350 14.410054
58.355 14.644683
58.360 15.001122
58.365 15.164026
58.370 15.120404
58.375 15.184633
58.380 14.994759
58.385 15.289155
58.390 15.180267
58.395 15.426583
58.400 15.736904
58.405 15.338395
58.410 15.291819
58.415 15.209205
58.420 15.110053
58.425 15.092834
58.430 14.732693
58.435 14.567986
58.440 14.601145
58.445 14.1111
58.450 14.080868
58.455 14.025553
58.460 13.926857
58.465 13.976912
58.470 13.461406
58.475 14.053125
58.480 15.083346
58.485 15.48616
58.490 15.351507
58.495 15.460477
58.500 15.664343
58.505 16.038486
58.510 15.543151
58.515 14.95866
58.520 15.073239
58.525 14.864667
58.530 14.305306
58.535 13.996145
58.540 14.022317
58.545 13.531384
58.550 13.608104
58.555 13.443921
58.560 13.403925
58.565 13.224187
58.570 13.953572
58.575 14.319058
58.580 14.272667
58.585 13.836716
58.590 13.454673
58.595 13.986814
58.600 14.595919
58.605 13.788728
58.610 13.347724
58.615 13.422148
58.620 13.590777
58.625 13.805549
58.630 13.576177
58.635 13.689618
58.640 14.076458
58.645 14.12406
58.650 14.100994
58.655 14.262865
58.660 14.405663
58.665 14.891289
58.670 14.894575
58.675 14.848508
58.680 15.247856
58.685 15.709829
58.690 15.846735
58.695 15.923881
58.700 15.699137
58.705 15.639128
58.710 15.826849
58.715 15.57195
58.720 15.39126
58.725 15.478643
58.730 15.884605
58.735 15.80472
58.740 16.03199
58.745 16.026083
58.750 16.160805
58.755 16.021219
58.760 16.373209
58.765 16.189528
58.770 16.068226
58.775 16.236437
58.780 16.244215
58.785 16.027189
58.790 16.663055
58.795 16.019571
58.800 16.009726
58.805 15.655349
58.810 15.367564
58.815 15.210842
58.820 14.875285
58.825 14.45909
58.830 14.295093
58.835 14.667944
58.840 15.057413
58.845 15.355947
58.850 15.727831
58.855 16.384634
58.860 16.317881
58.865 16.241348
58.870 16.118359
58.875 15.930518
58.880 15.666919
58.885 15.486941
58.890 15.328451
58.895 15.863987
58.900 16.700356
58.905 16.873634
58.910 16.735031
58.915 16.473026
58.920 16.721846
58.925 16.799295
58.930 16.248835
58.935 15.542312
58.940 15.460467
58.945 16.122034
58.950 16.099787
58.955 15.840434
58.960 16.269594
58.965 16.481962
58.970 16.697569
58.975 16.437687
58.980 16.077488
58.985 16.319321
58.990 16.250498
58.995 16.057337
59.000 15.666811
59.005 15.97535
59.010 16.856531
59.015 16.955069
59.020 17.031145
59.025 16.946383
59.030 16.784449
59.035 17.055944
59.040 16.761227
59.045 16.270872
59.050 16.550249
59.055 16.860212
59.060 17.135448
59.065 17.44943
59.070 17.689856
59.075 17.834654
59.080 17.932804
59.085 17.39563
59.090 16.861309
59.095 16.471067
59.100 16.524366
59.105 16.535894
59.110 16.538595
59.115 16.189051
59.120 16.106262
59.125 16.114107
59.130 16.119764
59.135 16.334049
59.140 16.112963
59.145 16.11702
59.150 16.485668
59.155 16.627985
59.160 17.020098
59.165 17.300373
59.170 16.864426
59.175 16.602537
59.180 16.442141
59.185 16.362892
59.190 16.797709
59.195 16.257257
59.200 15.73562
59.205 15.6891
59.210 15.940738
59.215 15.819541
59.220 15.901649
59.225 15.799296
59.230 15.635048
59.235 15.749246
59.240 16.020432
59.245 15.826402
59.250 15.723291
59.255 15.453094
59.260 15.462404
59.265 16.079458
59.270 16.161907
59.275 15.965048
59.280 16.329634
59.285 15.98392
59.290 16.105818
59.295 15.746335
59.300 15.746915
59.305 15.760075
59.310 15.86025
59.315 15.643698
59.320 16.377636
59.325 16.860537
59.330 17.346596
59.335 17.318123
59.340 17.397118
59.345 17.105661
59.350 16.957407
59.355 16.451166
59.360 16.299007
59.365 16.420902
59.370 16.419706
59.375 16.582222
59.380 16.838003
59.385 16.771729
59.390 17.419807
59.395 16.685812
59.400 16.267656
59.405 16.250275
59.410 16.548292
59.415 16.558754
59.420 16.826857
59.425 17.192066
59.430 17.625792
59.435 17.835995
59.440 18.062054
59.445 17.969046
59.450 17.919502
59.455 17.688446
59.460 17.504063
59.465 17.99407
59.470 17.887182
59.475 17.325584
59.480 17.17063
59.485 17.197964
59.490 17.325176
59.495 16.912277
59.500 16.953194
59.505 16.958038
59.510 17.025219
59.515 17.050135
59.520 17.187277
59.525 17.481583
59.530 17.064474
59.535 16.663849
59.540 17.315653
59.545 18.002195
59.550 18.214037
59.555 18.211422
59.560 17.678705
59.565 17.79517
59.570 17.763725
59.575 17.470547
59.580 16.814497
59.585 16.674458
59.590 16.718128
59.595 17.383904
59.600 18.051779
59.605 18.371092
59.610 18.465597
59.615 18.986057
59.620 19.189558
59.625 19.519514
59.630 19.991714
59.635 20.140652
59.640 19.719484
59.645 19.743385
59.650 20.370459
59.655 20.069365
59.660 19.801369
59.665 18.725407
59.670 18.215239
59.675 18.042645
59.680 17.508881
59.685 16.672884
59.690 16.692205
59.695 16.454865
59.700 17.055435
59.705 17.229309
59.710 17.494326
59.715 17.814051
59.720 18.228933
59.725 18.212732
59.730 18.300013
59.735 18.441467
59.740 19.096815
59.745 19.900879
59.750 19.951763
59.755 19.514189
59.760 19.884539
59.765 20.175613
59.770 19.483929
59.775 19.032068
59.780 19.054672
59.785 19.414783
59.790 19.618382
59.795 19.509382
59.800 19.74711
59.805 20.390448
59.810 19.847563
59.815 19.483696
59.820 19.376135
59.825 19.467623
59.830 19.684887
59.835 19.322433
59.840 19.271467
59.845 19.128962
59.850 18.58737
59.855 18.343332
59.860 18.146189
59.865 17.492233
59.870 17.366108
59.875 17.62628
59.880 18.351976
59.885 18.498993
59.890 18.882824
59.895 19.298275
59.900 19.613441
59.905 19.860136
59.910 19.679361
59.915 19.051279
59.920 19.181608
59.925 18.80221
59.930 18.725832
59.935 18.870014
59.940 18.754782
59.945 19.121498
59.950 20.051958
59.955 20.323135
59.960 20.238329
59.965 20.065767
59.970 19.800173
59.975 19.316484
59.980 18.946461
59.985 18.277639
59.990 17.869413
59.995 18.262602
60.000 18.717136
60.005 19.189682
60.010 19.8755
60.015 20.523043
60.020 21.114452
60.025 21.472887
60.030 21.574699
60.035 21.199789
60.040 20.843954
60.045 20.763123
60.050 20.612396
60.055 20.676538
60.060 20.808449
60.065 20.420088
60.070 20.636257
60.075 20.465452
60.080 19.868309
60.085 19.822493
60.090 19.816908
60.095 19.653172
60.100 19.252512
60.105 18.761
60.110 19.47946
60.115 20.27072
60.120 20.044521
60.125 19.970858
60.130 19.90674
60.135 20.809839
60.140 21.501665
60.145 21.037258
60.150 20.901855
60.155 21.082064
60.160 21.37183
60.165 21.614433
60.170 21.499008
60.175 21.316076
60.180 21.469086
60.185 21.51897
60.190 21.541115
60.195 20.947676
60.200 21.664709
60.205 22.128393
60.210 22.137302
60.215 22.54302
60.220 22.407185
60.225 22.100864
60.230 22.405779
60.235 21.845955
60.240 21.377342
60.245 21.421297
60.250 20.884451
60.255 21.134754
60.260 21.629734
60.265 21.526003
60.270 20.980301
60.275 20.950617
60.280 21.057014
60.285 20.982563
60.290 20.547646
60.295 20.783216
60.300 20.903044
60.305 21.10284
60.310 20.758286
60.315 20.776358
60.320 21.024546
60.325 21.627203
60.330 22.098808
60.335 22.464617
60.340 22.635216
60.345 23.061815
60.350 22.859663
60.355 22.561253
60.360 21.956137
60.365 21.151192
60.370 20.738363
60.375 21.115244
60.380 20.891607
60.385 20.937923
60.390 20.949997
60.395 21.296276
60.400 21.080437
60.405 21.25173
60.410 21.24238
60.415 20.903095
60.420 20.6112
60.425 20.632837
60.430 20.578348
60.435 20.545425
60.440 19.953585
60.445 19.644567
60.450 20.219358
60.455 20.82432
60.460 20.652012
60.465 20.237288
60.470 20.323936
60.475 20.796497
60.480 20.758394
60.485 20.406115
60.490 20.359379
60.495 20.925581
60.500 20.921665
60.505 20.470154
60.510 20.452234
60.515 20.763645
60.520 20.50766
60.525 20.402548
60.530 20.092051
60.535 20.256493
60.540 20.211916
60.545 19.472513
60.550 18.992338
60.555 18.962963
60.560 18.575338
60.565 18.409235
60.570 18.228821
60.575 18.582069
60.580 18.468538
60.585 18.604074
60.590 19.135666
60.595 19.18841
60.600 19.292616
60.605 18.967896
60.610 18.961166
60.615 19.745699
60.620 20.033215
60.625 19.173815
60.630 19.188745
60.635 19.508417
60.640 19.985235
60.645 20.239874
60.650 20.279989
60.655 20.366472
60.660 21.272669
60.665 21.11692
60.670 20.778336
60.675 20.722876
60.680 20.685297
60.685 19.553324
60.690 18.850325
60.695 18.675285
60.700 18.881413
60.705 18.786528
60.710 18.675646
60.715 18.309124
60.720 18.849121
60.725 19.185858
60.730 19.048857
60.735 19.381702
60.740 19.17787
60.745 19.051958
60.750 19.109602
60.755 19.620724
60.760 19.551085
60.765 19.929867
60.770 19.581259
60.775 19.444717
60.780 18.900385
60.785 18.788271
60.790 18.268953
60.795 18.516417
60.800 18.176071
60.805 18.128574
60.810 18.189289
60.815 18.483614
60.820 18.327059
60.825 18.574587
60.830 18.022448
60.835 17.883707
60.840 18.062418
60.845 18.328627
60.850 18.534315
60.855 18.480633
60.860 18.362286
60.865 18.417055
60.870 18.087807
60.875 18.057499
60.880 17.728777
60.885 17.859085
60.890 18.279022
60.895 18.108871
60.900 17.967131
60.905 18.354935
60.910 18.368397
60.915 18.194422
60.920 17.812981
60.925 17.48291
60.930 17.62678
60.935 17.755451
60.940 17.357822
60.945 17.40044
60.950 17.244904
60.955 16.843893
60.960 16.799992
60.965 17.012138
60.970 17.108282
60.975 17.416294
60.980 17.411165
60.985 17.604715
60.990 18.335985
60.995 18.294065
61.000 18.617802
61.005 18.211803
61.010 17.835739
61.015 17.610786
61.020 17.641453
61.025 17.372143
61.030 17.087189
61.035 16.505741
61.040 16.859556
61.045 17.16658
61.050 17.646107
61.055 17.888651
61.060 17.86273
61.065 18.100676
61.070 18.395266
61.075 18.606083
61.080 18.612715
61.085 18.584902
61.090 18.585955
61.095 18.761549
61.100 19.097996
61.105 19.284582
61.110 18.903761
61.115 18.629776
61.120 18.509024
61.125 18.419037
61.130 18.362391
61.135 18.413172
61.140 18.591475
61.145 19.054192
61.150 18.967882
61.155 18.936153
61.160 18.548555
61.165 18.030333
61.170 17.263151
61.175 16.694122
61.180 16.329556
61.185 16.415386
61.190 16.408695
61.195 16.433113
61.200 16.333591
61.205 17.423391
61.210 17.93973
61.215 18.449364
61.220 18.976377
61.225 18.869125
61.230 19.208902
61.235 19.114401
61.240 18.203196
61.245 17.839247
61.250 17.640549
61.255 17.802183
61.260 18.119177
61.265 18.140888
61.270 18.348417
61.275 18.337763
61.280 17.914581
61.285 17.191353
61.290 16.806658
61.295 16.350655
61.300 16.133305
61.305 16.58474
61.310 16.261709
61.315 16.759689
61.320 16.913197
61.325 16.864161
61.330 16.807476
61.335 16.830423
61.340 15.836697
61.345 15.709801
61.350 15.418648
61.355 15.524408
61.360 15.345006
61.365 15.768456
61.370 15.878629
61.375 16.193918
61.380 16.257891
61.385 16.40741
61.390 16.250761
61.395 16.329023
61.400 16.021769
61.405 15.448876
61.410 15.4698
61.415 15.657839
61.420 16.215359
61.425 16.018982
61.430 15.478227
61.435 15.616583
61.440 16.834209
61.445 17.098457
61.450 17.113567
61.455 17.452009
61.460 17.841743
61.465 18.712105
61.470 18.928989
61.475 18.819448
61.480 19.251467
61.485 19.229336
61.490 18.654829
61.495 18.625856
61.500 18.217554
61.505 18.003355
61.510 17.844675
61.515 17.497854
61.520 17.5362
61.525 17.606123
61.530 17.732018
61.535 17.39629
61.540 17.335875
61.545 17.860109
61.550 18.088985
61.555 18.334784
61.560 18.490953
61.565 18.769995
61.570 19.373896
61.575 19.395124
61.580 18.700113
61.585 18.430332
61.590 17.734737
61.595 17.471972
61.600 17.585178
61.605 17.390314
61.610 17.529787
61.615 17.497768
61.620 18.148308
61.625 18.742205
61.630 18.271702
61.635 18.023661
61.640 18.097038
61.645 17.490082
61.650 17.644871
61.655 17.073582
61.660 16.814848
61.665 17.17141
61.670 17.258114
61.675 16.877975
61.680 17.249685
61.685 17.045298
61.690 16.993551
61.695 16.706074
61.700 16.74666
61.705 16.489546
61.710 16.965788
61.715 17.178236
61.720 17.333277
61.725 17.634769
61.730 18.087736
61.735 17.588493
61.740 17.841137
61.745 17.796354
61.750 17.718052
61.755 17.541189
61.760 17.398218
61.765 16.922836
61.770 17.167376
61.775 17.427706
61.780 17.281925
61.785 16.865562
61.790 16.484163
61.795 16.225857
61.800 16.72879
61.805 17.222597
61.810 16.652494
61.815 16.539326
61.820 16.306948
61.825 16.918032
61.830 17.719252
61.835 17.2225
61.840 16.415186
61.845 15.788934
61.850 15.905609
61.855 16.545753
61.860 16.113821
61.865 15.725715
61.870 15.945422
61.875 16.389561
61.880 17.389469
61.885 17.881203
61.890 17.92577
61.895 17.631964
61.900 17.203121
61.905 17.375521
61.910 17.558464
61.915 17.001904
61.920 16.326313
61.925 15.796249
61.930 15.595597
61.935 15.744987
61.940 16.140631
61.945 15.733653
61.950 16.018217
61.955 16.383894
61.960 16.878176
61.965 17.107885
61.970 16.93676
61.975 16.683565
61.980 16.621159
61.985 16.321943
61.990 15.717686
61.995 15.041072
62.000 15.365195
62.005 15.984429
62.010 16.4648
62.015 16.812277
62.020 17.083916
62.025 17.57976
62.030 18.036701
62.035 17.905859
62.040 17.580235
62.045 16.682114
62.050 16.685398
62.055 16.59392
62.060 16.691738
62.065 16.424877
62.070 16.470726
62.075 16.794107
62.080 17.55732
62.085 17.600353
62.090 18.227898
62.095 18.669523
62.100 18.731104
62.105 18.257481
62.110 18.373552
62.115 18.552448
62.120 18.266691
62.125 17.543634
62.130 17.459097
62.135 17.431698
62.140 17.853195
62.145 17.785524
62.150 17.807684
62.155 17.897242
62.160 18.027433
62.165 18.124708
62.170 19.006557
62.175 19.380697
62.180 19.069181
62.185 18.951511
62.190 18.827808
62.195 18.707521
62.200 18.490824
62.205 17.599154
62.210 17.069668
62.215 16.85914
62.220 16.85088
62.225 16.443214
62.230 15.977112
62.235 15.994252
62.240 16.063568
62.245 16.215576
62.250 16.575365
62.255 16.852749
62.260 17.16011
62.265 17.602039
62.270 17.345917
62.275 17.521473
62.280 16.995924
62.285 16.570095
62.290 16.518425
62.295 16.787254
62.300 16.034033
62.305 15.936924
62.310 16.148331
62.315 16.483606
62.320 16.724905
62.325 16.520552
62.330 16.638693
62.335 17.398476
62.340 17.343006
62.345 17.511267
62.350 17.776636
62.355 17.342804
62.360 17.253601
62.365 16.993723
62.370 16.457531
62.375 15.951798
62.380 14.833208
62.385 14.147128
62.390 13.790866
62.395 13.381667
62.400 14.03553
62.405 14.915058
62.410 15.60343
62.415 16.281004
62.420 16.964136
62.425 17.777727
62.430 18.559048
62.435 18.593983
62.440 18.413345
62.445 19.056091
62.450 19.639917
62.455 19.997656
62.460 19.882408
62.465 19.809586
62.470 19.980806
62.475 19.32025
62.480 18.283142
62.485 17.46846
62.490 17.477913
62.495 17.018217
62.500 16.633972
62.505 16.085106
62.510 16.032074
62.515 16.190174
62.520 16.403818
62.525 16.770065
62.530 17.143557
62.535 17.138243
62.540 17.583944
62.545 18.316704
62.550 19.060026
62.555 19.438896
62.560 18.917347
62.565 18.350548
62.570 17.670187
62.575 17.392227
62.580 17.05068
62.585 16.735912
62.590 16.218245
62.595 16.427465
62.600 16.857714
62.605 17.709978
62.610 18.066656
62.615 17.947376
62.620 16.817488
62.625 16.664467
62.630 16.295958
62.635 16.195375
62.640 15.666746
62.645 15.77687
62.650 15.955816
62.655 16.672009
62.660 16.807377
62.665 17.070683
62.670 16.643799
62.675 16.482559
62.680 15.803631
62.685 15.813867
62.690 15.757422
62.695 16.009525
62.700 16.083939
62.705 16.365833
62.710 16.962439
62.715 17.918709
62.720 18.415314
62.725 18.472084
62.730 18.132101
62.735 18.317593
62.740 18.835583
62.745 18.49452
62.750 17.724581
62.755 17.097111
62.760 17.128122
62.765 17.014427
62.770 16.533827
62.775 16.564543
62.780 16.93339
62.785 17.007717
62.790 17.119829
62.795 16.443356
62.800 16.799809
62.805 17.561157
62.810 17.059504
62.815 16.680552
62.820 16.924089
62.825 17.192217
62.830 18.312767
62.835 18.401663
62.840 17.924826
62.845 18.070972
62.850 18.331272
62.855 18.421341
62.860 18.321241
62.865 17.580837
62.870 17.035378
62.875 16.999283
62.880 17.027761
62.885 17.404041
62.890 17.211054
62.895 17.274111
62.900 17.447367
62.905 17.572369
62.910 18.114317
62.915 18.003984
62.920 17.226625
62.925 16.95714
62.930 16.85169
62.935 16.985773
62.940 16.559202
62.945 15.954801
62.950 15.954923
62.955 16.556639
62.960 16.852968
62.965 17.023912
62.970 16.785946
62.975 17.666712
62.980 17.927078
62.985 17.596573
62.990 17.091791
62.995 17.274323
63.000 17.359118
63.005 17.934519
63.010 17.389421
63.015 17.446697
63.020 17.686502
63.025 18.158337
63.030 18.184034
63.035 17.793285
63.040 17.756994
63.045 17.775928
63.050 17.536644
63.055 17.482559
63.060 17.136665
63.065 16.719395
63.070 16.801922
63.075 17.191135
63.080 17.751406
63.085 18.171268
63.090 18.330778
63.095 18.675163
63.100 19.604971
63.105 19.675144
63.110 19.072451
63.115 18.449873
63.120 18.260347
63.125 18.490213
63.130 17.763271
63.135 17.014942
63.140 16.835161
63.145 17.526926
63.150 18.152849
63.155 17.531033
63.160 17.879032
63.165 18.627338
63.170 18.48942
63.175 18.616446
63.180 18.123821
63.185 17.396702
63.190 17.649345
63.195 16.870731
63.200 16.446463
63.205 16.882135
63.210 16.612535
63.215 16.690577
63.220 17.352123
63.225 17.7619
63.230 17.80452
63.235 17.584648
63.240 17.634602
63.245 17.875872
63.250 17.760756
63.255 18.011194
63.260 17.89818
63.265 18.054289
63.270 18.405472
63.275 18.744478
63.280 18.849134
63.285 18.936155
63.290 18.766216
63.295 18.340012
63.300 17.985184
63.305 17.847366
63.310 17.36438
63.315 17.991121
63.320 18.288267
63.325 18.014477
63.330 18.520252
63.335 18.533758
63.340 18.715775
63.345 18.85467
63.350 17.830191
63.355 17.517675
63.360 17.645031
63.365 17.707336
63.370 18.341515
63.375 18.307829
63.380 18.378357
63.385 18.230841
63.390 18.082863
63.395 18.275976
63.400 18.159096
63.405 17.985287
63.410 17.376514
63.415 17.064245
63.420 17.136219
63.425 16.672449
63.430 16.107847
63.435 16.37134
63.440 16.553831
63.445 17.155775
63.450 17.277969
63.455 17.927771
63.460 18.778477
63.465 19.10767
63.470 19.599382
63.475 19.48089
63.480 19.655561
63.485 20.374386
63.490 20.038767
63.495 19.580442
63.500 19.023563
63.505 18.455105
63.510 18.255758
63.515 17.196648
63.520 16.276896
63.525 15.974049
63.530 16.831438
63.535 17.575706
63.540 17.594946
63.545 17.602095
63.550 17.961899
63.555 18.056091
63.560 18.327389
63.565 17.747042
63.570 17.186569
63.575 17.032566
63.580 17.204124
63.585 16.933107
63.590 17.034487
63.595 17.227186
63.600 17.445194
63.605 17.515417
63.610 17.760601
63.615 17.832661
63.620 17.806198
63.625 18.073318
63.630 18.084608
63.635 17.944918
63.640 17.690052
63.645 17.395836
63.650 17.857069
63.655 18.33816
63.660 18.615129
63.665 18.5783
63.670 18.680456
63.675 18.659836
63.680 18.037167
63.685 17.556993
63.690 17.211205
63.695 16.59535
63.700 16.003359
63.705 16.154039
63.710 16.627892
63.715 17.511034
63.720 17.379457
63.725 17.270983
63.730 17.154102
63.735 17.59469
63.740 17.547569
63.745 17.516233
63.750 17.753401
63.755 18.908268
63.760 19.717083
63.765 20.224602
63.770 19.592625
63.775 19.239643
63.780 19.373083
63.785 18.48752
63.790 17.192907
63.795 17.012396
63.800 17.007261
63.805 17.258787
63.810 17.241932
63.815 17.525997
63.820 17.676184
63.825 17.883915
63.830 17.906544
63.835 18.164213
63.840 18.445824
63.845 18.654968
63.850 18.115402
63.855 18.128433
63.860 18.84687
63.865 18.990282
63.870 18.546244
63.875 18.441896
63.880 18.172144
63.885 18.445999
63.890 18.548807
63.895 18.112816
63.900 17.528326
63.905 17.178473
63.910 17.360935
63.915 17.359613
63.920 17.45223
63.925 17.3272
63.930 17.587889
63.935 17.826557
63.940 18.453573
63.945 18.291351
63.950 18.089346
63.955 17.783421
63.960 18.043634
63.965 17.664455
63.970 17.858042
63.975 17.503534
63.980 18.122223
63.985 18.492887
63.990 18.465504
63.995 18.813354
64.000 19.089312
64.005 18.710632
64.010 18.372305
64.015 18.020613
64.020 18.419619
64.025 18.848095
64.030 18.683577
64.035 18.330057
64.040 18.536633
64.045 18.559074
64.050 18.604097
64.055 18.347549
64.060 18.127575
64.065 18.085567
64.070 18.00169
64.075 18.211668
64.080 18.791697
64.085 18.823753
64.090 19.051649
64.095 18.86393
64.100 18.699732
64.105 19.150284
64.110 18.897753
64.115 18.481802
64.120 18.193203
64.125 17.5688
64.130 17.635782
64.135 17.878395
64.140 17.450335
64.145 17.27739
64.150 17.157631
64.155 17.484432
64.160 17.53429
64.165 17.222385
64.170 16.942793
64.175 17.467752
64.180 17.362932
64.185 16.933193
64.190 16.592276
64.195 16.335228
64.200 16.218548
64.205 16.19573
64.210 15.532526
64.215 15.650959
64.220 15.814648
64.225 16.576681
64.230 17.321016
64.235 17.689987
64.240 18.258484
64.245 18.879404
64.250 19.255413
64.255 19.705429
64.260 19.883434
64.265 19.801975
64.270 19.567604
64.275 19.054157
64.280 18.727278
64.285 18.967943
64.290 19.147259
64.295 18.305174
64.300 18.119074
64.305 18.309662
64.310 19.010962
64.315 19.619707
64.320 19.31213
64.325 19.072443
64.330 18.733477
64.335 18.686411
64.340 18.755083
64.345 17.9965
64.350 17.046581
64.355 16.653282
64.360 16.313004
64.365 16.978235
64.370 16.897102
64.375 16.637793
64.380 17.198862
64.385 17.57074
64.390 18.353197
64.395 19.404135
64.400 19.402973
64.405 19.735189
64.410 19.825237
64.415 19.89113
64.420 19.983967
64.425 19.363132
64.430 18.631853
64.435 18.419527
64.440 18.668646
64.445 18.832525
64.450 18.583252
64.455 18.876007
64.460 18.777042
64.465 18.726198
64.470 19.654959
64.475 19.836182
64.480 19.971111
64.485 19.907478
64.490 20.379238
64.495 20.762205
64.500 21.084743
64.505 20.452019
64.510 19.893335
64.515 19.786322
64.520 19.63834
64.525 19.077612
64.530 19.224112
64.535 19.18746
64.540 19.023874
64.545 19.282274
64.550 19.04986
64.555 19.408579
64.560 19.755175
64.565 19.644697
64.570 19.853909
64.575 19.739584
64.580 19.791277
64.585 19.942413
64.590 19.643061
64.595 19.364998
64.600 18.724188
64.605 18.441397
64.610 18.660316
64.615 18.714396
64.620 19.076105
64.625 19.026926
64.630 19.569111
64.635 19.816603
64.640 19.701118
64.645 19.454247
64.650 19.372484
64.655 19.391369
64.660 19.267246
64.665 18.867727
64.670 19.448849
64.675 19.908964
64.680 20.214287
64.685 20.005646
64.690 19.797924
64.695 20.029631
64.700 20.243311
64.705 19.792877
64.710 20.141554
64.715 20.121044
64.720 20.462255
64.725 20.511234
64.730 20.626774
64.735 21.46002
64.740 22.233795
64.745 22.02766
64.750 22.089113
64.755 22.067301
64.760 22.360937
64.765 21.643297
64.770 20.593279
64.775 19.814114
64.780 19.775612
64.785 19.594194
64.790 19.58317
64.795 19.23913
64.800 19.841084
64.805 19.759068
64.810 20.521029
64.815 20.376455
64.820 20.857277
64.825 20.107796
64.830 19.836565
64.835 20.227573
64.840 19.858583
64.845 19.423769
64.850 19.584208
64.855 19.136532
64.860 19.769194
64.865 20.434769
64.870 20.181368
64.875 20.683052
64.880 19.978842
64.885 19.971333
64.890 20.078659
64.895 20.146049
64.900 19.684965
64.905 19.486933
64.910 19.748903
64.915 20.475924
64.920 20.586311
64.925 20.624655
64.930 20.317257
64.935 20.693872
64.940 21.298111
64.945 21.392696
64.950 21.103113
64.955 20.582159
64.960 20.551855
64.965 21.156237
64.970 21.000517
64.975 21.339443
64.980 22.111904
64.985 22.524508
64.990 22.944679
64.995 23.390671
65.000 23.640232
65.005 23.726902
65.010 23.453083
65.015 22.707922
65.020 23.763023
65.025 24.928802
65.030 24.96525
65.035 24.758547
65.040 24.627951
65.045 24.229107
65.050 23.818235
65.055 22.963982
65.060 22.991209
65.065 23.075165
65.070 22.890862
65.075 23.012169
65.080 23.750929
65.085 24.336061
65.090 24.208515
65.095 23.44857
65.100 23.531445
65.105 24.037031
65.110 24.158039
65.115 23.889545
65.120 23.566296
65.125 23.370047
65.130 23.277615
65.135 23.150177
65.140 22.452654
65.145 21.725348
65.150 21.208668
65.155 21.403584
65.160 21.757782
65.165 22.035967
65.170 21.953852
65.175 21.735518
65.180 22.654526
65.185 23.543941
65.190 23.247675
65.195 22.585735
65.200 22.737715
65.205 23.019766
65.210 23.509619
65.215 22.918716
65.220 22.366503
65.225 22.828737
65.230 23.673393
65.235 23.006041
65.240 23.124693
65.245 22.591221
65.250 22.576015
65.255 22.01865
65.260 21.905951
65.265 21.723528
65.270 22.510769
65.275 22.611639
65.280 22.814926
65.285 23.028339
65.290 23.613777
65.295 23.709694
65.300 23.681744
65.305 22.900024
65.310 22.422365
65.315 22.625259
65.320 22.647999
65.325 22.529991
65.330 22.706062
65.335 23.036961
65.340 23.651283
65.345 23.579782
65.350 24.380928
65.355 24.92124
65.360 25.079655
65.365 24.990583
65.370 24.60174
65.375 24.43956
65.380 24.952387
65.385 24.518856
65.390 23.980957
65.395 24.086212
65.400 23.597576
65.405 23.414585
65.410 23.647909
65.415 23.299295
65.420 23.158108
65.425 23.355459
65.430 22.809671
65.435 23.15604
65.440 24.127365
65.445 23.799425
65.450 23.91193
65.455 24.304659
65.460 24.442238
65.465 24.666859
65.470 24.696051
65.475 24.338762
65.480 24.767313
65.485 24.831551
65.490 24.873583
65.495 25.020351
65.500 25.217138
65.505 25.203302
65.510 25.143717
65.515 25.139503
65.520 25.076822
65.525 25.002924
65.530 25.544382
65.535 25.911219
65.540 26.187572
65.545 27.121698
65.550 28.616112
65.555 28.628962
65.560 28.194773
65.565 27.638081
65.570 27.919497
65.575 28.182423
65.580 28.128977
65.585 27.937687
65.590 28.606674
65.595 29.265013
65.600 29.351185
65.605 29.523624
65.610 30.388386
65.615 31.383415
65.620 32.055992
65.625 32.218071
65.630 32.297813
65.635 33.120819
65.640 33.213909
65.645 33.260139
65.650 33.271484
65.655 32.903507
65.660 33.481224
65.665 33.418194
65.670 33.177444
65.675 33.522999
65.680 33.220886
65.685 32.041691
65.690 31.950001
65.695 31.684227
65.700 32.406551
65.705 33.164356
65.710 33.821415
65.715 33.803989
65.720 34.251423
65.725 35.217087
65.730 35.473461
65.735 35.152214
65.740 34.861877
65.745 34.381161
65.750 34.596935
65.755 34.605419
65.760 34.206032
65.765 34.379013
65.770 34.899902
65.775 35.016602
65.780 34.327427
65.785 34.552917
65.790 34.989815
65.795 34.063969
65.800 33.843193
65.805 33.581032
65.810 33.335907
65.815 33.91077
65.820 33.768585
65.825 33.7304
65.830 34.91143
65.835 35.573223
65.840 35.899696
65.845 35.721283
65.850 35.749962
65.855 36.242428
65.860 36.06797
65.865 36.103264
65.870 35.855022
65.875 35.53278
65.880 36.344501
65.885 36.989597
65.890 36.646091
65.895 37.258266
65.900 36.693699
65.905 37.391228
65.910 37.87281
65.915 36.532539
65.920 36.162457
65.925 36.363396
65.930 36.1772
65.935 36.549351
65.940 36.368835
65.945 37.012764
65.950 38.400928
65.955 38.138687
65.960 38.101002
65.965 37.955452
65.970 38.164612
65.975 37.54427
65.980 36.843212
65.985 36.420246
65.990 36.29203
65.995 36.270458
66.000 36.994034
66.005 37.492237
66.010 37.192081
66.015 37.078888
66.020 37.554951
66.025 37.887955
66.030 38.482815
66.035 38.170284
66.040 38.184666
66.045 38.835949
66.050 38.676224
66.055 38.940407
66.060 38.89941
66.065 38.775856
66.070 38.317181
66.075 37.205109
66.080 36.941929
66.085 37.302948
66.090 37.023521
66.095 37.294243
66.100 36.271557
66.105 36.431038
66.110 37.523251
66.115 37.540443
66.120 37.113892
66.125 36.988503
66.130 36.577652
66.135 36.464279
66.140 36.137943
66.145 35.258305
66.150 34.734718
66.155 34.26339
66.160 34.542534
66.165 34.675644
66.170 35.153397
66.175 35.203171
66.180 35.379589
66.185 35.72765
66.190 36.444733
66.195 35.656158
66.200 35.241077
66.205 35.728516
66.210 35.753052
66.215 35.74271
66.220 35.974724
66.225 35.777
66.230 35.915726
66.235 35.142281
66.240 34.20826
66.245 34.372166
66.250 34.267269
66.255 33.200165
66.260 33.244396
66.265 33.375439
66.270 33.611534
66.275 33.671841
66.280 33.214882
66.285 33.220959
66.290 33.67952
66.295 33.744713
66.300 34.494556
66.305 35.135124
66.310 34.961037
66.315 34.790588
66.320 34.697479
66.325 34.74934
66.330 34.061646
66.335 32.780033
66.340 32.69849
66.345 32.009399
66.350 31.564442
66.355 30.779743
66.360 31.11554
66.365 31.425165
66.370 31.632933
66.375 30.711311
66.380 31.052135
66.385 31.656437
66.390 31.652184
66.395 30.85137
66.400 30.106073
66.405 30.265892
66.410 30.687746
66.415 30.477451
66.420 30.531387
66.425 30.886309
66.430 30.871893
66.435 30.419464
66.440 30.025345
66.445 29.702459
66.450 29.271214
66.455 28.958138
66.460 28.28117
66.465 28.379004
66.470 28.821314
66.475 28.907681
66.480 28.859194
66.485 29.202463
66.490 29.363646
66.495 29.841364
66.500 30.340145
66.505 30.653913
66.510 30.69129
66.515 31.028671
66.520 30.839308
66.525 30.061604
66.530 29.344864
66.535 28.434341
66.540 28.392168
66.545 28.675993
66.550 28.369551
66.555 28.142143
66.560 28.499109
66.565 28.924541
66.570 29.1523
66.575 28.586496
66.580 27.872553
66.585 27.13088
66.590 26.899361
66.595 27.073446
66.600 26.821775
66.605 26.519144
66.610 26.353355
66.615 25.797171
66.620 25.965132
66.625 26.423513
66.630 26.263983
66.635 25.825211
66.640 25.626066
66.645 25.374531
66.650 25.347458
66.655 25.447895
66.660 25.172226
66.665 24.909607
66.670 25.065603
66.675 25.39617
66.680 26.309799
66.685 26.25396
66.690 25.769308
66.695 25.721443
66.700 25.865957
66.705 26.385218
66.710 25.947298
66.715 25.887575
66.720 26.157778
66.725 25.939064
66.730 25.258636
66.735 24.567541
66.740 23.576509
66.745 23.657078
66.750 23.22023
66.755 23.031519
66.760 22.90263
66.765 22.652025
66.770 22.777527
66.775 22.827087
66.780 22.186491
66.785 21.811392
66.790 21.922661
66.795 22.025457
66.800 22.338112
66.805 22.15974
66.810 21.645584
66.815 21.968487
66.820 22.311954
66.825 21.987005
66.830 21.253742
66.835 21.368254
66.840 21.853201
66.845 22.469765
66.850 22.424997
66.855 22.200897
66.860 22.566462
66.865 23.042578
66.870 22.648081
66.875 21.955191
66.880 21.691542
66.885 21.627119
66.890 21.439043
66.895 22.189381
66.900 22.343321
66.905 22.976894
66.910 23.018208
66.915 23.820845
66.920 24.753407
66.925 25.164106
66.930 24.51214
66.935 24.483665
66.940 24.230745
66.945 24.108963
66.950 23.299219
66.955 22.131498
66.960 21.634327
66.965 21.397366
66.970 21.164783
66.975 21.048426
66.980 21.62447
66.985 21.708797
66.990 22.031881
66.995 22.545954
67.000 22.956738
67.005 23.235109
67.010 23.731962
67.015 23.837389
67.020 23.749384
67.025 23.503426
67.030 23.188246
67.035 23.207672
67.040 22.529751
67.045 21.393929
67.050 20.794298
67.055 20.896793
67.060 20.85445
67.065 20.815294
67.070 20.156965
67.075 20.693815
67.080 21.623171
67.085 21.733057
67.090 21.938547
67.095 21.994419
67.100 21.970806
67.105 21.759548
67.110 21.278471
67.115 21.319569
67.120 21.669178
67.125 21.871799
67.130 21.731594
67.135 22.046627
67.140 22.615387
67.145 23.115242
67.150 22.976799
67.155 23.204136
67.160 22.961779
67.165 22.891975
67.170 22.545198
67.175 22.386999
67.180 21.990499
67.185 21.542336
67.190 21.840977
67.195 21.906565
67.200 22.383486
67.205 22.046425
67.210 22.235371
67.215 22.38748
67.220 22.573696
67.225 22.338707
67.230 22.00536
67.235 21.712946
67.240 21.93252
67.245 22.201258
67.250 22.462248
67.255 22.070938
67.260 21.665657
67.265 21.697165
67.270 21.441425
67.275 21.494652
67.280 20.571627
67.285 20.203678
67.290 20.664625
67.295 21.285408
67.300 21.747217
67.305 22.292421
67.310 22.453087
67.315 22.737064
67.320 22.781563
67.325 22.306551
67.330 22.295898
67.335 22.22423
67.340 22.253056
67.345 22.151026
67.350 22.524546
67.355 22.549597
67.360 22.507128
67.365 21.98226
67.370 21.425907
67.375 20.904436
67.380 21.070204
67.385 21.139723
67.390 21.017889
67.395 20.707756
67.400 20.838297
67.405 21.200027
67.410 21.637228
67.415 21.005112
67.420 20.36532
67.425 20.56366
67.430 21.588827
67.435 21.631805
67.440 21.094587
67.445 21.195099
67.450 21.899717
67.455 21.724913
67.460 22.121172
67.465 21.797758
67.470 21.68601
67.475 21.798159
67.480 21.799568
67.485 22.277878
67.490 23.176699
67.495 22.743288
67.500 22.06398
67.505 22.364389
67.510 22.243383
67.515 21.787365
67.520 21.084791
67.525 20.855358
67.530 20.703236
67.535 21.008829
67.540 21.132364
67.545 21.568098
67.550 21.639553
67.555 22.239347
67.560 22.234091
67.565 22.326841
67.570 22.436695
67.575 22.053589
67.580 22.004629
67.585 21.65193
67.590 21.011795
67.595 20.895529
67.600 21.731297
67.605 21.540176
67.610 21.688097
67.615 21.288776
67.620 21.014252
67.625 20.76758
67.630 20.978605
67.635 20.099289
67.640 20.445551
67.645 20.630049
67.650 21.023983
67.655 20.986471
67.660 20.959919
67.665 20.722549
67.670 21.017607
67.675 20.80537
67.680 19.925549
67.685 19.975775
67.690 20.807779
67.695 20.913427
67.700 20.455059
67.705 19.943445
67.710 19.817091
67.715 19.753017
67.720 19.71649
67.725 19.266556
67.730 19.401169
67.735 20.099798
67.740 20.39521
67.745 21.09128
67.750 21.747204
67.755 22.008738
67.760 22.191008
67.765 22.057476
67.770 21.890911
67.775 22.069239
67.780 22.36924
67.785 22.539824
67.790 22.18067
67.795 21.989349
67.800 21.709824
67.805 21.409266
67.810 21.120754
67.815 20.846788
67.820 20.149347
67.825 20.128393
67.830 20.429251
67.835 20.901754
67.840 21.0863
67.845 20.538128
67.850 19.972748
67.855 20.228476
67.860 20.584293
67.865 20.045059
67.870 20.723606
67.875 21.038221
67.880 21.602011
67.885 22.239939
67.890 22.314409
67.895 22.708321
67.900 23.362038
67.905 22.896271
67.910 22.972383
67.915 23.080513
67.920 23.103691
67.925 22.946728
67.930 22.821192
67.935 22.81958
67.940 22.690325
67.945 22.419275
67.950 21.856249
67.955 21.993851
67.960 22.185074
67.965 21.8638
67.970 21.307972
67.975 20.917542
67.980 20.353046
67.985 19.892567
67.990 19.562017
67.995 18.982405
68.000 18.608948
68.005 19.044527
68.010 19.933189
68.015 20.751169
68.020 21.313332
68.025 21.412283
68.030 22.006674
68.035 21.77631
68.040 20.999481
68.045 20.781414
68.050 20.566643
68.055 20.108244
68.060 19.798487
68.065 19.342625
68.070 19.432299
68.075 19.914818
68.080 19.939627
68.085 19.963007
68.090 20.700247
68.095 20.986094
68.100 21.36676
68.105 21.430733
68.110 20.987
68.115 21.171413
68.120 21.44895
68.125 21.279036
68.130 21.81827
68.135 21.886589
68.140 22.194218
68.145 21.93549
68.150 21.489458
68.155 21.784557
68.160 21.656223
68.165 21.129633
68.170 20.797102
68.175 20.38311
68.180 20.61825
68.185 20.538162
68.190 20.1756
68.195 20.122107
68.200 19.816381
68.205 19.601767
68.210 19.821777
68.215 19.867012
68.220 19.557606
68.225 19.103216
68.230 18.969477
68.235 19.791933
68.240 20.513397
68.245 20.579985
68.250 20.591286
68.255 20.33869
68.260 20.759657
68.265 21.405252
68.270 20.787745
68.275 20.199253
68.280 20.118164
68.285 20.24152
68.290 20.981232
68.295 20.734179
68.300 20.152857
68.305 19.881989
68.310 20.227913
68.315 20.815746
68.320 20.990278
68.325 20.386343
68.330 20.164789
68.335 19.942768
68.340 19.968489
68.345 19.762518
68.350 19.559692
68.355 20.35125
68.360 20.696623
68.365 20.688265
68.370 21.307224
68.375 21.581696
68.380 21.264751
68.385 20.809429
68.390 20.188492
68.395 20.40402
68.400 20.437666
68.405 19.996803
68.410 20.383165
68.415 19.966362
68.420 19.764862
68.425 19.560476
68.430 19.617477
68.435 19.926889
68.440 19.823406
68.445 19.732153
68.450 20.271683
68.455 20.196503
68.460 20.061522
68.465 20.517921
68.470 20.741314
68.475 21.415388
68.480 21.417664
68.485 21.530664
68.490 21.717218
68.495 22.14348
68.500 21.650055
68.505 21.485273
68.510 21.268541
68.515 21.01675
68.520 21.077251
68.525 20.649946
68.530 20.258402
68.535 20.268484
68.540 20.115337
68.545 20.346235
68.550 20.0846
68.555 19.872395
68.560 20.038544
68.565 19.888298
68.570 19.627546
68.575 20.23098
68.580 20.086061
68.585 20.319401
68.590 20.411869
68.595 20.736135
68.600 21.294405
68.605 21.33814
68.610 20.971069
68.615 21.485991
68.620 21.688742
68.625 22.210346
68.630 22.274351
68.635 22.102762
68.640 22.142559
68.645 21.607275
68.650 21.743374
68.655 21.424948
68.660 20.985943
68.665 20.956707
68.670 21.451843
68.675 21.613848
68.680 22.307812
68.685 21.991705
68.690 22.328125
68.695 22.720459
68.700 22.697214
68.705 22.37079
68.710 22.220135
68.715 21.332563
68.720 21.008993
68.725 21.858616
68.730 22.172268
68.735 21.677149
68.740 21.703148
68.745 21.956106
68.750 22.816786
68.755 22.620291
68.760 22.098925
68.765 21.893503
68.770 22.074581
68.775 21.810184
68.780 21.673283
68.785 21.446634
68.790 21.754282
68.795 21.200115
68.800 21.281376
68.805 21.999863
68.810 22.047182
68.815 22.301498
68.820 22.096489
68.825 21.858936
68.830 21.809868
68.835 21.736801
68.840 21.185894
68.845 21.31464
68.850 20.841749
68.855 20.833206
68.860 20.992476
68.865 21.323402
68.870 21.284945
68.875 21.579266
68.880 21.80883
68.885 21.839157
68.890 21.966436
68.895 22.025625
68.900 22.157793
68.905 22.330126
68.910 22.323845
68.915 22.479797
68.920 23.014324
68.925 22.977882
68.930 22.828527
68.935 22.315632
68.940 22.748457
68.945 22.243574
68.950 22.171003
68.955 22.581255
68.960 22.839579
68.965 23.103146
68.970 22.729197
68.975 22.157831
68.980 22.322933
68.985 22.095217
68.990 21.852449
68.995 22.296288
69.000 23.024771
69.005 23.96718
69.010 24.483341
69.015 24.932755
69.020 25.170713
69.025 24.958778
69.030 24.603443
69.035 24.605463
69.040 24.505884
69.045 24.274508
69.050 24.147778
69.055 24.147829
69.060 24.463903
69.065 24.44627
69.070 24.371243
69.075 24.341385
69.080 24.316046
69.085 25.246685
69.090 25.432404
69.095 25.183105
69.100 25.389088
69.105 25.481546
69.110 25.879625
69.115 25.945711
69.120 25.773067
69.125 25.646622
69.130 25.36499
69.135 24.856781
69.140 24.351728
69.145 24.361322
69.150 24.87554
69.155 24.799646
69.160 25.029919
69.165 25.504923
69.170 25.676493
69.175 25.915077
69.180 25.979591
69.185 25.840752
69.190 26.013462
69.195 25.810177
69.200 25.354294
69.205 25.423689
69.210 25.203327
69.215 25.366627
69.220 25.735817
69.225 25.711777
69.230 25.502415
69.235 25.741304
69.240 26.469679
69.245 27.035551
69.250 26.603544
69.255 25.48284
69.260 24.816515
69.265 25.768715
69.270 26.265903
69.275 26.085423
69.280 26.772108
69.285 27.541101
69.290 28.809156
69.295 29.13196
69.300 29.182482
69.305 29.08077
69.310 28.91769
69.315 28.490005
69.320 27.516071
69.325 28.125814
69.330 28.891533
69.335 28.849171
69.340 28.429644
69.345 28.866911
69.350 29.167273
69.355 29.837902
69.360 28.731329
69.365 28.557766
69.370 28.49276
69.375 28.842787
69.380 29.004662
69.385 28.838245
69.390 28.395788
69.395 29.091146
69.400 28.392418
69.405 28.357641
69.410 28.51586
69.415 27.694159
69.420 27.517834
69.425 27.10911
69.430 27.225443
69.435 27.981308
69.440 27.999821
69.445 28.558588
69.450 29.220345
69.455 29.346897
69.460 29.388586
69.465 28.932238
69.470 28.648603
69.475 28.188267
69.480 28.259668
69.485 28.663263
69.490 29.148905
69.495 29.622339
69.500 29.976532
69.505 30.012054
69.510 29.819221
69.515 29.234951
69.520 28.455296
69.525 27.850815
69.530 27.723257
69.535 27.443388
69.540 27.153778
69.545 26.886541
69.550 26.537683
69.555 27.012707
69.560 27.559776
69.565 27.435385
69.570 27.770401
69.575 28.313641
69.580 28.636778
69.585 28.74947
69.590 28.317726
69.595 27.35692
69.600 27.415461
69.605 26.795271
69.610 26.523417
69.615 26.409643
69.620 26.639778
69.625 27.840134
69.630 28.603621
69.635 28.496105
69.640 29.358454
69.645 30.071617
69.650 30.212313
69.655 29.625051
69.660 28.275639
69.665 27.876896
69.670 28.057205
69.675 27.510406
69.680 27.221058
69.685 27.000425
69.690 27.210529
69.695 27.380848
69.700 27.399746
69.705 27.148878
69.710 27.141762
69.715 26.921366
69.720 27.117825
69.725 27.306862
69.730 28.279131
69.735 28.487951
69.740 28.673836
69.745 28.440493
69.750 28.210398
69.755 27.99791
69.760 27.468864
69.765 26.774933
69.770 26.840321
69.775 26.415689
69.780 26.041508
69.785 25.807451
69.790 25.177061
69.795 25.52569
69.800 26.232687
69.805 25.398371
69.810 25.857359
69.815 26.177036
69.820 26.860111
69.825 26.56106
69.830 25.72822
69.835 25.176689
69.840 25.149338
69.845 24.53256
69.850 24.133183
69.855 24.334656
69.860 25.238413
69.865 25.173744
69.870 25.197006
69.875 25.181154
69.880 25.225801
69.885 25.031244
69.890 23.939806
69.895 23.585974
69.900 22.654272
69.905 23.073111
69.910 23.864653
69.915 23.633675
69.920 23.399446
69.925 23.748293
69.930 23.648561
69.935 23.994038
69.940 22.976677
69.945 22.610352
69.950 22.72698
69.955 22.18989
69.960 21.905792
69.965 20.681873
69.970 21.082621
69.975 21.197201
69.980 20.911831
69.985 21.676054
69.990 22.222614
69.995 22.443834
70.000 23.654133
70.005 23.338392
70.010 22.702805
70.015 22.417444
70.020 22.459599
70.025 22.289968
70.030 22.751509
70.035 23.093197
70.040 22.768255
70.045 23.192865
70.050 22.818083
70.055 22.046312
70.060 21.874994
70.065 21.33552
70.070 20.949343
70.075 20.953371
70.080 21.332798
70.085 21.268888
70.090 21.629387
70.095 21.758049
70.100 21.146641
70.105 20.998209
70.110 20.666052
70.115 20.581974
70.120 21.08058
70.125 20.705845
70.130 20.54187
70.135 20.265633
70.140 20.042561
70.145 20.335499
70.150 19.895792
70.155 19.849913
70.160 20.098288
70.165 20.226496
70.170 21.368357
70.175 21.696688
70.180 21.05645
70.185 20.747643
70.190 20.505257
70.195 20.744038
70.200 20.899658
70.205 20.225542
70.210 19.946798
70.215 20.568832
70.220 20.667042
70.225 20.471786
70.230 19.916449
70.235 19.194061
70.240 19.411854
70.245 19.385941
70.250 19.195784
70.255 19.775852
70.260 19.665888
70.265 19.696669
70.270 19.592911
70.275 19.413593
70.280 19.931879
70.285 19.720083
70.290 19.298635
70.295 19.830215
70.300 19.58532
70.305 19.584961
70.310 19.201986
70.315 19.502554
70.320 19.54212
70.325 19.304558
70.330 19.338442
70.335 19.893019
70.340 20.074537
70.345 20.538406
70.350 20.115898
70.355 19.526007
70.360 19.44083
70.365 19.209003
70.370 18.989656
70.375 19.290071
70.380 18.90399
70.385 19.191399
70.390 19.929247
70.395 20.299774
70.400 20.371975
70.405 19.887114
70.410 19.117966
70.415 19.141689
70.420 18.641308
70.425 18.394184
70.430 18.057211
70.435 18.166512
70.440 19.293446
70.445 19.685349
70.450 19.470509
70.455 19.730194
70.460 19.970226
70.465 20.537092
70.470 20.325014
70.475 19.629562
70.480 19.825592
70.485 19.577597
70.490 19.439976
70.495 19.2055
70.500 18.944309
70.505 18.816845
70.510 19.250797
70.515 19.760229
70.520 20.157585
70.525 20.231863
70.530 20.63924
70.535 20.582283
70.540 20.482018
70.545 20.1721
70.550 19.384275
70.555 19.775543
70.560 19.466318
70.565 18.642908
70.570 18.982983
70.575 19.400675
70.580 19.348862
70.585 19.682804
70.590 19.399662
70.595 19.24334
70.600 19.549141
70.605 19.844059
70.610 19.889048
70.615 19.784624
70.620 19.409861
70.625 19.758768
70.630 19.81554
70.635 19.689375
70.640 18.936052
70.645 18.721441
70.650 19.071087
70.655 19.752176
70.660 19.820639
70.665 19.472902
70.670 19.396696
70.675 19.639318
70.680 19.093218
70.685 18.541803
70.690 18.251719
70.695 18.660824
70.700 18.743351
70.705 18.750723
70.710 19.144012
70.715 19.391773
70.720 18.772549
70.725 18.078012
70.730 17.650227
70.735 17.256458
70.740 17.12542
70.745 16.876392
70.750 17.533875
70.755 18.78211
70.760 18.897272
70.765 19.341507
70.770 20.176796
70.775 20.506464
70.780 20.336931
70.785 19.82789
70.790 19.853527
70.795 19.796915
70.800 19.725384
70.805 19.1007
70.810 18.997936
70.815 19.719919
70.820 19.785027
70.825 19.413208
70.830 19.662329
70.835 19.759996
70.840 20.216894
70.845 19.855484
70.850 20.051531
70.855 20.299917
70.860 20.515219
70.865 20.75205
70.870 20.358438
70.875 19.840206
70.880 20.224146
70.885 20.039412
70.890 20.015165
70.895 19.653406
70.900 19.647997
70.905 19.937632
70.910 20.441101
70.915 19.748302
70.920 18.458481
70.925 17.809977
70.930 17.280569
70.935 17.032812
70.940 16.799629
70.945 16.596035
70.950 17.117802
70.955 17.391918
70.960 18.149551
70.965 18.527344
70.970 18.632408
70.975 18.976688
70.980 18.539139
70.985 18.921392
70.990 20.072979
70.995 20.406504
71.000 20.370468
71.005 20.196066
71.010 20.395905
71.015 21.242874
71.020 20.788057
71.025 20.296515
71.030 19.976021
71.035 19.711327
71.040 19.263813
71.045 19.467438
71.050 19.086466
71.055 19.323267
71.060 19.428709
71.065 19.742811
71.070 20.034199
71.075 20.044195
71.080 19.015127
71.085 19.243977
71.090 18.837545
71.095 18.558525
71.100 18.815254
71.105 18.579605
71.110 18.117958
71.115 18.792685
71.120 18.966484
71.125 19.174133
71.130 19.409435
71.135 19.389339
71.140 19.646536
71.145 20.091164
71.150 19.3908
71.155 19.172508
71.160 18.427803
71.165 18.399847
71.170 17.996531
71.175 18.077765
71.180 18.292521
71.185 18.441208
71.190 18.065855
71.195 17.913425
71.200 17.941587
71.205 18.848232
71.210 19.012651
71.215 18.591238
71.220 18.388542
71.225 18.729286
71.230 19.110939
71.235 18.454533
71.240 17.954626
71.245 18.119354
71.250 18.33077
71.255 18.758465
71.260 18.793255
71.265 19.471098
71.270 19.676935
71.275 19.537619
71.280 19.22649
71.285 19.095173
71.290 18.574968
71.295 18.455011
71.300 18.123583
71.305 18.425327
71.310 18.339243
71.315 18.287184
71.320 18.128531
71.325 18.494255
71.330 18.086542
71.335 17.706726
71.340 17.174402
71.345 17.536764
71.350 18.136829
71.355 18.192007
71.360 18.143698
71.365 18.423752
71.370 18.667229
71.375 19.181801
71.380 19.412207
71.385 19.813456
71.390 20.045845
71.395 19.904039
71.400 19.663538
71.405 19.219553
71.410 19.017248
71.415 19.075731
71.420 18.376217
71.425 17.928602
71.430 18.071724
71.435 18.624914
71.440 18.781105
71.445 18.289875
71.450 17.852053
71.455 18.051723
71.460 18.479803
71.465 18.436241
71.470 18.193604
71.475 18.195541
71.480 18.085379
71.485 18.214996
71.490 18.316681
71.495 18.95575
71.500 18.682722
71.505 18.413435
71.510 18.503689
71.515 18.490276
71.520 18.688437
71.525 18.300436
71.530 17.911924
71.535 18.526848
71.540 19.446898
71.545 19.80386
71.550 20.207691
71.555 20.179516
71.560 20.203907
71.565 20.290789
71.570 19.634977
71.575 19.681568
71.580 19.438971
71.585 19.655165
71.590 19.378727
71.595 19.506489
71.600 19.367058
71.605 19.153578
71.610 19.307014
71.615 19.538454
71.620 19.599211
71.625 19.616611
71.630 19.652054
71.635 19.449608
71.640 19.555813
71.645 19.422573
71.650 19.287153
71.655 18.758348
71.660 18.410925
71.665 18.442905
71.670 19.146807
71.675 19.778843
71.680 20.011343
71.685 19.664991
71.690 19.949421
71.695 20.17277
71.700 20.082283
71.705 19.121187
71.710 18.50494
71.715 18.001245
71.720 18.991598
71.725 19.667881
71.730 20.030905
71.735 19.941875
71.740 20.516674
71.745 20.693127
71.750 20.545612
71.755 19.709648
71.760 19.333569
71.765 19.673235
71.770 19.437815
71.775 19.690369
71.780 19.603657
71.785 19.549402
71.790 19.533644
71.795 19.769693
71.800 19.783463
71.805 19.562769
71.810 19.475275
71.815 19.357456
71.820 19.596451
71.825 19.357082
71.830 18.638992
71.835 18.190865
71.840 18.274637
71.845 18.059774
71.850 18.052717
71.855 17.680122
71.860 17.821215
71.865 18.279499
71.870 18.691973
71.875 18.853004
71.880 18.995684
71.885 19.307844
71.890 18.955051
71.895 18.376923
71.900 18.365051
71.905 18.031363
71.910 18.025984
71.915 17.655926
71.920 17.356245
71.925 17.967688
71.930 17.758583
71.935 17.399374
71.940 16.973362
71.945 16.34621
71.950 16.242329
71.955 16.80962
71.960 16.556641
71.965 16.633739
71.970 16.896692
71.975 16.948404
71.980 17.495317
71.985 17.315231
71.990 17.459894
71.995 18.121111
72.000 18.201221
72.005 18.140062
72.010 18.765377
72.015 18.556351
72.020 19.211296
72.025 19.234737
72.030 18.949398
72.035 19.161671
72.040 18.814358
72.045 18.450142
72.050 18.859312
72.055 18.372993
72.060 18.440907
72.065 18.827753
72.070 18.460484
72.075 18.602592
72.080 18.501778
72.085 18.88648
72.090 18.872656
72.095 18.255211
72.100 18.307758
72.105 18.738346
72.110 19.198896
72.115 19.4944
72.120 19.02467
72.125 19.313736
72.130 19.460857
72.135 19.327541
72.140 19.096468
72.145 18.864315
72.150 18.445688
72.155 18.317917
72.160 18.664206
72.165 19.09207
72.170 19.355339
72.175 18.879145
72.180 18.819199
72.185 18.680325
72.190 18.344004
72.195 17.748043
72.200 17.00164
72.205 17.122852
72.210 17.524046
72.215 17.615511
72.220 17.625759
72.225 17.527689
72.230 18.176048
72.235 18.331463
72.240 18.491934
72.245 19.14086
72.250 19.196688
72.255 19.208805
72.260 19.07733
72.265 19.167423
72.270 19.581791
72.275 18.952662
72.280 18.554092
72.285 18.485487
72.290 18.721247
72.295 18.909288
72.300 18.562433
72.305 18.275928
72.310 18.448502
72.315 18.579723
72.320 18.634438
72.325 18.299141
72.330 18.233778
72.335 18.350882
72.340 18.632692
72.345 18.901894
72.350 18.119583
72.355 18.487514
72.360 18.634846
72.365 18.31266
72.370 17.835289
72.375 17.267935
72.380 17.339165
72.385 17.910965
72.390 17.923473
72.395 17.367899
72.400 17.825266
72.405 18.548895
72.410 19.234884
72.415 19.286758
72.420 19.179087
72.425 19.375105
72.430 19.490971
72.435 18.678362
72.440 17.749079
72.445 17.525864
72.450 17.433987
72.455 17.056765
72.460 17.003914
72.465 17.153677
72.470 17.692942
72.475 17.755024
72.480 17.327896
72.485 17.448874
72.490 18.062733
72.495 18.198505
72.500 18.065599
72.505 17.628193
72.510 17.706533
72.515 18.00948
72.520 17.82868
72.525 17.646736
72.530 17.841631
72.535 17.836163
72.540 18.220999
72.545 17.921452
72.550 18.456158
72.555 18.795319
72.560 19.013712
72.565 19.076508
72.570 19.209476
72.575 19.528254
72.580 19.295994
72.585 18.611759
72.590 18.131035
72.595 18.186604
72.600 18.182882
72.605 18.399973
72.610 18.262613
72.615 18.519413
72.620 18.432566
72.625 17.397625
72.630 16.989424
72.635 16.71594
72.640 16.276093
72.645 16.29571
72.650 16.392126
72.655 17.067945
72.660 17.873863
72.665 18.049746
72.670 18.024511
72.675 18.245031
72.680 18.71867
72.685 18.327538
72.690 18.277628
72.695 17.959618
72.700 17.644966
72.705 17.433535
72.710 16.51379
72.715 15.974893
72.720 15.882027
72.725 16.041882
72.730 15.625573
72.735 15.759274
72.740 16.018801
72.745 16.927847
72.750 17.149496
72.755 17.218273
72.760 17.892191
72.765 18.216139
72.770 17.924923
72.775 17.604097
72.780 17.435936
72.785 17.325682
72.790 17.317898
72.795 16.818472
72.800 16.712383
72.805 16.819788
72.810 16.139448
72.815 15.646726
72.820 15.42927
72.825 14.979633
72.830 15.069054
72.835 15.263315
72.840 15.95292
72.845 16.739363
72.850 16.667768
72.855 16.63063
72.860 17.175684
72.865 17.292515
72.870 16.933266
72.875 16.124002
72.880 16.057589
72.885 16.589701
72.890 16.504339
72.895 16.0846
72.900 16.603703
72.905 17.158009
72.910 17.772663
72.915 18.132528
72.920 18.010416
72.925 17.670225
72.930 17.432508
72.935 17.045502
72.940 17.335873
72.945 18.165154
72.950 18.084833
72.955 18.325167
72.960 18.679062
72.965 19.160017
72.970 18.928041
72.975 18.426464
72.980 17.693434
72.985 17.567657
72.990 18.211697
72.995 18.379671
73.000 18.042633
