!@!!GADDS PLOTSO FILE: Chi integration type
!@!!Title/SampleName: map-33
!@!!Comment: ?
!@!!User: Bruker Instrument Administrator
!@!!Site: University of Illinois Chicago
!@!!Frame: map-33_01_000.gfrm
!@!!Wavelengths    1.54184   1.54056   1.54439
!@!!Frame angles: 2Theta: 63.000 Omega: 50.000 Phi: 0.000 Chi: 90.000
!@!!Integration range: 2Theta: 53.000 to 73.000  Gamma: -105.000 to -75.000
!@!!Integration method: bin normalized
!@!N
!@!SS
!@!M
!@!L 0.0 0.0 0.0 0.0
!@!XDegrees
!@!YCounts
53.000 8.952901
53.005 8.644673
53.010 7.909303
53.015 7.625078
53.020 8.164312
53.025 9.083851
53.030 9.518595
53.035 9.713357
53.040 10.080504
53.045 10.424948
53.050 11.135715
53.055 11.376827
53.060 11.345665
53.065 11.242945
53.070 10.763754
53.075 10.68972
53.080 11.140408
53.085 11.058836
53.090 10.702333
53.095 10.598728
53.100 10.569054
53.105 10.869371
53.110 11.077465
53.115 10.569556
53.120 10.289054
53.125 10.468062
53.130 10.617891
53.135 11.07798
53.140 10.746617
53.145 10.542376
53.150 10.707107
53.155 10.587088
53.160 10.682819
53.165 11.026487
53.170 11.252901
53.175 11.308126
53.180 11.291151
53.185 11.194382
53.190 10.799274
53.195 10.137427
53.200 9.571156
53.205 9.336985
53.210 9.568844
53.215 9.752095
53.220 9.634894
53.225 9.917752
53.230 10.359811
53.235 10.621554
53.240 10.725941
53.245 10.606915
53.250 10.662267
53.255 11.045004
53.260 10.988407
53.265 10.855556
53.270 10.904131
53.275 10.960079
53.280 11.129892
53.285 11.173035
53.290 10.980239
53.295 11.150194
53.300 11.327288
53.305 11.155711
53.310 10.546832
53.315 10.576484
53.320 10.767163
53.325 10.894329
53.330 10.768025
53.335 10.499612
53.340 10.873158
53.345 11.122147
53.350 10.865191
53.355 10.7532
53.360 10.559895
53.365 10.409993
53.370 10.619514
53.375 10.471199
53.380 10.507675
53.385 10.690597
53.390 10.527099
53.395 10.560092
53.400 10.709845
53.405 10.205813
53.410 10.058019
53.415 10.259678
53.420 10.031339
53.425 10.650168
53.430 10.745753
53.435 10.871854
53.440 11.266104
53.445 11.706463
53.450 12.05142
53.455 12.267143
53.460 12.080051
53.465 12.112123
53.470 11.987292
53.475 11.616448
53.480 11.050359
53.485 10.616405
53.490 10.215878
53.495 10.123895
53.500 9.9176
53.505 10.046088
53.510 10.110674
53.515 9.949303
53.520 9.595382
53.525 9.783224
53.530 9.924032
53.535 10.376186
53.540 10.873057
53.545 11.117532
53.550 11.336658
53.555 11.815382
53.560 11.827077
53.565 11.461547
53.570 11.079958
53.575 10.849164
53.580 10.823342
53.585 10.723787
53.590 10.594659
53.595 10.387697
53.600 10.638146
53.605 10.816344
53.610 10.913253
53.615 11.148076
53.620 11.256883
53.625 11.699178
53.630 11.775362
53.635 11.334002
53.640 11.167129
53.645 10.897934
53.650 10.772106
53.655 10.483661
53.660 10.308571
53.665 10.639044
53.670 10.54099
53.675 10.601166
53.680 10.742002
53.685 11.132041
53.690 11.892181
53.695 12.229948
53.700 12.2306
53.705 12.574316
53.710 12.49593
53.715 12.111548
53.720 11.377729
53.725 10.840655
53.730 10.554749
53.735 10.90991
53.740 11.220874
53.745 11.56088
53.750 12.05669
53.755 12.532958
53.760 12.323372
53.765 12.337317
53.770 12.368541
53.775 12.071818
53.780 11.953598
53.785 11.808685
53.790 11.611914
53.795 11.643932
53.800 11.547071
53.805 11.424699
53.810 11.360389
53.815 11.204472
53.820 10.908608
53.825 11.028905
53.830 11.36247
53.835 11.396091
53.840 11.080249
53.845 10.863911
53.850 10.988968
53.855 10.913297
53.860 10.454813
53.865 10.083642
53.870 9.77218
53.875 10.192132
53.880 10.174353
53.885 10.009453
53.890 10.078096
53.895 9.947561
53.900 10.226625
53.905 10.181653
53.910 10.192187
53.915 10.708467
53.920 10.968626
53.925 11.151223
53.930 11.38166
53.935 11.240001
53.940 11.726077
53.945 11.981804
53.950 11.717138
53.955 11.78358
53.960 12.151785
53.965 12.673685
53.970 12.093915
53.975 11.482244
53.980 11.537429
53.985 11.570513
53.990 11.256744
53.995 10.259907
54.000 9.559212
54.005 10.253487
54.010 10.65696
54.015 10.712888
54.020 10.976071
54.025 11.406149
54.030 12.107725
54.035 12.862478
54.040 12.683576
54.045 12.106119
54.050 11.831676
54.055 11.551614
54.060 11.773582
54.065 11.191339
54.070 10.475869
54.075 10.543169
54.080 10.749965
54.085 10.956979
54.090 11.095675
54.095 11.362328
54.100 11.818845
54.105 11.710867
54.110 11.810958
54.115 12.33563
54.120 12.487856
54.125 12.365042
54.130 12.033649
54.135 11.788455
54.140 11.914449
54.145 11.450925
54.150 10.489435
54.155 10.266891
54.160 10.314671
54.165 10.464428
54.170 10.674351
54.175 11.02072
54.180 11.413893
54.185 11.810199
54.190 11.573789
54.195 11.263163
54.200 11.851135
54.205 11.709044
54.210 11.126216
54.215 10.534807
54.220 10.450664
54.225 10.88889
54.230 11.378239
54.235 11.289681
54.240 11.447086
54.245 11.980237
54.250 12.183645
54.255 12.597472
54.260 12.460384
54.265 11.595548
54.270 11.147261
54.275 11.206902
54.280 11.096375
54.285 11.182267
54.290 10.993542
54.295 11.086823
54.300 11.897757
54.305 12.444461
54.310 12.511914
54.315 12.365859
54.320 12.227312
54.325 12.188334
54.330 12.239959
54.335 12.144705
54.340 11.519582
54.345 11.618282
54.350 11.471653
54.355 11.139545
54.360 11.080616
54.365 10.945914
54.370 10.872665
54.375 11.315994
54.380 11.61622
54.385 11.859242
54.390 11.656549
54.395 11.507753
54.400 11.73993
54.405 11.697598
54.410 11.780865
54.415 11.433704
54.420 11.783597
54.425 12.37342
54.430 12.334575
54.435 11.651379
54.440 11.497641
54.445 11.876858
54.450 12.326634
54.455 12.297697
54.460 12.031766
54.465 12.340756
54.470 12.670753
54.475 12.71201
54.480 12.334437
54.485 12.330238
54.490 12.199533
54.495 12.065471
54.500 11.736079
54.505 11.522799
54.510 11.076572
54.515 10.649138
54.520 10.179247
54.525 10.524515
54.530 10.647499
54.535 10.861909
54.540 10.981535
54.545 11.201291
54.550 11.498811
54.555 11.307823
54.560 11.350683
54.565 11.186378
54.570 11.523803
54.575 11.497461
54.580 11.624357
54.585 11.661577
54.590 11.590454
54.595 11.770766
54.600 12.187143
54.605 11.774839
54.610 11.597763
54.615 11.355059
54.620 11.592822
54.625 11.404499
54.630 11.394547
54.635 11.308401
54.640 11.029565
54.645 10.972769
54.650 10.979367
54.655 10.966988
54.660 11.371176
54.665 11.443714
54.670 11.495795
54.675 12.122733
54.680 12.536345
54.685 12.193161
54.690 12.191869
54.695 11.899668
54.700 11.413725
54.705 11.274703
54.710 11.094026
54.715 11.055636
54.720 11.537049
54.725 11.483235
54.730 11.584245
54.735 11.753133
54.740 12.059414
54.745 11.969924
54.750 12.044805
54.755 11.394949
54.760 11.445882
54.765 11.228285
54.770 11.133842
54.775 11.246133
54.780 11.638758
54.785 12.135326
54.790 12.824152
54.795 12.900605
54.800 12.805268
54.805 12.622955
54.810 12.321429
54.815 12.015018
54.820 11.825295
54.825 11.285789
54.830 11.507763
54.835 12.449142
54.840 12.710274
54.845 13.104418
54.850 12.62797
54.855 12.306396
54.860 12.286119
54.865 11.953691
54.870 11.492239
54.875 11.918197
54.880 12.023477
54.885 12.362431
54.890 12.40156
54.895 12.139247
54.900 11.891001
54.905 11.686614
54.910 11.726615
54.915 12.294271
54.920 12.434818
54.925 12.578277
54.930 12.660586
54.935 12.800655
54.940 12.607907
54.945 12.163659
54.950 11.872049
54.955 11.813726
54.960 12.138511
54.965 12.401012
54.970 12.651586
54.975 12.732902
54.980 12.892275
54.985 12.943866
54.990 12.300243
54.995 12.01209
55.000 11.673301
55.005 11.475512
55.010 11.524711
55.015 11.509676
55.020 11.878654
55.025 12.679002
55.030 12.918569
55.035 13.304193
55.040 13.021804
55.045 12.532837
55.050 11.529519
55.055 10.88522
55.060 10.211441
55.065 9.896868
55.070 9.528481
55.075 9.866041
55.080 10.521494
55.085 10.562409
55.090 10.95896
55.095 11.250599
55.100 11.686277
55.105 12.027504
55.110 12.242218
55.115 12.208985
55.120 13.02483
55.125 13.413021
55.130 13.314947
55.135 13.003962
55.140 12.830165
55.145 12.985414
55.150 13.081971
55.155 12.554728
55.160 12.303902
55.165 12.589263
55.170 13.011601
55.175 12.775534
55.180 12.442543
55.185 12.414124
55.190 12.879026
55.195 12.899619
55.200 12.986121
55.205 12.708203
55.210 13.221023
55.215 13.234403
55.220 12.715776
55.225 12.17498
55.230 12.060854
55.235 12.137649
55.240 12.011324
55.245 11.479124
55.250 12.009879
55.255 13.125578
55.260 13.270259
55.265 13.143224
55.270 13.172146
55.275 13.051083
55.280 13.141171
55.285 12.155281
55.290 11.197814
55.295 11.498323
55.300 11.55809
55.305 11.340982
55.310 11.754038
55.315 12.00551
55.320 12.515944
55.325 12.878995
55.330 13.103731
55.335 13.554375
55.340 13.406763
55.345 13.145558
55.350 13.137551
55.355 13.182701
55.360 13.375432
55.365 12.802177
55.370 12.53034
55.375 12.621313
55.380 12.390531
55.385 12.359462
55.390 12.540295
55.395 12.158613
55.400 12.646019
55.405 12.758643
55.410 13.159879
55.415 13.346745
55.420 12.741007
55.425 12.802242
55.430 12.896186
55.435 12.29283
55.440 12.27787
55.445 12.238278
55.450 12.364404
55.455 12.730303
55.460 12.588668
55.465 13.000168
55.470 13.19674
55.475 12.642132
55.480 12.247092
55.485 12.390798
55.490 12.191841
55.495 12.557823
55.500 12.202332
55.505 12.351537
55.510 12.85468
55.515 12.887487
55.520 12.753231
55.525 12.614539
55.530 12.105841
55.535 12.506991
55.540 12.775056
55.545 13.475123
55.550 13.608641
55.555 13.952004
55.560 14.197957
55.565 14.326236
55.570 13.997127
55.575 13.458202
55.580 13.197501
55.585 12.946904
55.590 12.357222
55.595 12.59976
55.600 12.117794
55.605 11.750742
55.610 11.421781
55.615 11.525108
55.620 11.713499
55.625 11.782174
55.630 11.210374
55.635 11.264068
55.640 11.339546
55.645 10.989828
55.650 10.657499
55.655 10.978909
55.660 11.218287
55.665 11.704121
55.670 11.729978
55.675 12.210238
55.680 12.343785
55.685 12.325135
55.690 12.152184
55.695 11.788083
55.700 11.910508
55.705 12.349608
55.710 12.120581
55.715 12.36536
55.720 12.172331
55.725 12.371991
55.730 12.691522
55.735 12.745985
55.740 12.667142
55.745 12.928027
55.750 13.23093
55.755 13.218131
55.760 13.099359
55.765 12.712215
55.770 12.454347
55.775 12.842525
55.780 12.63923
55.785 12.484338
55.790 12.467835
55.795 12.036543
55.800 12.13698
55.805 12.248114
55.810 11.710004
55.815 11.614347
55.820 11.469624
55.825 11.504651
55.830 12.117191
55.835 12.160492
55.840 12.193145
55.845 13.084075
55.850 13.562987
55.855 13.888205
55.860 14.195251
55.865 14.611416
55.870 14.79325
55.875 15.029649
55.880 14.359076
55.885 13.916361
55.890 13.535207
55.895 13.097052
55.900 12.959345
55.905 13.318665
55.910 13.367003
55.915 13.165469
55.920 13.550406
55.925 14.063861
55.930 14.004874
55.935 13.925797
55.940 14.188259
55.945 14.825418
55.950 15.654804
55.955 15.4266
55.960 14.797303
55.965 14.478795
55.970 13.89184
55.975 13.208854
55.980 12.678692
55.985 11.490506
55.990 11.454748
55.995 12.139189
56.000 12.873186
56.005 13.066319
56.010 12.992701
56.015 12.93391
56.020 13.309079
56.025 13.686386
56.030 13.44634
56.035 13.372683
56.040 13.541844
56.045 13.533017
56.050 13.986594
56.055 13.739446
56.060 13.690973
56.065 14.094236
56.070 13.752981
56.075 13.484996
56.080 13.293288
56.085 13.173159
56.090 13.429103
56.095 12.985933
56.100 12.337645
56.105 12.331825
56.110 12.347708
56.115 12.298073
56.120 12.264605
56.125 12.202833
56.130 12.129092
56.135 12.318366
56.140 12.554053
56.145 12.85812
56.150 13.251884
56.155 13.679315
56.160 13.53846
56.165 13.508853
56.170 13.637083
56.175 13.866929
56.180 13.349359
56.185 13.051691
56.190 12.898795
56.195 13.135549
56.200 13.503739
56.205 13.30523
56.210 13.043601
56.215 13.183925
56.220 12.800061
56.225 12.833875
56.230 13.358202
56.235 13.208472
56.240 13.582544
56.245 14.089699
56.250 13.922995
56.255 14.186893
56.260 14.142178
56.265 14.133358
56.270 14.342775
56.275 13.552266
56.280 13.170897
56.285 13.090375
56.290 13.005049
56.295 13.031134
56.300 12.93564
56.305 12.597597
56.310 12.847253
56.315 13.095956
56.320 13.143064
56.325 13.34837
56.330 13.200482
56.335 12.98174
56.340 13.22897
56.345 13.25109
56.350 12.825094
56.355 13.020593
56.360 12.861036
56.365 12.633563
56.370 12.860362
56.375 13.08623
56.380 13.012451
56.385 13.425525
56.390 13.896994
56.395 14.47307
56.400 14.669712
56.405 14.561974
56.410 14.516441
56.415 14.486179
56.420 14.319245
56.425 14.562344
56.430 14.75
56.435 14.877441
56.440 14.328821
56.445 13.760931
56.450 13.680127
56.455 13.846353
56.460 13.637558
56.465 13.293276
56.470 13.465731
56.475 13.884291
56.480 14.360603
56.485 14.623888
56.490 14.710804
56.495 14.246638
56.500 14.148586
56.505 14.601501
56.510 14.652843
56.515 14.545818
56.520 14.426534
56.525 14.336692
56.530 14.328375
56.535 14.059978
56.540 13.219476
56.545 12.883256
56.550 13.131546
56.555 13.000801
56.560 13.181411
56.565 13.023508
56.570 12.946074
56.575 13.467444
56.580 13.678128
56.585 13.297713
56.590 12.662479
56.595 12.114917
56.600 12.614176
56.605 12.574607
56.610 12.118793
56.615 12.634501
56.620 12.750054
56.625 13.047934
56.630 12.929996
56.635 12.573651
56.640 12.78361
56.645 12.855647
56.650 12.315097
56.655 12.17561
56.660 12.305179
56.665 12.459058
56.670 12.474078
56.675 13.042917
56.680 13.356303
56.685 13.774352
56.690 13.875057
56.695 13.901023
56.700 14.10778
56.705 14.825865
56.710 14.447317
56.715 14.373248
56.720 14.73813
56.725 15.393065
56.730 15.258607
56.735 14.985559
56.740 13.943192
56.745 14.265892
56.750 14.687226
56.755 14.693473
56.760 15.217677
56.765 15.983627
56.770 16.187803
56.775 16.98485
56.780 16.771193
56.785 16.155735
56.790 15.746123
56.795 14.516094
56.800 14.112835
56.805 13.939295
56.810 13.379758
56.815 12.854212
56.820 13.056321
56.825 12.944392
56.830 13.028935
56.835 13.386846
56.840 13.881586
56.845 13.914732
56.850 14.41851
56.855 14.489803
56.860 14.612164
56.865 14.782093
56.870 14.26043
56.875 13.76474
56.880 13.821712
56.885 13.590975
56.890 13.517705
56.895 13.450661
56.900 13.875175
56.905 13.7307
56.910 13.712772
56.915 13.706785
56.920 13.714584
56.925 13.511994
56.930 13.716191
56.935 13.602916
56.940 13.891969
56.945 14.049829
56.950 13.811006
56.955 14.288185
56.960 14.505886
56.965 14.380713
56.970 14.438653
56.975 14.667991
56.980 14.065232
56.985 13.837543
56.990 13.229532
56.995 13.572263
57.000 13.862237
57.005 13.786866
57.010 14.309772
57.015 14.888679
57.020 15.207459
57.025 15.234024
57.030 14.813766
57.035 14.246027
57.040 14.019938
57.045 13.132062
57.050 13.359898
57.055 13.517167
57.060 13.501587
57.065 13.648159
57.070 14.086416
57.075 14.125795
57.080 14.429967
57.085 13.970065
57.090 13.615686
57.095 13.844985
57.100 13.774802
57.105 13.599408
57.110 13.182121
57.115 13.398473
57.120 14.106106
57.125 14.460894
57.130 14.626521
57.135 15.269893
57.140 15.304199
57.145 15.982818
57.150 15.379548
57.155 14.661246
57.160 14.591662
57.165 14.554913
57.170 14.862393
57.175 14.970922
57.180 15.271305
57.185 15.933309
57.190 16.377804
57.195 16.448112
57.200 16.446705
57.205 15.527138
57.210 15.555168
57.215 15.00248
57.220 14.496745
57.225 14.997458
57.230 14.829453
57.235 14.562039
57.240 15.107716
57.245 14.75107
57.250 14.966624
57.255 15.521628
57.260 14.898402
57.265 14.482924
57.270 14.254696
57.275 13.948213
57.280 13.656557
57.285 13.617024
57.290 13.257463
57.295 13.333108
57.300 13.608783
57.305 13.870265
57.310 14.010603
57.315 14.044869
57.320 14.184639
57.325 14.505675
57.330 14.561378
57.335 14.466027
57.340 14.797171
57.345 15.461102
57.350 15.665401
57.355 15.98113
57.360 15.67731
57.365 15.45854
57.370 15.125435
57.375 14.710925
57.380 14.384069
57.385 14.733452
57.390 14.485082
57.395 14.374344
57.400 14.616421
57.405 15.418904
57.410 15.83469
57.415 15.74937
57.420 15.473907
57.425 15.33828
57.430 16.025768
57.435 16.393023
57.440 16.298576
57.445 15.811177
57.450 15.671782
57.455 16.241104
57.460 16.356041
57.465 16.037363
57.470 15.625083
57.475 15.390101
57.480 15.543601
57.485 16.246269
57.490 16.000227
57.495 16.256865
57.500 16.214212
57.505 16.454805
57.510 16.988655
57.515 16.915337
57.520 16.260422
57.525 16.91
57.530 16.759129
57.535 16.993536
57.540 17.212685
57.545 17.070929
57.550 17.591547
57.555 17.749363
57.560 17.440041
57.565 18.062813
57.570 17.968386
57.575 18.085398
57.580 17.781626
57.585 17.38629
57.590 16.941906
57.595 16.739441
57.600 16.705267
57.605 16.182144
57.610 15.886627
57.615 15.872985
57.620 15.559884
57.625 15.874877
57.630 15.746527
57.635 15.341589
57.640 15.689095
57.645 15.549533
57.650 15.542357
57.655 16.266792
57.660 16.424143
57.665 15.887497
57.670 15.715549
57.675 16.00441
57.680 16.760479
57.685 17.259649
57.690 17.272112
57.695 17.24296
57.700 17.551222
57.705 17.693983
57.710 17.525536
57.715 17.011829
57.720 16.617798
57.725 16.667461
57.730 17.432199
57.735 18.079655
57.740 17.864418
57.745 17.53203
57.750 17.530382
57.755 17.568979
57.760 16.796164
57.765 15.837213
57.770 15.980228
57.775 16.24917
57.780 16.474901
57.785 16.408175
57.790 16.648441
57.795 16.847427
57.800 16.831717
57.805 16.730902
57.810 16.62134
57.815 16.618984
57.820 16.805735
57.825 17.069345
57.830 17.656868
57.835 17.754532
57.840 17.668043
57.845 17.638838
57.850 17.381739
57.855 16.988033
57.860 16.698711
57.865 16.163523
57.870 16.083342
57.875 15.911423
57.880 16.013878
57.885 16.110638
57.890 16.156805
57.895 16.37038
57.900 16.818405
57.905 16.822332
57.910 16.915274
57.915 17.11183
57.920 17.064175
57.925 16.844122
57.930 16.178093
57.935 16.413425
57.940 16.894758
57.945 17.303358
57.950 16.902273
57.955 17.138323
57.960 17.542789
57.965 17.773712
57.970 17.480824
57.975 17.311953
57.980 17.427248
57.985 17.990126
57.990 18.06879
57.995 18.071138
58.000 18.15884
58.005 17.947359
58.010 17.707428
58.015 17.025133
58.020 16.626587
58.025 16.967583
58.030 17.245882
58.035 16.840181
58.040 17.209644
58.045 17.390394
58.050 17.440569
58.055 17.625204
58.060 17.640627
58.065 17.285845
58.070 17.585169
58.075 17.771622
58.080 17.94125
58.085 18.037121
58.090 17.743729
58.095 17.376173
58.100 17.475973
58.105 18.007212
58.110 17.730436
58.115 17.62257
58.120 17.823271
58.125 17.66272
58.130 18.106504
58.135 18.352552
58.140 18.807636
58.145 18.845554
58.150 18.882658
58.155 18.671509
58.160 18.928041
58.165 18.628881
58.170 18.800346
58.175 19.115955
58.180 19.559029
58.185 19.699793
58.190 19.843195
58.195 20.050402
58.200 20.836044
58.205 20.630396
58.210 19.718731
58.215 19.367645
58.220 19.11973
58.225 18.903214
58.230 19.218754
58.235 19.016258
58.240 18.955502
58.245 19.281721
58.250 19.537872
58.255 20.404222
58.260 21.218315
58.265 20.967154
58.270 20.63225
58.275 20.637817
58.280 20.371304
58.285 20.778284
58.290 20.657198
58.295 20.286787
58.300 20.396656
58.305 20.972004
58.310 21.631533
58.315 22.180281
58.320 22.100227
58.325 21.770618
58.330 22.031376
58.335 22.462524
58.340 21.931284
58.345 21.904215
58.350 22.746477
58.355 23.493299
58.360 24.343483
58.365 24.705246
58.370 24.463093
58.375 24.862097
58.380 25.076805
58.385 25.050066
58.390 25.137695
58.395 25.650002
58.400 26.075041
58.405 26.730539
58.410 26.851885
58.415 26.734129
58.420 26.580147
58.425 26.491577
58.430 26.228941
58.435 26.184851
58.440 26.780064
58.445 27.152082
58.450 27.503389
58.455 27.892817
58.460 27.889757
58.465 27.970083
58.470 28.082994
58.475 27.43611
58.480 27.838593
58.485 28.33721
58.490 29.205746
58.495 29.456427
58.500 29.024979
58.505 29.077827
58.510 29.732203
58.515 29.522884
58.520 29.114458
58.525 28.658686
58.530 29.329102
58.535 29.471405
58.540 29.24164
58.545 29.684877
58.550 30.262524
58.555 30.509499
58.560 31.409241
58.565 32.458271
58.570 33.615505
58.575 34.489902
58.580 34.679493
58.585 34.710152
58.590 34.871883
58.595 33.61692
58.600 32.317204
58.605 31.987062
58.610 31.360289
58.615 30.354174
58.620 29.808037
58.625 29.615772
58.630 29.792633
58.635 29.891251
58.640 28.76613
58.645 28.639862
58.650 28.842226
58.655 28.76285
58.660 28.917557
58.665 28.836233
58.670 28.742924
58.675 29.684641
58.680 30.074844
58.685 29.866619
58.690 29.251345
58.695 29.7026
58.700 29.472654
58.705 29.53717
58.710 29.791616
58.715 29.474056
58.720 29.417471
58.725 29.365612
58.730 28.429649
58.735 28.435528
58.740 27.797098
58.745 27.649355
58.750 28.045628
58.755 28.268221
58.760 28.431061
58.765 28.889824
58.770 29.765152
58.775 29.494772
58.780 28.412872
58.785 27.606316
58.790 27.193537
58.795 26.379669
58.800 25.678259
58.805 25.258331
58.810 25.203167
58.815 24.4181
58.820 24.678297
58.825 25.016136
58.830 25.102156
58.835 24.270296
58.840 23.365887
58.845 23.569471
58.850 23.960703
58.855 23.445887
58.860 22.732714
58.865 22.51881
58.870 22.57588
58.875 22.703794
58.880 22.484871
58.885 22.436302
58.890 22.152422
58.895 22.45768
58.900 22.606903
58.905 22.289173
58.910 21.957705
58.915 21.355001
58.920 21.003141
58.925 21.101719
58.930 21.001816
58.935 20.77072
58.940 20.928295
58.945 21.110935
58.950 21.73152
58.955 22.000362
58.960 21.995123
58.965 22.377758
58.970 22.043678
58.975 22.400162
58.980 22.146595
58.985 21.766171
58.990 21.523603
58.995 21.117725
59.000 20.513433
59.005 20.295565
59.010 19.407461
59.015 19.388521
59.020 19.883558
59.025 20.066586
59.030 20.220516
59.035 20.677216
59.040 21.192169
59.045 20.850479
59.050 20.519693
59.055 19.988571
59.060 19.723709
59.065 19.701637
59.070 19.288223
59.075 18.880255
59.080 19.137642
59.085 19.203743
59.090 19.080013
59.095 19.147522
59.100 19.444336
59.105 19.449289
59.110 19.662539
59.115 20.015808
59.120 19.82188
59.125 19.513056
59.130 19.086826
59.135 18.732349
59.140 18.756798
59.145 18.712646
59.150 17.595617
59.155 17.744087
59.160 18.373652
59.165 18.61223
59.170 18.411123
59.175 18.016594
59.180 18.598011
59.185 19.637764
59.190 19.360809
59.195 18.572968
59.200 18.509039
59.205 18.319933
59.210 18.607624
59.215 18.183338
59.220 17.604963
59.225 17.543188
59.230 17.668137
59.235 17.726664
59.240 17.652712
59.245 17.486097
59.250 16.729578
59.255 16.875282
59.260 16.840857
59.265 17.258442
59.270 17.535271
59.275 17.855133
59.280 17.81319
59.285 18.341238
59.290 18.992155
59.295 19.354269
59.300 18.680225
59.305 18.627281
59.310 18.273197
59.315 17.740919
59.320 16.996471
59.325 16.62714
59.330 17.258718
59.335 17.813793
59.340 17.932922
59.345 18.419863
59.350 19.011696
59.355 19.32415
59.360 19.144382
59.365 18.330751
59.370 17.800451
59.375 17.760998
59.380 17.65823
59.385 17.451271
59.390 17.360813
59.395 17.086336
59.400 17.211628
59.405 17.325003
59.410 17.113037
59.415 17.02375
59.420 17.382729
59.425 17.843956
59.430 18.340218
59.435 18.183702
59.440 18.242493
59.445 18.406305
59.450 18.702616
59.455 18.782902
59.460 18.979631
59.465 18.98914
59.470 19.020672
59.475 18.580389
59.480 18.535919
59.485 18.666357
59.490 18.828335
59.495 18.087208
59.500 17.344299
59.505 17.006821
59.510 17.445156
59.515 17.333212
59.520 17.037563
59.525 16.375832
59.530 16.149109
59.535 16.506292
59.540 16.934856
59.545 16.991697
59.550 17.097731
59.555 17.097414
59.560 17.158197
59.565 17.135695
59.570 16.643766
59.575 16.245234
59.580 16.238382
59.585 15.585202
59.590 15.854753
59.595 16.229563
59.600 16.937408
59.605 17.85854
59.610 17.788223
59.615 17.883257
59.620 18.22875
59.625 17.84589
59.630 17.793266
59.635 17.729174
59.640 17.339176
59.645 17.427406
59.650 16.789337
59.655 16.649536
59.660 16.614876
59.665 16.351334
59.670 16.119652
59.675 16.506931
59.680 16.438255
59.685 16.375294
59.690 16.377632
59.695 16.351757
59.700 17.036469
59.705 16.515114
59.710 16.199259
59.715 16.328775
59.720 16.78768
59.725 17.077089
59.730 17.225462
59.735 16.477179
59.740 17.062315
59.745 17.418083
59.750 18.009035
59.755 18.029993
59.760 17.988668
59.765 17.931408
59.770 18.286625
59.775 18.531166
59.780 18.17144
59.785 17.585928
59.790 17.487076
59.795 17.421558
59.800 17.473448
59.805 16.897587
59.810 16.31723
59.815 16.090546
59.820 15.719024
59.825 15.459935
59.830 15.116254
59.835 15.482902
59.840 15.697133
59.845 16.159626
59.850 16.294973
59.855 16.45421
59.860 16.343409
59.865 15.948215
59.870 15.779501
59.875 16.227468
59.880 16.364166
59.885 16.513405
59.890 16.895298
59.895 17.255777
59.900 17.30299
59.905 17.133581
59.910 16.241587
59.915 15.4303
59.920 15.390804
59.925 15.14045
59.930 15.306914
59.935 15.48897
59.940 15.622254
59.945 16.247484
59.950 16.577116
59.955 16.914526
59.960 16.920124
59.965 17.17297
59.970 17.502623
59.975 17.451357
59.980 17.272936
59.985 17.534618
59.990 17.205782
59.995 17.294607
60.000 17.117872
60.005 16.897444
60.010 17.344046
60.015 18.091038
60.020 18.553022
60.025 18.876585
60.030 18.709978
60.035 18.421997
60.040 18.308773
60.045 18.242762
60.050 17.897823
60.055 17.451513
60.060 17.3188
60.065 17.507973
60.070 17.836054
60.075 17.788757
60.080 17.204821
60.085 16.790972
60.090 16.980249
60.095 17.564926
60.100 17.448563
60.105 17.034164
60.110 16.961819
60.115 17.264147
60.120 17.838524
60.125 17.463575
60.130 16.75675
60.135 16.703327
60.140 17.051579
60.145 17.085983
60.150 16.652763
60.155 16.848074
60.160 17.422403
60.165 17.878677
60.170 18.153719
60.175 17.592123
60.180 17.51475
60.185 17.229582
60.190 16.273243
60.195 16.256813
60.200 16.763109
60.205 17.08614
60.210 17.395283
60.215 17.498875
60.220 18.063938
60.225 18.782701
60.230 17.967634
60.235 16.762291
60.240 16.314455
60.245 16.460445
60.250 16.299599
60.255 15.56717
60.260 14.994318
60.265 14.953594
60.270 15.353024
60.275 15.596047
60.280 15.82525
60.285 16.167759
60.290 16.264378
60.295 16.393229
60.300 16.212614
60.305 16.083923
60.310 15.913742
60.315 16.009153
60.320 16.258459
60.325 16.672253
60.330 16.743622
60.335 17.113348
60.340 17.236307
60.345 17.197365
60.350 17.286695
60.355 17.079628
60.360 16.608372
60.365 16.736395
60.370 16.972618
60.375 17.373085
60.380 17.416594
60.385 17.311197
60.390 17.232933
60.395 17.803743
60.400 17.864746
60.405 17.854918
60.410 17.488638
60.415 17.188334
60.420 16.997181
60.425 17.071501
60.430 16.545252
60.435 15.710689
60.440 15.348929
60.445 15.674372
60.450 16.426899
60.455 16.475327
60.460 16.235447
60.465 16.433462
60.470 16.920687
60.475 17.493101
60.480 16.557625
60.485 15.862562
60.490 16.174187
60.495 16.376501
60.500 16.573286
60.505 16.620655
60.510 16.666361
60.515 17.050442
60.520 17.118061
60.525 17.048326
60.530 16.295994
60.535 15.847569
60.540 16.323427
60.545 16.624706
60.550 17.042213
60.555 16.910759
60.560 16.722002
60.565 17.653971
60.570 18.193501
60.575 17.989998
60.580 17.756304
60.585 17.295017
60.590 17.780323
60.595 18.115458
60.600 17.731405
60.605 17.173666
60.610 16.268513
60.615 16.53573
60.620 17.212378
60.625 16.955688
60.630 16.894573
60.635 17.585175
60.640 17.572845
60.645 17.827169
60.650 16.893425
60.655 16.271772
60.660 16.297295
60.665 16.196005
60.670 15.944659
60.675 16.286694
60.680 15.882979
60.685 15.91387
60.690 15.952167
60.695 16.013039
60.700 16.064484
60.705 15.944555
60.710 15.515624
60.715 15.75528
60.720 16.216188
60.725 16.340454
60.730 16.134905
60.735 16.466331
60.740 16.719143
60.745 17.14435
60.750 17.406679
60.755 17.434475
60.760 17.640427
60.765 17.464006
60.770 16.902092
60.775 16.763689
60.780 16.99482
60.785 16.923113
60.790 16.801998
60.795 16.550261
60.800 16.441252
60.805 16.501989
60.810 16.0369
60.815 15.695032
60.820 15.259581
60.825 15.397516
60.830 15.889477
60.835 16.135817
60.840 16.045933
60.845 16.299004
60.850 16.902254
60.855 17.894381
60.860 17.280293
60.865 16.49975
60.870 16.577021
60.875 17.01232
60.880 16.848856
60.885 15.958303
60.890 15.431986
60.895 15.289527
60.900 15.614012
60.905 15.503856
60.910 15.125854
60.915 15.300179
60.920 15.453079
60.925 15.187325
60.930 15.623631
60.935 16.013412
60.940 15.77536
60.945 15.927421
60.950 16.450878
60.955 17.026176
60.960 17.389992
60.965 17.348471
60.970 16.705467
60.975 16.903767
60.980 16.670921
60.985 16.304743
60.990 16.140493
60.995 15.843244
61.000 15.896554
61.005 16.338129
61.010 16.571468
61.015 16.663235
61.020 16.448587
61.025 16.570475
61.030 16.984623
61.035 16.703545
61.040 16.643156
61.045 17.162447
61.050 17.719654
61.055 17.52611
61.060 17.148132
61.065 16.762508
61.070 16.768105
61.075 16.604063
61.080 16.105362
61.085 15.820433
61.090 15.602189
61.095 15.673143
61.100 15.887358
61.105 16.19416
61.110 16.319319
61.115 16.644339
61.120 16.524475
61.125 16.929567
61.130 16.927872
61.135 16.992739
61.140 17.577734
61.145 17.538309
61.150 17.059818
61.155 17.201653
61.160 17.344055
61.165 17.6588
61.170 17.327677
61.175 17.14576
61.180 17.60446
61.185 18.003841
61.190 18.094488
61.195 17.820671
61.200 17.556875
61.205 17.881039
61.210 18.048492
61.215 17.945877
61.220 17.566399
61.225 17.77758
61.230 18.353384
61.235 18.603352
61.240 18.02857
61.245 17.669151
61.250 17.725292
61.255 17.864796
61.260 18.670053
61.265 18.491402
61.270 18.653105
61.275 19.419434
61.280 19.585428
61.285 19.197813
61.290 19.442251
61.295 18.328232
61.300 18.077971
61.305 17.944159
61.310 17.485287
61.315 17.517645
61.320 17.466085
61.325 17.506927
61.330 17.487204
61.335 17.487974
61.340 17.658632
61.345 17.536974
61.350 17.502104
61.355 17.686226
61.360 18.029911
61.365 17.969103
61.370 18.419025
61.375 18.130726
61.380 18.069798
61.385 17.816666
61.390 17.103891
61.395 16.410566
61.400 16.706705
61.405 16.22242
61.410 16.44125
61.415 16.371889
61.420 16.620411
61.425 17.547628
61.430 17.823717
61.435 17.863968
61.440 17.945419
61.445 18.026297
61.450 18.238083
61.455 17.909035
61.460 17.223692
61.465 17.126188
61.470 16.885349
61.475 16.745808
61.480 16.394505
61.485 16.416746
61.490 16.681131
61.495 16.711412
61.500 16.739391
61.505 16.543455
61.510 16.540916
61.515 17.408318
61.520 17.385912
61.525 17.335556
61.530 17.618881
61.535 17.74543
61.540 18.080101
61.545 18.306149
61.550 17.772352
61.555 17.690384
61.560 17.277752
61.565 16.98315
61.570 17.100639
61.575 17.394402
61.580 17.299805
61.585 16.69173
61.590 16.477102
61.595 16.329288
61.600 16.069618
61.605 15.826098
61.610 15.589123
61.615 15.969625
61.620 16.619659
61.625 16.645985
61.630 17.092407
61.635 16.961229
61.640 16.695045
61.645 16.296804
61.650 15.978756
61.655 15.697635
61.660 15.815938
61.665 16.150389
61.670 15.937843
61.675 16.190855
61.680 16.468924
61.685 16.412552
61.690 16.923605
61.695 17.341871
61.700 17.433638
61.705 18.098038
61.710 18.418215
61.715 18.920298
61.720 19.364254
61.725 19.077465
61.730 18.429586
61.735 18.450533
61.740 18.06382
61.745 17.694887
61.750 17.757742
61.755 17.731743
61.760 18.073227
61.765 18.250393
61.770 17.886091
61.775 18.344824
61.780 18.493673
61.785 17.998228
61.790 17.568268
61.795 17.320135
61.800 17.587385
61.805 17.519419
61.810 17.373949
61.815 17.060366
61.820 17.007311
61.825 17.379555
61.830 17.513681
61.835 17.229723
61.840 17.915327
61.845 18.245394
61.850 18.295866
61.855 18.512606
61.860 18.841827
61.865 18.976372
61.870 19.189207
61.875 18.49592
61.880 18.677507
61.885 18.839066
61.890 18.614836
61.895 18.247271
61.900 17.88295
61.905 17.875242
61.910 18.195564
61.915 18.132437
61.920 18.07515
61.925 17.845043
61.930 17.818043
61.935 17.814608
61.940 17.615711
61.945 17.161434
61.950 17.006491
61.955 16.962524
61.960 16.908972
61.965 16.761381
61.970 17.202494
61.975 17.976303
61.980 17.941458
61.985 17.512014
61.990 17.452707
61.995 17.301832
62.000 17.13147
62.005 17.206388
62.010 17.109762
62.015 17.034855
62.020 16.951748
62.025 17.069668
62.030 17.407118
62.035 17.371754
62.040 16.538214
62.045 16.213865
62.050 16.072342
62.055 16.069418
62.060 16.054167
62.065 16.157051
62.070 15.930021
62.075 16.099382
62.080 16.098003
62.085 16.406919
62.090 16.740076
62.095 16.522951
62.100 16.467533
62.105 17.219898
62.110 17.704714
62.115 17.829603
62.120 18.044123
62.125 17.960251
62.130 18.190178
62.135 18.635752
62.140 18.759283
62.145 18.308487
62.150 18.270569
62.155 18.63867
62.160 19.27363
62.165 19.965544
62.170 20.32217
62.175 19.867859
62.180 19.953058
62.185 19.437271
62.190 18.998247
62.195 18.332085
62.200 17.414448
62.205 16.593204
62.210 17.070835
62.215 17.188961
62.220 17.484098
62.225 17.37973
62.230 17.404663
62.235 17.546293
62.240 17.977768
62.245 17.562447
62.250 17.345304
62.255 17.259865
62.260 16.752737
62.265 16.362137
62.270 15.505864
62.275 15.179782
62.280 15.42131
62.285 15.703414
62.290 16.178473
62.295 16.602068
62.300 17.088596
62.305 17.175459
62.310 16.489202
62.315 15.89256
62.320 15.903766
62.325 15.320134
62.330 15.240798
62.335 15.08988
62.340 15.553104
62.345 16.162184
62.350 16.791285
62.355 17.038567
62.360 17.217352
62.365 17.425217
62.370 17.482851
62.375 18.009829
62.380 17.74143
62.385 17.198137
62.390 17.189157
62.395 18.067028
62.400 18.794867
62.405 18.733795
62.410 18.54715
62.415 18.980921
62.420 19.160938
62.425 18.340973
62.430 17.350567
62.435 17.243515
62.440 17.123262
62.445 16.921638
62.450 16.842003
62.455 17.181973
62.460 17.903805
62.465 17.983704
62.470 17.493223
62.475 17.688295
62.480 17.434231
62.485 17.743103
62.490 17.536587
62.495 17.802343
62.500 17.840357
62.505 17.831463
62.510 17.772366
62.515 18.558069
62.520 17.974394
62.525 17.717205
62.530 17.65696
62.535 17.463488
62.540 17.340227
62.545 17.266518
62.550 17.129826
62.555 17.333563
62.560 17.284931
62.565 16.129309
62.570 16.240299
62.575 16.754295
62.580 16.466923
62.585 16.106382
62.590 15.609284
62.595 15.46147
62.600 16.5748
62.605 17.038139
62.610 16.836388
62.615 17.102333
62.620 17.133715
62.625 17.864935
62.630 18.258879
62.635 17.791151
62.640 17.115919
62.645 16.823166
62.650 16.878845
62.655 17.074749
62.660 17.094471
62.665 17.041191
62.670 17.650654
62.675 18.061302
62.680 18.545868
62.685 18.163404
62.690 17.96978
62.695 17.967169
62.700 17.844122
62.705 17.688959
62.710 17.469995
62.715 17.507238
62.720 17.787157
62.725 18.296949
62.730 18.697357
62.735 19.100494
62.740 18.951876
62.745 19.157587
62.750 18.934464
62.755 19.125828
62.760 18.52067
62.765 17.904198
62.770 17.654909
62.775 18.088366
62.780 18.227205
62.785 18.531481
62.790 18.456354
62.795 19.551731
62.800 19.601967
62.805 19.081921
62.810 18.318756
62.815 18.255312
62.820 18.667187
62.825 18.345165
62.830 17.342293
62.835 17.730932
62.840 18.287758
62.845 18.534954
62.850 18.369087
62.855 17.629356
62.860 17.837681
62.865 17.781773
62.870 17.269318
62.875 16.960459
62.880 16.928757
62.885 16.967682
62.890 16.747709
62.895 16.282181
62.900 16.536337
62.905 16.757017
62.910 16.633945
62.915 16.332323
62.920 16.028866
62.925 16.809231
62.930 16.914858
62.935 17.17202
62.940 17.337124
62.945 17.285677
62.950 17.400671
62.955 17.71003
62.960 18.018503
62.965 18.175268
62.970 18.453945
62.975 19.222012
62.980 19.521109
62.985 20.00032
62.990 19.81274
62.995 19.733343
63.000 20.506149
63.005 20.095625
63.010 19.645721
63.015 19.774769
63.020 19.117094
63.025 19.135866
63.030 18.742695
63.035 17.704115
63.040 17.659592
63.045 17.393888
63.050 17.69766
63.055 18.311008
63.060 18.446207
63.065 18.77883
63.070 19.100271
63.075 19.455975
63.080 19.65082
63.085 18.970549
63.090 18.462263
63.095 18.26276
63.100 18.553583
63.105 19.038092
63.110 17.909887
63.115 17.791704
63.120 18.0163
63.125 18.730354
63.130 19.287075
63.135 18.787395
63.140 18.241634
63.145 18.764599
63.150 18.735863
63.155 19.452095
63.160 19.140533
63.165 18.724867
63.170 18.636469
63.175 19.159435
63.180 19.284979
63.185 18.743437
63.190 18.123755
63.195 17.917032
63.200 17.485743
63.205 17.421379
63.210 16.907455
63.215 16.687941
63.220 16.686153
63.225 16.974869
63.230 17.68198
63.235 18.637388
63.240 18.66103
63.245 18.728601
63.250 19.71829
63.255 20.589018
63.260 20.485041
63.265 19.786259
63.270 18.92984
63.275 18.763174
63.280 18.924427
63.285 17.81357
63.290 17.554285
63.295 18.157385
63.300 18.215687
63.305 18.525475
63.310 19.040651
63.315 19.271465
63.320 20.300665
63.325 20.138891
63.330 19.556198
63.335 19.760841
63.340 19.637726
63.345 19.52491
63.350 19.255135
63.355 19.262222
63.360 19.57089
63.365 19.633511
63.370 19.479511
63.375 19.383266
63.380 19.249275
63.385 19.247086
63.390 18.823734
63.395 18.444241
63.400 18.242392
63.405 18.294748
63.410 18.161837
63.415 17.869452
63.420 17.589634
63.425 17.696127
63.430 17.671129
63.435 17.675156
63.440 18.059946
63.445 18.913967
63.450 19.615692
63.455 19.330351
63.460 19.090666
63.465 19.313459
63.470 19.535921
63.475 19.203156
63.480 19.168842
63.485 19.063618
63.490 20.34857
63.495 20.978037
63.500 20.369724
63.505 20.397079
63.510 20.288374
63.515 20.143133
63.520 19.914564
63.525 18.684519
63.530 17.726
63.535 17.822306
63.540 17.759195
63.545 17.411491
63.550 17.051794
63.555 16.636566
63.560 17.531015
63.565 18.080318
63.570 18.567652
63.575 18.197376
63.580 18.456146
63.585 18.483994
63.590 19.20825
63.595 19.741247
63.600 20.063362
63.605 19.692181
63.610 20.070154
63.615 20.025358
63.620 20.2875
63.625 20.351711
63.630 19.279358
63.635 19.241518
63.640 19.521658
63.645 19.415304
63.650 19.630018
63.655 19.171406
63.660 18.898733
63.665 19.137766
63.670 19.225225
63.675 18.903214
63.680 19.091421
63.685 19.135298
63.690 19.622461
63.695 20.150408
63.700 19.96946
63.705 19.479523
63.710 19.980606
63.715 19.877508
63.720 19.652416
63.725 19.359236
63.730 19.296663
63.735 19.674631
63.740 20.514923
63.745 20.66584
63.750 20.699362
63.755 20.898527
63.760 21.186714
63.765 21.57641
63.770 22.148161
63.775 21.962732
63.780 21.828369
63.785 22.368904
63.790 22.553696
63.795 22.570356
63.800 22.196533
63.805 21.724691
63.810 21.433044
63.815 22.209961
63.820 22.527269
63.825 22.636534
63.830 22.61714
63.835 22.647326
63.840 23.079573
63.845 22.952709
63.850 22.612509
63.855 22.549061
63.860 22.873537
63.865 23.208981
63.870 23.343561
63.875 23.300375
63.880 23.566593
63.885 23.465857
63.890 24.334112
63.895 24.284714
63.900 23.490055
63.905 24.088877
63.910 24.068766
63.915 24.438921
63.920 24.50724
63.925 23.97974
63.930 23.960188
63.935 25.050537
63.940 24.341665
63.945 24.674713
63.950 24.647045
63.955 24.902992
63.960 25.387327
63.965 26.072496
63.970 26.251333
63.975 26.432631
63.980 27.26227
63.985 27.690891
63.990 27.631943
63.995 27.765522
64.000 28.026323
64.005 28.57518
64.010 29.627632
64.015 29.609766
64.020 29.823494
64.025 29.861862
64.030 29.913645
64.035 30.007612
64.040 29.869261
64.045 30.125816
64.050 30.698097
64.055 30.825129
64.060 30.518288
64.065 30.438173
64.070 30.114468
64.075 30.536098
64.080 31.037443
64.085 31.731386
64.090 32.730289
64.095 34.165359
64.100 34.914215
64.105 34.690876
64.110 34.305038
64.115 34.070724
64.120 34.222237
64.125 33.746258
64.130 33.105637
64.135 33.572842
64.140 34.087017
64.145 33.81337
64.150 33.157696
64.155 32.465706
64.160 32.80415
64.165 32.579559
64.170 32.121777
64.175 32.482712
64.180 32.755108
64.185 33.668896
64.190 33.997063
64.195 34.229469
64.200 34.576572
64.205 34.620426
64.210 34.50153
64.215 34.348938
64.220 34.531322
64.225 34.995552
64.230 35.048397
64.235 34.980057
64.240 34.909168
64.245 34.872158
64.250 34.954338
64.255 34.546432
64.260 34.675343
64.265 34.79744
64.270 35.258553
64.275 35.270802
64.280 35.1861
64.285 35.376591
64.290 35.767433
64.295 35.901199
64.300 35.800629
64.305 35.026592
64.310 35.307388
64.315 35.71217
64.320 35.981571
64.325 35.384899
64.330 35.174671
64.335 35.142704
64.340 35.802338
64.345 36.720814
64.350 37.315292
64.355 37.058769
64.360 36.511105
64.365 35.849812
64.370 36.389862
64.375 36.662312
64.380 35.862434
64.385 35.228569
64.390 35.118401
64.395 35.716255
64.400 35.826385
64.405 35.523579
64.410 35.113426
64.415 35.32346
64.420 35.99778
64.425 35.701675
64.430 35.860931
64.435 36.315113
64.440 36.146847
64.445 36.007744
64.450 34.81686
64.455 33.591583
64.460 33.379265
64.465 32.68161
64.470 31.252975
64.475 30.985239
64.480 31.098137
64.485 31.512623
64.490 31.595222
64.495 31.464937
64.500 31.397861
64.505 32.226215
64.510 32.292049
64.515 31.89953
64.520 31.347292
64.525 30.989126
64.530 30.934029
64.535 31.336231
64.540 30.85634
64.545 30.83753
64.550 30.690866
64.555 30.801731
64.560 30.913248
64.565 31.370239
64.570 30.709677
64.575 29.8277
64.580 28.82766
64.585 28.007416
64.590 28.295225
64.595 28.058208
64.600 27.167875
64.605 26.501358
64.610 26.490198
64.615 26.122656
64.620 26.330219
64.625 25.99752
64.630 25.645504
64.635 25.194529
64.640 25.355204
64.645 24.767916
64.650 24.594946
64.655 24.052027
64.660 24.115973
64.665 23.905069
64.670 23.710569
64.675 23.349451
64.680 23.986925
64.685 24.376226
64.690 25.02183
64.695 24.780874
64.700 25.182627
64.705 25.430498
64.710 25.044708
64.715 25.263828
64.720 25.350569
64.725 24.701403
64.730 24.714979
64.735 23.806505
64.740 23.514986
64.745 24.043201
64.750 23.606745
64.755 23.057753
64.760 23.188238
64.765 23.106636
64.770 23.900593
64.775 23.512674
64.780 22.523624
64.785 22.2834
64.790 22.034351
64.795 21.616621
64.800 21.751341
64.805 21.665382
64.810 22.475323
64.815 22.6395
64.820 22.592314
64.825 22.735613
64.830 22.763075
64.835 22.995077
64.840 22.836155
64.845 21.972807
64.850 22.800287
64.855 23.392265
64.860 23.590714
64.865 23.871714
64.870 23.307526
64.875 23.239876
64.880 22.859365
64.885 21.778603
64.890 21.136621
64.895 20.492748
64.900 20.244398
64.905 20.560509
64.910 20.696978
64.915 21.81148
64.920 22.714991
64.925 23.031807
64.930 22.801897
64.935 22.868261
64.940 22.664778
64.945 22.985477
64.950 23.120766
64.955 22.783154
64.960 23.377947
64.965 23.800457
64.970 23.59199
64.975 24.136372
64.980 24.351761
64.985 24.875273
64.990 24.869743
64.995 24.864222
65.000 25.049292
65.005 24.833641
65.010 24.575012
65.015 24.481789
65.020 24.481878
65.025 25.047113
65.030 24.896139
65.035 25.406235
65.040 26.176725
65.045 25.8902
65.050 25.933811
65.055 25.310413
65.060 25.529701
65.065 25.47356
65.070 25.516335
65.075 25.585886
65.080 26.165012
65.085 25.942236
65.090 26.089636
65.095 25.793184
65.100 25.576466
65.105 25.195736
65.110 24.584757
65.115 23.813511
65.120 24.024872
65.125 24.190342
65.130 23.667381
65.135 24.292816
65.140 23.941956
65.145 23.795366
65.150 24.30246
65.155 23.952452
65.160 23.959175
65.165 24.431526
65.170 24.362831
65.175 25.573282
65.180 26.387186
65.185 26.149986
65.190 26.178106
65.195 25.939459
65.200 25.763784
65.205 25.363667
65.210 24.43507
65.215 23.945639
65.220 23.894638
65.225 23.605009
65.230 23.377056
65.235 23.319437
65.240 22.903679
65.245 22.29269
65.250 22.298922
65.255 22.471409
65.260 22.890791
65.265 23.276958
65.270 23.290941
65.275 23.92547
65.280 24.195919
65.285 24.110466
65.290 24.600422
65.295 24.334208
65.300 23.797144
65.305 23.956341
65.310 24.008665
65.315 24.157957
65.320 24.651402
65.325 24.597801
65.330 24.645317
65.335 25.239115
65.340 25.945677
65.345 26.867462
65.350 27.859856
65.355 27.808483
65.360 27.863195
65.365 28.234411
65.370 28.289829
65.375 28.38801
65.380 27.613434
65.385 26.89603
65.390 26.995808
65.395 27.109369
65.400 26.875805
65.405 26.887194
65.410 26.46678
65.415 26.552919
65.420 26.483538
65.425 26.538795
65.430 26.485544
65.435 26.320887
65.440 26.329277
65.445 25.537947
65.450 25.738249
65.455 26.147598
65.460 26.284435
65.465 26.43395
65.470 26.842463
65.475 26.680584
65.480 27.486347
65.485 27.650076
65.490 27.221134
65.495 27.504646
65.500 27.769812
65.505 27.840393
65.510 28.364298
65.515 27.914711
65.520 28.219419
65.525 28.945347
65.530 28.272465
65.535 28.414242
65.540 29.042538
65.545 30.452353
65.550 31.068872
65.555 30.869791
65.560 30.304108
65.565 30.490414
65.570 30.182915
65.575 29.191301
65.580 28.101986
65.585 28.329605
65.590 28.401514
65.595 28.554684
65.600 29.360556
65.605 30.275808
65.610 31.210119
65.615 31.655838
65.620 31.763847
65.625 31.837826
65.630 31.977009
65.635 31.905451
65.640 31.529152
65.645 31.742182
65.650 31.229885
65.655 31.087511
65.660 31.066439
65.665 31.461306
65.670 31.68717
65.675 31.977749
65.680 31.687891
65.685 32.189785
65.690 32.953136
65.695 33.16452
65.700 33.351177
65.705 33.508118
65.710 33.93317
65.715 34.425247
65.720 34.520149
65.725 34.713665
65.730 35.48241
65.735 34.81543
65.740 34.447273
65.745 34.506035
65.750 34.716965
65.755 33.923969
65.760 33.629635
65.765 33.923164
65.770 34.429161
65.775 33.854736
65.780 33.595699
65.785 33.247044
65.790 33.415157
65.795 33.049934
65.800 32.211128
65.805 32.209389
65.810 32.992504
65.815 32.854492
65.820 33.003536
65.825 33.843288
65.830 34.303452
65.835 34.39423
65.840 34.845688
65.845 35.606869
65.850 36.278614
65.855 36.390526
65.860 35.852509
65.865 35.514118
65.870 35.395954
65.875 35.230053
65.880 35.028179
65.885 34.571758
65.890 34.670979
65.895 34.742867
65.900 34.382599
65.905 33.739529
65.910 32.655403
65.915 32.55777
65.920 32.445675
65.925 32.016121
65.930 32.270962
65.935 33.278019
65.940 33.775131
65.945 34.64695
65.950 34.36985
65.955 34.67979
65.960 34.648014
65.965 34.291111
65.970 33.93919
65.975 33.939713
65.980 33.49802
65.985 34.156631
65.990 34.524765
65.995 34.842335
66.000 34.934368
66.005 34.648579
66.010 34.967487
66.015 35.467663
66.020 35.131069
66.025 34.794525
66.030 35.734016
66.035 36.5494
66.040 37.252575
66.045 37.853214
66.050 37.436874
66.055 37.03809
66.060 36.886971
66.065 35.92844
66.070 35.029305
66.075 34.577175
66.080 33.266373
66.085 33.030769
66.090 33.140617
66.095 33.458019
66.100 34.063168
66.105 34.473591
66.110 34.581329
66.115 34.656654
66.120 34.342487
66.125 34.563263
66.130 34.31031
66.135 33.286377
66.140 32.553505
66.145 33.435719
66.150 34.163666
66.155 33.886024
66.160 33.099827
66.165 33.45776
66.170 33.017536
66.175 32.787193
66.180 32.430901
66.185 32.510521
66.190 32.606197
66.195 32.642956
66.200 32.538616
66.205 32.808681
66.210 32.762596
66.215 31.65645
66.220 31.328766
66.225 31.71876
66.230 31.772182
66.235 31.437878
66.240 32.232433
66.245 32.284927
66.250 32.791763
66.255 32.805603
66.260 32.914425
66.265 32.779991
66.270 32.230904
66.275 31.799389
66.280 31.738096
66.285 31.107986
66.290 30.828238
66.295 30.439795
66.300 30.29796
66.305 30.403425
66.310 30.970808
66.315 31.114298
66.320 30.88133
66.325 31.191761
66.330 31.147669
66.335 31.330801
66.340 32.454102
66.345 32.019672
66.350 32.242958
66.355 32.807762
66.360 32.612083
66.365 31.844103
66.370 31.121902
66.375 30.098364
66.380 29.480274
66.385 28.932329
66.390 28.231888
66.395 27.727133
66.400 28.008963
66.405 28.176735
66.410 27.689568
66.415 27.450418
66.420 27.063942
66.425 27.139811
66.430 27.689419
66.435 27.854082
66.440 27.407574
66.445 27.273327
66.450 26.582205
66.455 25.972376
66.460 25.332644
66.465 24.532047
66.470 23.896824
66.475 23.984941
66.480 24.793312
66.485 25.296967
66.490 25.274361
66.495 25.761292
66.500 26.084303
66.505 25.44352
66.510 24.91017
66.515 24.507294
66.520 24.881834
66.525 25.444691
66.530 24.937304
66.535 24.792484
66.540 25.453482
66.545 25.750515
66.550 25.877304
66.555 26.110897
66.560 27.148216
66.565 27.576464
66.570 28.302629
66.575 28.729303
66.580 27.98385
66.585 27.168507
66.590 26.910263
66.595 25.854792
66.600 25.688532
66.605 24.90617
66.610 23.791006
66.615 23.755903
66.620 23.975855
66.625 23.38793
66.630 23.074505
66.635 22.878607
66.640 23.182072
66.645 23.448385
66.650 23.469059
66.655 23.329552
66.660 23.290926
66.665 23.021408
66.670 22.562353
66.675 22.601665
66.680 22.878315
66.685 22.584076
66.690 22.253241
66.695 21.867508
66.700 21.564423
66.705 21.545172
66.710 21.21381
66.715 20.844049
66.720 20.656034
66.725 20.443443
66.730 19.939577
66.735 19.812735
66.740 19.773838
66.745 19.8006
66.750 19.753489
66.755 19.334929
66.760 19.797316
66.765 20.416828
66.770 19.913784
66.775 19.936399
66.780 19.576496
66.785 19.609489
66.790 20.331722
66.795 20.49873
66.800 21.057472
66.805 22.058426
66.810 22.048258
66.815 21.394606
66.820 21.498808
66.825 20.755812
66.830 21.081705
66.835 20.136488
66.840 19.307524
66.845 19.091948
66.850 19.34882
66.855 19.034452
66.860 19.228075
66.865 18.905199
66.870 19.328499
66.875 19.85573
66.880 19.761383
66.885 19.650795
66.890 19.689533
66.895 19.303583
66.900 19.077078
66.905 18.546179
66.910 18.480425
66.915 18.31572
66.920 18.483742
66.925 18.52463
66.930 18.437103
66.935 18.702593
66.940 19.33951
66.945 19.118988
66.950 19.553473
66.955 19.784409
66.960 19.896633
66.965 20.254627
66.970 20.325676
66.975 20.277647
66.980 21.176765
66.985 21.102274
66.990 21.056444
66.995 20.890463
67.000 19.873491
67.005 19.237514
67.010 18.715647
67.015 18.138412
67.020 18.118353
67.025 18.261438
67.030 18.451647
67.035 19.485506
67.040 19.979349
67.045 19.816231
67.050 19.678371
67.055 19.718994
67.060 19.705256
67.065 19.737148
67.070 19.699995
67.075 20.257719
67.080 20.920855
67.085 21.200626
67.090 20.815779
67.095 20.491724
67.100 20.576859
67.105 20.270519
67.110 19.862974
67.115 19.983738
67.120 20.13376
67.125 21.184425
67.130 21.587017
67.135 21.545261
67.140 21.201374
67.145 21.507195
67.150 21.36867
67.155 21.028658
67.160 20.623981
67.165 20.007008
67.170 19.914448
67.175 20.153999
67.180 20.098257
67.185 19.727463
67.190 19.801563
67.195 19.965172
67.200 20.471806
67.205 20.79805
67.210 20.381573
67.215 19.952337
67.220 20.263998
67.225 19.825928
67.230 19.417013
67.235 19.567654
67.240 19.356955
67.245 19.553797
67.250 19.385574
67.255 19.292229
67.260 19.675938
67.265 20.043581
67.270 19.982368
67.275 19.593544
67.280 19.166035
67.285 19.484585
67.290 19.524124
67.295 19.009451
67.300 19.032364
67.305 19.022127
67.310 19.444061
67.315 19.558781
67.320 19.542206
67.325 19.628119
67.330 19.547144
67.335 19.363564
67.340 19.345552
67.345 19.269049
67.350 19.482416
67.355 19.034342
67.360 18.638613
67.365 19.272141
67.370 18.758417
67.375 18.342669
67.380 18.767948
67.385 18.604235
67.390 18.592819
67.395 18.396235
67.400 17.90708
67.405 18.574734
67.410 18.909456
67.415 18.920067
67.420 19.003023
67.425 19.36392
67.430 20.119982
67.435 20.451698
67.440 20.24568
67.445 19.957205
67.450 19.782202
67.455 19.863817
67.460 19.225927
67.465 18.694868
67.470 18.050114
67.475 17.332188
67.480 16.981071
67.485 17.238817
67.490 17.479815
67.495 17.845972
67.500 18.212885
67.505 18.36775
67.510 18.949308
67.515 19.066534
67.520 18.839151
67.525 18.922155
67.530 18.949718
67.535 18.948956
67.540 19.019077
67.545 18.896723
67.550 19.081409
67.555 19.162384
67.560 18.684612
67.565 18.772787
67.570 18.751179
67.575 18.957592
67.580 18.906231
67.585 18.875637
67.590 18.939272
67.595 19.694258
67.600 19.831472
67.605 19.777
67.610 19.904348
67.615 19.858271
67.620 19.991007
67.625 19.745029
67.630 19.652119
67.635 19.000986
67.640 18.99481
67.645 19.347673
67.650 19.784494
67.655 19.603275
67.660 19.81546
67.665 19.806225
67.670 20.010403
67.675 20.323679
67.680 20.298225
67.685 20.546978
67.690 20.840574
67.695 20.937628
67.700 21.046038
67.705 20.702385
67.710 20.053663
67.715 19.191322
67.720 19.13645
67.725 19.266222
67.730 19.08082
67.735 19.245169
67.740 19.724653
67.745 20.077181
67.750 20.118752
67.755 19.860313
67.760 19.664875
67.765 20.190674
67.770 20.169634
67.775 19.960678
67.780 19.568922
67.785 19.296814
67.790 19.4219
67.795 19.329159
67.800 18.796963
67.805 18.552259
67.810 18.705374
67.815 18.713194
67.820 19.252953
67.825 19.291813
67.830 18.684153
67.835 18.449156
67.840 18.161144
67.845 18.129927
67.850 18.749165
67.855 18.997168
67.860 18.770054
67.865 18.945711
67.870 18.649412
67.875 18.730322
67.880 18.397591
67.885 18.056578
67.890 17.765474
67.895 17.510735
67.900 18.253159
67.905 19.071779
67.910 19.298914
67.915 19.839022
67.920 19.925827
67.925 20.126787
67.930 20.120356
67.935 19.629368
67.940 19.730511
67.945 19.458506
67.950 19.170275
67.955 19.04421
67.960 19.115553
67.965 19.787876
67.970 19.651615
67.975 19.3752
67.980 19.904627
67.985 20.434015
67.990 20.779955
67.995 20.094231
68.000 20.184187
68.005 20.568562
68.010 21.179026
68.015 21.332205
68.020 21.25765
68.025 21.581131
68.030 21.72897
68.035 21.758543
68.040 21.820026
68.045 21.635698
68.050 21.566328
68.055 21.134369
68.060 20.724195
68.065 20.205687
68.070 20.371553
68.075 20.188517
68.080 19.712337
68.085 19.603115
68.090 19.701504
68.095 19.737225
68.100 20.158478
68.105 19.81772
68.110 19.698732
68.115 20.365408
68.120 20.297335
68.125 20.652279
68.130 20.737158
68.135 20.992704
68.140 21.069046
68.145 20.677061
68.150 20.770845
68.155 20.039991
68.160 19.646549
68.165 19.533901
68.170 18.77352
68.175 18.035824
68.180 18.021078
68.185 18.333313
68.190 19.079435
68.195 19.198473
68.200 19.139812
68.205 19.504625
68.210 20.355886
68.215 21.040228
68.220 21.009142
68.225 21.129681
68.230 21.148916
68.235 21.304516
68.240 20.986036
68.245 21.159485
68.250 20.785164
68.255 19.821581
68.260 19.757626
68.265 20.390482
68.270 21.130476
68.275 21.549347
68.280 20.811489
68.285 20.716797
68.290 21.131948
68.295 20.964508
68.300 20.630552
68.305 20.330635
68.310 20.343992
68.315 20.643412
68.320 20.381924
68.325 21.007589
68.330 20.909624
68.335 21.071384
68.340 21.241226
68.345 21.301657
68.350 21.389227
68.355 21.259344
68.360 21.097752
68.365 20.759869
68.370 20.455006
68.375 20.533075
68.380 20.271971
68.385 20.408289
68.390 20.657127
68.395 20.888735
68.400 21.48278
68.405 21.6604
68.410 21.87808
68.415 22.571795
68.420 22.819244
68.425 22.523016
68.430 22.313343
68.435 22.272673
68.440 22.217894
68.445 21.817278
68.450 22.2749
68.455 22.943031
68.460 23.028439
68.465 23.274197
68.470 23.379929
68.475 23.440737
68.480 23.574293
68.485 22.97183
68.490 22.99988
68.495 23.503651
68.500 23.425491
68.505 23.241774
68.510 23.18199
68.515 22.846054
68.520 23.203529
68.525 23.456785
68.530 23.196468
68.535 23.380331
68.540 23.991953
68.545 24.433935
68.550 24.756416
68.555 24.453327
68.560 24.261194
68.565 24.762897
68.570 24.548189
68.575 24.273058
68.580 24.125742
68.585 24.515219
68.590 24.970142
68.595 25.327999
68.600 24.820595
68.605 24.602663
68.610 24.390156
68.615 24.655947
68.620 24.329782
68.625 23.711559
68.630 23.26132
68.635 23.736179
68.640 23.891361
68.645 23.740726
68.650 23.493736
68.655 23.836435
68.660 24.092659
68.665 24.280355
68.670 24.708372
68.675 24.970903
68.680 25.612112
68.685 25.570723
68.690 25.660465
68.695 25.869261
68.700 26.25123
68.705 26.674944
68.710 27.078108
68.715 27.020882
68.720 27.246037
68.725 27.173227
68.730 26.529474
68.735 26.242651
68.740 26.34479
68.745 25.922455
68.750 26.010763
68.755 25.810036
68.760 25.885002
68.765 26.232086
68.770 26.437872
68.775 25.986246
68.780 26.359413
68.785 26.909546
68.790 27.671936
68.795 28.144924
68.800 28.911676
68.805 28.801201
68.810 29.135664
68.815 28.91032
68.820 28.28178
68.825 27.836929
68.830 27.959641
68.835 27.740055
68.840 27.931479
68.845 27.709915
68.850 27.728956
68.855 27.322643
68.860 27.723845
68.865 26.976242
68.870 27.322432
68.875 27.597809
68.880 28.167568
68.885 28.358318
68.890 29.267475
68.895 30.107821
68.900 31.751738
68.905 31.096056
68.910 30.723495
68.915 31.057463
68.920 31.303825
68.925 31.516354
68.930 30.997629
68.935 30.614262
68.940 30.45182
68.945 30.426226
68.950 30.556395
68.955 30.716423
68.960 30.498949
68.965 30.32123
68.970 30.478523
68.975 31.723362
68.980 32.436012
68.985 32.383018
68.990 32.489998
68.995 32.731842
69.000 33.073906
69.005 33.251781
69.010 33.237957
69.015 32.388977
69.020 32.225445
69.025 31.720417
69.030 31.38138
69.035 31.467388
69.040 30.864859
69.045 30.553856
69.050 30.521536
69.055 30.554575
69.060 30.407318
69.065 31.025927
69.070 31.353081
69.075 30.803961
69.080 31.656906
69.085 32.171242
69.090 32.602417
69.095 33.460468
69.100 33.655437
69.105 33.375774
69.110 33.384113
69.115 32.93137
69.120 32.767902
69.125 32.13316
69.130 31.556053
69.135 31.074308
69.140 31.9562
69.145 32.119099
69.150 31.660456
69.155 32.074631
69.160 32.288647
69.165 31.970438
69.170 32.418415
69.175 31.902988
69.180 32.657936
69.185 32.370274
69.190 31.65799
69.195 31.438566
69.200 30.969063
69.205 30.503582
69.210 30.238062
69.215 30.261496
69.220 30.588556
69.225 30.83877
69.230 31.017658
69.235 31.876852
69.240 31.202185
69.245 31.047176
69.250 30.728724
69.255 30.68359
69.260 30.648663
69.265 30.530941
69.270 30.383579
69.275 30.560001
69.280 30.087936
69.285 29.897163
69.290 29.390417
69.295 28.86297
69.300 29.01465
69.305 29.034637
69.310 29.670971
69.315 29.704195
69.320 29.237652
69.325 29.322283
69.330 30.165619
69.335 29.093138
69.340 28.931963
69.345 28.60598
69.350 29.344297
69.355 29.337793
69.360 29.598267
69.365 29.391077
69.370 29.571692
69.375 28.763786
69.380 27.761778
69.385 27.153713
69.390 27.368565
69.395 27.087507
69.400 27.420378
69.405 27.37076
69.410 28.714359
69.415 30.089649
69.420 30.2894
69.425 30.135281
69.430 30.549572
69.435 30.884077
69.440 31.38155
69.445 31.618361
69.450 31.280872
69.455 31.354973
69.460 30.28153
69.465 29.226416
69.470 29.186392
69.475 29.355627
69.480 28.85387
69.485 28.316751
69.490 29.419895
69.495 30.88018
69.500 31.289171
69.505 30.568249
69.510 30.003716
69.515 29.354034
69.520 29.175007
69.525 28.442389
69.530 27.306786
69.535 27.29612
69.540 27.610783
69.545 27.459499
69.550 27.249449
69.555 27.346375
69.560 27.185612
69.565 27.770252
69.570 28.418604
69.575 28.573389
69.580 28.863903
69.585 29.760651
69.590 29.257904
69.595 29.408676
69.600 29.361746
69.605 28.214514
69.610 27.745754
69.615 27.300127
69.620 26.313951
69.625 26.625418
69.630 26.470476
69.635 26.51586
69.640 27.437761
69.645 27.682201
69.650 27.761206
69.655 28.103495
69.660 27.625553
69.665 27.076048
69.670 26.019554
69.675 24.88974
69.680 24.39023
69.685 24.546019
69.690 24.515835
69.695 23.751293
69.700 23.552179
69.705 23.856323
69.710 23.743235
69.715 23.289463
69.720 22.955267
69.725 22.716183
69.730 23.418936
69.735 23.595472
69.740 23.386915
69.745 23.922815
69.750 23.748734
69.755 23.697075
69.760 23.868164
69.765 23.775805
69.770 24.236483
69.775 25.032423
69.780 24.714317
69.785 25.34115
69.790 25.374748
69.795 25.209833
69.800 25.060326
69.805 24.447533
69.810 24.048172
69.815 24.185299
69.820 23.321957
69.825 23.129814
69.830 22.891453
69.835 23.012672
69.840 22.448204
69.845 22.222383
69.850 22.006956
69.855 22.3624
69.860 22.257523
69.865 22.483578
69.870 22.310013
69.875 22.78026
69.880 23.000057
69.885 22.900932
69.890 22.496149
69.895 21.690161
69.900 21.514917
69.905 21.226847
69.910 21.007256
69.915 20.924721
69.920 20.89476
69.925 20.67404
69.930 20.468119
69.935 20.614544
69.940 20.644014
69.945 20.637245
69.950 19.980612
69.955 21.010143
69.960 21.798012
69.965 22.16918
69.970 21.570934
69.975 21.44228
69.980 20.745434
69.985 21.07094
69.990 20.778835
69.995 20.251389
70.000 19.445435
70.005 19.004238
70.010 19.588924
70.015 19.924465
70.020 19.738956
70.025 19.117603
70.030 18.79578
70.035 19.274929
70.040 19.895906
70.045 19.812668
70.050 19.537807
70.055 19.646835
70.060 19.957355
70.065 20.291946
70.070 20.296541
70.075 19.817961
70.080 19.806379
70.085 19.958708
70.090 19.465332
70.095 19.587784
70.100 20.076471
70.105 20.18289
70.110 20.009434
70.115 20.557051
70.120 20.828766
70.125 21.120777
70.130 21.081806
70.135 20.968931
70.140 20.850092
70.145 21.080256
70.150 20.511398
70.155 20.261406
70.160 19.859203
70.165 19.339071
70.170 18.928209
70.175 18.597551
70.180 17.945601
70.185 17.435278
70.190 17.823343
70.195 18.491152
70.200 18.402781
70.205 18.699501
70.210 18.930519
70.215 19.661522
70.220 20.22291
70.225 20.048155
70.230 19.760565
70.235 19.542557
70.240 19.068354
70.245 18.955544
70.250 18.562864
70.255 18.604473
70.260 18.206669
70.265 18.496338
70.270 19.022741
70.275 19.452261
70.280 18.808123
70.285 18.843201
70.290 18.223499
70.295 18.359465
70.300 18.550514
70.305 18.344439
70.310 17.914335
70.315 18.348167
70.320 18.141874
70.325 18.363848
70.330 17.913723
70.335 17.259916
70.340 17.819582
70.345 18.036118
70.350 18.178812
70.355 18.042843
70.360 17.970787
70.365 17.977308
70.370 18.047575
70.375 17.747589
70.380 17.607225
70.385 17.385914
70.390 16.927483
70.395 17.131073
70.400 18.443701
70.405 18.866447
70.410 18.486586
70.415 18.467211
70.420 18.045803
70.425 18.148003
70.430 17.891184
70.435 17.1075
70.440 17.257883
70.445 17.652981
70.450 17.643156
70.455 18.322107
70.460 18.76199
70.465 18.89864
70.470 19.08754
70.475 18.932337
70.480 18.889221
70.485 18.950054
70.490 19.281929
70.495 19.053616
70.500 18.659492
70.505 18.376827
70.510 18.709673
70.515 18.814146
70.520 18.836971
70.525 18.191004
70.530 18.324144
70.535 18.338289
70.540 17.785429
70.545 17.661705
70.550 17.530861
70.555 17.761284
70.560 18.062763
70.565 17.755358
70.570 17.76223
70.575 17.80369
70.580 17.556526
70.585 17.519558
70.590 17.387825
70.595 17.44977
70.600 17.64225
70.605 18.308458
70.610 19.240482
70.615 20.078339
70.620 20.460505
70.625 20.488747
70.630 20.79118
70.635 20.749437
70.640 20.452219
70.645 20.112841
70.650 19.861818
70.655 19.812666
70.660 19.832472
70.665 19.356367
70.670 19.016043
70.675 18.901506
70.680 18.79077
70.685 18.303997
70.690 18.993393
70.695 19.237286
70.700 19.381996
70.705 19.291685
70.710 18.791122
70.715 18.86417
70.720 18.679146
70.725 18.020201
70.730 17.546968
70.735 17.424149
70.740 17.816538
70.745 18.181562
70.750 17.77442
70.755 18.244337
70.760 18.867733
70.765 18.99436
70.770 19.529488
70.775 19.070568
70.780 18.752064
70.785 17.998003
70.790 17.316702
70.795 17.047487
70.800 16.783665
70.805 16.386553
70.810 16.397781
70.815 16.920975
70.820 18.370781
70.825 18.396101
70.830 18.051527
70.835 17.986021
70.840 18.097799
70.845 17.972738
70.850 17.790939
70.855 17.532242
70.860 17.272219
70.865 17.568068
70.870 17.647226
70.875 17.867796
70.880 17.789038
70.885 17.731075
70.890 17.853865
70.895 17.413095
70.900 17.613256
70.905 17.94038
70.910 17.90242
70.915 17.598547
70.920 16.97105
70.925 16.643332
70.930 17.138817
70.935 16.962017
70.940 16.505419
70.945 16.500412
70.950 17.254814
70.955 18.408737
70.960 18.390043
70.965 17.807486
70.970 17.59041
70.975 17.623928
70.980 17.595564
70.985 17.236107
70.990 17.074888
70.995 18.091133
71.000 19.075962
71.005 19.714605
71.010 20.242212
71.015 20.380802
71.020 20.5026
71.025 20.447565
71.030 19.754768
71.035 18.715736
71.040 18.189947
71.045 18.111898
71.050 17.912466
71.055 18.122887
71.060 18.00997
71.065 18.567682
71.070 19.462975
71.075 19.639408
71.080 19.871851
71.085 19.580067
71.090 19.199938
71.095 19.747702
71.100 18.696405
71.105 18.347414
71.110 17.577606
71.115 17.573618
71.120 17.859243
71.125 17.167625
71.130 17.210022
71.135 18.431534
71.140 18.56638
71.145 18.828539
71.150 18.63278
71.155 19.01823
71.160 19.681154
71.165 19.686258
71.170 19.49432
71.175 19.813866
71.180 20.535147
71.185 20.56065
71.190 20.803055
71.195 20.492929
71.200 20.371315
71.205 20.114183
71.210 19.969196
71.215 19.623335
71.220 19.522947
71.225 19.017954
71.230 18.666872
71.235 17.544514
71.240 17.290199
71.245 16.966894
71.250 16.95611
71.255 16.738201
71.260 16.404232
71.265 16.912437
71.270 17.550014
71.275 18.184895
71.280 18.47398
71.285 19.18214
71.290 19.870056
71.295 20.117611
71.300 20.086685
71.305 20.101534
71.310 19.473286
71.315 18.8792
71.320 17.940842
71.325 17.506638
71.330 16.752495
71.335 16.211285
71.340 16.260368
71.345 16.336008
71.350 16.32431
71.355 16.291473
71.360 16.807833
71.365 17.916983
71.370 17.76273
71.375 18.324331
71.380 18.584396
71.385 19.093605
71.390 18.622044
71.395 18.343889
71.400 17.930429
71.405 18.523329
71.410 18.729202
71.415 18.586218
71.420 18.393789
71.425 19.619984
71.430 19.724874
71.435 19.845881
71.440 19.171841
71.445 18.885693
71.450 19.208723
71.455 19.31595
71.460 19.098013
71.465 19.501368
71.470 19.601128
71.475 19.70314
71.480 19.923016
71.485 19.802652
71.490 19.04084
71.495 17.850845
71.500 18.015257
71.505 17.585665
71.510 17.735348
71.515 17.753992
71.520 18.034405
71.525 18.788132
71.530 19.501543
71.535 19.692682
71.540 19.985275
71.545 19.820427
71.550 19.168419
71.555 18.90336
71.560 18.400898
71.565 18.080624
71.570 18.057076
71.575 18.310028
71.580 18.640856
71.585 19.30484
71.590 19.504313
71.595 19.542641
71.600 19.842642
71.605 19.864988
71.610 19.573359
71.615 19.378366
71.620 19.577961
71.625 19.666008
71.630 19.981499
71.635 19.160566
71.640 18.980139
71.645 19.327543
71.650 18.9387
71.655 18.589687
71.660 18.558855
71.665 18.596462
71.670 18.677206
71.675 19.05759
71.680 18.535175
71.685 18.783632
71.690 18.584854
71.695 18.565149
71.700 18.405079
71.705 17.965439
71.710 17.711933
71.715 17.799393
71.720 18.056623
71.725 18.055477
71.730 17.82336
71.735 17.912636
71.740 17.803589
71.745 18.195929
71.750 18.267593
71.755 18.061497
71.760 18.247387
71.765 18.189758
71.770 18.382133
71.775 18.808437
71.780 18.424124
71.785 18.064169
71.790 17.329681
71.795 17.057413
71.800 16.967838
71.805 16.799837
71.810 16.774481
71.815 16.699305
71.820 17.51211
71.825 17.878763
71.830 17.712978
71.835 18.091
71.840 18.537115
71.845 18.596167
71.850 18.385296
71.855 17.54907
71.860 17.444872
71.865 17.775095
71.870 17.263893
71.875 16.979681
71.880 16.956026
71.885 17.27639
71.890 17.58271
71.895 18.066628
71.900 18.343449
71.905 18.752466
71.910 19.276981
71.915 19.521069
71.920 19.855173
71.925 20.538433
71.930 20.005995
71.935 19.93997
71.940 19.760321
71.945 19.007292
71.950 18.82444
71.955 18.338448
71.960 18.083193
71.965 18.506151
71.970 18.50429
71.975 18.744707
71.980 19.268291
71.985 19.025223
71.990 18.845648
71.995 18.678551
72.000 18.669065
72.005 18.285019
72.010 17.483534
72.015 16.615067
72.020 16.578453
72.025 16.811876
72.030 16.886879
72.035 16.506748
72.040 17.122625
72.045 18.070797
72.050 18.928047
72.055 18.996773
72.060 18.420563
72.065 18.209597
72.070 18.16791
72.075 18.341719
72.080 18.274784
72.085 17.420969
72.090 17.852913
72.095 18.460209
72.100 18.74754
72.105 19.033409
72.110 18.717999
72.115 19.797131
72.120 20.572304
72.125 20.877007
72.130 21.223007
72.135 21.50112
72.140 21.408077
72.145 20.324316
72.150 19.708479
72.155 19.344419
72.160 18.976103
72.165 18.421917
72.170 17.829979
72.175 17.581306
72.180 17.376125
72.185 17.092278
72.190 16.476841
72.195 16.163261
72.200 16.167812
72.205 16.576878
72.210 16.656094
72.215 16.992531
72.220 16.948227
72.225 17.366587
72.230 17.237549
72.235 17.542931
72.240 17.859959
72.245 18.230885
72.250 18.081026
72.255 17.921795
72.260 18.257921
72.265 18.258858
72.270 18.287455
72.275 17.889719
72.280 18.201305
72.285 18.922323
72.290 19.022141
72.295 19.045553
72.300 18.952242
72.305 18.73406
72.310 18.911329
72.315 18.896286
72.320 18.004404
72.325 17.33123
72.330 17.222158
72.335 17.260691
72.340 17.422766
72.345 17.198578
72.350 16.749252
72.355 17.539497
72.360 18.26298
72.365 18.502926
72.370 18.708311
72.375 18.92417
72.380 19.070539
72.385 19.254694
72.390 18.708803
72.395 18.970491
72.400 18.582413
72.405 18.305943
72.410 18.257879
72.415 18.82897
72.420 18.702597
72.425 18.322678
72.430 18.190187
72.435 18.704489
72.440 18.495802
72.445 17.891487
72.450 17.819143
72.455 17.96343
72.460 18.223166
72.465 18.13113
72.470 18.172398
72.475 18.538956
72.480 18.329245
72.485 17.939619
72.490 18.431965
72.495 18.204554
72.500 17.375374
72.505 17.048729
72.510 17.148586
72.515 17.313442
72.520 17.422367
72.525 17.197268
72.530 17.496759
72.535 18.304049
72.540 18.126249
72.545 18.086714
72.550 18.187468
72.555 17.835936
72.560 17.96559
72.565 17.900293
72.570 18.10471
72.575 17.948303
72.580 17.984745
72.585 18.757956
72.590 19.289995
72.595 19.012293
72.600 19.453283
72.605 19.275503
72.610 19.015345
72.615 19.014523
72.620 18.024088
72.625 18.147779
72.630 18.387417
72.635 17.621601
72.640 17.136658
72.645 16.597986
72.650 16.27062
72.655 16.500238
72.660 15.917476
72.665 15.889088
72.670 16.565989
72.675 17.129639
72.680 17.724688
72.685 17.67457
72.690 17.587931
72.695 18.139927
72.700 18.426979
72.705 18.275513
72.710 18.175627
72.715 17.952011
72.720 17.955084
72.725 17.754374
72.730 17.239803
72.735 16.87748
72.740 17.147415
72.745 17.147827
72.750 17.135887
72.755 17.216415
72.760 17.577
72.765 17.905254
72.770 17.505573
72.775 17.487162
72.780 18.210711
72.785 17.895329
72.790 18.119032
72.795 18.054657
72.800 18.371494
72.805 18.570868
72.810 18.732996
72.815 18.343489
72.820 18.337162
72.825 17.93405
72.830 17.380833
72.835 16.765265
72.840 16.550354
72.845 16.408131
72.850 16.533056
72.855 16.632257
72.860 16.99346
72.865 17.858704
72.870 18.130077
72.875 17.980152
72.880 18.343878
72.885 19.15193
72.890 19.19828
72.895 19.23432
72.900 18.346989
72.905 18.582134
72.910 18.330841
72.915 17.977985
72.920 17.662395
72.925 17.046329
72.930 16.746946
72.935 17.116909
72.940 16.867422
72.945 17.406918
72.950 17.383692
72.955 17.192799
72.960 17.199364
72.965 17.285645
72.970 17.057032
72.975 16.810987
72.980 16.28722
72.985 15.667994
72.990 16.041224
72.995 15.935802
73.000 16.041382
