!@!!GADDS PLOTSO FILE: Chi integration type
!@!!Title/SampleName: map-131
!@!!Comment: ?
!@!!User: Bruker Instrument Administrator
!@!!Site: University of Illinois Chicago
!@!!Frame: map-131_01_000.gfrm
!@!!Wavelengths    1.54184   1.54056   1.54439
!@!!Frame angles: 2Theta: 63.000 Omega: 50.000 Phi: 0.000 Chi: 90.000
!@!!Integration range: 2Theta: 53.000 to 73.000  Gamma: -105.000 to -75.000
!@!!Integration method: bin normalized
!@!N
!@!SS
!@!M
!@!L 0.0 0.0 0.0 0.0
!@!XDegrees
!@!YCounts
53.000 4.11382
53.005 4.149312
53.010 3.985763
53.015 3.74608
53.020 3.486317
53.025 3.06728
53.030 2.899629
53.035 2.844171
53.040 3.023659
53.045 3.408804
53.050 3.491096
53.055 3.88817
53.060 4.179286
53.065 4.517108
53.070 4.924843
53.075 4.935397
53.080 4.887375
53.085 5.06784
53.090 4.857868
53.095 4.887085
53.100 4.737994
53.105 4.493116
53.110 4.23303
53.115 4.081399
53.120 4.200866
53.125 4.394108
53.130 4.033995
53.135 4.071458
53.140 4.213646
53.145 4.333322
53.150 4.152778
53.155 3.774404
53.160 3.895195
53.165 4.081785
53.170 4.13656
53.175 4.039307
53.180 4.204895
53.185 4.546415
53.190 4.604164
53.195 4.64178
53.200 4.66149
53.205 4.446771
53.210 4.65432
53.215 4.450085
53.220 4.367714
53.225 4.450471
53.230 4.4855
53.235 4.334697
53.240 4.407595
53.245 4.159687
53.250 4.296839
53.255 4.287228
53.260 4.166677
53.265 3.848641
53.270 4.075117
53.275 4.466693
53.280 4.689714
53.285 4.529897
53.290 4.538929
53.295 4.556977
53.300 4.489111
53.305 4.099368
53.310 3.863777
53.315 3.888873
53.320 4.05933
53.325 4.156848
53.330 4.221799
53.335 4.468006
53.340 4.524295
53.345 4.047567
53.350 4.007278
53.355 3.840469
53.360 3.583173
53.365 3.678857
53.370 3.832939
53.375 3.95815
53.380 4.293871
53.385 4.960227
53.390 5.376275
53.395 5.653036
53.400 5.431654
53.405 5.457129
53.410 5.489846
53.415 5.262722
53.420 4.728116
53.425 4.766957
53.430 4.837603
53.435 4.639217
53.440 4.521998
53.445 4.525326
53.450 4.588342
53.455 4.275605
53.460 4.193222
53.465 4.115973
53.470 4.311309
53.475 4.594266
53.480 4.79155
53.485 4.733832
53.490 4.831171
53.495 4.899867
53.500 5.211339
53.505 5.213516
53.510 4.877211
53.515 4.627145
53.520 4.586116
53.525 4.476792
53.530 4.640013
53.535 4.575823
53.540 4.367841
53.545 4.484769
53.550 4.695653
53.555 4.627707
53.560 4.493255
53.565 4.00644
53.570 3.814804
53.575 3.704411
53.580 3.637197
53.585 3.84938
53.590 4.014598
53.595 4.192571
53.600 4.538797
53.605 4.797266
53.610 5.035937
53.615 4.984333
53.620 4.590416
53.625 5.032957
53.630 4.929157
53.635 5.159904
53.640 5.357471
53.645 5.53585
53.650 5.62629
53.655 5.838252
53.660 5.809129
53.665 5.809227
53.670 5.43735
53.675 5.63043
53.680 5.768467
53.685 5.686215
53.690 5.544023
53.695 5.266476
53.700 5.384476
53.705 5.851514
53.710 5.606656
53.715 5.393095
53.720 5.404071
53.725 5.556021
53.730 5.620917
53.735 5.495724
53.740 5.112128
53.745 4.816053
53.750 4.987982
53.755 4.704151
53.760 4.384819
53.765 4.423427
53.770 4.318913
53.775 4.613574
53.780 4.815554
53.785 4.775868
53.790 4.899796
53.795 5.225242
53.800 4.991967
53.805 4.990491
53.810 4.503603
53.815 4.312458
53.820 4.442345
53.825 4.689858
53.830 4.498879
53.835 4.753109
53.840 4.854802
53.845 5.106766
53.850 5.26931
53.855 5.215116
53.860 5.419392
53.865 5.664747
53.870 5.302819
53.875 5.261139
53.880 5.404925
53.885 5.592062
53.890 5.749869
53.895 5.726434
53.900 5.446774
53.905 5.566758
53.910 5.703309
53.915 5.467164
53.920 5.112422
53.925 4.678684
53.930 4.124811
53.935 4.097686
53.940 4.052256
53.945 3.830759
53.950 3.952699
53.955 4.275679
53.960 4.380823
53.965 4.671929
53.970 4.840436
53.975 4.922519
53.980 5.344573
53.985 5.080216
53.990 4.919914
53.995 5.176703
54.000 5.589262
54.005 5.572013
54.010 5.844055
54.015 5.849596
54.020 6.156323
54.025 6.140909
54.030 5.783977
54.035 5.638774
54.040 5.598944
54.045 5.254544
54.050 5.002897
54.055 4.805562
54.060 5.006814
54.065 5.203227
54.070 5.124458
54.075 4.910889
54.080 5.072743
54.085 5.035448
54.090 4.988259
54.095 4.792033
54.100 4.43579
54.105 4.802887
54.110 5.152652
54.115 4.942184
54.120 4.98743
54.125 5.152335
54.130 5.251051
54.135 5.412066
54.140 5.283643
54.145 5.412864
54.150 5.412547
54.155 5.353994
54.160 4.965998
54.165 4.934582
54.170 4.914625
54.175 4.295824
54.180 4.22547
54.185 4.207065
54.190 4.590603
54.195 5.049191
54.200 5.007875
54.205 5.221762
54.210 5.511591
54.215 5.880742
54.220 6.067563
54.225 5.960949
54.230 5.590402
54.235 5.482201
54.240 5.399107
54.245 5.190154
54.250 4.867497
54.255 4.849648
54.260 4.877151
54.265 5.42993
54.270 5.576149
54.275 5.469339
54.280 5.460747
54.285 5.5365
54.290 5.719157
54.295 6.079254
54.300 5.882803
54.305 5.953811
54.310 5.90726
54.315 5.907432
54.320 5.863981
54.325 5.647158
54.330 5.086257
54.335 4.988376
54.340 4.827699
54.345 5.110425
54.350 5.14229
54.355 5.281638
54.360 5.382592
54.365 5.391736
54.370 5.413489
54.375 5.529527
54.380 5.582273
54.385 5.704775
54.390 5.679758
54.395 5.40374
54.400 5.328165
54.405 5.278966
54.410 5.213725
54.415 5.043326
54.420 4.862576
54.425 4.820329
54.430 4.924353
54.435 5.077535
54.440 4.939478
54.445 5.225768
54.450 5.2839
54.455 5.253041
54.460 5.322462
54.465 5.29411
54.470 5.161357
54.475 5.181802
54.480 4.755778
54.485 4.932904
54.490 5.002973
54.495 4.814362
54.500 4.605147
54.505 4.849264
54.510 5.061986
54.515 4.787854
54.520 4.667161
54.525 4.737496
54.530 5.160336
54.535 5.471575
54.540 5.477977
54.545 5.629004
54.550 6.010486
54.555 5.902306
54.560 5.666153
54.565 5.232356
54.570 4.993349
54.575 4.778103
54.580 4.353968
54.585 4.642855
54.590 4.50104
54.595 4.404577
54.600 4.418083
54.605 4.536513
54.610 4.53496
54.615 4.490677
54.620 4.152571
54.625 4.352
54.630 4.610284
54.635 4.749665
54.640 5.088506
54.645 5.523731
54.650 5.472341
54.655 5.364979
54.660 5.531
54.665 5.413662
54.670 5.533782
54.675 5.650741
54.680 5.65686
54.685 6.013206
54.690 6.421903
54.695 6.208718
54.700 6.06035
54.705 5.916475
54.710 5.482879
54.715 5.257823
54.720 5.000094
54.725 4.824329
54.730 4.802116
54.735 4.882287
54.740 4.862084
54.745 4.89985
54.750 5.314709
54.755 5.284255
54.760 5.635211
54.765 6.131776
54.770 6.278961
54.775 6.379436
54.780 6.58629
54.785 6.503827
54.790 6.660439
54.795 6.413205
54.800 6.113658
54.805 6.00487
54.810 6.134173
54.815 5.826568
54.820 5.938592
54.825 5.879797
54.830 6.007963
54.835 6.29046
54.840 6.498735
54.845 6.57357
54.850 6.420936
54.855 6.408267
54.860 6.380562
54.865 6.052727
54.870 5.714111
54.875 5.652571
54.880 5.327018
54.885 5.363333
54.890 5.540045
54.895 5.739151
54.900 5.866783
54.905 5.620532
54.910 5.462362
54.915 5.586493
54.920 5.319605
54.925 4.852268
54.930 4.749048
54.935 4.846165
54.940 5.237233
54.945 5.535037
54.950 5.819488
54.955 6.15637
54.960 6.389125
54.965 6.221183
54.970 6.045693
54.975 5.82568
54.980 5.44954
54.985 5.171077
54.990 4.740071
54.995 4.626468
55.000 4.996238
55.005 5.278694
55.010 5.472007
55.015 5.504523
55.020 5.655394
55.025 5.985705
55.030 5.855565
55.035 5.53754
55.040 5.564492
55.045 5.630235
55.050 5.650119
55.055 5.619749
55.060 5.642394
55.065 5.754195
55.070 5.687608
55.075 5.528657
55.080 5.523217
55.085 5.651
55.090 5.791235
55.095 5.870462
55.100 5.686016
55.105 5.624011
55.110 5.955727
55.115 5.912669
55.120 6.045531
55.125 6.016711
55.130 6.119271
55.135 6.50056
55.140 6.540108
55.145 6.102267
55.150 5.775825
55.155 5.579308
55.160 5.365365
55.165 5.261889
55.170 5.1175
55.175 5.42047
55.180 5.673721
55.185 5.676112
55.190 5.599669
55.195 5.330183
55.200 5.289924
55.205 5.183057
55.210 4.924214
55.215 4.904777
55.220 5.30564
55.225 5.358615
55.230 5.75931
55.235 6.048736
55.240 6.042342
55.245 6.04644
55.250 5.906017
55.255 5.911568
55.260 6.232815
55.265 6.137845
55.270 6.072679
55.275 6.421351
55.280 6.596239
55.285 6.666013
55.290 6.232886
55.295 6.339694
55.300 6.221279
55.305 6.256133
55.310 5.754335
55.315 5.653665
55.320 5.747764
55.325 5.75112
55.330 5.121687
55.335 5.003818
55.340 4.588403
55.345 4.758715
55.350 4.713234
55.355 4.765711
55.360 4.814856
55.365 5.356364
55.370 5.43795
55.375 5.651095
55.380 5.906197
55.385 5.969938
55.390 5.950071
55.395 6.116305
55.400 5.921027
55.405 6.486091
55.410 6.540158
55.415 6.286123
55.420 6.283195
55.425 6.751539
55.430 6.949986
55.435 7.169938
55.440 7.147343
55.445 7.61577
55.450 7.913032
55.455 8.034299
55.460 7.314294
55.465 7.0013
55.470 6.912117
55.475 6.410849
55.480 5.86162
55.485 5.55515
55.490 5.429201
55.495 5.874949
55.500 5.714808
55.505 5.776834
55.510 6.080645
55.515 6.462643
55.520 6.82058
55.525 6.971666
55.530 6.723072
55.535 6.774005
55.540 6.848737
55.545 6.43947
55.550 6.179583
55.555 6.383314
55.560 6.304052
55.565 6.30141
55.570 6.18356
55.575 6.143041
55.580 6.281878
55.585 6.345396
55.590 5.871874
55.595 6.054593
55.600 6.62982
55.605 6.530529
55.610 6.55933
55.615 6.340325
55.620 6.246417
55.625 6.541653
55.630 5.970263
55.635 5.292485
55.640 5.209831
55.645 5.493261
55.650 5.779881
55.655 5.734172
55.660 5.601124
55.665 6.147825
55.670 6.681126
55.675 6.571454
55.680 6.244801
55.685 6.227184
55.690 6.298185
55.695 6.219591
55.700 6.288473
55.705 6.365208
55.710 6.823642
55.715 6.905663
55.720 6.680658
55.725 6.697978
55.730 6.65858
55.735 6.847595
55.740 6.499023
55.745 6.256113
55.750 6.341495
55.755 6.925808
55.760 7.304452
55.765 7.753917
55.770 7.745471
55.775 7.839812
55.780 7.657827
55.785 7.392705
55.790 6.916472
55.795 6.750423
55.800 6.257205
55.805 6.104451
55.810 6.284661
55.815 6.458936
55.820 6.495096
55.825 6.342449
55.830 6.065869
55.835 5.97758
55.840 6.093877
55.845 6.073794
55.850 6.335921
55.855 6.755278
55.860 6.924579
55.865 7.153309
55.870 7.458377
55.875 7.222062
55.880 7.109062
55.885 6.65715
55.890 6.593028
55.895 6.674009
55.900 6.480167
55.905 6.387946
55.910 6.408949
55.915 6.527767
55.920 6.748886
55.925 6.468482
55.930 6.721712
55.935 7.213624
55.940 7.459057
55.945 7.779513
55.950 7.911103
55.955 7.811219
55.960 7.850124
55.965 7.558695
55.970 7.335593
55.975 7.10125
55.980 6.638383
55.985 6.694909
55.990 7.124382
55.995 7.48959
56.000 7.623763
56.005 7.280075
56.010 7.183942
56.015 7.133994
56.020 6.596361
56.025 6.442022
56.030 6.099748
56.035 6.131133
56.040 6.450675
56.045 6.689984
56.050 7.019702
56.055 7.466358
56.060 7.59477
56.065 7.719161
56.070 7.537296
56.075 6.986133
56.080 7.020382
56.085 7.030458
56.090 7.424169
56.095 7.457835
56.100 7.214102
56.105 7.371006
56.110 8.055786
56.115 7.82137
56.120 7.147058
56.125 6.22431
56.130 6.379673
56.135 6.483274
56.140 6.406679
56.145 6.037217
56.150 6.682793
56.155 7.168957
56.160 7.300889
56.165 7.322278
56.170 7.492582
56.175 7.772221
56.180 8.357095
56.185 7.952495
56.190 8.320886
56.195 8.133113
56.200 7.821497
56.205 7.772611
56.210 7.396675
56.215 7.202741
56.220 6.967061
56.225 7.057838
56.230 7.282059
56.235 7.164789
56.240 7.091165
56.245 6.695455
56.250 6.361559
56.255 6.374013
56.260 6.164823
56.265 6.325967
56.270 6.446147
56.275 6.368943
56.280 6.607734
56.285 6.569547
56.290 6.481743
56.295 6.649176
56.300 7.064892
56.305 7.231037
56.310 7.470659
56.315 7.978183
56.320 8.03246
56.325 7.942978
56.330 7.611422
56.335 7.281218
56.340 7.164957
56.345 6.979401
56.350 6.40344
56.355 6.440028
56.360 6.126002
56.365 5.619989
56.370 5.224694
56.375 5.247
56.380 5.361958
56.385 5.419313
56.390 5.399683
56.395 5.800064
56.400 6.080753
56.405 6.308074
56.410 6.420455
56.415 6.678569
56.420 7.251897
56.425 7.376862
56.430 7.417191
56.435 7.387902
56.440 7.247391
56.445 7.268801
56.450 7.002128
56.455 7.15066
56.460 7.072263
56.465 6.710496
56.470 6.907784
56.475 7.117097
56.480 7.025813
56.485 6.963616
56.490 6.708236
56.495 7.212759
56.500 7.445502
56.505 7.475479
56.510 7.396657
56.515 7.410411
56.520 7.652462
56.525 7.046094
56.530 6.928575
56.535 6.759946
56.540 6.795095
56.545 6.800318
56.550 6.957503
56.555 7.139448
56.560 7.62147
56.565 8.056527
56.570 8.378888
56.575 7.866138
56.580 8.032018
56.585 8.020463
56.590 7.579888
56.595 7.537753
56.600 7.164189
56.605 7.338647
56.610 7.775186
56.615 7.367463
56.620 7.086047
56.625 7.524798
56.630 8.047813
56.635 8.125181
56.640 7.810794
56.645 7.409273
56.650 7.438889
56.655 7.594729
56.660 6.874004
56.665 6.339447
56.670 6.345969
56.675 6.467824
56.680 6.872198
56.685 6.884759
56.690 6.940706
56.695 7.225863
56.700 6.887548
56.705 6.944443
56.710 6.981133
56.715 6.895567
56.720 7.102518
56.725 7.164703
56.730 7.089388
56.735 7.537191
56.740 7.458481
56.745 7.60352
56.750 7.612339
56.755 8.055364
56.760 8.225175
56.765 8.417179
56.770 7.996426
56.775 8.074361
56.780 7.943141
56.785 8.022174
56.790 7.967471
56.795 8.019091
56.800 8.001313
56.805 8.249979
56.810 8.158696
56.815 8.169855
56.820 7.67319
56.825 7.676542
56.830 7.576499
56.835 7.648542
56.840 7.580907
56.845 7.789626
56.850 8.046052
56.855 8.546301
56.860 8.267067
56.865 7.871935
56.870 7.716087
56.875 7.82337
56.880 7.798367
56.885 7.584159
56.890 7.308589
56.895 7.309315
56.900 7.481614
56.905 7.395165
56.910 7.399826
56.915 7.446128
56.920 7.540119
56.925 7.492264
56.930 7.710033
56.935 8.005404
56.940 7.725694
56.945 7.503452
56.950 7.187029
56.955 7.196586
56.960 6.978267
56.965 6.839495
56.970 6.518746
56.975 6.731098
56.980 6.928953
56.985 7.257235
56.990 7.440685
56.995 7.571029
57.000 7.422721
57.005 7.427958
57.010 7.149779
57.015 7.06929
57.020 6.905005
57.025 7.078614
57.030 7.161731
57.035 7.085498
57.040 7.123179
57.045 7.501366
57.050 7.717746
57.055 7.547273
57.060 7.474513
57.065 7.61963
57.070 7.827568
57.075 7.866458
57.080 7.812256
57.085 7.526139
57.090 7.527021
57.095 7.552696
57.100 7.868819
57.105 7.981594
57.110 8.084784
57.115 8.300576
57.120 8.207291
57.125 8.467463
57.130 8.233697
57.135 8.048598
57.140 8.268155
57.145 8.144417
57.150 7.935675
57.155 8.258206
57.160 8.112394
57.165 8.290641
57.170 8.433655
57.175 8.235376
57.180 8.366637
57.185 8.50687
57.190 8.279848
57.195 8.310621
57.200 7.937903
57.205 7.614273
57.210 7.320424
57.215 7.313852
57.220 7.347644
57.225 7.430266
57.230 7.309947
57.235 7.225429
57.240 7.463959
57.245 7.645437
57.250 7.672987
57.255 7.280609
57.260 7.26141
57.265 7.566229
57.270 7.654019
57.275 7.605449
57.280 7.353065
57.285 7.476294
57.290 7.86605
57.295 7.795473
57.300 7.651641
57.305 7.683838
57.310 7.787944
57.315 7.634416
57.320 7.06289
57.325 7.075325
57.330 7.385661
57.335 7.269444
57.340 7.16095
57.345 7.2203
57.350 7.865152
57.355 8.311194
57.360 8.244147
57.365 8.19538
57.370 8.498662
57.375 9.165977
57.380 9.29639
57.385 9.196001
57.390 9.07355
57.395 9.083973
57.400 8.905289
57.405 8.792694
57.410 8.10568
57.415 8.072985
57.420 8.144318
57.425 8.131345
57.430 7.943133
57.435 7.777386
57.440 7.801823
57.445 7.759434
57.450 7.747121
57.455 8.079589
57.460 8.428571
57.465 8.592784
57.470 8.721192
57.475 8.61302
57.480 8.668007
57.485 8.680211
57.490 8.420203
57.495 8.250969
57.500 8.43624
57.505 8.499058
57.510 8.717525
57.515 8.633768
57.520 8.092397
57.525 7.950486
57.530 8.004059
57.535 7.985835
57.540 8.282638
57.545 8.168317
57.550 8.313617
57.555 8.751638
57.560 9.248936
57.565 8.96175
57.570 8.505162
57.575 8.17644
57.580 8.34034
57.585 8.524455
57.590 8.493643
57.595 8.165734
57.600 8.656602
57.605 8.987548
57.610 9.585802
57.615 9.399301
57.620 9.248581
57.625 8.759118
57.630 8.355969
57.635 7.865029
57.640 7.774463
57.645 7.245119
57.650 7.174614
57.655 7.523005
57.660 7.801386
57.665 8.147742
57.670 8.553322
57.675 8.786278
57.680 9.08815
57.685 9.021904
57.690 8.766436
57.695 9.09478
57.700 9.154635
57.705 8.713455
57.710 8.375077
57.715 8.423479
57.720 8.397776
57.725 8.544365
57.730 8.36712
57.735 8.500242
57.740 8.954403
57.745 8.522907
57.750 8.724483
57.755 8.95442
57.760 8.703135
57.765 8.511851
57.770 8.410402
57.775 8.706305
57.780 9.511174
57.785 9.495461
57.790 9.540545
57.795 9.515506
57.800 9.575584
57.805 9.63817
57.810 9.215748
57.815 9.158175
57.820 9.192016
57.825 9.05277
57.830 8.973472
57.835 9.103733
57.840 9.206753
57.845 8.940307
57.850 8.675867
57.855 8.582898
57.860 8.584618
57.865 8.815123
57.870 8.659683
57.875 8.415892
57.880 8.709445
57.885 8.85254
57.890 8.96513
57.895 8.955745
57.900 8.915096
57.905 9.613424
57.910 9.849611
57.915 9.855864
57.920 9.546494
57.925 9.524082
57.930 9.716649
57.935 9.907424
57.940 9.148952
57.945 8.919064
57.950 8.681632
57.955 8.957598
57.960 8.769562
57.965 8.379466
57.970 8.376673
57.975 8.740667
57.980 8.867709
57.985 9.315376
57.990 9.710717
57.995 10.001858
58.000 10.421209
58.005 10.528628
58.010 10.209508
58.015 10.33942
58.020 9.753233
58.025 9.561163
58.030 9.564308
58.035 9.588049
58.040 9.128143
58.045 9.262162
58.050 9.002456
58.055 9.05434
58.060 8.986833
58.065 8.644996
58.070 8.582735
58.075 8.957335
58.080 9.170767
58.085 9.476892
58.090 9.368815
58.095 9.29331
58.100 9.82736
58.105 9.889537
58.110 9.882255
58.115 9.474016
58.120 9.376465
58.125 9.370258
58.130 9.598932
58.135 9.650331
58.140 9.58802
58.145 9.431044
58.150 9.802409
58.155 9.573183
58.160 9.684528
58.165 9.457071
58.170 9.487207
58.175 9.676474
58.180 9.831981
58.185 9.906127
58.190 10.303623
58.195 10.046086
58.200 9.907273
58.205 9.836664
58.210 9.861975
58.215 9.906204
58.220 9.859385
58.225 9.892274
58.230 10.271069
58.235 10.503455
58.240 10.24033
58.245 10.142147
58.250 10.24147
58.255 10.46879
58.260 10.300797
58.265 10.086305
58.270 9.989314
58.275 9.699103
58.280 9.754128
58.285 10.063681
58.290 9.531126
58.295 9.408851
58.300 9.477172
58.305 9.34761
58.310 10.315872
58.315 10.731355
58.320 10.51829
58.325 10.839645
58.330 10.963346
58.335 10.950734
58.340 11.042121
58.345 10.124143
58.350 9.96095
58.355 10.372123
58.360 10.364187
58.365 10.457693
58.370 11.225836
58.375 11.692873
58.380 11.795601
58.385 11.240857
58.390 11.316278
58.395 12.072214
58.400 12.026214
58.405 11.757321
58.410 11.451351
58.415 11.677341
58.420 11.831817
58.425 11.630278
58.430 11.451742
58.435 11.200933
58.440 11.111364
58.445 11.439392
58.450 11.200588
58.455 11.223828
58.460 11.12221
58.465 11.346689
58.470 11.856754
58.475 12.006249
58.480 12.135103
58.485 12.951118
58.490 13.714922
58.495 14.491371
58.500 14.551664
58.505 14.478616
58.510 14.595613
58.515 14.7731
58.520 14.906519
58.525 15.511407
58.530 14.895658
58.535 15.282639
58.540 15.84192
58.545 15.788408
58.550 15.808991
58.555 15.644126
58.560 15.073867
58.565 15.862688
58.570 16.591677
58.575 16.934137
58.580 17.495518
58.585 17.79491
58.590 18.378927
58.595 19.241064
58.600 19.576214
58.605 19.432219
58.610 19.512754
58.615 19.775755
58.620 20.067099
58.625 19.720612
58.630 19.513292
58.635 19.37019
58.640 18.750298
58.645 18.960884
58.650 18.550304
58.655 18.757057
58.660 18.980995
58.665 18.906353
58.670 19.052662
58.675 19.147545
58.680 19.093786
58.685 19.052969
58.690 18.780046
58.695 19.19083
58.700 19.264833
58.705 19.094746
58.710 19.823921
58.715 19.403097
58.720 19.509876
58.725 19.51889
58.730 19.06572
58.735 18.987486
58.740 18.850901
58.745 18.541262
58.750 18.977552
58.755 18.859056
58.760 18.759497
58.765 19.543478
58.770 19.544481
58.775 19.863256
58.780 19.487343
58.785 19.169491
58.790 19.176046
58.795 18.890057
58.800 18.648565
58.805 17.925821
58.810 17.598322
58.815 17.689907
58.820 17.849079
58.825 18.338772
58.830 19.023115
58.835 18.907318
58.840 19.393608
58.845 18.954269
58.850 18.771688
58.855 18.47938
58.860 17.641527
58.865 16.743858
58.870 15.835382
58.875 15.409618
58.880 15.38973
58.885 15.080797
58.890 14.976825
58.895 15.12227
58.900 15.120063
58.905 15.50357
58.910 15.190275
58.915 14.91174
58.920 14.684436
58.925 14.518996
58.930 14.094692
58.935 13.486541
58.940 12.80322
58.945 12.769938
58.950 12.867254
58.955 12.568388
58.960 12.292119
58.965 12.097755
58.970 11.779849
58.975 11.66461
58.980 11.525642
58.985 11.627627
58.990 12.012246
58.995 12.617347
59.000 12.799897
59.005 12.952481
59.010 12.849491
59.015 13.334072
59.020 13.268202
59.025 13.071788
59.030 12.527355
59.035 12.423473
59.040 12.29812
59.045 12.067047
59.050 11.472637
59.055 11.210958
59.060 11.332593
59.065 11.406443
59.070 11.487747
59.075 11.315895
59.080 11.514284
59.085 11.526648
59.090 11.347548
59.095 11.025377
59.100 10.835353
59.105 11.217503
59.110 11.331417
59.115 11.197711
59.120 10.812178
59.125 10.539833
59.130 10.229497
59.135 9.880834
59.140 9.417027
59.145 9.335583
59.150 9.039998
59.155 9.223684
59.160 8.972725
59.165 8.949414
59.170 8.968717
59.175 9.047709
59.180 8.67397
59.185 8.704924
59.190 8.470642
59.195 8.888513
59.200 9.326596
59.205 9.443718
59.210 9.822902
59.215 10.13367
59.220 10.240912
59.225 10.283832
59.230 10.113942
59.235 10.185796
59.240 10.19975
59.245 9.934275
59.250 9.662682
59.255 9.603222
59.260 9.728903
59.265 9.891161
59.270 9.756393
59.275 9.466437
59.280 9.493351
59.285 9.592842
59.290 9.469681
59.295 9.036551
59.300 8.959007
59.305 8.998015
59.310 8.957152
59.315 8.946808
59.320 9.039398
59.325 9.118381
59.330 9.682579
59.335 9.368732
59.340 9.071156
59.345 9.345975
59.350 9.50825
59.355 9.909842
59.360 9.809041
59.365 9.726336
59.370 9.749004
59.375 10.145405
59.380 10.107321
59.385 9.807638
59.390 9.667553
59.395 9.930252
59.400 10.245053
59.405 10.534013
59.410 10.522827
59.415 10.506006
59.420 10.657838
59.425 9.974433
59.430 9.779459
59.435 9.246903
59.440 8.962632
59.445 9.209504
59.450 9.286139
59.455 9.315525
59.460 9.845331
59.465 9.654964
59.470 10.224261
59.475 10.205029
59.480 10.183234
59.485 10.192491
59.490 10.475771
59.495 11.058889
59.500 11.546664
59.505 11.358994
59.510 11.438067
59.515 11.252081
59.520 11.110459
59.525 10.449485
59.530 9.559704
59.535 9.375298
59.540 9.08146
59.545 9.138989
59.550 8.935122
59.555 9.147045
59.560 9.279104
59.565 9.696809
59.570 9.717592
59.575 9.721763
59.580 9.522699
59.585 9.368181
59.590 9.073383
59.595 9.02092
59.600 8.485746
59.605 8.568475
59.610 8.992342
59.615 9.187568
59.620 9.771654
59.625 9.99637
59.630 10.586727
59.635 10.887142
59.640 10.410623
59.645 10.178257
59.650 10.263266
59.655 9.74284
59.660 9.932637
59.665 9.941422
59.670 9.951481
59.675 10.18583
59.680 10.247764
59.685 10.105767
59.690 10.45962
59.695 10.620514
59.700 10.755975
59.705 10.852818
59.710 11.00525
59.715 11.079487
59.720 11.359797
59.725 10.773184
59.730 10.211984
59.735 10.070423
59.740 9.954618
59.745 9.940113
59.750 9.691169
59.755 9.581676
59.760 9.963817
59.765 10.20752
59.770 10.026302
59.775 9.917496
59.780 9.733948
59.785 9.629292
59.790 9.592497
59.795 9.507859
59.800 9.789108
59.805 10.107642
59.810 10.292634
59.815 10.442618
59.820 10.487623
59.825 10.664702
59.830 10.862931
59.835 10.561932
59.840 10.21064
59.845 10.443083
59.850 10.526829
59.855 10.863751
59.860 10.89967
59.865 10.66487
59.870 10.822665
59.875 11.21252
59.880 11.360083
59.885 11.115577
59.890 10.943924
59.895 11.052256
59.900 11.23586
59.905 11.074151
59.910 11.054249
59.915 10.959496
59.920 11.015495
59.925 10.855577
59.930 10.613519
59.935 10.292236
59.940 10.253434
59.945 10.003725
59.950 9.725927
59.955 9.630013
59.960 9.703547
59.965 9.72375
59.970 9.792236
59.975 9.697778
59.980 9.453502
59.985 9.281226
59.990 9.735048
59.995 10.013759
60.000 9.968402
60.005 10.00865
60.010 10.095629
60.015 10.655051
60.020 11.118372
60.025 10.812767
60.030 10.220694
60.035 10.103821
60.040 10.521358
60.045 10.97229
60.050 10.699151
60.055 10.156241
60.060 10.310708
60.065 11.014754
60.070 11.052493
60.075 10.601042
60.080 10.299283
60.085 10.542364
60.090 10.959426
60.095 11.232475
60.100 10.811017
60.105 10.739377
60.110 11.01906
60.115 11.315739
60.120 11.449128
60.125 11.340239
60.130 10.613755
60.135 10.933032
60.140 11.125466
60.145 10.726551
60.150 10.042113
60.155 9.567505
60.160 9.547255
60.165 9.573456
60.170 9.11553
60.175 8.408162
60.180 8.353202
60.185 8.430602
60.190 8.629309
60.195 8.750839
60.200 9.06134
60.205 9.180026
60.210 9.468562
60.215 9.789515
60.220 9.65838
60.225 9.602265
60.230 9.529449
60.235 9.248978
60.240 9.365664
60.245 9.759366
60.250 9.503531
60.255 9.543063
60.260 9.813614
60.265 9.411078
60.270 9.791048
60.275 9.98627
60.280 10.104912
60.285 10.125169
60.290 10.360317
60.295 9.940856
60.300 10.340228
60.305 10.441565
60.310 10.44551
60.315 10.491483
60.320 10.741442
60.325 10.205303
60.330 10.269694
60.335 10.336188
60.340 10.19983
60.345 9.983839
60.350 10.178744
60.355 10.236461
60.360 10.630223
60.365 11.175507
60.370 11.300373
60.375 11.51811
60.380 12.110869
60.385 11.394322
60.390 10.759705
60.395 11.027852
60.400 10.633155
60.405 10.287759
60.410 9.806815
60.415 9.315057
60.420 9.628345
60.425 10.256881
60.430 10.458672
60.435 10.561387
60.440 10.741986
60.445 10.817684
60.450 10.74015
60.455 11.051843
60.460 11.066456
60.465 10.378731
60.470 10.359643
60.475 10.46581
60.480 10.644085
60.485 10.934692
60.490 10.710405
60.495 10.548311
60.500 10.475268
60.505 10.239648
60.510 9.853772
60.515 10.208034
60.520 10.370275
60.525 10.253957
60.530 10.657955
60.535 10.709968
60.540 10.711645
60.545 10.963722
60.550 10.332383
60.555 9.919474
60.560 9.872116
60.565 9.447865
60.570 9.287376
60.575 9.48979
60.580 9.624465
60.585 9.689478
60.590 9.764051
60.595 9.620017
60.600 9.794122
60.605 10.008719
60.610 9.870625
60.615 9.902782
60.620 10.234525
60.625 10.525105
60.630 10.456173
60.635 10.18232
60.640 10.301216
60.645 10.338662
60.650 10.339719
60.655 10.099912
60.660 9.96396
60.665 10.347334
60.670 10.506988
60.675 10.516335
60.680 10.254938
60.685 10.125756
60.690 10.211475
60.695 10.285192
60.700 10.023225
60.705 10.042742
60.710 9.975889
60.715 9.959377
60.720 9.495357
60.725 9.274421
60.730 9.552964
60.735 9.497974
60.740 9.127302
60.745 8.941649
60.750 9.167308
60.755 9.307613
60.760 9.280584
60.765 9.447567
60.770 9.854293
60.775 9.875793
60.780 9.706086
60.785 9.789748
60.790 10.21835
60.795 10.328093
60.800 9.679613
60.805 9.180145
60.810 9.602229
60.815 10.163613
60.820 10.55506
60.825 10.75022
60.830 10.867742
60.835 11.609816
60.840 12.158371
60.845 11.996018
60.850 12.183464
60.855 11.779891
60.860 11.084429
60.865 10.836504
60.870 10.419627
60.875 10.135611
60.880 10.940152
60.885 11.120509
60.890 11.247225
60.895 11.725495
60.900 11.786342
60.905 11.821658
60.910 11.961121
60.915 11.503943
60.920 11.130368
60.925 11.322178
60.930 11.160852
60.935 11.025525
60.940 10.82039
60.945 10.807886
60.950 10.885839
60.955 10.352466
60.960 9.951933
60.965 9.961743
60.970 10.054877
60.975 9.976431
60.980 9.786433
60.985 8.961102
60.990 9.084567
60.995 9.582312
61.000 9.892995
61.005 10.001747
61.010 10.240387
61.015 10.590985
61.020 11.275154
61.025 11.275809
61.030 11.314469
61.035 10.888513
61.040 10.743872
61.045 10.429959
61.050 10.327929
61.055 10.173897
61.060 10.721528
61.065 10.625104
61.070 10.924577
61.075 11.139854
61.080 11.324329
61.085 11.463648
61.090 11.275299
61.095 10.808155
61.100 10.594072
61.105 10.099722
61.110 10.128331
61.115 10.393134
61.120 10.474074
61.125 10.537576
61.130 10.318457
61.135 10.443066
61.140 10.388008
61.145 10.690989
61.150 10.743359
61.155 10.918586
61.160 10.876492
61.165 11.002144
61.170 11.024583
61.175 11.62747
61.180 11.507883
61.185 11.036802
61.190 10.643315
61.195 11.047526
61.200 11.339433
61.205 11.601632
61.210 11.284612
61.215 11.157555
61.220 11.665972
61.225 12.133947
61.230 12.223982
61.235 12.270406
61.240 12.024706
61.245 12.369882
61.250 12.453418
61.255 12.31344
61.260 11.927805
61.265 11.566695
61.270 11.312594
61.275 11.207034
61.280 10.83704
61.285 10.406922
61.290 9.784543
61.295 10.487309
61.300 11.048802
61.305 10.957762
61.310 10.68143
61.315 10.634914
61.320 10.821207
61.325 11.22694
61.330 10.747748
61.335 10.272517
61.340 10.472614
61.345 10.697642
61.350 10.937625
61.355 11.102669
61.360 10.862999
61.365 10.652603
61.370 10.009602
61.375 9.909533
61.380 10.010681
61.385 9.85937
61.390 9.523244
61.395 9.476167
61.400 9.684563
61.405 10.421202
61.410 10.603491
61.415 10.709439
61.420 10.76895
61.425 11.134912
61.430 11.149235
61.435 10.719134
61.440 10.310607
61.445 10.398475
61.450 10.221007
61.455 9.975676
61.460 9.971798
61.465 10.371833
61.470 10.797282
61.475 11.017728
61.480 11.059857
61.485 11.265865
61.490 11.573205
61.495 11.493734
61.500 11.700307
61.505 11.620113
61.510 11.203947
61.515 10.994017
61.520 10.856432
61.525 10.891407
61.530 11.283291
61.535 10.561951
61.540 10.622337
61.545 10.777885
61.550 11.027681
61.555 11.151408
61.560 11.034478
61.565 10.303759
61.570 10.568098
61.575 10.848732
61.580 10.979134
61.585 10.78769
61.590 10.911274
61.595 11.028416
61.600 11.098215
61.605 11.414236
61.610 11.413142
61.615 11.146346
61.620 10.652845
61.625 10.139711
61.630 9.84607
61.635 10.060102
61.640 9.936645
61.645 10.119671
61.650 10.174399
61.655 10.697589
61.660 11.140496
61.665 11.336494
61.670 11.160359
61.675 10.815504
61.680 10.766337
61.685 10.957564
61.690 10.928796
61.695 11.078388
61.700 11.170879
61.705 11.42307
61.710 11.534094
61.715 11.27916
61.720 11.180143
61.725 11.337919
61.730 11.506455
61.735 11.302094
61.740 11.068973
61.745 11.126915
61.750 11.735962
61.755 11.844827
61.760 11.827512
61.765 11.564385
61.770 11.94713
61.775 12.04885
61.780 12.076863
61.785 10.951586
61.790 10.792046
61.795 10.717033
61.800 10.835771
61.805 11.06041
61.810 10.628693
61.815 10.669107
61.820 11.19586
61.825 11.501287
61.830 11.596723
61.835 11.226056
61.840 10.952001
61.845 11.13558
61.850 11.013133
61.855 11.542048
61.860 11.642331
61.865 12.107615
61.870 12.411491
61.875 12.347425
61.880 12.721184
61.885 12.842153
61.890 12.613756
61.895 12.61494
61.900 12.015862
61.905 11.65784
61.910 11.504544
61.915 11.091567
61.920 10.820093
61.925 10.488832
61.930 10.232522
61.935 10.852252
61.940 11.143044
61.945 11.840095
61.950 12.452871
61.955 12.301573
61.960 12.044103
61.965 12.038787
61.970 12.068534
61.975 12.467357
61.980 12.115408
61.985 11.784106
61.990 12.19813
61.995 12.270928
62.000 11.964555
62.005 11.812207
62.010 11.639451
62.015 11.753656
62.020 11.479738
62.025 11.353511
62.030 11.293283
62.035 11.547192
62.040 11.069385
62.045 10.90578
62.050 10.943358
62.055 11.477724
62.060 11.601169
62.065 11.587075
62.070 11.750279
62.075 11.863738
62.080 11.70552
62.085 11.558889
62.090 11.296135
62.095 10.762896
62.100 10.808119
62.105 10.828739
62.110 11.072118
62.115 11.211201
62.120 11.278216
62.125 11.362224
62.130 11.552116
62.135 11.683311
62.140 11.287855
62.145 11.141094
62.150 11.344298
62.155 11.167553
62.160 11.221183
62.165 11.573007
62.170 11.637125
62.175 11.735685
62.180 12.034789
62.185 12.097937
62.190 12.315893
62.195 12.195286
62.200 11.627417
62.205 11.320193
62.210 11.46268
62.215 11.05568
62.220 11.159207
62.225 11.327888
62.230 11.574702
62.235 12.026812
62.240 12.230498
62.245 12.145288
62.250 12.207618
62.255 11.70787
62.260 11.068225
62.265 10.735428
62.270 10.764555
62.275 10.668626
62.280 10.593685
62.285 10.747849
62.290 10.72923
62.295 11.068203
62.300 11.441983
62.305 11.234291
62.310 11.134917
62.315 10.947683
62.320 11.309415
62.325 11.929006
62.330 11.667282
62.335 11.646548
62.340 12.051419
62.345 12.124187
62.350 12.077226
62.355 11.333739
62.360 11.021876
62.365 11.472698
62.370 11.533992
62.375 11.362262
62.380 11.59864
62.385 11.804668
62.390 12.111005
62.395 12.183908
62.400 12.011481
62.405 11.770972
62.410 11.318036
62.415 11.353891
62.420 10.983952
62.425 10.865478
62.430 10.830873
62.435 10.686037
62.440 10.395472
62.445 10.602457
62.450 10.606186
62.455 11.3875
62.460 11.534222
62.465 11.353062
62.470 11.087019
62.475 11.283313
62.480 11.539478
62.485 11.234807
62.490 10.819345
62.495 10.413145
62.500 10.361414
62.505 10.596425
62.510 11.092685
62.515 10.919983
62.520 11.3448
62.525 11.994685
62.530 12.475333
62.535 12.489871
62.540 12.535251
62.545 11.828028
62.550 11.840676
62.555 12.097031
62.560 11.130406
62.565 10.451558
62.570 10.261882
62.575 10.116978
62.580 10.315743
62.585 10.185778
62.590 9.55885
62.595 10.22303
62.600 10.790169
62.605 11.102879
62.610 11.420719
62.615 11.139756
62.620 10.797897
62.625 10.746627
62.630 11.178106
62.635 11.458378
62.640 11.686863
62.645 11.770912
62.650 12.596563
62.655 12.786492
62.660 12.638007
62.665 11.983124
62.670 11.626404
62.675 11.516874
62.680 11.385895
62.685 11.376768
62.690 11.745763
62.695 11.598381
62.700 11.316337
62.705 11.697488
62.710 11.717566
62.715 11.85324
62.720 11.908809
62.725 12.37692
62.730 13.155994
62.735 13.06278
62.740 12.548503
62.745 12.560469
62.750 12.566863
62.755 12.368642
62.760 11.924855
62.765 11.939727
62.770 12.356812
62.775 12.634972
62.780 12.155596
62.785 12.356722
62.790 12.566943
62.795 12.164563
62.800 12.110175
62.805 11.812836
62.810 11.310154
62.815 10.913757
62.820 10.509333
62.825 10.395047
62.830 10.765706
62.835 10.639573
62.840 10.938837
62.845 11.774669
62.850 12.29802
62.855 12.481174
62.860 12.194386
62.865 12.046733
62.870 12.023277
62.875 12.086359
62.880 11.944612
62.885 11.759953
62.890 11.012211
62.895 11.001079
62.900 10.834992
62.905 10.385152
62.910 10.092331
62.915 10.096077
62.920 10.087418
62.925 10.280253
62.930 10.544797
62.935 10.81058
62.940 11.062842
62.945 10.868282
62.950 11.229039
62.955 11.517385
62.960 11.464916
62.965 11.208784
62.970 11.108414
62.975 12.061388
62.980 12.911017
62.985 12.802985
62.990 13.000627
62.995 13.126821
63.000 13.485399
63.005 13.332191
63.010 12.6998
63.015 12.871443
63.020 12.516412
63.025 12.310558
63.030 12.362198
63.035 12.216683
63.040 11.948579
63.045 11.893088
63.050 11.562374
63.055 11.51186
63.060 11.965609
63.065 11.818601
63.070 11.760581
63.075 12.13133
63.080 12.136571
63.085 12.370432
63.090 12.580693
63.095 12.106407
63.100 12.320663
63.105 12.160406
63.110 12.042666
63.115 11.979465
63.120 11.679845
63.125 11.784175
63.130 12.42415
63.135 12.598577
63.140 12.982094
63.145 12.816853
63.150 12.215628
63.155 12.03309
63.160 11.884317
63.165 11.720697
63.170 11.656098
63.175 11.591637
63.180 11.763914
63.185 12.386983
63.190 12.347938
63.195 12.099655
63.200 11.660035
63.205 11.974359
63.210 12.407537
63.215 12.090672
63.220 12.048377
63.225 12.299973
63.230 12.856
63.235 13.005326
63.240 12.572163
63.245 12.353775
63.250 12.324679
63.255 12.249699
63.260 12.149648
63.265 12.063917
63.270 11.851856
63.275 12.031172
63.280 12.368986
63.285 12.693742
63.290 12.979912
63.295 12.793924
63.300 12.826222
63.305 13.178211
63.310 13.104957
63.315 13.088699
63.320 13.279182
63.325 13.410833
63.330 13.756357
63.335 13.74635
63.340 13.749374
63.345 13.596987
63.350 13.159115
63.355 13.001254
63.360 12.800364
63.365 12.773495
63.370 12.80967
63.375 12.990217
63.380 13.317735
63.385 13.590184
63.390 13.714778
63.395 14.127188
63.400 14.047422
63.405 14.003122
63.410 13.381251
63.415 12.558641
63.420 12.134464
63.425 11.773639
63.430 11.510191
63.435 11.450244
63.440 11.591212
63.445 12.354796
63.450 13.14451
63.455 13.326854
63.460 13.619376
63.465 13.838009
63.470 14.327247
63.475 14.312772
63.480 13.807395
63.485 13.793251
63.490 14.18172
63.495 13.669632
63.500 13.243524
63.505 13.005301
63.510 12.962848
63.515 12.749725
63.520 12.266037
63.525 11.644657
63.530 11.610704
63.535 11.535838
63.540 11.275194
63.545 11.252859
63.550 11.696477
63.555 11.842841
63.560 12.202218
63.565 12.260769
63.570 12.008439
63.575 12.15417
63.580 11.943645
63.585 11.601485
63.590 11.648444
63.595 11.899127
63.600 12.048872
63.605 12.21022
63.610 12.127744
63.615 12.41447
63.620 12.858335
63.625 13.063452
63.630 13.243997
63.635 13.319506
63.640 13.889526
63.645 14.081159
63.650 13.844928
63.655 13.517246
63.660 13.638515
63.665 13.722418
63.670 13.872923
63.675 13.742792
63.680 13.439239
63.685 13.334925
63.690 13.487512
63.695 13.262462
63.700 12.867393
63.705 12.564046
63.710 12.124213
63.715 12.117936
63.720 12.177937
63.725 12.117737
63.730 12.516679
63.735 12.717213
63.740 12.908479
63.745 13.517973
63.750 13.795111
63.755 14.296189
63.760 14.253374
63.765 13.847258
63.770 13.462253
63.775 12.916793
63.780 12.723791
63.785 12.400825
63.790 11.942121
63.795 11.93217
63.800 12.171813
63.805 12.83759
63.810 13.208076
63.815 12.717616
63.820 12.848478
63.825 13.396895
63.830 13.754891
63.835 13.556218
63.840 13.427533
63.845 14.139441
63.850 14.960862
63.855 14.670972
63.860 14.280433
63.865 14.091351
63.870 14.264267
63.875 14.733885
63.880 14.01386
63.885 14.292372
63.890 14.749557
63.895 14.417156
63.900 14.266143
63.905 13.886282
63.910 13.318931
63.915 13.432641
63.920 12.920293
63.925 12.887908
63.930 13.069545
63.935 13.481697
63.940 14.159761
63.945 14.044243
63.950 14.052944
63.955 14.086461
63.960 14.436863
63.965 14.326622
63.970 14.030875
63.975 14.13735
63.980 14.282996
63.985 14.180273
63.990 14.285857
63.995 14.281009
64.000 14.44317
64.005 14.621212
64.010 14.654778
64.015 15.442675
64.020 16.173271
64.025 16.801929
64.030 17.005985
64.035 17.119003
64.040 16.764999
64.045 16.440105
64.050 16.220545
64.055 15.87867
64.060 15.52509
64.065 15.920397
64.070 16.415405
64.075 16.718527
64.080 16.753096
64.085 16.215252
64.090 16.623077
64.095 16.934938
64.100 16.362995
64.105 16.265718
64.110 16.61142
64.115 17.108349
64.120 17.428438
64.125 17.183075
64.130 17.931963
64.135 18.797224
64.140 18.634157
64.145 18.585787
64.150 19.075418
64.155 20.014088
64.160 20.111311
64.165 19.7892
64.170 19.725897
64.175 20.4419
64.180 20.827314
64.185 20.830824
64.190 20.768898
64.195 20.390921
64.200 20.343035
64.205 19.676903
64.210 19.68343
64.215 19.482397
64.220 19.302307
64.225 20.282446
64.230 21.838198
64.235 22.597679
64.240 23.809811
64.245 24.319481
64.250 24.853853
64.255 25.475256
64.260 25.317904
64.265 25.048458
64.270 25.393101
64.275 25.475733
64.280 25.268068
64.285 25.282347
64.290 26.045195
64.295 26.105719
64.300 26.50153
64.305 26.764601
64.310 27.288601
64.315 28.511787
64.320 29.224588
64.325 30.319262
64.330 30.623291
64.335 30.337673
64.340 30.783268
64.345 31.088106
64.350 31.185291
64.355 31.071712
64.360 30.795464
64.365 31.193422
64.370 31.197985
64.375 30.851625
64.380 31.389202
64.385 30.878309
64.390 31.134584
64.395 31.218559
64.400 31.690845
64.405 33.253139
64.410 33.94022
64.415 34.366703
64.420 35.39283
64.425 35.634079
64.430 36.50098
64.435 37.182774
64.440 37.172951
64.445 37.239483
64.450 36.774105
64.455 36.11129
64.460 36.098015
64.465 35.624752
64.470 35.421497
64.475 35.184986
64.480 35.243828
64.485 35.428799
64.490 35.905201
64.495 35.365356
64.500 35.209736
64.505 34.62347
64.510 33.783337
64.515 33.013447
64.520 32.079311
64.525 31.805441
64.530 31.67664
64.535 31.919474
64.540 31.869614
64.545 30.830923
64.550 30.711903
64.555 30.533564
64.560 30.327623
64.565 29.855206
64.570 28.14629
64.575 27.480614
64.580 27.376535
64.585 27.250847
64.590 27.43326
64.595 27.14057
64.600 26.81645
64.605 27.240873
64.610 27.316038
64.615 27.510719
64.620 27.072966
64.625 26.213619
64.630 26.013897
64.635 25.719231
64.640 24.883156
64.645 24.59289
64.650 24.726164
64.655 24.58201
64.660 24.588303
64.665 24.064438
64.670 24.087074
64.675 23.605434
64.680 23.699354
64.685 23.480068
64.690 23.686512
64.695 23.991516
64.700 23.892641
64.705 23.26586
64.710 23.768234
64.715 23.096014
64.720 22.207844
64.725 21.419416
64.730 20.803961
64.735 20.838531
64.740 20.886965
64.745 19.71394
64.750 18.566648
64.755 18.581608
64.760 18.496677
64.765 18.235674
64.770 17.573603
64.775 16.996191
64.780 16.983973
64.785 17.526993
64.790 17.382166
64.795 16.727123
64.800 16.967043
64.805 17.292139
64.810 17.850805
64.815 18.084879
64.820 17.845617
64.825 17.958933
64.830 18.164158
64.835 18.200674
64.840 18.22661
64.845 17.83267
64.850 17.857029
64.855 18.003666
64.860 17.681036
64.865 17.983616
64.870 17.728449
64.875 17.342493
64.880 16.663837
64.885 16.410374
64.890 16.383928
64.895 16.278183
64.900 16.055334
64.905 16.160618
64.910 16.74921
64.915 17.464352
64.920 17.211967
64.925 17.218489
64.930 17.545868
64.935 17.528646
64.940 17.220169
64.945 16.829962
64.950 16.975018
64.955 17.674484
64.960 18.233458
64.965 18.057041
64.970 17.94939
64.975 18.055632
64.980 18.210253
64.985 17.493168
64.990 16.761379
64.995 16.413218
65.000 16.594921
65.005 16.955158
65.010 17.546373
65.015 17.588316
65.020 18.394274
65.025 19.371469
65.030 19.467184
65.035 20.122946
65.040 20.798653
65.045 20.849375
65.050 21.505856
65.055 22.071178
65.060 21.797215
65.065 21.973766
65.070 21.552362
65.075 21.074871
65.080 21.564005
65.085 21.486841
65.090 21.481033
65.095 21.559858
65.100 21.803307
65.105 22.678299
65.110 23.302164
65.115 23.024872
65.120 23.049734
65.125 22.740669
65.130 23.219513
65.135 23.286055
65.140 22.972645
65.145 22.624701
65.150 22.519232
65.155 22.338842
65.160 22.755808
65.165 22.296036
65.170 22.249563
65.175 23.070412
65.180 23.588217
65.185 23.618876
65.190 23.883375
65.195 24.541384
65.200 25.736692
65.205 25.895407
65.210 24.959362
65.215 25.606903
65.220 26.396706
65.225 26.667252
65.230 26.436674
65.235 25.83853
65.240 26.468229
65.245 27.271219
65.250 27.056749
65.255 26.791744
65.260 27.506334
65.265 27.593342
65.270 28.021778
65.275 28.272375
65.280 27.98814
65.285 27.679298
65.290 28.434858
65.295 28.370346
65.300 28.679312
65.305 29.038174
65.310 29.437248
65.315 30.257057
65.320 31.191612
65.325 30.967367
65.330 31.316273
65.335 31.109234
65.340 30.738232
65.345 29.65127
65.350 29.151367
65.355 27.759199
65.360 26.744301
65.365 26.66011
65.370 27.150692
65.375 27.228216
65.380 27.291903
65.385 27.378708
65.390 28.626026
65.395 29.398302
65.400 29.04619
65.405 29.037914
65.410 29.812857
65.415 30.496984
65.420 30.521627
65.425 29.47168
65.430 29.109766
65.435 29.343842
65.440 29.543087
65.445 29.168579
65.450 28.057091
65.455 27.531141
65.460 27.710575
65.465 28.208876
65.470 27.851837
65.475 27.926443
65.480 28.206425
65.485 29.546432
65.490 30.567623
65.495 31.154734
65.500 31.342159
65.505 31.503418
65.510 31.337206
65.515 30.683153
65.520 30.060623
65.525 30.096426
65.530 30.51413
65.535 30.043762
65.540 29.403814
65.545 28.442112
65.550 29.009619
65.555 29.293213
65.560 28.981567
65.565 27.988497
65.570 27.366768
65.575 27.13995
65.580 27.952669
65.585 27.536711
65.590 27.603466
65.595 28.124453
65.600 28.568705
65.605 29.930099
65.610 30.152803
65.615 29.716022
65.620 29.217173
65.625 28.947153
65.630 28.34903
65.635 27.470287
65.640 26.853411
65.645 26.941254
65.650 27.352304
65.655 27.073851
65.660 26.642937
65.665 27.070074
65.670 27.810238
65.675 27.737385
65.680 27.217155
65.685 26.503954
65.690 26.821005
65.695 26.054239
65.700 25.138882
65.705 24.301258
65.710 24.184258
65.715 24.7731
65.720 24.370104
65.725 23.530369
65.730 23.9032
65.735 24.347588
65.740 24.777102
65.745 24.462063
65.750 23.880436
65.755 23.381477
65.760 23.112644
65.765 23.35121
65.770 23.23469
65.775 22.596222
65.780 22.116791
65.785 21.811689
65.790 21.881981
65.795 21.607718
65.800 20.156635
65.805 19.604099
65.810 19.611141
65.815 19.541147
65.820 19.138416
65.825 19.398769
65.830 20.169453
65.835 20.723373
65.840 20.519405
65.845 20.65204
65.850 20.508455
65.855 20.459743
65.860 19.52846
65.865 19.114304
65.870 19.667498
65.875 19.793766
65.880 19.624271
65.885 19.367489
65.890 19.2649
65.895 19.780523
65.900 19.044348
65.905 18.596651
65.910 18.201601
65.915 17.915398
65.920 18.158434
65.925 18.326782
65.930 17.963728
65.935 18.332642
65.940 17.707077
65.945 17.416481
65.950 17.688509
65.955 17.563433
65.960 17.429674
65.965 17.29925
65.970 17.304451
65.975 17.524237
65.980 17.573408
65.985 17.525879
65.990 17.514238
65.995 17.280628
66.000 17.032541
66.005 16.86536
66.010 16.60364
66.015 16.331268
66.020 16.047125
66.025 15.9106
66.030 15.966231
66.035 15.656786
66.040 15.294531
66.045 15.394847
66.050 15.67431
66.055 15.434022
66.060 15.156837
66.065 15.241709
66.070 15.470474
66.075 15.455143
66.080 15.463592
66.085 15.326711
66.090 15.349001
66.095 15.717826
66.100 15.592504
66.105 15.276512
66.110 15.746588
66.115 16.192732
66.120 16.210859
66.125 16.216501
66.130 15.892091
66.135 15.61572
66.140 15.686062
66.145 15.002625
66.150 14.433799
66.155 14.204082
66.160 14.412843
66.165 14.55001
66.170 15.077073
66.175 15.017118
66.180 14.949727
66.185 14.936036
66.190 14.823728
66.195 14.40428
66.200 14.477031
66.205 14.14826
66.210 14.354069
66.215 14.676193
66.220 15.29522
66.225 15.548014
66.230 15.593771
66.235 15.296459
66.240 15.354198
66.245 15.050729
66.250 14.981548
66.255 14.511327
66.260 14.528066
66.265 14.351052
66.270 14.21299
66.275 14.116465
66.280 13.951827
66.285 13.191448
66.290 13.477737
66.295 13.593275
66.300 13.779408
66.305 14.252993
66.310 14.527463
66.315 14.912295
66.320 15.526804
66.325 15.599123
66.330 15.788042
66.335 15.417603
66.340 14.66312
66.345 14.392215
66.350 14.411177
66.355 15.149885
66.360 15.174079
66.365 15.257053
66.370 15.749046
66.375 16.135279
66.380 15.751601
66.385 15.270147
66.390 14.478705
66.395 14.232247
66.400 14.085431
66.405 14.058761
66.410 14.154285
66.415 14.711185
66.420 14.651194
66.425 14.458118
66.430 14.065134
66.435 13.850005
66.440 13.322538
66.445 12.699558
66.450 12.553733
66.455 12.991035
66.460 12.93284
66.465 13.357351
66.470 13.326481
66.475 13.61125
66.480 14.429497
66.485 13.934355
66.490 13.841113
66.495 13.8312
66.500 13.579471
66.505 14.174859
66.510 13.998015
66.515 13.502036
66.520 13.633127
66.525 13.579826
66.530 13.566895
66.535 13.454479
66.540 13.088468
66.545 13.258922
66.550 13.435239
66.555 13.784457
66.560 14.095126
66.565 14.603246
66.570 14.67606
66.575 14.737827
66.580 14.840638
66.585 15.279593
66.590 15.630782
66.595 15.462799
66.600 14.819605
66.605 14.818729
66.610 15.064524
66.615 15.182601
66.620 14.568658
66.625 13.646743
66.630 14.026388
66.635 14.880601
66.640 14.832443
66.645 14.170707
66.650 14.151593
66.655 14.379747
66.660 14.66232
66.665 14.419559
66.670 13.95353
66.675 14.689378
66.680 14.950559
66.685 14.851782
66.690 15.342545
66.695 15.368464
66.700 15.498282
66.705 15.229194
66.710 14.685863
66.715 14.734118
66.720 14.628618
66.725 14.645044
66.730 14.392367
66.735 14.044228
66.740 13.866144
66.745 13.897217
66.750 13.551388
66.755 13.15677
66.760 12.924306
66.765 13.164154
66.770 13.304696
66.775 13.841398
66.780 14.183881
66.785 14.426763
66.790 14.439342
66.795 14.323931
66.800 14.121228
66.805 14.031764
66.810 13.784911
66.815 13.552048
66.820 13.68475
66.825 14.014674
66.830 14.283311
66.835 14.182608
66.840 14.24903
66.845 14.304393
66.850 14.453353
66.855 14.174166
66.860 14.213019
66.865 14.148116
66.870 14.566081
66.875 14.280006
66.880 14.130311
66.885 13.995711
66.890 13.929393
66.895 14.121898
66.900 14.16035
66.905 14.20912
66.910 13.979561
66.915 13.531496
66.920 13.802433
66.925 13.90043
66.930 14.107971
66.935 13.922228
66.940 14.164962
66.945 14.847863
66.950 15.240117
66.955 14.833697
66.960 14.46536
66.965 13.346519
66.970 13.356288
66.975 12.959574
66.980 13.108161
66.985 13.284882
66.990 13.657411
66.995 13.754764
67.000 14.236554
67.005 14.200992
67.010 14.398906
67.015 13.954103
67.020 13.486832
67.025 13.355043
67.030 13.535913
67.035 13.295406
67.040 13.011705
67.045 12.807188
67.050 12.948198
67.055 13.582979
67.060 13.704195
67.065 13.900783
67.070 14.540073
67.075 14.847953
67.080 14.69517
67.085 14.237665
67.090 13.963604
67.095 13.645649
67.100 13.371866
67.105 13.041951
67.110 13.041387
67.115 13.467943
67.120 13.856636
67.125 13.838486
67.130 13.938512
67.135 13.901891
67.140 13.846617
67.145 13.863089
67.150 13.800104
67.155 14.01383
67.160 14.013406
67.165 14.31909
67.170 13.739339
67.175 13.764088
67.180 13.680029
67.185 13.878031
67.190 13.54103
67.195 13.333281
67.200 13.23311
67.205 13.706242
67.210 13.402902
67.215 13.454429
67.220 13.216328
67.225 13.221255
67.230 13.419775
67.235 14.022441
67.240 14.557941
67.245 14.3363
67.250 13.948368
67.255 13.465362
67.260 13.954268
67.265 14.056695
67.270 13.328858
67.275 13.140117
67.280 13.744148
67.285 14.182093
67.290 14.741726
67.295 14.669203
67.300 14.375958
67.305 14.863303
67.310 15.552464
67.315 15.338474
67.320 15.432043
67.325 15.137867
67.330 15.840003
67.335 16.149126
67.340 15.775794
67.345 14.991899
67.350 14.92984
67.355 15.12777
67.360 14.914877
67.365 14.014712
67.370 13.922388
67.375 14.031914
67.380 13.696302
67.385 13.952817
67.390 14.212049
67.395 14.306673
67.400 14.317454
67.405 14.210292
67.410 14.594131
67.415 15.11076
67.420 14.885674
67.425 14.650576
67.430 14.884492
67.435 14.793643
67.440 14.745592
67.445 14.712597
67.450 14.7567
67.455 14.711176
67.460 14.513522
67.465 14.315175
67.470 14.597768
67.475 14.508752
67.480 14.648718
67.485 15.069401
67.490 14.932652
67.495 15.090488
67.500 14.907701
67.505 14.655469
67.510 14.651599
67.515 14.686918
67.520 14.360287
67.525 14.129827
67.530 13.998618
67.535 13.757257
67.540 13.741762
67.545 13.307542
67.550 12.797183
67.555 12.950657
67.560 13.614651
67.565 13.90344
67.570 13.884837
67.575 14.00076
67.580 14.572864
67.585 14.688959
67.590 14.745875
67.595 14.878248
67.600 15.250871
67.605 15.84495
67.610 15.726175
67.615 15.255205
67.620 15.24296
67.625 15.147104
67.630 14.470128
67.635 14.297828
67.640 14.147614
67.645 14.081583
67.650 13.750856
67.655 13.615414
67.660 13.40592
67.665 13.446259
67.670 13.659033
67.675 13.874568
67.680 14.739072
67.685 15.379128
67.690 15.272757
67.695 15.454284
67.700 15.379612
67.705 15.134542
67.710 15.193135
67.715 14.792467
67.720 14.385346
67.725 14.189929
67.730 14.127889
67.735 14.363374
67.740 13.594906
67.745 12.753518
67.750 12.603529
67.755 12.966557
67.760 13.089705
67.765 13.253768
67.770 13.280309
67.775 13.973
67.780 14.57432
67.785 15.086263
67.790 14.73735
67.795 14.546677
67.800 14.323118
67.805 14.6357
67.810 14.531851
67.815 14.131511
67.820 13.921755
67.825 14.064587
67.830 14.388812
67.835 14.352207
67.840 13.788734
67.845 13.876528
67.850 14.03841
67.855 14.554455
67.860 14.314007
67.865 13.943192
67.870 13.964825
67.875 14.156693
67.880 14.182405
67.885 14.000844
67.890 13.676632
67.895 13.880588
67.900 14.530909
67.905 13.943345
67.910 13.609296
67.915 13.331666
67.920 13.61056
67.925 13.432828
67.930 13.035531
67.935 12.897109
67.940 14.121942
67.945 14.348315
67.950 14.472473
67.955 14.537786
67.960 14.726989
67.965 15.222202
67.970 14.868914
67.975 14.411603
67.980 14.621517
67.985 14.641354
67.990 14.080893
67.995 14.141782
68.000 13.786386
68.005 13.711434
68.010 13.840723
68.015 13.655038
68.020 14.056929
68.025 14.783869
68.030 15.0097
68.035 15.571246
68.040 15.77352
68.045 15.647406
68.050 15.650848
68.055 15.528626
68.060 14.952708
68.065 14.511977
68.070 14.004118
68.075 14.0518
68.080 14.649795
68.085 15.064104
68.090 15.062982
68.095 15.044734
68.100 15.391532
68.105 15.74341
68.110 15.058083
68.115 14.834286
68.120 14.745484
68.125 14.840239
68.130 14.844432
68.135 15.009429
68.140 15.245598
68.145 15.801397
68.150 16.212297
68.155 16.17137
68.160 15.586537
68.165 15.590867
68.170 16.043537
68.175 16.357098
68.180 16.302982
68.185 15.82352
68.190 16.263494
68.195 16.7311
68.200 17.029127
68.205 16.57391
68.210 16.682922
68.215 16.645765
68.220 16.653824
68.225 16.682158
68.230 17.13402
68.235 17.578348
68.240 17.90727
68.245 18.211426
68.250 17.98485
68.255 17.812172
68.260 17.636307
68.265 17.992567
68.270 17.907682
68.275 17.650011
68.280 17.060274
68.285 17.965216
68.290 18.274544
68.295 18.272808
68.300 17.933512
68.305 17.829376
68.310 17.954044
68.315 18.141918
68.320 17.888567
68.325 17.963495
68.330 17.954565
68.335 18.228096
68.340 18.64802
68.345 19.248182
68.350 19.756414
68.355 20.47216
68.360 20.586472
68.365 20.323534
68.370 19.825743
68.375 20.219439
68.380 20.52284
68.385 20.476437
68.390 20.576031
68.395 20.991343
68.400 21.999407
68.405 22.093872
68.410 21.447237
68.415 22.195318
68.420 22.920139
68.425 23.707039
68.430 24.116768
68.435 24.57354
68.440 24.98773
68.445 25.05234
68.450 24.748472
68.455 24.502441
68.460 24.280607
68.465 24.415218
68.470 24.022507
68.475 23.796991
68.480 24.331936
68.485 24.395746
68.490 23.884916
68.495 23.926195
68.500 24.003408
68.505 24.134132
68.510 24.705336
68.515 24.263603
68.520 24.732243
68.525 25.299137
68.530 24.998962
68.535 25.142269
68.540 25.052517
68.545 24.94593
68.550 25.283339
68.555 24.936396
68.560 24.99585
68.565 24.683613
68.570 24.637642
68.575 25.358597
68.580 24.984016
68.585 25.441717
68.590 25.869522
68.595 26.182896
68.600 27.3438
68.605 27.063938
68.610 27.244715
68.615 27.953186
68.620 27.529705
68.625 27.471905
68.630 27.497545
68.635 27.970242
68.640 29.034546
68.645 28.508183
68.650 27.788004
68.655 27.495728
68.660 28.086592
68.665 27.756144
68.670 27.265644
68.675 27.114338
68.680 27.418476
68.685 27.831785
68.690 27.720081
68.695 27.842352
68.700 28.137667
68.705 27.911034
68.710 27.841459
68.715 27.900782
68.720 28.064049
68.725 28.3627
68.730 27.988724
68.735 27.617476
68.740 27.006367
68.745 26.490795
68.750 25.781687
68.755 25.378798
68.760 25.286303
68.765 25.412916
68.770 25.842237
68.775 26.300024
68.780 27.256773
68.785 27.466984
68.790 27.781542
68.795 27.473076
68.800 27.619295
68.805 27.915298
68.810 27.583776
68.815 26.796467
68.820 27.05933
68.825 26.727175
68.830 26.959703
68.835 26.44451
68.840 25.933159
68.845 26.186832
68.850 26.790491
68.855 27.011877
68.860 27.35463
68.865 27.210508
68.870 27.146757
68.875 26.877415
68.880 26.585789
68.885 26.380524
68.890 26.970692
68.895 26.994427
68.900 27.244848
68.905 27.904341
68.910 28.129604
68.915 28.021467
68.920 26.978786
68.925 26.289276
68.930 25.52409
68.935 24.737091
68.940 24.001425
68.945 23.500267
68.950 24.06217
68.955 23.704248
68.960 23.530504
68.965 24.342178
68.970 24.252815
68.975 24.185646
68.980 23.768118
68.985 23.390228
68.990 23.235134
68.995 22.647493
69.000 21.983538
69.005 21.653862
69.010 21.239582
69.015 21.10676
69.020 20.740393
69.025 20.933317
69.030 21.478144
69.035 21.030579
69.040 20.934874
69.045 20.288582
69.050 20.510221
69.055 20.744658
69.060 20.82548
69.065 21.0051
69.070 21.433329
69.075 22.382963
69.080 23.074179
69.085 23.134016
69.090 23.175224
69.095 22.687469
69.100 22.407722
69.105 21.698999
69.110 20.595314
69.115 19.804674
69.120 18.976509
69.125 18.627218
69.130 18.119194
69.135 17.510727
69.140 17.43125
69.145 17.443333
69.150 17.90119
69.155 18.299492
69.160 18.191803
69.165 18.305193
69.170 18.708065
69.175 18.976494
69.180 19.185129
69.185 18.425892
69.190 18.006651
69.195 18.177046
69.200 18.00473
69.205 18.032881
69.210 18.237988
69.215 17.960646
69.220 18.23156
69.225 18.369505
69.230 18.091944
69.235 17.857689
69.240 17.354889
69.245 16.487331
69.250 16.406628
69.255 15.705591
69.260 15.948634
69.265 16.021288
69.270 15.89313
69.275 15.401847
69.280 15.046204
69.285 15.035619
69.290 15.302763
69.295 14.964411
69.300 14.729707
69.305 15.194084
69.310 16.059725
69.315 16.977543
69.320 17.256981
69.325 17.37925
69.330 17.704885
69.335 17.768042
69.340 17.570351
69.345 16.947315
69.350 16.561838
69.355 16.112495
69.360 16.049006
69.365 15.910978
69.370 16.203325
69.375 15.929676
69.380 15.775195
69.385 15.967782
69.390 16.465063
69.395 16.715708
69.400 16.834269
69.405 16.556601
69.410 16.735039
69.415 16.940042
69.420 16.632505
69.425 16.212549
69.430 15.800875
69.435 16.214155
69.440 16.476128
69.445 16.481232
69.450 15.965397
69.455 15.574355
69.460 15.524239
69.465 15.252
69.470 14.282815
69.475 13.838757
69.480 13.668098
69.485 13.947912
69.490 14.086683
69.495 14.159277
69.500 14.244218
69.505 14.495193
69.510 14.541482
69.515 14.933074
69.520 14.777804
69.525 14.727118
69.530 14.256263
69.535 14.28402
69.540 14.280602
69.545 14.308051
69.550 14.124847
69.555 13.907381
69.560 13.720201
69.565 14.08624
69.570 14.501547
69.575 14.778598
69.580 14.88369
69.585 14.664165
69.590 14.722319
69.595 15.106078
69.600 14.493414
69.605 14.275913
69.610 14.006662
69.615 13.912865
69.620 13.655
69.625 13.499264
69.630 14.295484
69.635 15.127072
69.640 15.721507
69.645 15.811977
69.650 15.961297
69.655 16.49378
69.660 16.157351
69.665 15.134962
69.670 14.537396
69.675 14.093316
69.680 13.87933
69.685 14.000878
69.690 13.727376
69.695 13.83178
69.700 13.984674
69.705 14.167441
69.710 13.934727
69.715 14.21031
69.720 13.93932
69.725 14.317858
69.730 14.492002
69.735 14.885963
69.740 14.864299
69.745 15.111033
69.750 14.832232
69.755 14.879305
69.760 14.874454
69.765 14.757082
69.770 14.500644
69.775 14.673192
69.780 14.89347
69.785 15.308595
69.790 15.646056
69.795 15.932425
69.800 16.37524
69.805 16.552526
69.810 16.381521
69.815 16.4561
69.820 16.07048
69.825 15.744805
69.830 15.410321
69.835 15.093451
69.840 14.998172
69.845 14.793972
69.850 14.546636
69.855 14.77176
69.860 15.24523
69.865 15.423873
69.870 15.801196
69.875 15.71467
69.880 16.2104
69.885 16.311033
69.890 15.845265
69.895 15.24202
69.900 14.933966
69.905 14.509625
69.910 14.664752
69.915 14.334052
69.920 14.281414
69.925 14.640552
69.930 15.163954
69.935 15.359624
69.940 15.370193
69.945 14.877555
69.950 15.018049
69.955 15.183695
69.960 15.053799
69.965 14.226194
69.970 14.257055
69.975 13.991582
69.980 13.896153
69.985 14.233677
69.990 14.032975
69.995 14.014902
70.000 13.904541
70.005 13.276304
70.010 13.601524
70.015 13.537234
70.020 13.430455
70.025 13.864167
70.030 14.35967
70.035 14.802976
70.040 14.687884
70.045 14.866937
70.050 15.021551
70.055 14.593565
70.060 13.710094
70.065 13.382933
70.070 13.150072
70.075 13.746876
70.080 13.623919
70.085 13.669305
70.090 13.985684
70.095 14.204851
70.100 14.327117
70.105 14.714958
70.110 14.462049
70.115 14.797838
70.120 15.065463
70.125 14.990954
70.130 15.261648
70.135 15.186764
70.140 14.783456
70.145 14.963095
70.150 14.604139
70.155 14.21248
70.160 13.779984
70.165 13.887486
70.170 14.12841
70.175 14.317682
70.180 13.841133
70.185 13.711643
70.190 14.15217
70.195 14.628976
70.200 14.88219
70.205 14.902931
70.210 15.233635
70.215 15.637839
70.220 16.141253
70.225 15.701788
70.230 15.170414
70.235 14.553171
70.240 15.017032
70.245 14.729552
70.250 14.146101
70.255 13.498093
70.260 13.601381
70.265 13.656313
70.270 13.638446
70.275 13.324078
70.280 13.48602
70.285 13.782354
70.290 14.340311
70.295 14.153599
70.300 13.816051
70.305 13.862069
70.310 14.202504
70.315 14.354591
70.320 14.513891
70.325 14.169575
70.330 14.720441
70.335 15.446402
70.340 15.908388
70.345 15.804671
70.350 15.707458
70.355 15.747767
70.360 16.001858
70.365 15.661916
70.370 15.370637
70.375 15.034315
70.380 14.951019
70.385 15.005804
70.390 15.161469
70.395 14.963764
70.400 15.154652
70.405 14.878736
70.410 14.620862
70.415 14.092561
70.420 13.687416
70.425 13.318089
70.430 13.438658
70.435 13.155032
70.440 13.216474
70.445 13.187932
70.450 13.263295
70.455 13.379333
70.460 13.549268
70.465 13.115639
70.470 13.396895
70.475 13.456441
70.480 13.227001
70.485 13.354681
70.490 13.320097
70.495 13.757859
70.500 14.531549
70.505 14.300945
70.510 14.392184
70.515 14.096789
70.520 13.656991
70.525 13.772377
70.530 13.488568
70.535 13.380332
70.540 13.520854
70.545 14.134132
70.550 14.3602
70.555 14.749464
70.560 14.833137
70.565 15.316812
70.570 15.59256
70.575 15.812944
70.580 15.719165
70.585 16.294388
70.590 16.419922
70.595 16.297466
70.600 15.53199
70.605 14.796396
70.610 14.659953
70.615 15.35803
70.620 15.55873
70.625 15.404474
70.630 15.224874
70.635 15.767916
70.640 16.368866
70.645 16.192902
70.650 15.909008
70.655 15.880478
70.660 16.052738
70.665 16.297827
70.670 15.750907
70.675 15.24691
70.680 15.126126
70.685 15.068656
70.690 15.073513
70.695 15.134475
70.700 14.801551
70.705 14.914036
70.710 15.09348
70.715 15.038457
70.720 14.671255
70.725 14.899838
70.730 14.969414
70.735 15.030953
70.740 14.719057
70.745 14.315904
70.750 14.156442
70.755 14.36913
70.760 14.229286
70.765 14.235518
70.770 14.303172
70.775 15.130192
70.780 15.176487
70.785 15.442981
70.790 15.581423
70.795 15.508917
70.800 15.761337
70.805 16.064236
70.810 15.489619
70.815 15.661844
70.820 16.12705
70.825 15.931155
70.830 15.889469
70.835 15.551357
70.840 15.715363
70.845 16.116604
70.850 15.849229
70.855 14.858415
70.860 14.353209
70.865 14.449533
70.870 14.727654
70.875 14.210254
70.880 14.072704
70.885 14.487287
70.890 14.754805
70.895 14.774847
70.900 14.333648
70.905 14.072891
70.910 14.424894
70.915 14.462487
70.920 14.493344
70.925 14.909073
70.930 15.384774
70.935 15.901056
70.940 16.284239
70.945 16.229853
70.950 16.207163
70.955 15.984086
70.960 15.663793
70.965 15.035766
70.970 14.702708
70.975 14.999039
70.980 15.140531
70.985 15.126054
70.990 14.704041
70.995 14.736107
71.000 14.630664
71.005 15.024655
71.010 14.403094
71.015 14.233315
71.020 14.512904
71.025 14.561686
71.030 14.394423
71.035 14.384781
71.040 14.254555
71.045 14.497677
71.050 14.506899
71.055 14.434026
71.060 14.76781
71.065 15.251633
71.070 15.762831
71.075 15.658063
71.080 15.451123
71.085 15.329319
71.090 15.388423
71.095 15.620763
71.100 14.997478
71.105 14.392056
71.110 14.265853
71.115 14.556011
71.120 14.901334
71.125 15.316073
71.130 15.151753
71.135 14.990766
71.140 14.603036
71.145 14.721989
71.150 14.405907
71.155 14.180578
71.160 13.79614
71.165 13.684139
71.170 13.790317
71.175 14.188124
71.180 14.384557
71.185 14.024315
71.190 13.488379
71.195 13.428849
71.200 13.984848
71.205 14.611353
71.210 14.929516
71.215 14.866071
71.220 14.803128
71.225 14.753738
71.230 14.843
71.235 14.827491
71.240 14.261348
71.245 13.493787
71.250 13.391702
71.255 13.443877
71.260 13.927267
71.265 14.512795
71.270 14.341165
71.275 14.501081
71.280 14.911552
71.285 15.36216
71.290 15.755547
71.295 15.371855
71.300 14.522227
71.305 14.283109
71.310 14.41119
71.315 14.132089
71.320 13.666519
71.325 12.90362
71.330 12.923733
71.335 13.691079
71.340 13.849693
71.345 14.033034
71.350 13.871318
71.355 13.79685
71.360 13.891495
71.365 13.419354
71.370 13.738473
71.375 13.576298
71.380 13.408311
71.385 14.153312
71.390 14.565363
71.395 15.057121
71.400 16.013271
71.405 15.697672
71.410 16.069275
71.415 15.671292
71.420 15.713058
71.425 16.105768
71.430 15.858508
71.435 14.909298
71.440 14.629043
71.445 14.729288
71.450 15.080512
71.455 14.684142
71.460 14.598446
71.465 14.45798
71.470 14.321191
71.475 14.263131
71.480 14.672855
71.485 14.523372
71.490 14.546568
71.495 13.771381
71.500 13.806559
71.505 13.650153
71.510 13.636706
71.515 12.94024
71.520 12.585538
71.525 12.901215
71.530 13.043116
71.535 12.792094
71.540 12.875631
71.545 12.509985
71.550 12.811198
71.555 12.927429
71.560 13.330044
71.565 14.210619
71.570 14.475822
71.575 14.77957
71.580 15.308655
71.585 15.221872
71.590 14.928849
71.595 14.484654
71.600 14.679482
71.605 15.501145
71.610 15.747242
71.615 15.986667
71.620 16.312546
71.625 16.585447
71.630 16.778824
71.635 16.936779
71.640 16.702106
71.645 16.02882
71.650 15.570251
71.655 15.438693
71.660 14.946168
71.665 14.811769
71.670 14.550149
71.675 14.559526
71.680 14.315927
71.685 14.051225
71.690 14.043178
71.695 14.095029
71.700 13.811304
71.705 13.105034
71.710 13.166
71.715 13.561924
71.720 13.481738
71.725 13.661931
71.730 13.821627
71.735 13.859822
71.740 14.575667
71.745 14.575913
71.750 14.572923
71.755 14.249631
71.760 14.492984
71.765 14.369147
71.770 14.263569
71.775 13.822626
71.780 14.561
71.785 14.855574
71.790 15.739941
71.795 15.201368
71.800 15.925553
71.805 16.312761
71.810 16.302656
71.815 15.979749
71.820 16.081053
71.825 15.868678
71.830 15.883143
71.835 15.402657
71.840 15.460799
71.845 15.492173
71.850 15.307537
71.855 15.290214
71.860 15.04752
71.865 14.819885
71.870 14.619101
71.875 14.681983
71.880 14.549306
71.885 14.904144
71.890 14.817919
71.895 14.935199
71.900 15.418641
71.905 15.658617
71.910 15.854876
71.915 15.841476
71.920 15.560572
71.925 15.124151
71.930 14.987664
71.935 15.089854
71.940 15.026992
71.945 14.528357
71.950 14.051639
71.955 13.83964
71.960 13.735331
71.965 13.804862
71.970 13.719474
71.975 13.146553
71.980 13.394101
71.985 14.185937
71.990 14.470083
71.995 14.40512
72.000 14.618068
72.005 14.555348
72.010 14.390511
72.015 13.779723
72.020 13.628688
72.025 13.572934
72.030 13.087993
72.035 12.573499
72.040 12.820738
72.045 13.209563
72.050 13.298443
72.055 13.196272
72.060 13.700256
72.065 13.938267
72.070 14.01987
72.075 14.137718
72.080 14.832712
72.085 15.17443
72.090 15.218665
72.095 15.570631
72.100 15.834693
72.105 16.026976
72.110 15.585664
72.115 14.982172
72.120 15.071852
72.125 15.295787
72.130 15.180665
72.135 15.065374
72.140 15.096319
72.145 14.782043
72.150 14.83535
72.155 14.36546
72.160 13.911933
72.165 14.318658
72.170 14.136585
72.175 14.248304
72.180 14.392713
72.185 14.876075
72.190 15.169629
72.195 14.776323
72.200 14.165343
72.205 14.329393
72.210 13.830618
72.215 13.362595
72.220 12.377375
72.225 12.223234
72.230 12.388597
72.235 12.601448
72.240 13.127334
72.245 14.210309
72.250 15.021036
72.255 15.524888
72.260 15.69233
72.265 15.454063
72.270 15.158989
72.275 14.415245
72.280 14.389855
72.285 14.370853
72.290 14.478635
72.295 14.100259
72.300 14.316679
72.305 14.716884
72.310 14.666016
72.315 14.021966
72.320 13.668515
72.325 13.719593
72.330 13.236887
72.335 13.414502
72.340 13.246515
72.345 13.198037
72.350 13.655939
72.355 13.50782
72.360 13.843638
72.365 14.843691
72.370 14.770802
72.375 15.07209
72.380 15.129082
72.385 14.720967
72.390 14.846909
72.395 14.933035
72.400 14.786071
72.405 14.55794
72.410 14.723444
72.415 14.739125
72.420 14.516831
72.425 14.394516
72.430 14.011784
72.435 14.05443
72.440 13.935152
72.445 14.082765
72.450 14.595685
72.455 15.030748
72.460 14.779851
72.465 14.913745
72.470 14.819178
72.475 14.831612
72.480 14.700613
72.485 14.413899
72.490 14.493945
72.495 14.139266
72.500 13.873731
72.505 13.746122
72.510 14.035748
72.515 13.855294
72.520 14.001698
72.525 14.001318
72.530 13.86638
72.535 14.008676
72.540 13.595306
72.545 13.151028
72.550 13.223082
72.555 13.450461
72.560 13.570783
72.565 13.887747
72.570 13.721485
72.575 13.980222
72.580 14.630076
72.585 14.689122
72.590 14.170858
72.595 14.58203
72.600 14.666483
72.605 15.076602
72.610 15.160621
72.615 14.423786
72.620 15.030583
72.625 15.34571
72.630 15.216284
72.635 15.07551
72.640 14.713697
72.645 14.57195
72.650 14.310551
72.655 13.028835
72.660 12.644399
72.665 12.066467
72.670 12.137558
72.675 12.252714
72.680 12.06811
72.685 12.31776
72.690 12.900058
72.695 13.288161
72.700 13.297981
72.705 13.091483
72.710 13.17408
72.715 13.467113
72.720 13.386111
72.725 13.375276
72.730 13.377862
72.735 14.277053
72.740 14.771649
72.745 14.597863
72.750 14.469156
72.755 14.494884
72.760 14.79682
72.765 14.625795
72.770 14.392788
72.775 14.24824
72.780 14.475223
72.785 14.563606
72.790 15.068334
72.795 14.521219
72.800 14.409558
72.805 13.975977
72.810 13.682226
72.815 13.579127
72.820 13.167362
72.825 12.682897
72.830 12.912967
72.835 12.845087
72.840 12.480802
72.845 12.433776
72.850 12.498082
72.855 12.887516
72.860 13.198117
72.865 13.390781
72.870 13.94919
72.875 14.381183
72.880 14.335564
72.885 14.202983
72.890 13.605699
72.895 13.51001
72.900 13.447756
72.905 13.178417
72.910 13.374992
72.915 13.584886
72.920 13.56092
72.925 14.058575
72.930 14.481178
72.935 14.419033
72.940 14.516894
72.945 14.518625
72.950 14.660724
72.955 14.752186
72.960 14.614292
72.965 14.689803
72.970 14.416895
72.975 14.461755
72.980 14.373439
72.985 14.376677
72.990 14.042508
72.995 13.503541
73.000 13.040957
