!@!!GADDS PLOTSO FILE: Chi integration type
!@!!Title/SampleName: map-c6
!@!!Comment: ?
!@!!User: Bruker Instrument Administrator
!@!!Site: University of Illinois Chicago
!@!!Frame: map-c6_01_000.gfrm
!@!!Wavelengths    1.54184   1.54056   1.54439
!@!!Frame angles: 2Theta: 63.000 Omega: 50.000 Phi: 0.000 Chi: 90.000
!@!!Integration range: 2Theta: 53.000 to 73.000  Gamma: -105.000 to -75.000
!@!!Integration method: bin normalized
!@!N
!@!SS
!@!M
!@!L 0.0 0.0 0.0 0.0
!@!XDegrees
!@!YCounts
53.000 7.283666
53.005 7.461494
53.010 7.54972
53.015 7.505283
53.020 7.290037
53.025 7.183086
53.030 7.375491
53.035 7.384881
53.040 7.419377
53.045 6.955928
53.050 6.731295
53.055 7.393641
53.060 7.510687
53.065 7.566171
53.070 7.649828
53.075 7.699798
53.080 8.21675
53.085 8.107822
53.090 7.744153
53.095 8.14784
53.100 8.199815
53.105 8.01405
53.110 8.230674
53.115 8.141728
53.120 8.415083
53.125 8.183315
53.130 7.734591
53.135 7.958743
53.140 8.190158
53.145 8.19221
53.150 8.26179
53.155 8.187175
53.160 8.134613
53.165 8.410047
53.170 8.064978
53.175 8.133413
53.180 8.020549
53.185 7.751018
53.190 7.819647
53.195 8.010444
53.200 8.352143
53.205 8.712777
53.210 8.525588
53.215 8.722737
53.220 8.970231
53.225 8.966762
53.230 8.884627
53.235 8.68807
53.240 8.627583
53.245 8.600996
53.250 8.340459
53.255 8.346354
53.260 8.479149
53.265 8.357788
53.270 8.235064
53.275 8.0869
53.280 8.058467
53.285 8.22934
53.290 7.851987
53.295 7.851021
53.300 7.867692
53.305 7.990087
53.310 8.040805
53.315 8.067208
53.320 8.304526
53.325 8.278368
53.330 7.872002
53.335 7.664324
53.340 7.44077
53.345 7.795871
53.350 8.126513
53.355 7.914752
53.360 8.292159
53.365 8.623281
53.370 8.57132
53.375 8.663703
53.380 8.400013
53.385 8.135222
53.390 8.056471
53.395 7.492827
53.400 7.210477
53.405 7.215512
53.410 7.021092
53.415 7.087118
53.420 6.853884
53.425 7.233038
53.430 7.819671
53.435 8.370049
53.440 8.821719
53.445 9.150406
53.450 9.116899
53.455 9.289051
53.460 8.979907
53.465 8.550772
53.470 8.100671
53.475 7.461184
53.480 7.133233
53.485 7.514754
53.490 7.808044
53.495 8.003134
53.500 8.301867
53.505 8.576277
53.510 8.682586
53.515 8.852454
53.520 9.005402
53.525 8.49094
53.530 8.172494
53.535 8.12313
53.540 8.009203
53.545 8.241017
53.550 8.358971
53.555 8.39837
53.560 9.078015
53.565 9.469015
53.570 9.371348
53.575 9.426443
53.580 9.400048
53.585 9.076446
53.590 8.661319
53.595 8.318089
53.600 8.097069
53.605 7.966717
53.610 8.234336
53.615 8.464909
53.620 8.598801
53.625 9.196392
53.630 9.310461
53.635 9.516657
53.640 9.688043
53.645 9.576695
53.650 9.120803
53.655 9.085717
53.660 8.963081
53.665 8.743131
53.670 8.768881
53.675 8.86803
53.680 9.02978
53.685 9.157564
53.690 8.643043
53.695 8.203681
53.700 8.414307
53.705 8.230978
53.710 7.927
53.715 7.880573
53.720 7.83218
53.725 8.058219
53.730 8.174529
53.735 8.300026
53.740 8.508821
53.745 8.18346
53.750 7.981171
53.755 7.91941
53.760 8.112392
53.765 8.185204
53.770 8.205758
53.775 8.341104
53.780 8.566899
53.785 8.947206
53.790 9.087049
53.795 9.159205
53.800 9.128491
53.805 8.901321
53.810 8.853122
53.815 8.729472
53.820 8.367871
53.825 7.954418
53.830 7.50278
53.835 7.565594
53.840 7.558918
53.845 7.6295
53.850 7.665214
53.855 7.808218
53.860 8.424043
53.865 8.264638
53.870 7.904761
53.875 7.810796
53.880 7.753882
53.885 8.138858
53.890 8.118791
53.895 7.676866
53.900 8.211504
53.905 8.440242
53.910 8.726609
53.915 8.582591
53.920 8.545314
53.925 8.597236
53.930 8.986254
53.935 8.658475
53.940 8.616428
53.945 8.717645
53.950 8.502658
53.955 8.236767
53.960 8.907551
53.965 8.873933
53.970 8.957982
53.975 9.064075
53.980 9.169207
53.985 9.218059
53.990 9.001554
53.995 8.156266
54.000 8.056459
54.005 8.056402
54.010 7.704835
54.015 7.569844
54.020 8.046706
54.025 8.30217
54.030 8.642685
54.035 8.943046
54.040 8.832036
54.045 8.709696
54.050 8.315851
54.055 8.16449
54.060 8.402631
54.065 8.477343
54.070 8.582799
54.075 8.800809
54.080 9.302792
54.085 9.327663
54.090 9.229205
54.095 9.1522
54.100 8.744162
54.105 8.845948
54.110 8.422603
54.115 8.476885
54.120 8.331247
54.125 7.967875
54.130 7.398099
54.135 7.240904
54.140 7.256619
54.145 7.520577
54.150 7.781283
54.155 8.084909
54.160 8.427732
54.165 8.50414
54.170 8.434632
54.175 8.547272
54.180 8.465379
54.185 8.475646
54.190 8.736862
54.195 9.364372
54.200 10.294428
54.205 10.41303
54.210 10.248589
54.215 9.971777
54.220 10.077856
54.225 9.655511
54.230 9.334172
54.235 9.174632
54.240 9.506955
54.245 9.849377
54.250 9.996662
54.255 10.13405
54.260 9.882916
54.265 9.463595
54.270 9.408001
54.275 9.39348
54.280 9.397408
54.285 9.495397
54.290 9.42078
54.295 9.96746
54.300 10.228135
54.305 10.379813
54.310 10.610861
54.315 10.689928
54.320 10.659653
54.325 10.629659
54.330 10.466729
54.335 10.625434
54.340 10.055032
54.345 9.615901
54.350 9.411501
54.355 9.562076
54.360 9.891043
54.365 10.195301
54.370 10.45126
54.375 10.486574
54.380 10.791328
54.385 10.73764
54.390 10.29199
54.395 9.711658
54.400 9.237917
54.405 9.304961
54.410 9.184675
54.415 8.906463
54.420 9.019864
54.425 9.553641
54.430 9.694797
54.435 9.630405
54.440 9.262236
54.445 9.584627
54.450 9.810242
54.455 9.587205
54.460 9.58112
54.465 9.728313
54.470 9.943906
54.475 10.000563
54.480 9.852551
54.485 9.697046
54.490 9.477861
54.495 9.161241
54.500 9.005156
54.505 9.14745
54.510 9.280005
54.515 9.552523
54.520 9.689973
54.525 10.282411
54.530 10.695916
54.535 10.410835
54.540 10.290359
54.545 10.054508
54.550 9.642198
54.555 9.488297
54.560 9.577501
54.565 9.712989
54.570 9.995517
54.575 9.842673
54.580 10.131362
54.585 10.134758
54.590 9.850884
54.595 9.268022
54.600 9.05402
54.605 8.99472
54.610 8.760634
54.615 8.771684
54.620 9.310204
54.625 9.267141
54.630 9.100227
54.635 9.586965
54.640 9.391574
54.645 9.731475
54.650 9.492545
54.655 8.963723
54.660 9.291078
54.665 9.565653
54.670 9.374285
54.675 9.764632
54.680 10.080553
54.685 10.555802
54.690 11.166884
54.695 11.170105
54.700 10.983643
54.705 11.028878
54.710 10.41194
54.715 9.961698
54.720 9.353294
54.725 8.853948
54.730 8.895545
54.735 8.569669
54.740 8.788183
54.745 8.67226
54.750 8.559992
54.755 9.305045
54.760 9.463079
54.765 9.386197
54.770 9.562256
54.775 9.599284
54.780 9.858075
54.785 9.691957
54.790 9.292525
54.795 9.067235
54.800 8.822376
54.805 8.843715
54.810 8.467062
54.815 8.653557
54.820 8.488832
54.825 8.584689
54.830 8.971481
54.835 8.992593
54.840 8.856876
54.845 8.854419
54.850 8.874497
54.855 8.789531
54.860 8.52248
54.865 8.45208
54.870 8.815174
54.875 9.049567
54.880 9.614071
54.885 9.708691
54.890 9.953108
54.895 10.488694
54.900 10.772904
54.905 10.901794
54.910 11.307247
54.915 11.604674
54.920 11.579139
54.925 11.501251
54.930 10.982956
54.935 10.653604
54.940 10.533493
54.945 10.184402
54.950 10.110072
54.955 10.261944
54.960 10.740197
54.965 11.227678
54.970 11.514684
54.975 11.244161
54.980 11.323614
54.985 10.652696
54.990 10.497633
54.995 10.171915
55.000 9.751524
55.005 9.780247
55.010 10.292535
55.015 9.980689
55.020 9.750731
55.025 9.953828
55.030 10.049313
55.035 10.000627
55.040 9.698198
55.045 9.121565
55.050 9.590829
55.055 10.019495
55.060 9.88393
55.065 9.550204
55.070 9.509559
55.075 9.757755
55.080 9.801417
55.085 9.883166
55.090 10.013352
55.095 10.188541
55.100 10.606406
55.105 10.625431
55.110 10.671127
55.115 10.83001
55.120 10.578815
55.125 10.308707
55.130 10.115071
55.135 10.17018
55.140 9.992132
55.145 9.905539
55.150 9.870053
55.155 9.747275
55.160 10.110332
55.165 10.301318
55.170 10.204261
55.175 10.51556
55.180 10.387982
55.185 10.422891
55.190 10.464228
55.195 10.131434
55.200 10.110852
55.205 9.913386
55.210 9.555185
55.215 9.431356
55.220 9.276956
55.225 9.216596
55.230 9.210311
55.235 9.13099
55.240 9.367916
55.245 9.684399
55.250 9.692989
55.255 9.819283
55.260 9.731932
55.265 9.963135
55.270 10.419802
55.275 10.324717
55.280 10.421241
55.285 10.477274
55.290 10.654031
55.295 10.537631
55.300 9.89549
55.305 9.610281
55.310 9.338848
55.315 9.048272
55.320 9.36697
55.325 9.961679
55.330 10.425132
55.335 10.874868
55.340 10.906188
55.345 10.894461
55.350 10.798298
55.355 10.557631
55.360 10.045054
55.365 10.192661
55.370 9.921578
55.375 9.910226
55.380 10.264006
55.385 10.349835
55.390 10.129123
55.395 10.20853
55.400 9.920811
55.405 10.040475
55.410 10.237209
55.415 10.111764
55.420 10.096494
55.425 10.102096
55.430 10.114519
55.435 10.121724
55.440 10.330419
55.445 10.48843
55.450 10.915934
55.455 11.156953
55.460 10.816339
55.465 10.675973
55.470 10.919209
55.475 10.747813
55.480 10.057493
55.485 9.614928
55.490 9.945373
55.495 10.218212
55.500 10.015823
55.505 9.72927
55.510 9.953943
55.515 10.525346
55.520 10.293852
55.525 9.813491
55.530 9.689194
55.535 10.376083
55.540 10.889806
55.545 10.871163
55.550 10.895841
55.555 10.914275
55.560 10.677797
55.565 10.791109
55.570 10.117213
55.575 9.388228
55.580 9.165575
55.585 8.96103
55.590 9.275111
55.595 9.710975
55.600 9.686639
55.605 9.615782
55.610 9.445979
55.615 9.677878
55.620 9.998789
55.625 9.846457
55.630 9.838824
55.635 9.507914
55.640 9.530995
55.645 9.648479
55.650 9.886946
55.655 9.871477
55.660 9.856359
55.665 9.716407
55.670 9.810723
55.675 10.243083
55.680 10.524428
55.685 10.048911
55.690 10.15871
55.695 10.025073
55.700 10.270709
55.705 10.770746
55.710 10.346916
55.715 10.3274
55.720 10.656577
55.725 10.477169
55.730 10.584876
55.735 10.541083
55.740 10.208021
55.745 10.387278
55.750 10.6708
55.755 10.48861
55.760 10.588288
55.765 10.708452
55.770 10.714395
55.775 11.134825
55.780 11.663193
55.785 11.635655
55.790 11.81678
55.795 11.8865
55.800 11.509964
55.805 11.264735
55.810 11.210083
55.815 11.12165
55.820 10.898109
55.825 10.904068
55.830 11.300704
55.835 11.950231
55.840 12.247666
55.845 11.815983
55.850 11.500312
55.855 11.605444
55.860 12.027302
55.865 11.809608
55.870 11.135715
55.875 11.000946
55.880 11.009986
55.885 10.730179
55.890 10.398911
55.895 9.773716
55.900 9.82003
55.905 10.18357
55.910 10.044607
55.915 10.041586
55.920 10.262283
55.925 10.407683
55.930 10.886294
55.935 10.784307
55.940 10.964629
55.945 11.328584
55.950 11.038655
55.955 10.721631
55.960 10.562529
55.965 10.346048
55.970 10.440662
55.975 10.228857
55.980 9.868079
55.985 10.584902
55.990 11.268239
55.995 11.265972
56.000 11.068505
56.005 10.864038
56.010 10.04061
56.015 9.891201
56.020 9.538986
56.025 9.644018
56.030 9.641133
56.035 10.010466
56.040 10.399713
56.045 11.282045
56.050 11.785442
56.055 12.022311
56.060 11.598159
56.065 11.727987
56.070 11.259207
56.075 11.206114
56.080 11.239678
56.085 10.625876
56.090 10.586769
56.095 10.521973
56.100 10.714296
56.105 11.418015
56.110 11.618085
56.115 11.679332
56.120 11.973044
56.125 11.883598
56.130 12.267005
56.135 12.185122
56.140 12.271984
56.145 12.011124
56.150 12.355195
56.155 12.084642
56.160 12.544654
56.165 12.124746
56.170 12.215747
56.175 12.197163
56.180 11.999121
56.185 11.459861
56.190 11.462254
56.195 11.337087
56.200 11.603814
56.205 11.427849
56.210 11.093117
56.215 11.187024
56.220 11.441415
56.225 11.674248
56.230 11.695923
56.235 11.743855
56.240 11.93888
56.245 12.701207
56.250 12.63417
56.255 12.352384
56.260 11.975458
56.265 11.748533
56.270 11.651331
56.275 11.261047
56.280 10.886233
56.285 11.50146
56.290 11.896177
56.295 12.266512
56.300 12.351154
56.305 12.670867
56.310 12.810507
56.315 12.664817
56.320 11.94559
56.325 11.773151
56.330 11.670836
56.335 11.916718
56.340 11.620319
56.345 11.798752
56.350 12.08327
56.355 12.221695
56.360 12.020927
56.365 11.895595
56.370 11.745278
56.375 11.67147
56.380 11.304904
56.385 11.256324
56.390 11.308485
56.395 11.944766
56.400 11.766623
56.405 11.707467
56.410 11.378762
56.415 11.422068
56.420 11.34409
56.425 11.423306
56.430 10.785614
56.435 10.664585
56.440 10.335728
56.445 10.367593
56.450 10.59294
56.455 10.498443
56.460 10.219152
56.465 10.147923
56.470 10.375814
56.475 10.88405
56.480 10.959782
56.485 11.12525
56.490 11.523664
56.495 12.215379
56.500 12.544093
56.505 12.443026
56.510 11.729999
56.515 11.269363
56.520 10.842396
56.525 10.393881
56.530 9.782951
56.535 10.171536
56.540 10.579907
56.545 10.731447
56.550 11.264061
56.555 11.221266
56.560 11.200312
56.565 11.252999
56.570 10.803638
56.575 11.040898
56.580 11.730237
56.585 11.783485
56.590 12.17975
56.595 12.167172
56.600 11.542001
56.605 11.38327
56.610 10.853863
56.615 10.51259
56.620 9.735322
56.625 9.172974
56.630 9.80682
56.635 10.413356
56.640 10.103048
56.645 10.588633
56.650 11.067551
56.655 11.608927
56.660 11.840199
56.665 11.237371
56.670 11.182502
56.675 11.494802
56.680 11.190006
56.685 11.322927
56.690 11.803194
56.695 12.088518
56.700 12.423288
56.705 12.840591
56.710 12.905107
56.715 12.915348
56.720 12.466258
56.725 12.057037
56.730 11.566119
56.735 11.610173
56.740 11.788347
56.745 11.968135
56.750 12.211575
56.755 12.69724
56.760 13.12238
56.765 13.285174
56.770 13.276675
56.775 13.403914
56.780 13.736715
56.785 13.660176
56.790 13.110206
56.795 12.516675
56.800 12.681466
56.805 12.444648
56.810 12.062823
56.815 11.671306
56.820 11.82459
56.825 12.031208
56.830 12.390165
56.835 11.743898
56.840 12.029762
56.845 12.033213
56.850 12.007423
56.855 11.660384
56.860 11.352818
56.865 10.922071
56.870 11.311468
56.875 10.767201
56.880 10.843011
56.885 10.711724
56.890 10.628821
56.895 10.487795
56.900 11.259053
56.905 11.748196
56.910 11.62384
56.915 11.137418
56.920 11.146536
56.925 11.447474
56.930 11.460414
56.935 10.931589
56.940 10.143467
56.945 10.425444
56.950 10.816782
56.955 10.941067
56.960 11.39978
56.965 11.858855
56.970 12.701315
56.975 13.523688
56.980 12.996954
56.985 12.46213
56.990 12.595076
56.995 12.803325
57.000 12.873391
57.005 12.720034
57.010 12.724595
57.015 13.131409
57.020 13.216279
57.025 12.640586
57.030 12.045115
57.035 11.802594
57.040 11.017937
57.045 10.818276
57.050 11.17287
57.055 11.406018
57.060 11.31956
57.065 11.290204
57.070 11.669798
57.075 11.907771
57.080 11.917124
57.085 11.323324
57.090 11.224978
57.095 11.216326
57.100 11.4407
57.105 11.550031
57.110 11.83012
57.115 11.809467
57.120 12.134275
57.125 12.894112
57.130 13.504944
57.135 13.447097
57.140 13.444947
57.145 13.348816
57.150 13.456237
57.155 13.634597
57.160 13.430483
57.165 12.999152
57.170 12.970812
57.175 12.748848
57.180 13.016204
57.185 13.230091
57.190 13.176682
57.195 13.105804
57.200 13.093208
57.205 12.847101
57.210 12.715906
57.215 12.11114
57.220 12.379782
57.225 12.25991
57.230 12.090912
57.235 12.196991
57.240 11.837189
57.245 12.048358
57.250 12.277428
57.255 11.799252
57.260 11.87149
57.265 12.165585
57.270 12.262837
57.275 11.935451
57.280 11.068411
57.285 11.230973
57.290 11.399407
57.295 11.475187
57.300 11.594676
57.305 11.696468
57.310 12.779874
57.315 13.601788
57.320 13.547962
57.325 13.241706
57.330 13.264327
57.335 13.003907
57.340 12.559078
57.345 11.897586
57.350 11.610559
57.355 11.214715
57.360 11.680382
57.365 12.019221
57.370 12.173253
57.375 12.823808
57.380 12.948911
57.385 12.975412
57.390 13.475091
57.395 13.270227
57.400 13.226745
57.405 13.414011
57.410 13.050554
57.415 12.940042
57.420 13.225173
57.425 13.147654
57.430 12.869292
57.435 12.326049
57.440 11.916841
57.445 12.34867
57.450 12.381487
57.455 12.268661
57.460 11.811743
57.465 11.633173
57.470 12.242749
57.475 12.128411
57.480 12.042236
57.485 12.614659
57.490 12.568375
57.495 13.593879
57.500 14.016757
57.505 13.926731
57.510 14.00185
57.515 13.528854
57.520 13.182732
57.525 13.108825
57.530 12.771437
57.535 12.663032
57.540 12.932801
57.545 13.327688
57.550 13.83196
57.555 14.141487
57.560 14.292106
57.565 13.96314
57.570 13.398835
57.575 12.855202
57.580 12.809336
57.585 12.956764
57.590 12.226133
57.595 11.418269
57.600 11.802223
57.605 12.046466
57.610 12.295464
57.615 12.276297
57.620 12.334789
57.625 12.776246
57.630 13.250255
57.635 13.218824
57.640 13.215379
57.645 13.153516
57.650 13.284444
57.655 13.301298
57.660 13.765203
57.665 13.664649
57.670 13.581816
57.675 13.946898
57.680 13.806449
57.685 13.418938
57.690 13.55561
57.695 13.478042
57.700 13.599786
57.705 13.494706
57.710 13.307528
57.715 13.386694
57.720 13.614002
57.725 13.301455
57.730 13.483766
57.735 13.696475
57.740 13.917189
57.745 14.024623
57.750 13.832914
57.755 13.567584
57.760 13.454786
57.765 13.662565
57.770 13.28121
57.775 12.971275
57.780 13.084384
57.785 12.848508
57.790 12.856784
57.795 13.047186
57.800 12.896157
57.805 13.683746
57.810 14.128405
57.815 14.022488
57.820 14.815072
57.825 14.978006
57.830 15.364658
57.835 15.703362
57.840 15.444586
57.845 15.254656
57.850 15.31376
57.855 15.140137
57.860 14.903326
57.865 14.006323
57.870 13.691781
57.875 13.714461
57.880 13.810273
57.885 14.135591
57.890 14.279734
57.895 14.326028
57.900 14.472296
57.905 14.241812
57.910 14.410011
57.915 14.296101
57.920 13.445045
57.925 13.085116
57.930 12.907688
57.935 13.528161
57.940 13.614739
57.945 13.743615
57.950 13.891641
57.955 14.166189
57.960 14.412106
57.965 14.892058
57.970 14.833357
57.975 14.814219
57.980 14.742334
57.985 15.04096
57.990 15.465982
57.995 15.314995
58.000 15.032226
58.005 15.62877
58.010 15.747673
58.015 15.975124
58.020 15.8936
58.025 16.305664
58.030 16.488272
58.035 16.600134
58.040 16.303862
58.045 16.183861
58.050 15.944681
58.055 15.811019
58.060 15.302884
58.065 15.655938
58.070 15.707487
58.075 15.589036
58.080 15.492537
58.085 15.326953
58.090 15.111757
58.095 14.978486
58.100 14.44736
58.105 14.055936
58.110 14.237894
58.115 14.654277
58.120 14.619017
58.125 14.577184
58.130 14.480525
58.135 14.906033
58.140 15.636884
58.145 16.141672
58.150 16.109303
58.155 15.688675
58.160 15.461041
58.165 15.212383
58.170 15.142135
58.175 14.92658
58.180 14.754569
58.185 14.817182
58.190 15.371606
58.195 15.862881
58.200 16.387144
58.205 16.652218
58.210 16.373051
58.215 15.954717
58.220 15.865311
58.225 15.940495
58.230 16.164352
58.235 15.84644
58.240 15.74033
58.245 15.709946
58.250 15.563528
58.255 15.281884
58.260 15.0106
58.265 14.962336
58.270 15.467329
58.275 15.225172
58.280 15.365261
58.285 15.644428
58.290 15.841168
58.295 15.764486
58.300 15.768713
58.305 15.663272
58.310 15.939883
58.315 15.550977
58.320 15.130661
58.325 15.497183
58.330 15.719916
58.335 15.94704
58.340 15.723068
58.345 15.720554
58.350 16.543503
58.355 17.053713
58.360 17.063469
58.365 17.191959
58.370 17.016562
58.375 17.240738
58.380 16.949265
58.385 16.734297
58.390 16.652166
58.395 17.087629
58.400 17.65493
58.405 17.867989
58.410 18.099644
58.415 18.728767
58.420 19.252172
58.425 19.913565
58.430 20.088034
58.435 19.952454
58.440 20.133318
58.445 20.63973
58.450 20.589855
58.455 20.347584
58.460 20.451311
58.465 21.322456
58.470 21.608347
58.475 21.848608
58.480 21.731876
58.485 22.329906
58.490 22.964369
58.495 22.416023
58.500 21.626871
58.505 22.138496
58.510 22.647377
58.515 23.630274
58.520 24.084299
58.525 25.200722
58.530 25.800894
58.535 26.274464
58.540 26.728256
58.545 26.909361
58.550 25.962025
58.555 25.536299
58.560 25.778755
58.565 25.956007
58.570 25.748779
58.575 25.845293
58.580 26.433983
58.585 27.2346
58.590 28.525152
58.595 29.811262
58.600 30.98843
58.605 32.201756
58.610 32.456974
58.615 33.331318
58.620 34.226429
58.625 35.177254
58.630 35.283459
58.635 35.354786
58.640 35.619595
58.645 35.374195
58.650 34.647408
58.655 34.137543
58.660 33.716301
58.665 33.531937
58.670 33.738091
58.675 34.239395
58.680 34.511143
58.685 34.809628
58.690 35.145092
58.695 35.387993
58.700 35.118687
58.705 34.394104
58.710 33.669891
58.715 33.331856
58.720 33.225567
58.725 32.579849
58.730 31.641481
58.735 32.374607
58.740 32.85429
58.745 32.865398
58.750 32.829334
58.755 32.693348
58.760 32.88245
58.765 32.906898
58.770 32.085022
58.775 31.759974
58.780 31.952562
58.785 31.734062
58.790 31.264278
58.795 30.995794
58.800 30.223263
58.805 30.467731
58.810 30.696566
58.815 30.393415
58.820 30.487249
58.825 30.085161
58.830 29.123636
58.835 28.163242
58.840 26.81308
58.845 26.279404
58.850 25.693674
58.855 25.84165
58.860 26.1553
58.865 25.844463
58.870 25.170319
58.875 25.557461
58.880 25.094442
58.885 25.215883
58.890 24.127518
58.895 23.732103
58.900 24.170784
58.905 24.592089
58.910 23.80842
58.915 22.762781
58.920 21.842735
58.925 21.71908
58.930 21.629751
58.935 21.386909
58.940 20.877071
58.945 20.361546
58.950 19.847214
58.955 19.997135
58.960 19.467136
58.965 19.058178
58.970 18.81114
58.975 18.296516
58.980 18.290831
58.985 18.467451
58.990 18.06348
58.995 18.103985
59.000 17.395008
59.005 17.718529
59.010 18.545744
59.015 18.274815
59.020 17.511135
59.025 17.194735
59.030 17.009264
59.035 16.905392
59.040 16.380615
59.045 16.20491
59.050 16.074953
59.055 16.350355
59.060 16.568338
59.065 16.561239
59.070 16.603279
59.075 16.627087
59.080 16.889072
59.085 17.317215
59.090 17.776068
59.095 18.096289
59.100 18.696426
59.105 18.748907
59.110 18.330305
59.115 17.546814
59.120 16.966957
59.125 16.652126
59.130 16.219221
59.135 15.650088
59.140 16.016754
59.145 15.718099
59.150 15.133809
59.155 15.484947
59.160 15.230815
59.165 15.538592
59.170 15.570192
59.175 14.795698
59.180 14.626671
59.185 15.189486
59.190 15.187179
59.195 15.366629
59.200 15.280214
59.205 15.144921
59.210 15.574509
59.215 15.598891
59.220 14.977494
59.225 14.873757
59.230 14.809259
59.235 14.645481
59.240 14.773603
59.245 14.696004
59.250 14.431129
59.255 14.687785
59.260 14.589825
59.265 14.236694
59.270 13.911237
59.275 14.082315
59.280 14.132593
59.285 13.867522
59.290 13.951222
59.295 14.624769
59.300 14.995633
59.305 14.916799
59.310 14.650585
59.315 14.807549
59.320 15.236833
59.325 15.393989
59.330 14.656875
59.335 14.511993
59.340 14.664235
59.345 14.993752
59.350 14.905245
59.355 14.761313
59.360 14.78006
59.365 14.989841
59.370 14.834632
59.375 14.670817
59.380 14.643653
59.385 15.17879
59.390 15.674309
59.395 15.429407
59.400 14.978481
59.405 14.762011
59.410 14.58224
59.415 14.306695
59.420 13.585573
59.425 13.191695
59.430 13.048454
59.435 13.313369
59.440 13.627523
59.445 13.523132
59.450 13.040761
59.455 13.327929
59.460 13.561397
59.465 14.150229
59.470 14.320327
59.475 14.656461
59.480 14.499569
59.485 14.719579
59.490 15.037225
59.495 15.253371
59.500 15.052992
59.505 14.820062
59.510 14.567734
59.515 14.711904
59.520 14.552383
59.525 13.825445
59.530 13.072053
59.535 12.893703
59.540 12.377711
59.545 12.10164
59.550 12.441602
59.555 12.403666
59.560 12.980242
59.565 13.466936
59.570 13.413621
59.575 14.523438
59.580 14.916454
59.585 14.888812
59.590 15.294939
59.595 15.264021
59.600 14.969347
59.605 15.137065
59.610 14.626266
59.615 14.617808
59.620 14.269659
59.625 13.985705
59.630 13.888057
59.635 13.933541
59.640 13.674616
59.645 13.886136
59.650 14.486155
59.655 14.603701
59.660 14.528223
59.665 14.707805
59.670 14.710207
59.675 14.748639
59.680 14.789548
59.685 14.292397
59.690 14.477249
59.695 14.609838
59.700 14.470448
59.705 14.373456
59.710 14.35172
59.715 14.29367
59.720 14.363717
59.725 14.17254
59.730 13.742799
59.735 13.615255
59.740 13.798989
59.745 13.81972
59.750 13.906135
59.755 13.959214
59.760 14.066998
59.765 14.164183
59.770 13.959705
59.775 13.93949
59.780 14.137729
59.785 14.179198
59.790 14.095856
59.795 14.149542
59.800 14.466868
59.805 14.812446
59.810 14.69226
59.815 14.1976
59.820 13.911745
59.825 13.786278
59.830 14.143154
59.835 14.285408
59.840 14.092546
59.845 14.44854
59.850 14.29463
59.855 14.368993
59.860 14.350686
59.865 14.651324
59.870 15.049414
59.875 15.032559
59.880 15.186585
59.885 15.71278
59.890 15.329504
59.895 15.163777
59.900 14.172434
59.905 13.58569
59.910 13.757753
59.915 13.37985
59.920 13.231232
59.925 13.634828
59.930 13.839508
59.935 13.828739
59.940 14.541281
59.945 14.556535
59.950 14.745172
59.955 14.481777
59.960 14.616978
59.965 14.583339
59.970 14.531977
59.975 14.270995
59.980 14.107632
59.985 13.639338
59.990 14.16359
59.995 14.11136
60.000 14.224524
60.005 14.764353
60.010 14.321252
60.015 14.45169
60.020 14.773598
60.025 14.391732
60.030 14.393271
60.035 14.354166
60.040 14.133113
60.045 14.498419
60.050 15.217382
60.055 15.340581
60.060 15.118735
60.065 14.783669
60.070 15.029668
60.075 14.779708
60.080 14.460036
60.085 14.066306
60.090 13.986481
60.095 14.096807
60.100 14.434934
60.105 14.716386
60.110 14.549998
60.115 14.011581
60.120 13.635136
60.125 13.291489
60.130 13.315888
60.135 13.094653
60.140 12.601565
60.145 13.009544
60.150 13.679008
60.155 14.130184
60.160 14.575752
60.165 14.438079
60.170 14.785115
60.175 15.136516
60.180 15.098889
60.185 15.069141
60.190 15.118787
60.195 15.67695
60.200 15.757423
60.205 15.357687
60.210 15.332228
60.215 15.307924
60.220 15.353725
60.225 15.114581
60.230 14.812314
60.235 14.680066
60.240 14.440953
60.245 14.402905
60.250 14.395995
60.255 14.009551
60.260 13.642207
60.265 13.6719
60.270 14.386583
60.275 15.057912
60.280 15.118115
60.285 15.30474
60.290 15.767426
60.295 16.103281
60.300 15.93033
60.305 15.533495
60.310 15.011072
60.315 14.918534
60.320 14.299803
60.325 13.935439
60.330 13.740149
60.335 13.528248
60.340 13.68753
60.345 13.587365
60.350 13.289891
60.355 13.569329
60.360 14.043639
60.365 14.287181
60.370 14.484056
60.375 14.422419
60.380 14.515415
60.385 15.027756
60.390 15.952544
60.395 16.343981
60.400 16.130114
60.405 15.963183
60.410 16.12606
60.415 15.836389
60.420 15.642649
60.425 15.327666
60.430 15.018961
60.435 15.061621
60.440 15.124776
60.445 14.877048
60.450 15.198341
60.455 15.054859
60.460 14.428588
60.465 14.206025
60.470 14.069284
60.475 13.891706
60.480 13.657384
60.485 13.752095
60.490 13.746783
60.495 14.1673
60.500 14.033608
60.505 13.937359
60.510 14.353677
60.515 15.18346
60.520 14.947672
60.525 14.991531
60.530 14.416593
60.535 14.52317
60.540 15.077264
60.545 14.842559
60.550 14.248287
60.555 14.119869
60.560 14.326228
60.565 14.73178
60.570 14.365708
60.575 13.931875
60.580 13.787377
60.585 13.835436
60.590 14.573603
60.595 14.639721
60.600 14.991727
60.605 15.388443
60.610 15.65419
60.615 16.162519
60.620 16.21763
60.625 15.911729
60.630 15.031238
60.635 14.578913
60.640 14.259973
60.645 14.14889
60.650 14.051002
60.655 14.217484
60.660 14.140944
60.665 14.195262
60.670 14.240679
60.675 14.728404
60.680 14.737684
60.685 14.114181
60.690 13.624455
60.695 13.468932
60.700 13.660047
60.705 13.750533
60.710 13.988719
60.715 13.873719
60.720 14.500579
60.725 14.751811
60.730 15.038324
60.735 15.094815
60.740 14.698563
60.745 14.676135
60.750 14.994261
60.755 14.970201
60.760 15.002007
60.765 15.072341
60.770 15.518808
60.775 15.687279
60.780 15.242515
60.785 15.156319
60.790 15.157971
60.795 15.178017
60.800 15.193701
60.805 14.621101
60.810 14.521012
60.815 13.987556
60.820 13.699841
60.825 13.218004
60.830 13.310867
60.835 13.661646
60.840 13.721176
60.845 14.311582
60.850 14.967821
60.855 15.213676
60.860 15.126177
60.865 14.81453
60.870 14.768343
60.875 15.281992
60.880 14.753394
60.885 14.061908
60.890 13.938433
60.895 14.410227
60.900 14.531128
60.905 14.352038
60.910 13.62993
60.915 13.824197
60.920 14.399623
60.925 14.579344
60.930 14.204054
60.935 14.018754
60.940 13.883256
60.945 14.713824
60.950 15.376026
60.955 15.421895
60.960 14.99416
60.965 14.915061
60.970 14.964685
60.975 14.892171
60.980 14.186577
60.985 13.333301
60.990 13.523666
60.995 14.198445
61.000 14.539845
61.005 14.397698
61.010 14.331638
61.015 14.787164
61.020 15.100024
61.025 15.275579
61.030 14.817817
61.035 14.805294
61.040 15.012749
61.045 15.237681
61.050 15.09635
61.055 14.89515
61.060 14.38378
61.065 14.5587
61.070 14.498656
61.075 14.836798
61.080 14.873625
61.085 14.706604
61.090 15.266865
61.095 15.890529
61.100 15.784213
61.105 15.584461
61.110 14.943757
61.115 14.670096
61.120 15.171833
61.125 14.937463
61.130 14.539419
61.135 14.295848
61.140 14.50138
61.145 14.51231
61.150 14.202043
61.155 13.524172
61.160 12.95858
61.165 13.126938
61.170 13.127173
61.175 12.998878
61.180 13.597592
61.185 14.825337
61.190 15.180568
61.195 15.155121
61.200 15.376646
61.205 15.755065
61.210 16.308653
61.215 15.916465
61.220 15.597441
61.225 15.816373
61.230 16.43437
61.235 16.335873
61.240 16.296421
61.245 16.210169
61.250 16.337
61.255 16.118965
61.260 16.132162
61.265 15.765662
61.270 15.502444
61.275 15.122543
61.280 14.670224
61.285 14.811316
61.290 14.867135
61.295 14.690345
61.300 14.613372
61.305 14.922218
61.310 15.128512
61.315 15.440549
61.320 15.112278
61.325 14.840551
61.330 14.712481
61.335 14.539165
61.340 14.513212
61.345 14.294721
61.350 14.372635
61.355 14.742641
61.360 15.00913
61.365 15.108644
61.370 15.292501
61.375 15.399261
61.380 15.593593
61.385 15.035501
61.390 14.837505
61.395 14.674709
61.400 14.610176
61.405 14.460663
61.410 14.451389
61.415 14.124101
61.420 13.827767
61.425 13.822991
61.430 14.284455
61.435 14.824322
61.440 15.221416
61.445 15.280109
61.450 15.883512
61.455 16.330708
61.460 16.325848
61.465 15.969246
61.470 15.737411
61.475 15.465713
61.480 15.869546
61.485 15.758949
61.490 15.511517
61.495 15.172494
61.500 14.81725
61.505 14.834115
61.510 15.169905
61.515 14.549249
61.520 14.625818
61.525 15.009013
61.530 15.405903
61.535 15.543485
61.540 15.295263
61.545 15.487554
61.550 15.805108
61.555 16.071739
61.560 16.0236
61.565 15.990166
61.570 15.973811
61.575 16.436649
61.580 16.799955
61.585 16.763775
61.590 16.383999
61.595 16.035305
61.600 15.799199
61.605 16.257559
61.610 16.102598
61.615 15.359237
61.620 15.185603
61.625 15.173388
61.630 15.455289
61.635 15.729891
61.640 15.533923
61.645 14.811893
61.650 14.246009
61.655 14.404594
61.660 14.753167
61.665 14.698999
61.670 14.849885
61.675 15.475277
61.680 16.003546
61.685 16.596575
61.690 16.609001
61.695 16.292927
61.700 16.273943
61.705 15.839096
61.710 15.13807
61.715 15.238625
61.720 14.76963
61.725 14.3531
61.730 14.23936
61.735 14.139098
61.740 14.37507
61.745 14.072491
61.750 13.151113
61.755 13.736099
61.760 13.849629
61.765 13.877467
61.770 14.46158
61.775 14.246021
61.780 14.616306
61.785 14.95921
61.790 14.837663
61.795 15.554621
61.800 16.004599
61.805 15.606306
61.810 15.900486
61.815 15.872729
61.820 16.805367
61.825 17.247656
61.830 16.584774
61.835 16.250332
61.840 16.523441
61.845 16.632824
61.850 16.533117
61.855 15.829195
61.860 15.694192
61.865 16.155106
61.870 16.157043
61.875 15.84284
61.880 15.454394
61.885 15.693042
61.890 15.737504
61.895 15.588245
61.900 15.56941
61.905 15.173278
61.910 15.402717
61.915 15.438848
61.920 15.002233
61.925 14.583662
61.930 14.14598
61.935 14.098608
61.940 14.659925
61.945 14.788813
61.950 15.447579
61.955 15.859814
61.960 15.945087
61.965 16.200676
61.970 16.042465
61.975 16.015631
61.980 15.917606
61.985 15.256559
61.990 14.702737
61.995 14.648673
62.000 14.52556
62.005 14.508487
62.010 14.477178
62.015 14.613417
62.020 14.8828
62.025 15.114079
62.030 15.385978
62.035 15.854562
62.040 16.134232
62.045 16.146749
62.050 15.938441
62.055 16.094202
62.060 16.170645
62.065 16.06119
62.070 15.994321
62.075 15.813318
62.080 15.344071
62.085 14.930998
62.090 14.326884
62.095 14.310923
62.100 14.247472
62.105 13.886505
62.110 13.986238
62.115 14.576756
62.120 14.628678
62.125 15.087353
62.130 15.493251
62.135 16.027761
62.140 16.337788
62.145 16.260685
62.150 16.221342
62.155 16.850389
62.160 16.750349
62.165 16.561588
62.170 16.781103
62.175 16.976507
62.180 17.533386
62.185 17.669947
62.190 18.109346
62.195 18.464718
62.200 18.465982
62.205 17.72513
62.210 17.722836
62.215 16.803707
62.220 16.189594
62.225 15.410408
62.230 15.416692
62.235 15.480824
62.240 15.378888
62.245 14.616332
62.250 14.631563
62.255 14.360739
62.260 14.072129
62.265 13.786464
62.270 13.174449
62.275 13.982056
62.280 14.395861
62.285 15.165259
62.290 15.554358
62.295 15.445378
62.300 15.454288
62.305 15.413711
62.310 14.490958
62.315 14.614576
62.320 14.446795
62.325 14.829447
62.330 14.928231
62.335 14.962097
62.340 15.515141
62.345 15.799153
62.350 15.429262
62.355 15.242822
62.360 15.441287
62.365 15.66375
62.370 16.116827
62.375 16.033655
62.380 16.031908
62.385 16.227432
62.390 16.355028
62.395 16.140375
62.400 16.27791
62.405 15.744355
62.410 15.783464
62.415 15.325916
62.420 15.125754
62.425 14.971002
62.430 15.197295
62.435 15.363699
62.440 15.793761
62.445 16.058567
62.450 16.652811
62.455 17.680258
62.460 17.920675
62.465 17.924448
62.470 17.81805
62.475 18.114319
62.480 18.082306
62.485 17.305105
62.490 16.727562
62.495 16.075317
62.500 15.504614
62.505 14.99553
62.510 14.419909
62.515 14.499305
62.520 14.379028
62.525 14.151768
62.530 14.508632
62.535 14.632546
62.540 14.704904
62.545 14.805551
62.550 14.391025
62.555 14.61327
62.560 14.788587
62.565 15.123377
62.570 15.724044
62.575 16.202152
62.580 16.482706
62.585 16.285656
62.590 16.641506
62.595 17.009731
62.600 16.834608
62.605 16.356718
62.610 15.70835
62.615 15.174049
62.620 15.598234
62.625 15.571312
62.630 15.478523
62.635 15.627336
62.640 15.583031
62.645 15.971412
62.650 16.115599
62.655 15.978372
62.660 15.846193
62.665 15.719757
62.670 15.932817
62.675 16.219656
62.680 16.713129
62.685 17.149311
62.690 17.267553
62.695 17.406242
62.700 16.923315
62.705 16.35675
62.710 16.045034
62.715 15.654521
62.720 15.433521
62.725 15.529401
62.730 15.784624
62.735 16.417685
62.740 16.68173
62.745 17.037567
62.750 17.193169
62.755 17.309761
62.760 17.280037
62.765 17.263916
62.770 16.405781
62.775 15.852437
62.780 15.131374
62.785 14.643812
62.790 14.622656
62.795 14.399139
62.800 14.129807
62.805 15.218664
62.810 16.208193
62.815 16.619194
62.820 16.262918
62.825 16.348661
62.830 16.616365
62.835 16.638073
62.840 15.944176
62.845 15.37856
62.850 15.237143
62.855 15.679237
62.860 15.776233
62.865 15.475949
62.870 15.544632
62.875 15.70346
62.880 15.27385
62.885 15.159857
62.890 14.763093
62.895 14.454673
62.900 14.740505
62.905 14.270947
62.910 14.37742
62.915 15.218099
62.920 15.726336
62.925 15.773229
62.930 16.024433
62.935 16.159275
62.940 16.594137
62.945 16.5298
62.950 16.405851
62.955 16.192789
62.960 16.288397
62.965 16.079699
62.970 16.23177
62.975 16.664944
62.980 16.841818
62.985 16.784033
62.990 17.307108
62.995 17.765903
63.000 18.112225
63.005 17.857195
63.010 17.110531
63.015 16.760303
63.020 16.414499
63.025 16.229218
63.030 15.705284
63.035 15.368278
63.040 15.583103
63.045 16.04262
63.050 16.473818
63.055 16.876877
63.060 16.606613
63.065 16.933529
63.070 16.912491
63.075 16.879559
63.080 16.647526
63.085 15.859131
63.090 15.508624
63.095 16.145987
63.100 16.379015
63.105 16.072422
63.110 15.327323
63.115 15.27712
63.120 15.558215
63.125 16.29245
63.130 16.038044
63.135 15.37079
63.140 15.096798
63.145 15.001363
63.150 15.554909
63.155 15.725595
63.160 14.687778
63.165 14.364636
63.170 14.822018
63.175 15.303905
63.180 15.457385
63.185 14.753721
63.190 14.594152
63.195 15.056244
63.200 15.344357
63.205 15.550124
63.210 15.917109
63.215 16.687969
63.220 17.126434
63.225 17.368734
63.230 17.28075
63.235 16.99461
63.240 16.636322
63.245 15.868516
63.250 15.674006
63.255 15.398394
63.260 15.458953
63.265 15.719478
63.270 16.03363
63.275 16.462021
63.280 17.28821
63.285 17.275934
63.290 17.142881
63.295 16.740726
63.300 16.512465
63.305 16.585009
63.310 16.575289
63.315 16.61829
63.320 16.700054
63.325 16.879232
63.330 17.570919
63.335 17.717278
63.340 17.512341
63.345 17.171103
63.350 16.41057
63.355 16.256071
63.360 16.410118
63.365 15.685732
63.370 15.422875
63.375 15.23601
63.380 15.678173
63.385 16.541555
63.390 17.125036
63.395 17.319323
63.400 17.695271
63.405 17.550442
63.410 17.600218
63.415 17.075491
63.420 16.464447
63.425 16.165979
63.430 16.372993
63.435 16.330624
63.440 16.669809
63.445 16.472961
63.450 16.616936
63.455 17.343763
63.460 17.180246
63.465 16.859163
63.470 16.852392
63.475 17.120794
63.480 17.87602
63.485 17.595793
63.490 17.07044
63.495 16.270569
63.500 16.036772
63.505 16.191393
63.510 15.850185
63.515 15.369224
63.520 15.498727
63.525 15.855164
63.530 16.644203
63.535 17.018084
63.540 16.758522
63.545 16.505404
63.550 16.264145
63.555 16.574026
63.560 16.565697
63.565 16.799694
63.570 16.206747
63.575 16.091118
63.580 16.630651
63.585 17.168875
63.590 16.750624
63.595 17.139563
63.600 17.284994
63.605 17.448597
63.610 17.822371
63.615 17.894152
63.620 18.176125
63.625 18.603622
63.630 18.135942
63.635 18.110102
63.640 18.319122
63.645 18.139425
63.650 17.719801
63.655 17.662174
63.660 17.764339
63.665 17.943178
63.670 18.275955
63.675 18.429007
63.680 17.982409
63.685 18.390421
63.690 18.09845
63.695 17.988661
63.700 17.384516
63.705 16.822798
63.710 17.040728
63.715 17.072948
63.720 16.805546
63.725 16.679888
63.730 16.219807
63.735 16.412609
63.740 16.390968
63.745 16.480297
63.750 17.116055
63.755 16.889103
63.760 16.816074
63.765 17.450968
63.770 17.792042
63.775 18.093922
63.780 18.394527
63.785 17.776421
63.790 17.729443
63.795 17.477499
63.800 16.876959
63.805 16.689737
63.810 16.524179
63.815 16.474443
63.820 16.89883
63.825 17.750568
63.830 18.429993
63.835 18.608124
63.840 18.275784
63.845 18.193478
63.850 18.120562
63.855 18.109905
63.860 17.466682
63.865 17.825331
63.870 18.364647
63.875 18.554508
63.880 18.530586
63.885 18.318466
63.890 18.237633
63.895 18.424387
63.900 17.732306
63.905 17.062559
63.910 17.444111
63.915 17.690968
63.920 18.069567
63.925 17.969965
63.930 17.653524
63.935 17.415737
63.940 17.544964
63.945 17.403795
63.950 17.37121
63.955 17.049757
63.960 17.639482
63.965 18.203175
63.970 18.536837
63.975 18.687231
63.980 19.100229
63.985 19.472696
63.990 19.751631
63.995 19.484716
64.000 19.898912
64.005 20.576855
64.010 20.824314
64.015 20.816452
64.020 20.890345
64.025 20.464899
64.030 20.323448
64.035 20.209019
64.040 19.885979
64.045 20.365877
64.050 20.152679
64.055 19.953537
64.060 20.655115
64.065 20.868021
64.070 21.052887
64.075 21.348509
64.080 21.192749
64.085 21.813984
64.090 22.334085
64.095 22.474964
64.100 22.239552
64.105 21.736277
64.110 21.856676
64.115 21.815926
64.120 22.38579
64.125 23.003912
64.130 23.222242
64.135 23.86977
64.140 24.527319
64.145 24.318907
64.150 25.12368
64.155 24.844679
64.160 24.952797
64.165 26.119696
64.170 26.554728
64.175 27.272524
64.180 28.158655
64.185 28.743038
64.190 29.055286
64.195 29.349054
64.200 29.90745
64.205 30.790812
64.210 31.021343
64.215 30.880955
64.220 31.039106
64.225 31.937593
64.230 31.739574
64.235 31.261551
64.240 31.798241
64.245 32.222973
64.250 32.523655
64.255 33.059002
64.260 32.807053
64.265 33.164291
64.270 33.15271
64.275 33.330883
64.280 33.848888
64.285 34.603661
64.290 35.298473
64.295 36.150928
64.300 37.220116
64.305 37.936905
64.310 37.927509
64.315 38.430309
64.320 39.271446
64.325 39.421726
64.330 40.675072
64.335 41.061497
64.340 41.416569
64.345 42.502399
64.350 42.570747
64.355 43.485752
64.360 45.53796
64.365 45.933029
64.370 47.078297
64.375 48.308563
64.380 48.367958
64.385 48.205132
64.390 47.695709
64.395 47.86668
64.400 47.941193
64.405 47.251415
64.410 46.869553
64.415 47.45483
64.420 48.327602
64.425 48.587414
64.430 48.271267
64.435 48.285358
64.440 48.790722
64.445 48.70808
64.450 48.931969
64.455 48.389713
64.460 47.878422
64.465 46.825172
64.470 46.31567
64.475 45.503674
64.480 44.761116
64.485 43.656933
64.490 43.041637
64.495 43.236881
64.500 43.200176
64.505 43.612972
64.510 43.918972
64.515 44.089752
64.520 44.043087
64.525 44.126701
64.530 43.515709
64.535 43.565166
64.540 42.919132
64.545 42.691162
64.550 42.80555
64.555 42.327015
64.560 42.207935
64.565 41.941742
64.570 40.808979
64.575 40.609524
64.580 39.562294
64.585 38.738094
64.590 38.944057
64.595 38.127247
64.600 37.219875
64.605 36.197071
64.610 35.426674
64.615 35.623341
64.620 34.675838
64.625 33.670773
64.630 33.09734
64.635 33.775234
64.640 33.90485
64.645 33.121624
64.650 32.710606
64.655 33.031139
64.660 33.110615
64.665 32.869301
64.670 32.192924
64.675 31.269133
64.680 30.844061
64.685 30.638983
64.690 30.151609
64.695 29.908218
64.700 29.44062
64.705 28.54199
64.710 28.279287
64.715 27.533321
64.720 26.332077
64.725 25.216856
64.730 24.5889
64.735 24.084787
64.740 23.699997
64.745 23.564137
64.750 23.496983
64.755 23.844297
64.760 24.081665
64.765 23.791935
64.770 24.217815
64.775 24.303909
64.780 23.53594
64.785 22.559155
64.790 22.547539
64.795 22.654703
64.800 23.238455
64.805 23.164906
64.810 22.940928
64.815 22.922791
64.820 23.546213
64.825 23.102238
64.830 22.438801
64.835 22.486485
64.840 22.638912
64.845 22.321905
64.850 22.575523
64.855 22.458139
64.860 22.813635
64.865 23.597254
64.870 23.099251
64.875 22.892698
64.880 23.068489
64.885 23.166512
64.890 23.239197
64.895 22.925016
64.900 22.465418
64.905 22.160711
64.910 21.800663
64.915 21.87326
64.920 21.627064
64.925 21.321943
64.930 21.857456
64.935 21.782587
64.940 22.046934
64.945 22.515257
64.950 22.677864
64.955 23.349552
64.960 23.561621
64.965 23.680746
64.970 24.243877
64.975 24.975866
64.980 25.679831
64.985 26.250961
64.990 25.789745
64.995 25.34551
65.000 25.241205
65.005 25.618591
65.010 25.435051
65.015 24.770086
65.020 25.049833
65.025 25.991571
65.030 26.814501
65.035 27.141346
65.040 26.782825
65.045 26.923954
65.050 27.026054
65.055 27.221172
65.060 27.119049
65.065 27.614994
65.070 28.156164
65.075 28.958521
65.080 29.338614
65.085 29.965887
65.090 30.779926
65.095 31.447063
65.100 31.868916
65.105 32.760098
65.110 32.755745
65.115 33.193428
65.120 33.899147
65.125 33.996365
65.130 35.37434
65.135 35.8652
65.140 34.580772
65.145 34.747902
65.150 34.830734
65.155 34.728664
65.160 34.515759
65.165 33.545528
65.170 33.74408
65.175 34.513615
65.180 34.48835
65.185 33.588612
65.190 32.967491
65.195 34.289913
65.200 34.93911
65.205 35.239513
65.210 35.402981
65.215 35.730446
65.220 36.444553
65.225 37.217674
65.230 35.962013
65.235 34.551571
65.240 33.850796
65.245 34.212074
65.250 34.134766
65.255 34.638676
65.260 34.137447
65.265 34.411377
65.270 34.504265
65.275 35.069324
65.280 35.033169
65.285 34.908138
65.290 34.987507
65.295 35.382874
65.300 36.144756
65.305 36.660545
65.310 36.975025
65.315 36.383366
65.320 35.975693
65.325 35.99514
65.330 35.764935
65.335 35.613674
65.340 35.218643
65.345 34.874065
65.350 35.686874
65.355 36.548134
65.360 36.750282
65.365 36.650581
65.370 36.943268
65.375 37.801826
65.380 37.937344
65.385 37.820728
65.390 37.888603
65.395 37.7351
65.400 37.778343
65.405 37.546494
65.410 37.827183
65.415 37.984093
65.420 37.771988
65.425 37.598049
65.430 37.847542
65.435 37.518829
65.440 37.914181
65.445 37.396038
65.450 37.126518
65.455 37.695377
65.460 37.588135
65.465 37.601311
65.470 37.839039
65.475 36.982712
65.480 37.206074
65.485 37.474838
65.490 37.6049
65.495 37.578209
65.500 37.831657
65.505 37.744347
65.510 37.47699
65.515 37.947941
65.520 38.399208
65.525 38.31868
65.530 38.179733
65.535 38.238205
65.540 39.2514
65.545 39.832722
65.550 38.863239
65.555 38.187023
65.560 38.0313
65.565 38.25164
65.570 37.22699
65.575 36.544434
65.580 36.567932
65.585 36.355263
65.590 36.638779
65.595 36.887981
65.600 37.347679
65.605 38.92712
65.610 38.637604
65.615 38.746857
65.620 39.147449
65.625 38.64864
65.630 38.262413
65.635 37.291389
65.640 36.661259
65.645 37.054176
65.650 37.103245
65.655 36.925591
65.660 36.88483
65.665 36.767715
65.670 36.776543
65.675 36.610302
65.680 36.606407
65.685 36.135429
65.690 35.644466
65.695 35.399818
65.700 35.27253
65.705 35.658066
65.710 35.402954
65.715 34.667458
65.720 34.973637
65.725 35.190968
65.730 35.384094
65.735 35.368683
65.740 34.075417
65.745 33.278324
65.750 32.897694
65.755 31.721375
65.760 30.427923
65.765 30.151279
65.770 29.809645
65.775 30.415583
65.780 30.810141
65.785 30.798864
65.790 31.832279
65.795 32.582874
65.800 32.133591
65.805 31.343718
65.810 30.218628
65.815 29.766418
65.820 29.759687
65.825 28.474213
65.830 28.238144
65.835 27.564932
65.840 27.181757
65.845 27.243608
65.850 26.497002
65.855 25.94595
65.860 26.435057
65.865 26.390379
65.870 26.074606
65.875 26.238317
65.880 26.119984
65.885 26.302517
65.890 25.692625
65.895 24.912683
65.900 24.792391
65.905 25.210186
65.910 25.476313
65.915 25.501957
65.920 24.982449
65.925 24.573856
65.930 24.012497
65.935 24.706173
65.940 24.909128
65.945 24.828581
65.950 24.25448
65.955 24.19524
65.960 24.090725
65.965 23.580482
65.970 22.164124
65.975 21.412304
65.980 21.413986
65.985 21.819109
65.990 21.843142
65.995 22.124727
66.000 22.469061
66.005 22.367908
66.010 21.857361
66.015 21.019114
66.020 21.069229
66.025 20.448292
66.030 20.05772
66.035 19.984327
66.040 20.333176
66.045 20.901011
66.050 21.206192
66.055 21.052498
66.060 21.129822
66.065 20.954659
66.070 20.4706
66.075 19.960905
66.080 20.187393
66.085 20.42721
66.090 20.353064
66.095 19.952347
66.100 19.469862
66.105 19.602079
66.110 19.635929
66.115 19.33658
66.120 19.15959
66.125 19.422968
66.130 19.506617
66.135 19.323427
66.140 19.30621
66.145 18.864124
66.150 18.04093
66.155 17.321951
66.160 16.941572
66.165 17.444963
66.170 17.819281
66.175 17.811834
66.180 18.203014
66.185 18.809647
66.190 19.387787
66.195 19.224825
66.200 18.633743
66.205 18.136843
66.210 18.272701
66.215 17.922043
66.220 17.668539
66.225 17.760729
66.230 18.449799
66.235 19.069885
66.240 19.27825
66.245 19.182482
66.250 19.120077
66.255 19.464754
66.260 19.192259
66.265 18.680319
66.270 18.036821
66.275 17.833324
66.280 17.862516
66.285 17.948006
66.290 17.580214
66.295 17.259159
66.300 17.302431
66.305 17.591885
66.310 17.879244
66.315 17.397758
66.320 17.167439
66.325 17.319599
66.330 17.255377
66.335 17.052389
66.340 16.796494
66.345 16.386093
66.350 17.082417
66.355 17.254049
66.360 17.429882
66.365 17.531082
66.370 18.100317
66.375 18.37533
66.380 18.837921
66.385 18.822649
66.390 18.578228
66.395 18.326117
66.400 18.249609
66.405 17.403084
66.410 17.572363
66.415 17.282867
66.420 16.947977
66.425 17.047461
66.430 17.270208
66.435 17.5527
66.440 18.070211
66.445 18.057785
66.450 18.201078
66.455 18.426495
66.460 18.28598
66.465 18.076342
66.470 18.137348
66.475 17.949949
66.480 18.297642
66.485 17.908503
66.490 18.289669
66.495 18.617004
66.500 18.547665
66.505 18.338825
66.510 18.21512
66.515 17.320757
66.520 17.875332
66.525 17.515726
66.530 16.809498
66.535 16.395315
66.540 16.740561
66.545 16.623045
66.550 17.401142
66.555 16.83918
66.560 16.844055
66.565 16.708679
66.570 16.201019
66.575 15.718275
66.580 15.726614
66.585 15.32684
66.590 15.377181
66.595 16.000071
66.600 16.897047
66.605 17.415188
66.610 17.465275
66.615 17.682312
66.620 18.099184
66.625 18.190495
66.630 17.097431
66.635 17.122593
66.640 17.286388
66.645 17.165483
66.650 17.064148
66.655 17.019583
66.660 17.288448
66.665 18.501318
66.670 18.777521
66.675 18.900551
66.680 19.328024
66.685 19.230099
66.690 19.218939
66.695 19.167078
66.700 18.770369
66.705 19.031345
66.710 19.166252
66.715 18.756132
66.720 18.829958
66.725 18.737106
66.730 18.568357
66.735 17.961979
66.740 17.763124
66.745 17.903503
66.750 18.257597
66.755 18.454544
66.760 18.540922
66.765 18.359135
66.770 18.621096
66.775 18.159332
66.780 18.399612
66.785 17.653316
66.790 17.001528
66.795 16.577023
66.800 16.789993
66.805 16.900623
66.810 16.818453
66.815 16.051859
66.820 16.275053
66.825 16.553713
66.830 16.697235
66.835 16.279398
66.840 16.016253
66.845 15.804649
66.850 16.460115
66.855 16.740747
66.860 16.848303
66.865 16.62509
66.870 16.732592
66.875 17.092867
66.880 17.699944
66.885 17.765354
66.890 17.730585
66.895 18.250128
66.900 18.529333
66.905 18.603168
66.910 18.709358
66.915 17.974604
66.920 17.570789
66.925 17.063612
66.930 16.546158
66.935 16.533001
66.940 16.498337
66.945 16.187914
66.950 16.411455
66.955 16.434727
66.960 17.317726
66.965 17.126904
66.970 17.706778
66.975 18.249517
66.980 18.650133
66.985 19.186384
66.990 19.091791
66.995 18.327724
67.000 18.501921
67.005 17.975517
67.010 17.315458
67.015 17.622561
67.020 17.656536
67.025 17.997751
67.030 18.606022
67.035 19.255611
67.040 19.246052
67.045 18.970133
67.050 18.486712
67.055 18.216887
67.060 18.515701
67.065 18.524656
67.070 18.105299
67.075 17.734772
67.080 18.130083
67.085 18.518543
67.090 18.597742
67.095 18.080616
67.100 17.219986
67.105 17.276182
67.110 17.536869
67.115 17.31274
67.120 16.875937
67.125 16.82082
67.130 17.237526
67.135 17.723566
67.140 17.889175
67.145 18.140125
67.150 18.152258
67.155 18.062468
67.160 17.848185
67.165 17.468206
67.170 17.473228
67.175 17.625711
67.180 17.608997
67.185 17.408817
67.190 17.232206
67.195 17.549099
67.200 17.490145
67.205 17.405855
67.210 17.447721
67.215 17.286383
67.220 17.574627
67.225 18.420156
67.230 18.643232
67.235 18.843971
67.240 18.277338
67.245 18.258827
67.250 18.344717
67.255 18.274435
67.260 18.015738
67.265 17.490086
67.270 17.858746
67.275 18.329544
67.280 18.145103
67.285 18.092623
67.290 18.112535
67.295 17.817358
67.300 17.610968
67.305 16.80253
67.310 16.569847
67.315 16.346706
67.320 16.384315
67.325 16.35652
67.330 16.171104
67.335 16.700863
67.340 17.207069
67.345 17.274212
67.350 17.
67.355 16.952738
67.360 17.064983
67.365 16.94031
67.370 16.917337
67.375 16.536957
67.380 16.662594
67.385 17.360205
67.390 17.373657
67.395 16.87678
67.400 16.594833
67.405 16.332373
67.410 17.019257
67.415 16.7927
67.420 16.216738
67.425 16.055367
67.430 16.272785
67.435 16.180553
67.440 16.73905
67.445 16.516623
67.450 16.274099
67.455 16.776758
67.460 17.074379
67.465 17.475321
67.470 17.259632
67.475 16.657127
67.480 16.742413
67.485 17.182917
67.490 16.534491
67.495 16.22784
67.500 16.489199
67.505 17.135965
67.510 17.171295
67.515 17.160069
67.520 17.362112
67.525 17.826204
67.530 18.22624
67.535 18.052526
67.540 17.760571
67.545 17.699343
67.550 17.12538
67.555 16.717798
67.560 16.593164
67.565 15.757199
67.570 15.492839
67.575 15.874865
67.580 16.060444
67.585 16.50725
67.590 16.930553
67.595 17.240309
67.600 17.797033
67.605 17.703487
67.610 17.430664
67.615 17.730276
67.620 18.276169
67.625 19.234362
67.630 20.127028
67.635 20.342602
67.640 20.330502
67.645 20.304764
67.650 19.686424
67.655 19.007732
67.660 17.810673
67.665 17.366529
67.670 17.744881
67.675 18.17948
67.680 18.03948
67.685 17.868303
67.690 17.955673
67.695 17.919664
67.700 17.027767
67.705 16.274902
67.710 15.698932
67.715 15.760148
67.720 16.152075
67.725 16.53952
67.730 16.79982
67.735 17.250093
67.740 17.814289
67.745 18.276978
67.750 18.484213
67.755 18.399693
67.760 18.369419
67.765 18.302345
67.770 18.117437
67.775 17.585629
67.780 17.636925
67.785 17.672386
67.790 17.634098
67.795 17.066217
67.800 17.468973
67.805 18.631702
67.810 19.291437
67.815 18.711222
67.820 18.190805
67.825 18.142658
67.830 18.321497
67.835 18.093828
67.840 17.243513
67.845 17.129206
67.850 17.503672
67.855 17.809689
67.860 17.864763
67.865 18.167564
67.870 17.584959
67.875 17.444674
67.880 17.141193
67.885 17.409578
67.890 17.939972
67.895 18.340597
67.900 19.383045
67.905 20.30678
67.910 20.2565
67.915 20.389805
67.920 20.254177
67.925 20.014875
67.930 19.44212
67.935 18.364679
67.940 17.621172
67.945 17.823229
67.950 17.83312
67.955 18.169081
67.960 18.43907
67.965 18.635504
67.970 18.254749
67.975 18.927485
67.980 19.659611
67.985 19.545364
67.990 19.503647
67.995 19.597675
68.000 19.377077
68.005 19.639347
68.010 19.850626
68.015 19.52446
68.020 19.933092
68.025 19.621555
68.030 19.683716
68.035 20.400267
68.040 20.518303
68.045 20.338465
68.050 20.374426
68.055 20.125834
68.060 19.990469
68.065 20.162668
68.070 19.288349
68.075 18.326225
68.080 18.49954
68.085 18.777493
68.090 18.650496
68.095 18.281664
68.100 17.442333
68.105 17.604946
68.110 18.008026
68.115 17.551229
68.120 17.171383
68.125 17.962885
68.130 18.585703
68.135 19.012693
68.140 19.63748
68.145 19.809736
68.150 20.052402
68.155 20.055429
68.160 19.517134
68.165 19.074871
68.170 19.038973
68.175 19.150486
68.180 19.411085
68.185 19.152399
68.190 19.127058
68.195 18.774626
68.200 18.907337
68.205 19.101404
68.210 18.683458
68.215 18.152473
68.220 18.440947
68.225 18.57719
68.230 18.996729
68.235 19.693844
68.240 19.790865
68.245 20.22209
68.250 20.411871
68.255 20.702917
68.260 21.055302
68.265 21.280724
68.270 21.247992
68.275 21.590073
68.280 22.50334
68.285 22.649521
68.290 22.917458
68.295 23.06341
68.300 23.306625
68.305 22.92334
68.310 22.538998
68.315 22.395088
68.320 22.911491
68.325 23.21036
68.330 23.769045
68.335 24.148975
68.340 24.714638
68.345 25.667782
68.350 25.298626
68.355 24.778049
68.360 24.917515
68.365 25.195683
68.370 25.433603
68.375 26.10116
68.380 26.440874
68.385 27.51704
68.390 28.240753
68.395 28.289728
68.400 28.241896
68.405 27.940777
68.410 28.328747
68.415 28.681627
68.420 28.764565
68.425 29.09156
68.430 29.335781
68.435 29.075407
68.440 28.918427
68.445 28.139425
68.450 27.47114
68.455 27.273312
68.460 26.467327
68.465 26.374496
68.470 27.249342
68.475 27.639095
68.480 27.746502
68.485 29.045078
68.490 29.583656
68.495 30.4044
68.500 30.422382
68.505 30.151962
68.510 30.495874
68.515 30.685999
68.520 30.298269
68.525 30.490522
68.530 31.711624
68.535 32.804588
68.540 32.991539
68.545 32.982327
68.550 33.092972
68.555 32.890038
68.560 33.090168
68.565 32.544537
68.570 31.97777
68.575 31.711098
68.580 31.924707
68.585 32.81176
68.590 32.579899
68.595 31.737467
68.600 31.042374
68.605 31.829378
68.610 32.338154
68.615 32.43224
68.620 32.202431
68.625 33.51828
68.630 34.06398
68.635 34.863243
68.640 34.594315
68.645 34.660332
68.650 34.399509
68.655 34.231964
68.660 33.701939
68.665 33.937233
68.670 33.545193
68.675 33.007202
68.680 33.413536
68.685 34.021198
68.690 33.65659
68.695 34.006027
68.700 33.995358
68.705 34.141346
68.710 34.709675
68.715 34.117878
68.720 33.666531
68.725 34.748859
68.730 34.887978
68.735 34.811512
68.740 35.684757
68.745 35.825859
68.750 36.204582
68.755 36.663017
68.760 35.796764
68.765 35.769974
68.770 36.541119
68.775 35.664364
68.780 35.354839
68.785 34.691933
68.790 34.056423
68.795 34.190437
68.800 33.434532
68.805 32.417881
68.810 31.977449
68.815 32.060093
68.820 32.550079
68.825 32.883179
68.830 32.590919
68.835 32.727684
68.840 33.36747
68.845 33.910835
68.850 33.941837
68.855 34.084839
68.860 34.672462
68.865 34.511444
68.870 33.994164
68.875 33.988018
68.880 33.77536
68.885 32.859177
68.890 32.074593
68.895 31.832785
68.900 31.517143
68.905 31.184404
68.910 31.161877
68.915 31.216211
68.920 31.290535
68.925 31.114323
68.930 30.779104
68.935 30.942768
68.940 31.306116
68.945 30.601782
68.950 30.780659
68.955 30.952185
68.960 31.103148
68.965 30.394756
68.970 29.964794
68.975 28.997793
68.980 28.677721
68.985 28.30521
68.990 28.459614
68.995 28.724451
69.000 28.879477
69.005 28.549776
69.010 29.0427
69.015 28.899216
69.020 28.299715
69.025 28.016386
69.030 27.986738
69.035 28.476976
69.040 28.902437
69.045 28.755413
69.050 28.969109
69.055 29.47538
69.060 29.321655
69.065 29.493305
69.070 29.18766
69.075 29.221523
69.080 29.163795
69.085 28.924894
69.090 27.984392
69.095 27.039318
69.100 26.432287
69.105 25.23208
69.110 24.087248
69.115 23.405252
69.120 23.084949
69.125 23.173576
69.130 23.11092
69.135 23.378773
69.140 24.394686
69.145 24.595572
69.150 25.463734
69.155 25.365976
69.160 25.21154
69.165 25.476307
69.170 25.384859
69.175 25.149296
69.180 24.906263
69.185 24.849831
69.190 25.057411
69.195 25.297081
69.200 24.586634
69.205 23.668631
69.210 23.261457
69.215 22.798946
69.220 22.01251
69.225 21.398417
69.230 20.900206
69.235 21.054335
69.240 20.578077
69.245 19.950384
69.250 19.874397
69.255 19.291107
69.260 19.594116
69.265 19.603321
69.270 19.879955
69.275 20.528233
69.280 20.741629
69.285 20.569609
69.290 21.182434
69.295 21.005817
69.300 20.878942
69.305 21.49107
69.310 21.210321
69.315 20.674976
69.320 20.696741
69.325 20.035246
69.330 20.0602
69.335 19.753704
69.340 18.976318
69.345 19.137314
69.350 20.015545
69.355 20.126499
69.360 20.31662
69.365 19.837234
69.370 20.088467
69.375 20.249971
69.380 20.104792
69.385 19.345297
69.390 19.194403
69.395 19.409176
69.400 19.441757
69.405 18.694735
69.410 18.26438
69.415 17.802938
69.420 17.871824
69.425 17.874058
69.430 17.897905
69.435 18.252472
69.440 18.714998
69.445 19.692057
69.450 20.419256
69.455 20.232845
69.460 20.198294
69.465 19.980076
69.470 20.030811
69.475 19.403845
69.480 18.444523
69.485 17.936882
69.490 18.453993
69.495 18.317863
69.500 18.388575
69.505 18.661221
69.510 19.080441
69.515 19.629259
69.520 19.62077
69.525 19.456381
69.530 19.469868
69.535 19.511936
69.540 19.265514
69.545 18.960403
69.550 18.807861
69.555 18.262926
69.560 18.237869
69.565 18.37829
69.570 18.440853
69.575 18.194721
69.580 17.787657
69.585 16.663227
69.590 16.662125
69.595 16.193739
69.600 16.085491
69.605 15.794044
69.610 16.073547
69.615 16.333797
69.620 17.792641
69.625 18.372063
69.630 18.244699
69.635 18.56492
69.640 18.5982
69.645 18.723951
69.650 18.903631
69.655 18.870878
69.660 18.783968
69.665 19.097231
69.670 18.812416
69.675 18.669109
69.680 18.591888
69.685 18.71257
69.690 18.00288
69.695 17.785973
69.700 17.72196
69.705 17.576006
69.710 17.594627
69.715 17.646486
69.720 18.022446
69.725 18.4946
69.730 18.460264
69.735 18.476824
69.740 18.933939
69.745 19.119682
69.750 18.828995
69.755 18.354628
69.760 18.234161
69.765 18.584885
69.770 19.089376
69.775 18.933611
69.780 18.705273
69.785 19.064911
69.790 18.753731
69.795 18.649658
69.800 18.057516
69.805 18.056749
69.810 18.463985
69.815 18.756605
69.820 18.424595
69.825 18.433521
69.830 18.35639
69.835 18.576902
69.840 18.849108
69.845 18.797203
69.850 18.934406
69.855 18.842953
69.860 19.240263
69.865 19.093496
69.870 19.236679
69.875 19.070408
69.880 18.608149
69.885 18.378819
69.890 18.100685
69.895 18.436646
69.900 18.714132
69.905 18.14068
69.910 17.60261
69.915 17.718712
69.920 18.040331
69.925 18.45039
69.930 17.828621
69.935 17.575037
69.940 17.499838
69.945 17.856182
69.950 17.9244
69.955 17.633713
69.960 17.568398
69.965 17.465824
69.970 17.10322
69.975 16.68284
69.980 16.499023
69.985 16.387396
69.990 16.818253
69.995 16.676771
70.000 17.049934
70.005 17.453035
70.010 17.800732
70.015 17.473856
70.020 17.442453
70.025 17.181326
70.030 17.400578
70.035 17.265985
70.040 17.268253
70.045 17.404959
70.050 17.459684
70.055 17.196817
70.060 17.02993
70.065 17.142382
70.070 17.448883
70.075 17.422369
70.080 17.560627
70.085 17.55015
70.090 17.737587
70.095 17.970892
70.100 17.583662
70.105 17.618612
70.110 17.899317
70.115 18.028261
70.120 18.305721
70.125 18.006569
70.130 17.644098
70.135 17.538721
70.140 17.326162
70.145 17.262396
70.150 16.93022
70.155 16.975571
70.160 17.421394
70.165 17.793201
70.170 17.915432
70.175 17.574558
70.180 17.49851
70.185 17.346514
70.190 17.244881
70.195 16.785667
70.200 16.452549
70.205 16.069614
70.210 15.824245
70.215 16.443155
70.220 16.606342
70.225 16.808149
70.230 17.450485
70.235 17.2682
70.240 17.772974
70.245 18.006895
70.250 17.952948
70.255 18.150934
70.260 18.047955
70.265 17.744011
70.270 18.439659
70.275 18.537622
70.280 18.10729
70.285 17.7094
70.290 17.216623
70.295 17.193714
70.300 17.489712
70.305 16.911997
70.310 17.295321
70.315 17.525064
70.320 17.810123
70.325 17.769711
70.330 17.72456
70.335 18.002623
70.340 18.167795
70.345 17.83297
70.350 17.649553
70.355 17.277773
70.360 17.367626
70.365 16.780682
70.370 16.103291
70.375 15.830191
70.380 15.929647
70.385 16.376993
70.390 16.989313
70.395 16.992977
70.400 17.579939
70.405 18.212105
70.410 18.02803
70.415 17.82642
70.420 17.594009
70.425 17.265442
70.430 17.251694
70.435 16.794283
70.440 16.516912
70.445 16.563324
70.450 16.525976
70.455 16.184547
70.460 16.591261
70.465 17.075628
70.470 17.683859
70.475 18.086592
70.480 18.396696
70.485 18.572533
70.490 18.819368
70.495 17.959383
70.500 17.521912
70.505 17.498665
70.510 17.189281
70.515 17.332138
70.520 17.318153
70.525 17.226137
70.530 16.85463
70.535 17.260002
70.540 17.165951
70.545 17.983488
70.550 17.929787
70.555 18.036215
70.560 17.785654
70.565 18.118113
70.570 18.058336
70.575 17.612129
70.580 16.887901
70.585 17.404387
70.590 17.397703
70.595 18.04644
70.600 18.214392
70.605 18.20981
70.610 18.130537
70.615 18.083817
70.620 17.822693
70.625 17.749517
70.630 17.701126
70.635 17.419432
70.640 17.754318
70.645 17.82107
70.650 17.721193
70.655 17.142231
70.660 17.412739
70.665 17.384747
70.670 17.314686
70.675 17.166443
70.680 17.231936
70.685 17.402534
70.690 17.937733
70.695 18.113585
70.700 18.262592
70.705 18.049202
70.710 18.182674
70.715 18.51235
70.720 18.964041
70.725 18.789228
70.730 18.464886
70.735 17.929628
70.740 18.121525
70.745 17.735956
70.750 17.845919
70.755 17.692337
70.760 17.616253
70.765 17.577297
70.770 18.156479
70.775 18.439079
70.780 18.227753
70.785 17.742901
70.790 17.793955
70.795 17.663692
70.800 16.880836
70.805 16.60615
70.810 16.105383
70.815 16.08787
70.820 15.982426
70.825 15.15745
70.830 15.454531
70.835 15.692394
70.840 15.130837
70.845 15.397189
70.850 15.349624
70.855 15.291549
70.860 16.112293
70.865 16.375517
70.870 16.818256
70.875 17.259167
70.880 17.410629
70.885 17.942966
70.890 17.671196
70.895 17.45014
70.900 17.479046
70.905 17.281694
70.910 17.21699
70.915 17.247065
70.920 17.180653
70.925 17.165993
70.930 17.098475
70.935 16.955976
70.940 16.994265
70.945 17.203793
70.950 17.559805
70.955 17.524988
70.960 17.618958
70.965 17.188807
70.970 16.941711
70.975 17.115772
70.980 17.354055
70.985 17.01519
70.990 16.752674
70.995 16.962553
71.000 17.423235
71.005 17.816399
71.010 17.500252
71.015 16.788628
71.020 17.278349
71.025 17.436905
71.030 16.923531
71.035 17.361509
71.040 17.514261
71.045 17.498693
71.050 17.943855
71.055 17.715998
71.060 17.814489
71.065 18.187555
71.070 18.020128
71.075 17.2964
71.080 17.107254
71.085 16.877907
71.090 16.479095
71.095 17.014124
71.100 16.624678
71.105 16.558456
71.110 17.103481
71.115 17.192175
71.120 16.844622
71.125 17.43519
71.130 17.078341
71.135 16.712179
71.140 16.794439
71.145 16.288801
71.150 16.035086
71.155 16.10066
71.160 15.487282
71.165 16.15867
71.170 17.014238
71.175 16.960241
71.180 17.360367
71.185 17.711195
71.190 17.782207
71.195 17.957952
71.200 17.413729
71.205 16.867956
71.210 17.20705
71.215 16.996323
71.220 16.692436
71.225 17.001976
71.230 16.787954
71.235 16.7472
71.240 16.49827
71.245 16.423159
71.250 16.326334
71.255 16.301777
71.260 16.767309
71.265 17.599211
71.270 17.959686
71.275 17.922083
71.280 18.097517
71.285 18.349825
71.290 17.874485
71.295 16.990612
71.300 16.095165
71.305 15.965672
71.310 16.347075
71.315 16.915751
71.320 17.389452
71.325 17.515993
71.330 17.367479
71.335 17.844873
71.340 17.722183
71.345 17.140112
71.350 16.686764
71.355 16.60202
71.360 16.665442
71.365 16.50127
71.370 15.5719
71.375 15.575313
71.380 15.669133
71.385 15.230186
71.390 15.336932
71.395 15.512531
71.400 15.960904
71.405 16.631643
71.410 16.828596
71.415 16.467573
71.420 16.604021
71.425 16.533503
71.430 16.511189
71.435 16.226345
71.440 16.400211
71.445 16.988548
71.450 17.76906
71.455 17.589151
71.460 17.470493
71.465 17.914959
71.470 17.537729
71.475 17.161142
71.480 16.654274
71.485 16.267897
71.490 16.664394
71.495 16.828894
71.500 16.915821
71.505 17.656538
71.510 17.901037
71.515 18.258858
71.520 18.050241
71.525 17.736015
71.530 17.894688
71.535 18.582026
71.540 18.163145
71.545 17.68924
71.550 17.334797
71.555 17.959709
71.560 18.321365
71.565 17.918413
71.570 17.16482
71.575 16.925804
71.580 17.267387
71.585 17.29496
71.590 17.046831
71.595 16.741003
71.600 16.637215
71.605 16.9217
71.610 16.801571
71.615 16.548246
71.620 16.535486
71.625 16.701094
71.630 16.998838
71.635 17.027103
71.640 16.922262
71.645 16.929367
71.650 17.102453
71.655 17.271177
71.660 16.620438
71.665 16.217798
71.670 16.435499
71.675 17.183577
71.680 17.588577
71.685 17.56883
71.690 17.791012
71.695 18.677076
71.700 19.106703
71.705 19.481304
71.710 19.636549
71.715 20.113283
71.720 20.2616
71.725 19.724913
71.730 19.264547
71.735 19.227875
71.740 18.403458
71.745 17.506775
71.750 17.353449
71.755 17.544811
71.760 17.829914
71.765 17.700283
71.770 17.97131
71.775 18.193054
71.780 17.746828
71.785 16.944262
71.790 16.21426
71.795 16.438551
71.800 16.246956
71.805 15.945451
71.810 16.224533
71.815 16.278278
71.820 16.576946
71.825 16.685732
71.830 16.777529
71.835 16.44714
71.840 16.805393
71.845 17.074293
71.850 17.351904
71.855 17.505787
71.860 17.486269
71.865 17.536249
71.870 17.777431
71.875 18.276411
71.880 18.245174
71.885 17.841097
71.890 18.175726
71.895 18.671671
71.900 18.404402
71.905 18.284214
71.910 18.573931
71.915 19.049021
71.920 19.311411
71.925 18.927713
71.930 18.577297
71.935 18.576511
71.940 18.252058
71.945 17.47809
71.950 17.627455
71.955 17.691452
71.960 17.469748
71.965 17.243086
71.970 16.968805
71.975 16.751072
71.980 16.639149
71.985 16.351744
71.990 16.647951
71.995 16.805637
72.000 16.844004
72.005 17.396458
72.010 17.311222
72.015 16.866198
72.020 17.442177
72.025 17.427773
72.030 17.865267
72.035 17.744848
72.040 17.627043
72.045 17.891991
72.050 18.272648
72.055 17.408319
72.060 17.236643
72.065 17.04323
72.070 17.32551
72.075 17.254225
72.080 16.992214
72.085 16.608175
72.090 16.719398
72.095 16.825857
72.100 17.014502
72.105 17.442913
72.110 17.846106
72.115 18.258867
72.120 18.429079
72.125 18.628874
72.130 18.544876
72.135 18.539072
72.140 18.05295
72.145 17.716099
72.150 17.277508
72.155 16.748732
72.160 16.746363
72.165 16.686495
72.170 16.484148
72.175 16.153576
72.180 15.859734
72.185 15.952284
72.190 16.123032
72.195 15.857911
72.200 15.679287
72.205 15.817461
72.210 16.219151
72.215 16.428604
72.220 16.980347
72.225 18.003798
72.230 18.571924
72.235 18.616789
72.240 17.939293
72.245 17.941813
72.250 17.964024
72.255 16.982857
72.260 15.910216
72.265 15.541677
72.270 15.683867
72.275 15.938708
72.280 15.390676
72.285 15.243117
72.290 15.724049
72.295 15.930329
72.300 16.419237
72.305 17.05076
72.310 17.616392
72.315 18.013025
72.320 18.503166
72.325 18.309803
72.330 18.026108
72.335 18.154577
72.340 17.784498
72.345 17.50762
72.350 17.593313
72.355 18.125109
72.360 18.298252
72.365 18.448437
72.370 17.948191
72.375 17.591419
72.380 17.963108
72.385 17.744831
72.390 17.178202
72.395 17.371893
72.400 17.535971
72.405 17.744024
72.410 17.214556
72.415 16.824175
72.420 16.630568
72.425 16.58441
72.430 16.1642
72.435 16.228231
72.440 16.619293
72.445 17.424952
72.450 18.334515
72.455 18.336687
72.460 18.306217
72.465 18.089607
72.470 17.801506
72.475 17.695803
72.480 17.456005
72.485 16.403753
72.490 16.53096
72.495 16.505381
72.500 16.903345
72.505 16.538857
72.510 16.084166
72.515 16.044706
72.520 16.421827
72.525 17.244495
72.530 17.680403
72.535 17.697443
72.540 18.334435
72.545 18.274961
72.550 18.336843
72.555 18.271183
72.560 17.533186
72.565 16.846296
72.570 16.406631
72.575 15.786681
72.580 15.736524
72.585 15.870811
72.590 15.939613
72.595 16.078573
72.600 16.539846
72.605 16.969862
72.610 17.429039
72.615 17.52907
72.620 17.436773
72.625 17.332935
72.630 16.679712
72.635 16.553192
72.640 16.182911
72.645 16.238522
72.650 16.060341
72.655 15.125073
72.660 15.064912
72.665 15.425294
72.670 15.058654
72.675 14.696032
72.680 14.631744
72.685 14.598763
72.690 15.468885
72.695 15.51951
72.700 15.431182
72.705 15.42599
72.710 15.477555
72.715 15.456166
72.720 15.346376
72.725 15.655162
72.730 15.82404
72.735 16.418299
72.740 16.234894
72.745 16.08083
72.750 15.970407
72.755 15.773326
72.760 15.618067
72.765 15.531802
72.770 15.264655
72.775 15.518969
72.780 15.453688
72.785 15.688841
72.790 15.709883
72.795 15.868402
72.800 16.03326
72.805 16.600279
72.810 17.242634
72.815 17.334826
72.820 17.494207
72.825 17.278164
72.830 16.592949
72.835 16.294588
72.840 16.184145
72.845 16.079836
72.850 16.12793
72.855 16.1451
72.860 16.045279
72.865 16.239056
72.870 16.270157
72.875 15.926723
72.880 15.496974
72.885 15.141829
72.890 14.871427
72.895 14.844906
72.900 14.345388
72.905 14.602098
72.910 14.680823
72.915 15.391856
72.920 15.662776
72.925 16.237068
72.930 16.563715
72.935 16.379576
72.940 16.647411
72.945 17.16696
72.950 17.096292
72.955 17.29019
72.960 17.076305
72.965 17.004696
72.970 17.786179
72.975 17.417183
72.980 17.494131
72.985 17.198812
72.990 17.509048
72.995 17.369608
73.000 17.398745
