!@!!GADDS PLOTSO FILE: Chi integration type
!@!!Title/SampleName: map-10a
!@!!Comment: ?
!@!!User: Bruker Instrument Administrator
!@!!Site: University of Illinois Chicago
!@!!Frame: map-10a_01_000.gfrm
!@!!Wavelengths    1.54184   1.54056   1.54439
!@!!Frame angles: 2Theta: 63.000 Omega: 50.000 Phi: 0.000 Chi: 90.000
!@!!Integration range: 2Theta: 53.000 to 73.000  Gamma: -105.000 to -75.000
!@!!Integration method: bin normalized
!@!N
!@!SS
!@!M
!@!L 0.0 0.0 0.0 0.0
!@!XDegrees
!@!YCounts
53.000 8.061219
53.005 7.758488
53.010 7.383236
53.015 7.022683
53.020 6.876132
53.025 7.203546
53.030 7.311218
53.035 7.259875
53.040 7.604153
53.045 8.222306
53.050 8.754904
53.055 8.874238
53.060 8.650768
53.065 8.592075
53.070 8.867913
53.075 8.706367
53.080 8.70277
53.085 8.261498
53.090 8.364574
53.095 8.540777
53.100 9.113166
53.105 9.053428
53.110 9.361129
53.115 9.079871
53.120 8.710114
53.125 8.480804
53.130 7.975244
53.135 7.529805
53.140 7.274736
53.145 6.924224
53.150 7.253129
53.155 7.302269
53.160 7.610981
53.165 8.049684
53.170 8.128722
53.175 8.227117
53.180 8.212609
53.185 8.493176
53.190 8.8578
53.195 8.777102
53.200 8.731454
53.205 8.742523
53.210 8.926556
53.215 8.800752
53.220 8.063927
53.225 8.217765
53.230 8.453623
53.235 8.344563
53.240 8.338367
53.245 8.454337
53.250 8.701695
53.255 8.898211
53.260 8.791549
53.265 8.681048
53.270 8.608517
53.275 8.0474
53.280 7.770975
53.285 7.719241
53.290 7.980849
53.295 7.574325
53.300 7.688409
53.305 8.132645
53.310 8.435126
53.315 8.272368
53.320 8.613062
53.325 8.709485
53.330 8.680874
53.335 8.740799
53.340 8.410513
53.345 8.282724
53.350 8.487703
53.355 8.372081
53.360 8.445659
53.365 8.337509
53.370 8.25147
53.375 8.785972
53.380 8.780421
53.385 8.5201
53.390 8.740502
53.395 8.991873
53.400 9.071006
53.405 9.312138
53.410 9.578885
53.415 9.78723
53.420 9.730964
53.425 9.392517
53.430 9.302829
53.435 9.564795
53.440 9.267423
53.445 9.198302
53.450 9.391433
53.455 9.514086
53.460 9.202104
53.465 8.87536
53.470 8.2894
53.475 7.834426
53.480 7.701729
53.485 7.405659
53.490 7.481219
53.495 7.989639
53.500 7.966007
53.505 8.136197
53.510 8.535939
53.515 8.530813
53.520 8.829741
53.525 8.634147
53.530 8.661436
53.535 9.002398
53.540 9.125252
53.545 9.125008
53.550 9.206978
53.555 9.053289
53.560 9.358972
53.565 9.340555
53.570 9.315327
53.575 9.420164
53.580 9.735909
53.585 10.015112
53.590 9.722775
53.595 9.45383
53.600 9.497536
53.605 9.521008
53.610 9.570334
53.615 9.250847
53.620 9.094856
53.625 9.215264
53.630 9.540247
53.635 9.711411
53.640 9.420635
53.645 9.206248
53.650 9.644829
53.655 9.834107
53.660 9.772078
53.665 9.465197
53.670 9.480591
53.675 9.730331
53.680 9.885227
53.685 10.173512
53.690 10.406529
53.695 10.102578
53.700 9.978006
53.705 9.847127
53.710 9.985071
53.715 9.268506
53.720 8.611257
53.725 8.806976
53.730 9.53778
53.735 10.058415
53.740 10.202201
53.745 10.160996
53.750 10.860315
53.755 11.247149
53.760 10.977262
53.765 10.559252
53.770 10.297088
53.775 10.349901
53.780 10.39334
53.785 9.831481
53.790 9.904092
53.795 10.099712
53.800 10.235817
53.805 9.856303
53.810 9.772216
53.815 9.950223
53.820 9.638786
53.825 9.377835
53.830 8.965947
53.835 8.872239
53.840 8.786029
53.845 8.917591
53.850 8.761573
53.855 9.067616
53.860 9.190462
53.865 8.986677
53.870 8.777636
53.875 8.49646
53.880 8.654232
53.885 9.029873
53.890 9.127557
53.895 9.180355
53.900 9.221319
53.905 9.878165
53.910 10.174873
53.915 9.943816
53.920 9.810636
53.925 10.161499
53.930 10.402451
53.935 10.327038
53.940 10.018262
53.945 9.779612
53.950 10.160769
53.955 10.164085
53.960 9.717552
53.965 9.976802
53.970 9.998437
53.975 10.308389
53.980 10.2896
53.985 9.62359
53.990 9.534546
53.995 9.594682
54.000 9.333697
54.005 9.248628
54.010 8.97584
54.015 9.257142
54.020 9.721063
54.025 9.599745
54.030 9.735116
54.035 10.465066
54.040 10.354222
54.045 10.700712
54.050 10.096498
54.055 9.677199
54.060 9.717003
54.065 9.472768
54.070 9.392672
54.075 9.468258
54.080 9.363057
54.085 9.988582
54.090 10.267771
54.095 10.346171
54.100 9.654676
54.105 9.648636
54.110 9.729545
54.115 9.891014
54.120 9.662579
54.125 9.410764
54.130 9.714869
54.135 10.067513
54.140 10.02811
54.145 9.989186
54.150 9.673285
54.155 9.4427
54.160 9.216096
54.165 8.944687
54.170 8.912754
54.175 9.104839
54.180 9.308767
54.185 9.292343
54.190 9.47996
54.195 9.592525
54.200 9.558632
54.205 9.88678
54.210 9.525187
54.215 9.3083
54.220 9.465389
54.225 9.548892
54.230 10.04507
54.235 10.243255
54.240 10.067595
54.245 9.955743
54.250 9.591395
54.255 9.573531
54.260 9.601938
54.265 9.701664
54.270 10.203282
54.275 10.121151
54.280 10.435707
54.285 10.528937
54.290 11.046439
54.295 11.005741
54.300 10.655696
54.305 10.37286
54.310 10.585123
54.315 10.638768
54.320 10.472311
54.325 9.928444
54.330 9.676089
54.335 9.938998
54.340 9.616926
54.345 9.462735
54.350 9.518098
54.355 10.033146
54.360 10.52794
54.365 10.849921
54.370 10.408307
54.375 10.444051
54.380 10.529177
54.385 10.85269
54.390 10.639339
54.395 10.497441
54.400 9.974089
54.405 10.100087
54.410 10.227831
54.415 10.286264
54.420 9.620467
54.425 9.288989
54.430 9.17342
54.435 9.549229
54.440 9.485559
54.445 9.267037
54.450 9.66025
54.455 10.197484
54.460 10.385844
54.465 10.777007
54.470 10.996996
54.475 11.088688
54.480 11.188068
54.485 10.63533
54.490 10.608008
54.495 10.494693
54.500 10.17845
54.505 9.896773
54.510 9.988181
54.515 10.089377
54.520 10.343925
54.525 10.376716
54.530 10.115262
54.535 9.819632
54.540 9.81901
54.545 9.633141
54.550 9.317726
54.555 9.17824
54.560 9.301667
54.565 9.855655
54.570 10.165673
54.575 10.257481
54.580 10.485635
54.585 10.266671
54.590 10.416957
54.595 10.673522
54.600 10.957128
54.605 10.748062
54.610 10.958486
54.615 10.927373
54.620 11.360042
54.625 10.73946
54.630 10.105495
54.635 9.633209
54.640 9.655181
54.645 9.585631
54.650 9.405875
54.655 9.160415
54.660 9.417059
54.665 10.073241
54.670 10.310713
54.675 9.978534
54.680 10.32362
54.685 10.770666
54.690 11.218041
54.695 11.262475
54.700 10.853735
54.705 11.147135
54.710 11.497529
54.715 11.337417
54.720 11.187104
54.725 10.745813
54.730 10.849177
54.735 10.981673
54.740 10.89415
54.745 10.641886
54.750 10.928738
54.755 10.955914
54.760 11.008995
54.765 10.744095
54.770 10.268064
54.775 10.515984
54.780 10.490037
54.785 10.187985
54.790 9.961322
54.795 10.119678
54.800 10.561139
54.805 10.664762
54.810 10.880826
54.815 11.298935
54.820 11.273263
54.825 11.479008
54.830 11.135896
54.835 11.54187
54.840 11.485165
54.845 11.031426
54.850 10.853052
54.855 10.977083
54.860 10.976179
54.865 10.816354
54.870 10.167925
54.875 10.020141
54.880 10.171327
54.885 10.331006
54.890 10.441749
54.895 10.652764
54.900 10.579071
54.905 11.119271
54.910 11.377393
54.915 11.561801
54.920 10.981354
54.925 10.533715
54.930 10.575834
54.935 10.841418
54.940 10.154298
54.945 9.78028
54.950 9.891372
54.955 10.121847
54.960 10.276379
54.965 10.219537
54.970 9.982353
54.975 10.638762
54.980 10.751584
54.985 10.670546
54.990 10.907135
54.995 10.929424
55.000 11.13702
55.005 11.291649
55.010 11.10451
55.015 11.179534
55.020 10.891707
55.025 10.939095
55.030 11.186394
55.035 11.142427
55.040 11.166908
55.045 10.871084
55.050 11.713351
55.055 12.583533
55.060 12.400051
55.065 12.323935
55.070 12.267367
55.075 12.585046
55.080 12.771807
55.085 11.738791
55.090 11.11187
55.095 11.21685
55.100 10.985048
55.105 11.054596
55.110 10.991565
55.115 10.731288
55.120 10.556961
55.125 10.390796
55.130 10.24203
55.135 10.15232
55.140 9.805679
55.145 9.37615
55.150 9.786824
55.155 10.270423
55.160 10.729988
55.165 11.125243
55.170 10.969977
55.175 10.986034
55.180 11.400251
55.185 11.402267
55.190 11.358013
55.195 11.305838
55.200 11.312467
55.205 11.772963
55.210 12.135494
55.215 11.95091
55.220 11.735783
55.225 11.655356
55.230 11.213802
55.235 10.973645
55.240 10.890258
55.245 10.857528
55.250 10.643366
55.255 10.615563
55.260 11.218281
55.265 12.042272
55.270 12.165498
55.275 11.93478
55.280 11.943838
55.285 12.088892
55.290 11.699527
55.295 11.528008
55.300 11.040729
55.305 10.992431
55.310 10.950767
55.315 10.95482
55.320 11.380759
55.325 11.462193
55.330 11.139925
55.335 11.682259
55.340 11.996327
55.345 12.42702
55.350 12.247532
55.355 11.958793
55.360 12.222271
55.365 11.977201
55.370 11.563286
55.375 11.071121
55.380 11.111042
55.385 11.175174
55.390 10.691736
55.395 10.724789
55.400 10.42692
55.405 10.470628
55.410 10.994612
55.415 10.563516
55.420 10.557256
55.425 10.890927
55.430 10.949574
55.435 11.133955
55.440 11.24256
55.445 11.25344
55.450 11.645509
55.455 11.826263
55.460 11.685761
55.465 11.847246
55.470 12.052011
55.475 12.17829
55.480 12.157498
55.485 12.097832
55.490 12.32242
55.495 12.6043
55.500 12.608283
55.505 12.524124
55.510 12.455569
55.515 12.436577
55.520 12.443258
55.525 12.282806
55.530 12.26182
55.535 12.657696
55.540 12.702915
55.545 12.614312
55.550 12.452242
55.555 12.469705
55.560 12.656857
55.565 12.013981
55.570 11.32013
55.575 11.329648
55.580 11.108868
55.585 10.832494
55.590 10.536898
55.595 10.350611
55.600 10.495767
55.605 10.514036
55.610 10.284796
55.615 10.358783
55.620 10.226398
55.625 10.140158
55.630 9.958777
55.635 10.274783
55.640 10.389723
55.645 10.667869
55.650 10.649335
55.655 10.995535
55.660 11.055696
55.665 11.095896
55.670 10.644284
55.675 10.220902
55.680 9.881057
55.685 10.162463
55.690 10.139513
55.695 10.106158
55.700 10.494375
55.705 10.80834
55.710 10.882973
55.715 10.796885
55.720 11.10971
55.725 11.533772
55.730 12.078947
55.735 12.043816
55.740 12.096798
55.745 12.179747
55.750 12.284491
55.755 12.216443
55.760 11.962777
55.765 11.959309
55.770 11.465924
55.775 11.622822
55.780 11.752665
55.785 11.892516
55.790 11.797458
55.795 11.491747
55.800 11.370489
55.805 11.594574
55.810 11.709148
55.815 12.044078
55.820 12.127938
55.825 12.183709
55.830 12.497874
55.835 12.821144
55.840 13.097973
55.845 13.30903
55.850 13.299957
55.855 13.314735
55.860 13.24851
55.865 12.84956
55.870 12.501984
55.875 12.068601
55.880 11.568048
55.885 11.524036
55.890 11.165774
55.895 11.003037
55.900 11.026741
55.905 11.007761
55.910 11.538136
55.915 11.87682
55.920 11.611593
55.925 11.693254
55.930 11.419234
55.935 11.652307
55.940 11.925607
55.945 12.036505
55.950 11.814609
55.955 11.78361
55.960 12.182373
55.965 12.78744
55.970 12.783138
55.975 12.76827
55.980 13.027221
55.985 12.906577
55.990 13.229552
55.995 13.123291
56.000 12.883982
56.005 12.794131
56.010 12.386933
56.015 11.650237
56.020 11.394702
56.025 11.182477
56.030 11.14905
56.035 11.054773
56.040 11.094272
56.045 10.994308
56.050 11.408916
56.055 11.860078
56.060 12.007635
56.065 11.946059
56.070 11.77299
56.075 11.626869
56.080 11.467914
56.085 11.261716
56.090 11.485285
56.095 11.596666
56.100 11.760054
56.105 11.615211
56.110 11.834437
56.115 12.202394
56.120 12.253643
56.125 11.872507
56.130 11.745005
56.135 11.854989
56.140 12.075121
56.145 12.047477
56.150 11.814939
56.155 11.5008
56.160 11.403643
56.165 11.149857
56.170 11.228039
56.175 11.550255
56.180 11.298823
56.185 11.451214
56.190 11.68377
56.195 12.01433
56.200 12.352229
56.205 11.995894
56.210 11.582744
56.215 11.680148
56.220 12.051475
56.225 12.12924
56.230 12.016876
56.235 11.787278
56.240 12.398372
56.245 12.894212
56.250 12.762593
56.255 12.66758
56.260 12.332696
56.265 11.979163
56.270 11.798234
56.275 11.360701
56.280 11.373015
56.285 11.76831
56.290 11.475965
56.295 11.323623
56.300 11.606344
56.305 12.130052
56.310 12.591143
56.315 12.582088
56.320 12.039117
56.325 11.635231
56.330 11.995155
56.335 12.170138
56.340 11.81843
56.345 11.560347
56.350 11.520445
56.355 12.297441
56.360 12.688606
56.365 12.645511
56.370 12.54283
56.375 12.47613
56.380 12.83273
56.385 12.728509
56.390 12.626289
56.395 12.66471
56.400 12.37309
56.405 12.471647
56.410 12.381671
56.415 12.483122
56.420 12.309174
56.425 12.190138
56.430 12.120208
56.435 12.274686
56.440 12.421824
56.445 12.769723
56.450 12.732564
56.455 12.901192
56.460 13.122423
56.465 13.150133
56.470 12.989825
56.475 13.21756
56.480 12.667799
56.485 12.681256
56.490 12.594044
56.495 12.135272
56.500 12.310469
56.505 12.376008
56.510 12.07955
56.515 11.900701
56.520 12.157464
56.525 12.734256
56.530 12.671106
56.535 12.653164
56.540 12.768947
56.545 13.311728
56.550 13.80953
56.555 13.456898
56.560 13.550451
56.565 13.559821
56.570 13.716933
56.575 13.943775
56.580 13.426925
56.585 13.115491
56.590 12.756729
56.595 12.253401
56.600 11.948658
56.605 11.666579
56.610 11.693215
56.615 11.791537
56.620 11.675277
56.625 11.997361
56.630 12.856784
56.635 13.548478
56.640 13.697728
56.645 13.385839
56.650 13.111107
56.655 13.486094
56.660 13.417048
56.665 13.145539
56.670 12.856255
56.675 13.003873
56.680 13.22788
56.685 13.88046
56.690 13.888556
56.695 14.232544
56.700 14.200732
56.705 14.450949
56.710 14.420515
56.715 14.254883
56.720 13.757812
56.725 13.301951
56.730 13.326957
56.735 13.233535
56.740 13.060093
56.745 12.831334
56.750 13.263862
56.755 13.470891
56.760 13.839
56.765 13.6899
56.770 13.929525
56.775 14.065735
56.780 14.486887
56.785 14.161644
56.790 13.969308
56.795 14.188119
56.800 13.949247
56.805 14.215664
56.810 14.142481
56.815 13.701996
56.820 13.30552
56.825 13.400827
56.830 12.943846
56.835 12.97522
56.840 12.404544
56.845 11.996368
56.850 11.947793
56.855 12.273432
56.860 12.269046
56.865 12.64886
56.870 12.493771
56.875 12.441355
56.880 12.637365
56.885 12.275972
56.890 12.369375
56.895 12.268262
56.900 12.219229
56.905 12.255951
56.910 12.267011
56.915 12.588404
56.920 13.694474
56.925 13.86907
56.930 14.00691
56.935 13.984722
56.940 13.834524
56.945 14.192761
56.950 13.972709
56.955 13.431156
56.960 13.319688
56.965 13.271096
56.970 12.697914
56.975 12.761326
56.980 12.458434
56.985 12.523449
56.990 12.69357
56.995 12.656733
57.000 12.409406
57.005 13.612249
57.010 14.059205
57.015 14.116015
57.020 13.734746
57.025 13.572357
57.030 13.186278
57.035 12.936198
57.040 12.477823
57.045 12.091588
57.050 12.262777
57.055 13.192133
57.060 13.530286
57.065 14.094419
57.070 14.670867
57.075 14.542743
57.080 14.846576
57.085 14.780603
57.090 14.058639
57.095 13.913698
57.100 13.797322
57.105 13.547866
57.110 13.830898
57.115 13.996949
57.120 14.089337
57.125 14.072366
57.130 14.024837
57.135 14.236984
57.140 14.18587
57.145 13.849581
57.150 13.648012
57.155 13.700439
57.160 13.676479
57.165 14.233135
57.170 14.228276
57.175 14.282851
57.180 14.173103
57.185 14.135344
57.190 14.379155
57.195 14.467728
57.200 13.970232
57.205 13.688489
57.210 14.223266
57.215 14.898765
57.220 15.099062
57.225 15.450746
57.230 15.496924
57.235 15.732833
57.240 15.552093
57.245 15.009992
57.250 14.629388
57.255 14.189063
57.260 13.629187
57.265 13.596691
57.270 13.984303
57.275 13.824033
57.280 13.688463
57.285 13.418122
57.290 13.39499
57.295 13.489359
57.300 13.385353
57.305 13.123899
57.310 12.976033
57.315 12.482441
57.320 12.341218
57.325 12.960105
57.330 13.291134
57.335 13.305636
57.340 13.428013
57.345 13.922802
57.350 14.591478
57.355 14.414404
57.360 13.992765
57.365 13.562803
57.370 12.976316
57.375 12.721015
57.380 12.620616
57.385 12.430992
57.390 12.895883
57.395 13.240675
57.400 13.316388
57.405 13.438787
57.410 13.447265
57.415 13.62565
57.420 14.158049
57.425 13.913996
57.430 13.539288
57.435 13.699368
57.440 13.539783
57.445 13.687262
57.450 13.432439
57.455 13.085299
57.460 12.964053
57.465 12.988659
57.470 13.098481
57.475 13.343575
57.480 13.750488
57.485 13.672147
57.490 14.114477
57.495 14.432041
57.500 15.000799
57.505 15.238993
57.510 15.043143
57.515 14.611587
57.520 14.303635
57.525 13.505307
57.530 13.012291
57.535 12.591366
57.540 12.55871
57.545 13.036748
57.550 13.225155
57.555 13.583757
57.560 14.279816
57.565 13.960004
57.570 14.134542
57.575 13.807652
57.580 13.800579
57.585 13.910859
57.590 14.673873
57.595 14.917174
57.600 15.281741
57.605 14.596469
57.610 14.558849
57.615 14.207039
57.620 14.152284
57.625 13.710065
57.630 13.71889
57.635 14.250284
57.640 15.138542
57.645 15.17976
57.650 15.504254
57.655 15.376203
57.660 15.280643
57.665 14.95946
57.670 14.446835
57.675 14.002451
57.680 13.705596
57.685 13.513825
57.690 13.695323
57.695 13.858597
57.700 13.826262
57.705 14.081167
57.710 14.688074
57.715 14.976609
57.720 15.413583
57.725 15.201609
57.730 15.116818
57.735 14.740359
57.740 14.099743
57.745 13.45934
57.750 13.639949
57.755 13.044397
57.760 12.283849
57.765 11.690188
57.770 11.866364
57.775 12.090978
57.780 12.487997
57.785 12.318672
57.790 12.746899
57.795 13.490817
57.800 13.774286
57.805 14.623819
57.810 15.43148
57.815 15.517014
57.820 15.67759
57.825 16.059267
57.830 16.17098
57.835 16.44878
57.840 15.669027
57.845 15.08489
57.850 15.241885
57.855 15.303112
57.860 14.84091
57.865 14.557546
57.870 14.595585
57.875 14.664439
57.880 14.610538
57.885 14.417654
57.890 14.523942
57.895 14.410652
57.900 14.401075
57.905 14.462868
57.910 14.268539
57.915 14.042522
57.920 13.620944
57.925 13.378816
57.930 14.034873
57.935 14.014293
57.940 13.681044
57.945 13.609572
57.950 13.792279
57.955 14.011401
57.960 13.817778
57.965 13.877444
57.970 13.754
57.975 13.682078
57.980 14.573737
57.985 15.173874
57.990 15.681551
57.995 15.415025
58.000 15.059504
58.005 15.534756
58.010 15.864939
58.015 15.296441
58.020 14.550992
58.025 14.266504
58.030 14.400176
58.035 14.219406
58.040 14.070518
58.045 14.077781
58.050 14.138434
58.055 14.000139
58.060 14.025456
58.065 14.305476
58.070 13.9625
58.075 13.786104
58.080 13.688751
58.085 13.110389
58.090 12.605016
58.095 12.440006
58.100 12.329935
58.105 12.708107
58.110 12.306226
58.115 12.518231
58.120 13.086108
58.125 13.488391
58.130 14.045695
58.135 14.337439
58.140 14.218995
58.145 14.376206
58.150 13.914603
58.155 13.932445
58.160 14.041731
58.165 14.159504
58.170 14.493773
58.175 14.939229
58.180 14.549031
58.185 15.157737
58.190 15.010619
58.195 15.064711
58.200 14.621147
58.205 14.270812
58.210 14.112325
58.215 14.624328
58.220 14.809129
58.225 14.815542
58.230 14.693563
58.235 14.698271
58.240 14.559649
58.245 14.718224
58.250 14.478782
58.255 14.1169
58.260 14.670421
58.265 14.949656
58.270 15.093338
58.275 15.126599
58.280 15.396372
58.285 15.552943
58.290 15.750563
58.295 15.319928
58.300 15.18412
58.305 15.282883
58.310 15.633767
58.315 15.238555
58.320 14.749601
58.325 14.439034
58.330 14.417974
58.335 14.855684
58.340 14.458903
58.345 13.777255
58.350 13.909862
58.355 14.923409
58.360 15.497276
58.365 15.622943
58.370 15.307488
58.375 16.055002
58.380 16.530264
58.385 16.833748
58.390 16.856821
58.395 16.42205
58.400 16.426113
58.405 16.098146
58.410 15.722379
58.415 15.449266
58.420 15.527961
58.425 15.154235
58.430 14.950739
58.435 14.530027
58.440 14.526228
58.445 14.408793
58.450 14.722153
58.455 14.783217
58.460 14.635853
58.465 14.646446
58.470 14.852297
58.475 14.934883
58.480 14.81285
58.485 14.444659
58.490 14.473292
58.495 14.791373
58.500 14.676215
58.505 14.795512
58.510 14.917949
58.515 14.905232
58.520 14.887961
58.525 14.683741
58.530 15.104908
58.535 15.206353
58.540 15.337354
58.545 15.713224
58.550 15.851346
58.555 15.977298
58.560 16.185013
58.565 16.122314
58.570 16.415964
58.575 16.545214
58.580 15.957021
58.585 15.612473
58.590 15.506155
58.595 15.468812
58.600 14.9539
58.605 15.078799
58.610 14.37148
58.615 14.604115
58.620 15.012571
58.625 14.854857
58.630 14.558125
58.635 14.414228
58.640 14.570298
58.645 14.801997
58.650 14.812835
58.655 15.250756
58.660 15.182354
58.665 15.358917
58.670 15.545773
58.675 15.419068
58.680 15.328362
58.685 15.126395
58.690 14.843239
58.695 14.784786
58.700 14.65878
58.705 14.560288
58.710 14.401452
58.715 14.297399
58.720 14.126113
58.725 14.132018
58.730 14.390956
58.735 14.276975
58.740 14.453713
58.745 14.646435
58.750 14.986937
58.755 14.69156
58.760 14.839387
58.765 14.762494
58.770 14.860929
58.775 14.650601
58.780 14.471143
58.785 14.894114
58.790 15.899344
58.795 15.845541
58.800 16.006823
58.805 16.277002
58.810 16.671175
58.815 16.840235
58.820 16.383623
58.825 15.926341
58.830 16.331528
58.835 16.768244
58.840 17.078436
58.845 16.565306
58.850 16.078241
58.855 16.295534
58.860 16.127474
58.865 15.539928
58.870 15.124714
58.875 14.753931
58.880 14.944254
58.885 15.505401
58.890 15.221395
58.895 14.924877
58.900 14.713281
58.905 14.042181
58.910 13.78391
58.915 13.949924
58.920 13.256343
58.925 13.234688
58.930 13.187024
58.935 13.155991
58.940 13.734694
58.945 13.902946
58.950 13.710564
58.955 13.97613
58.960 14.19242
58.965 14.952926
58.970 15.029092
58.975 15.259148
58.980 15.715464
58.985 15.892666
58.990 15.950633
58.995 15.794519
59.000 15.179182
59.005 15.325423
59.010 15.510666
59.015 15.454594
59.020 15.644359
59.025 15.732589
59.030 15.629798
59.035 16.389494
59.040 16.445078
59.045 16.337664
59.050 16.193096
59.055 16.044889
59.060 16.57394
59.065 16.938747
59.070 16.614958
59.075 16.859602
59.080 16.936558
59.085 16.683823
59.090 16.541348
59.095 15.79967
59.100 15.622275
59.105 15.825605
59.110 15.62612
59.115 15.451808
59.120 15.272399
59.125 15.347718
59.130 15.822277
59.135 15.592542
59.140 15.259932
59.145 15.29923
59.150 15.100643
59.155 15.257422
59.160 16.044777
59.165 16.060575
59.170 15.822361
59.175 15.654774
59.180 15.322371
59.185 15.645239
59.190 15.584192
59.195 15.002527
59.200 15.399178
59.205 15.899177
59.210 16.115868
59.215 16.364557
59.220 15.749866
59.225 16.065947
59.230 16.15461
59.235 15.305597
59.240 14.873567
59.245 15.092627
59.250 15.11315
59.255 15.457519
59.260 15.30372
59.265 15.47648
59.270 15.826537
59.275 16.116613
59.280 15.887554
59.285 16.003197
59.290 16.047926
59.295 16.08946
59.300 16.031788
59.305 16.175823
59.310 16.922794
59.315 17.041153
59.320 16.842632
59.325 16.795771
59.330 16.342747
59.335 15.929546
59.340 15.475699
59.345 14.96767
59.350 14.949447
59.355 14.859696
59.360 14.870711
59.365 15.144921
59.370 15.576361
59.375 15.679924
59.380 15.499664
59.385 15.676159
59.390 16.505724
59.395 16.817877
59.400 17.159168
59.405 16.920504
59.410 16.910803
59.415 16.839878
59.420 16.217463
59.425 15.284996
59.430 14.404443
59.435 14.503902
59.440 15.210189
59.445 15.014244
59.450 15.467656
59.455 16.092068
59.460 16.533434
59.465 16.7885
59.470 16.547102
59.475 16.581976
59.480 16.818909
59.485 16.043413
59.490 15.765365
59.495 16.427427
59.500 17.219837
59.505 17.047062
59.510 16.999147
59.515 16.93063
59.520 17.798508
59.525 17.558273
59.530 16.972027
59.535 16.931698
59.540 17.238386
59.545 16.776802
59.550 17.03351
59.555 16.591228
59.560 17.028715
59.565 16.95199
59.570 16.367311
59.575 16.209513
59.580 16.672144
59.585 16.719097
59.590 17.528885
59.595 18.15601
59.600 18.264429
59.605 18.261566
59.610 18.210291
59.615 18.12311
59.620 17.812305
59.625 17.216969
59.630 16.797138
59.635 16.865578
59.640 17.255405
59.645 17.645485
59.650 17.761248
59.655 17.858749
59.660 17.976677
59.665 18.495287
59.670 18.749163
59.675 18.680698
59.680 18.574793
59.685 18.41268
59.690 18.389889
59.695 18.85841
59.700 19.695528
59.705 20.123404
59.710 19.906109
59.715 19.190296
59.720 19.163601
59.725 19.825933
59.730 19.960379
59.735 19.086618
59.740 18.756018
59.745 19.205467
59.750 19.907927
59.755 20.315838
59.760 19.723295
59.765 18.745626
59.770 18.093683
59.775 17.812765
59.780 17.57099
59.785 18.241905
59.790 17.710159
59.795 17.586323
59.800 17.968456
59.805 17.606291
59.810 17.544252
59.815 17.254866
59.820 16.524734
59.825 17.08198
59.830 17.477308
59.835 17.539789
59.840 17.939096
59.845 17.923145
59.850 18.539948
59.855 18.920811
59.860 18.639336
59.865 18.271832
59.870 18.181772
59.875 18.830225
59.880 18.886086
59.885 18.17539
59.890 18.134611
59.895 18.261198
59.900 18.379126
59.905 18.285975
59.910 18.398664
59.915 18.250965
59.920 18.110029
59.925 17.834408
59.930 17.952745
59.935 17.991287
59.940 18.517448
59.945 18.40234
59.950 18.955086
59.955 19.408922
59.960 19.427231
59.965 19.615358
59.970 19.671301
59.975 19.379278
59.980 19.841854
59.985 19.865681
59.990 20.337055
59.995 20.600376
60.000 20.718775
60.005 20.452599
60.010 20.592859
60.015 20.394735
60.020 20.242691
60.025 19.88312
60.030 19.247473
60.035 19.064812
60.040 19.469425
60.045 19.47513
60.050 19.608841
60.055 19.866707
60.060 20.151661
60.065 21.211134
60.070 21.406139
60.075 21.579338
60.080 21.750097
60.085 21.986166
60.090 22.014263
60.095 21.829197
60.100 21.449549
60.105 21.169937
60.110 20.813658
60.115 21.098278
60.120 21.485065
60.125 21.390625
60.130 21.66852
60.135 21.929487
60.140 22.246059
60.145 22.055357
60.150 21.383713
60.155 20.923212
60.160 21.031355
60.165 20.553616
60.170 20.172106
60.175 20.236982
60.180 19.922106
60.185 20.142853
60.190 20.461136
60.195 20.406584
60.200 20.963829
60.205 21.121452
60.210 21.301859
60.215 21.728119
60.220 21.212145
60.225 21.21312
60.230 21.369961
60.235 21.333979
60.240 21.148209
60.245 21.117758
60.250 21.154327
60.255 21.636679
60.260 21.605867
60.265 21.557148
60.270 21.584833
60.275 21.98905
60.280 22.062021
60.285 21.793636
60.290 21.810371
60.295 21.499344
60.300 20.726734
60.305 20.587021
60.310 20.122889
60.315 20.630909
60.320 20.825415
60.325 20.119402
60.330 20.410017
60.335 20.878054
60.340 20.993502
60.345 20.909784
60.350 20.300867
60.355 20.281742
60.360 20.46291
60.365 19.919821
60.370 20.170168
60.375 20.004829
60.380 20.32136
60.385 20.910696
60.390 20.65542
60.395 21.256863
60.400 21.774076
60.405 20.992502
60.410 21.696537
60.415 21.371016
60.420 21.135445
60.425 22.301882
60.430 22.054237
60.435 21.630909
60.440 22.058466
60.445 21.34536
60.450 21.332888
60.455 21.278233
60.460 20.678207
60.465 20.411997
60.470 20.765976
60.475 20.782032
60.480 20.699795
60.485 20.983482
60.490 20.92325
60.495 21.129786
60.500 21.213428
60.505 21.095776
60.510 21.298296
60.515 21.437115
60.520 21.019659
60.525 21.244104
60.530 20.981575
60.535 20.723717
60.540 20.618227
60.545 20.690178
60.550 20.624393
60.555 20.947273
60.560 20.421257
60.565 20.439648
60.570 21.082056
60.575 21.18541
60.580 20.80225
60.585 20.856243
60.590 20.829897
60.595 20.899632
60.600 21.003609
60.605 20.310162
60.610 20.136557
60.615 20.302862
60.620 19.604765
60.625 18.968248
60.630 18.668932
60.635 17.821896
60.640 17.807194
60.645 17.967548
60.650 17.85037
60.655 18.071861
60.660 18.460396
60.665 18.51988
60.670 19.309586
60.675 19.604805
60.680 19.439627
60.685 19.01832
60.690 19.103775
60.695 18.990606
60.700 19.42433
60.705 19.336847
60.710 19.04055
60.715 18.99634
60.720 19.008993
60.725 18.816561
60.730 19.08157
60.735 18.533541
60.740 18.661278
60.745 18.833254
60.750 19.068506
60.755 19.217495
60.760 19.161989
60.765 18.98778
60.770 19.071163
60.775 19.197882
60.780 19.470951
60.785 19.686697
60.790 19.539042
60.795 19.776518
60.800 19.829178
60.805 19.751011
60.810 19.047213
60.815 18.505495
60.820 18.614717
60.825 19.463657
60.830 19.519058
60.835 19.280924
60.840 18.88735
60.845 18.926949
60.850 19.402355
60.855 19.069307
60.860 18.369719
60.865 18.632858
60.870 18.926441
60.875 19.093546
60.880 19.206295
60.885 18.442205
60.890 18.148731
60.895 17.900496
60.900 17.16654
60.905 17.019644
60.910 16.797663
60.915 16.249523
60.920 16.68836
60.925 16.593941
60.930 17.160076
60.935 17.98835
60.940 18.085001
60.945 18.363405
60.950 18.530741
60.955 18.441164
60.960 18.581753
60.965 18.068243
60.970 17.482019
60.975 17.243393
60.980 17.429611
60.985 17.398432
60.990 17.008608
60.995 16.915325
61.000 16.751656
61.005 16.904367
61.010 16.783018
61.015 16.772537
61.020 16.460884
61.025 16.491182
61.030 16.761419
61.035 16.696318
61.040 16.775557
61.045 16.888226
61.050 16.343687
61.055 16.070326
61.060 15.829547
61.065 15.531673
61.070 16.088783
61.075 16.224119
61.080 16.685604
61.085 17.389444
61.090 17.961092
61.095 18.017124
61.100 17.823378
61.105 17.983547
61.110 18.055681
61.115 17.489895
61.120 17.202946
61.125 17.610134
61.130 17.45274
61.135 17.785967
61.140 17.119465
61.145 16.680519
61.150 16.523327
61.155 16.331425
61.160 16.051865
61.165 15.923344
61.170 15.851507
61.175 15.902052
61.180 15.803592
61.185 15.893067
61.190 16.077337
61.195 16.252012
61.200 17.353029
61.205 18.211617
61.210 18.581751
61.215 18.693512
61.220 18.704411
61.225 18.418825
61.230 18.616703
61.235 18.100485
61.240 17.285463
61.245 17.073927
61.250 17.016363
61.255 16.878569
61.260 16.984327
61.265 16.292316
61.270 16.308908
61.275 16.269112
61.280 16.361328
61.285 16.636101
61.290 16.546381
61.295 16.015512
61.300 16.002161
61.305 15.439363
61.310 15.514618
61.315 15.477111
61.320 15.10963
61.325 15.25096
61.330 15.82603
61.335 15.666398
61.340 15.858141
61.345 16.088911
61.350 16.448776
61.355 16.707922
61.360 17.213789
61.365 17.310274
61.370 17.445534
61.375 17.455452
61.380 17.410486
61.385 17.572176
61.390 17.334547
61.395 16.705553
61.400 16.574331
61.405 16.680313
61.410 16.837702
61.415 16.565655
61.420 16.089787
61.425 16.278753
61.430 16.448151
61.435 16.498894
61.440 16.810591
61.445 16.908752
61.450 16.528858
61.455 17.114424
61.460 17.019234
61.465 17.137136
61.470 17.265915
61.475 16.557144
61.480 16.412991
61.485 16.626543
61.490 16.242105
61.495 16.106936
61.500 16.335918
61.505 16.7467
61.510 17.310043
61.515 17.452736
61.520 17.424128
61.525 17.475262
61.530 17.718956
61.535 17.05839
61.540 16.467508
61.545 16.461679
61.550 16.832325
61.555 17.52763
61.560 18.119911
61.565 18.295477
61.570 18.730967
61.575 19.191372
61.580 19.279531
61.585 19.105364
61.590 18.619522
61.595 18.226578
61.600 18.400797
61.605 17.921618
61.610 18.253172
61.615 17.424019
61.620 16.85293
61.625 16.926249
61.630 16.895735
61.635 16.491081
61.640 16.21781
61.645 15.276926
61.650 15.805629
61.655 16.119669
61.660 15.998331
61.665 16.133919
61.670 16.687965
61.675 17.074358
61.680 17.111109
61.685 17.306894
61.690 16.908875
61.695 16.75034
61.700 16.696081
61.705 16.593855
61.710 17.114996
61.715 17.224586
61.720 16.500013
61.725 16.828657
61.730 16.450691
61.735 15.727601
61.740 15.183199
61.745 14.994976
61.750 15.165275
61.755 15.489629
61.760 15.014925
61.765 15.509355
61.770 16.193581
61.775 16.821579
61.780 16.864046
61.785 16.911209
61.790 17.305616
61.795 17.292257
61.800 17.843201
61.805 18.179939
61.810 18.047615
61.815 18.354128
61.820 18.220432
61.825 18.046791
61.830 18.41243
61.835 18.00078
61.840 17.661125
61.845 17.260111
61.850 16.81135
61.855 17.611696
61.860 18.018366
61.865 18.239096
61.870 18.22299
61.875 18.694551
61.880 19.065727
61.885 19.274347
61.890 18.789093
61.895 18.83658
61.900 18.534817
61.905 18.343935
61.910 18.284138
61.915 18.347008
61.920 18.311865
61.925 18.024256
61.930 17.306858
61.935 16.882559
61.940 16.333315
61.945 15.78353
61.950 15.339443
61.955 15.12997
61.960 15.356036
61.965 15.758083
61.970 16.345783
61.975 16.892933
61.980 16.920637
61.985 17.138922
61.990 16.941463
61.995 16.20521
62.000 16.735203
62.005 17.020216
62.010 16.850456
62.015 16.794437
62.020 16.837555
62.025 17.225004
62.030 17.741253
62.035 17.04529
62.040 16.309528
62.045 16.299465
62.050 16.756445
62.055 16.85026
62.060 16.531172
62.065 16.288563
62.070 16.438299
62.075 16.726612
62.080 16.077053
62.085 15.612043
62.090 15.94002
62.095 16.176559
62.100 16.215258
62.105 15.798256
62.110 16.31538
62.115 17.269138
62.120 17.505884
62.125 17.096514
62.130 16.862902
62.135 16.94091
62.140 16.704767
62.145 16.456247
62.150 16.477184
62.155 16.393585
62.160 16.925301
62.165 18.310648
62.170 18.67296
62.175 19.361786
62.180 19.838772
62.185 19.928383
62.190 19.456156
62.195 18.705835
62.200 17.61561
62.205 16.912767
62.210 17.31241
62.215 16.473948
62.220 16.211081
62.225 16.743887
62.230 17.301451
62.235 17.691374
62.240 17.906645
62.245 17.263319
62.250 17.109468
62.255 17.052944
62.260 17.160015
62.265 17.133711
62.270 16.774496
62.275 16.532431
62.280 16.381273
62.285 17.011372
62.290 16.718674
62.295 16.135628
62.300 15.902251
62.305 16.062593
62.310 17.108517
62.315 16.849689
62.320 16.566635
62.325 16.466536
62.330 16.615866
62.335 16.557161
62.340 16.530743
62.345 15.883483
62.350 16.166494
62.355 15.880227
62.360 16.100185
62.365 16.11083
62.370 16.764969
62.375 16.517605
62.380 16.597733
62.385 16.504417
62.390 16.841022
62.395 17.396103
62.400 18.347057
62.405 17.925615
62.410 18.253414
62.415 18.185173
62.420 18.055515
62.425 18.378874
62.430 18.033325
62.435 17.390564
62.440 17.211945
62.445 17.258099
62.450 17.595177
62.455 18.114992
62.460 18.297693
62.465 18.418737
62.470 18.660934
62.475 19.016567
62.480 19.020897
62.485 19.052553
62.490 19.126072
62.495 18.913507
62.500 18.253412
62.505 17.798756
62.510 17.790825
62.515 18.043379
62.520 17.42005
62.525 17.055456
62.530 16.678146
62.535 17.027256
62.540 17.02113
62.545 16.14373
62.550 15.158398
62.555 15.349436
62.560 15.45218
62.565 15.269342
62.570 14.545111
62.575 14.383687
62.580 15.070471
62.585 15.281738
62.590 15.515094
62.595 15.6476
62.600 16.014345
62.605 16.393238
62.610 16.767092
62.615 16.635191
62.620 17.478148
62.625 17.371101
62.630 17.019281
62.635 17.593744
62.640 18.094074
62.645 17.616713
62.650 17.388609
62.655 16.599749
62.660 16.497618
62.665 16.299011
62.670 16.240089
62.675 15.946543
62.680 16.241945
62.685 16.391624
62.690 17.084995
62.695 17.270306
62.700 17.449406
62.705 17.267845
62.710 17.633137
62.715 17.669996
62.720 17.630974
62.725 17.429934
62.730 17.317492
62.735 17.573616
62.740 17.063366
62.745 17.024197
62.750 17.178114
62.755 17.196495
62.760 17.427736
62.765 17.684628
62.770 17.324337
62.775 17.767639
62.780 17.86438
62.785 17.600746
62.790 17.461956
62.795 17.558969
62.800 17.652521
62.805 17.788162
62.810 17.422327
62.815 17.103645
62.820 17.219944
62.825 17.226025
62.830 16.757404
62.835 16.80447
62.840 16.855326
62.845 17.000959
62.850 17.063692
62.855 17.283892
62.860 17.021942
62.865 16.899591
62.870 16.584778
62.875 16.592194
62.880 16.494028
62.885 16.113667
62.890 15.782022
62.895 15.793875
62.900 15.652632
62.905 15.783079
62.910 15.752848
62.915 15.558011
62.920 15.212386
62.925 15.251612
62.930 15.462964
62.935 15.216924
62.940 14.894724
62.945 14.931355
62.950 15.027114
62.955 15.100048
62.960 14.848602
62.965 15.316408
62.970 16.105593
62.975 16.444469
62.980 16.673359
62.985 17.182934
62.990 17.79607
62.995 17.780172
63.000 17.622009
63.005 17.74959
63.010 17.623781
63.015 17.962557
63.020 17.591255
63.025 17.412392
63.030 17.327209
63.035 17.193426
63.040 16.806313
63.045 16.708088
63.050 16.382195
63.055 16.768354
63.060 17.244062
63.065 17.554049
63.070 17.638565
63.075 17.51086
63.080 17.639486
63.085 18.022243
63.090 17.785572
63.095 16.799372
63.100 16.426544
63.105 15.914757
63.110 15.724258
63.115 15.197835
63.120 14.810056
63.125 14.79833
63.130 15.29425
63.135 15.622987
63.140 16.305544
63.145 16.553232
63.150 17.177376
63.155 17.855213
63.160 18.468897
63.165 18.778753
63.170 18.650299
63.175 18.594032
63.180 18.530956
63.185 18.123991
63.190 17.288509
63.195 16.914469
63.200 16.56426
63.205 16.335766
63.210 16.070448
63.215 16.006401
63.220 15.884122
63.225 16.2395
63.230 16.703257
63.235 16.697618
63.240 16.726774
63.245 16.660053
63.250 16.911905
63.255 16.80191
63.260 16.629725
63.265 16.44462
63.270 16.766813
63.275 17.012348
63.280 17.528683
63.285 17.838238
63.290 18.021854
63.295 17.798399
63.300 17.787645
63.305 17.94313
63.310 18.144537
63.315 18.229504
63.320 18.620148
63.325 18.886837
63.330 19.452085
63.335 19.219662
63.340 18.912565
63.345 18.608015
63.350 18.396225
63.355 17.794991
63.360 17.43145
63.365 16.815954
63.370 17.137165
63.375 17.919485
63.380 17.999481
63.385 17.672653
63.390 17.037355
63.395 17.663595
63.400 18.158808
63.405 17.914387
63.410 18.0343
63.415 18.272861
63.420 18.874281
63.425 19.557472
63.430 19.281191
63.435 19.442114
63.440 19.239168
63.445 18.342514
63.450 17.958553
63.455 16.813723
63.460 16.297703
63.465 15.916288
63.470 15.5231
63.475 15.77303
63.480 15.725807
63.485 15.679947
63.490 16.108858
63.495 16.741371
63.500 17.127829
63.505 17.43343
63.510 17.286034
63.515 17.461569
63.520 17.688797
63.525 17.947481
63.530 18.380018
63.535 18.565557
63.540 18.375813
63.545 18.5924
63.550 18.642117
63.555 18.378757
63.560 17.735451
63.565 17.209837
63.570 16.858179
63.575 16.898796
63.580 16.835136
63.585 16.816114
63.590 16.751434
63.595 17.240038
63.600 17.206005
63.605 16.60615
63.610 15.810106
63.615 15.352682
63.620 16.029154
63.625 16.355574
63.630 16.330641
63.635 16.119583
63.640 16.985048
63.645 17.761293
63.650 17.664408
63.655 17.795609
63.660 17.685791
63.665 16.792852
63.670 16.837978
63.675 16.965109
63.680 16.963835
63.685 17.175211
63.690 16.716843
63.695 17.51487
63.700 18.367378
63.705 18.72197
63.710 18.221834
63.715 18.200502
63.720 18.485092
63.725 18.822639
63.730 18.151104
63.735 17.623087
63.740 17.125029
63.745 17.29253
63.750 17.189568
63.755 16.747183
63.760 16.251751
63.765 16.613827
63.770 17.294392
63.775 17.738297
63.780 17.683315
63.785 17.886999
63.790 18.357016
63.795 18.456701
63.800 18.269869
63.805 17.616955
63.810 17.829342
63.815 18.234615
63.820 18.352999
63.825 18.131428
63.830 18.616104
63.835 19.187422
63.840 19.711523
63.845 19.462929
63.850 18.726068
63.855 18.338032
63.860 18.081537
63.865 17.788897
63.870 17.273569
63.875 17.474623
63.880 17.450787
63.885 17.91168
63.890 18.117729
63.895 18.385334
63.900 18.252171
63.905 18.257051
63.910 17.648073
63.915 17.951414
63.920 17.703438
63.925 17.552782
63.930 17.872221
63.935 17.844728
63.940 17.843418
63.945 17.948416
63.950 17.471195
63.955 17.658068
63.960 17.436632
63.965 16.935663
63.970 16.818483
63.975 16.594238
63.980 16.305904
63.985 16.162115
63.990 16.433643
63.995 17.235823
64.000 17.312746
64.005 17.725407
64.010 18.557808
64.015 19.516487
64.020 19.959608
64.025 19.237869
64.030 18.904552
64.035 18.991259
64.040 18.80352
64.045 18.602381
64.050 18.231815
64.055 17.882069
64.060 17.964844
64.065 17.597244
64.070 17.663506
64.075 17.678688
64.080 17.2623
64.085 17.059027
64.090 17.338352
64.095 17.757309
64.100 18.374807
64.105 18.292831
64.110 18.70174
64.115 18.989567
64.120 18.714338
64.125 18.58346
64.130 18.221313
64.135 18.014944
64.140 18.27714
64.145 17.966702
64.150 17.537893
64.155 17.633636
64.160 17.252686
64.165 16.705025
64.170 16.403057
64.175 15.854762
64.180 15.281838
64.185 15.411762
64.190 15.366684
64.195 15.596871
64.200 16.29796
64.205 16.29768
64.210 16.753464
64.215 16.896702
64.220 17.015659
64.225 17.340298
64.230 17.204
64.235 16.913839
64.240 17.005421
64.245 16.93725
64.250 16.873837
64.255 16.807886
64.260 16.347
64.265 16.920465
64.270 17.074492
64.275 16.964722
64.280 17.458967
64.285 17.598558
64.290 17.479511
64.295 17.88933
64.300 17.579777
64.305 17.967941
64.310 18.019133
64.315 17.981932
64.320 18.62496
64.325 19.108698
64.330 18.899387
64.335 18.730446
64.340 18.501888
64.345 18.551479
64.350 17.869518
64.355 17.608992
64.360 17.461672
64.365 17.586731
64.370 17.418707
64.375 17.491158
64.380 17.317389
64.385 17.401552
64.390 17.48147
64.395 18.075666
64.400 18.171515
64.405 18.472799
64.410 19.172264
64.415 19.618086
64.420 19.508387
64.425 19.237135
64.430 18.70097
64.435 18.724586
64.440 18.704153
64.445 18.30641
64.450 18.668863
64.455 18.705034
64.460 18.939199
64.465 19.080551
64.470 19.259602
64.475 19.444614
64.480 19.328751
64.485 19.038017
64.490 19.051096
64.495 18.643263
64.500 18.599583
64.505 18.359896
64.510 18.090939
64.515 17.874439
64.520 17.955093
64.525 18.618658
64.530 18.643791
64.535 18.226563
64.540 19.084663
64.545 19.553959
64.550 19.778481
64.555 19.607077
64.560 19.261051
64.565 19.205523
64.570 20.11068
64.575 19.477198
64.580 19.043779
64.585 18.925627
64.590 18.754234
64.595 19.03787
64.600 19.693453
64.605 19.442804
64.610 19.682102
64.615 19.89081
64.620 19.680792
64.625 19.625013
64.630 19.134188
64.635 18.711582
64.640 18.800663
64.645 18.643633
64.650 18.69211
64.655 18.219158
64.660 18.373367
64.665 18.283131
64.670 18.124935
64.675 17.952448
64.680 18.21241
64.685 18.009039
64.690 18.329376
64.695 18.816814
64.700 19.325621
64.705 19.236189
64.710 19.160782
64.715 18.577368
64.720 19.088369
64.725 18.993422
64.730 18.829504
64.735 18.880859
64.740 19.13043
64.745 18.583864
64.750 18.414248
64.755 18.324802
64.760 18.584791
64.765 18.852139
64.770 19.14864
64.775 19.108103
64.780 19.653044
64.785 20.108824
64.790 20.168116
64.795 20.052248
64.800 19.37063
64.805 19.18121
64.810 19.582352
64.815 19.6399
64.820 19.41629
64.825 19.823175
64.830 20.131514
64.835 20.184898
64.840 20.30447
64.845 19.495823
64.850 19.941341
64.855 20.007256
64.860 19.293293
64.865 19.119831
64.870 19.275661
64.875 19.479113
64.880 19.608038
64.885 19.233263
64.890 19.676437
64.895 19.589289
64.900 19.14699
64.905 19.103937
64.910 18.599386
64.915 19.40453
64.920 20.420906
64.925 20.721647
64.930 20.8386
64.935 21.113447
64.940 21.193764
64.945 21.659489
64.950 21.271358
64.955 20.45797
64.960 20.413122
64.965 21.37023
64.970 21.705336
64.975 21.994329
64.980 22.29837
64.985 23.034695
64.990 23.578289
64.995 22.869318
65.000 22.672983
65.005 22.454769
65.010 22.176544
65.015 21.54509
65.020 21.341681
65.025 21.683418
65.030 23.038473
65.035 23.225615
65.040 23.567083
65.045 23.566746
65.050 23.051014
65.055 22.641348
65.060 21.989548
65.065 21.466854
65.070 22.111607
65.075 21.81916
65.080 22.159893
65.085 22.547989
65.090 22.855965
65.095 23.091503
65.100 22.895523
65.105 21.929304
65.110 22.043503
65.115 21.943594
65.120 22.265202
65.125 22.470926
65.130 21.677286
65.135 21.214308
65.140 21.649824
65.145 21.991243
65.150 22.013697
65.155 22.364277
65.160 23.057966
65.165 23.641447
65.170 24.274416
65.175 24.099566
65.180 24.233139
65.185 24.480082
65.190 24.237858
65.195 23.245922
65.200 23.987352
65.205 24.255989
65.210 24.159052
65.215 24.132202
65.220 24.023951
65.225 24.037273
65.230 23.900005
65.235 22.924372
65.240 23.095974
65.245 23.014894
65.250 22.602835
65.255 22.212229
65.260 22.00819
65.265 22.378437
65.270 22.667719
65.275 22.535433
65.280 22.15419
65.285 21.783026
65.290 22.350994
65.295 22.485361
65.300 22.47488
65.305 22.072128
65.310 21.902891
65.315 22.614773
65.320 23.167271
65.325 23.185173
65.330 23.134054
65.335 22.908285
65.340 22.552235
65.345 22.481297
65.350 22.341188
65.355 22.022522
65.360 21.670744
65.365 21.510313
65.370 21.54163
65.375 21.930504
65.380 21.746532
65.385 21.822634
65.390 22.452509
65.395 22.521338
65.400 22.783548
65.405 22.983274
65.410 23.939207
65.415 24.379408
65.420 24.370031
65.425 24.213886
65.430 24.684782
65.435 24.776575
65.440 25.433989
65.445 24.513201
65.450 24.221251
65.455 24.040056
65.460 24.711092
65.465 24.345596
65.470 24.703474
65.475 24.645039
65.480 24.714237
65.485 24.960251
65.490 24.757696
65.495 23.951975
65.500 23.648062
65.505 23.601509
65.510 23.456102
65.515 23.92205
65.520 23.397446
65.525 24.322769
65.530 24.511787
65.535 24.65659
65.540 24.927162
65.545 26.103031
65.550 26.569036
65.555 27.907194
65.560 27.725649
65.565 27.988344
65.570 28.880318
65.575 29.065315
65.580 29.220701
65.585 29.136503
65.590 29.000706
65.595 28.688715
65.600 28.900208
65.605 29.194822
65.610 28.829159
65.615 28.431334
65.620 29.031084
65.625 29.821476
65.630 30.747326
65.635 30.631943
65.640 30.659727
65.645 31.242823
65.650 30.787912
65.655 30.782701
65.660 30.704155
65.665 30.921473
65.670 31.164846
65.675 30.834169
65.680 31.08963
65.685 32.593956
65.690 33.383183
65.695 32.744373
65.700 32.807465
65.705 32.83247
65.710 33.068024
65.715 33.328636
65.720 33.109627
65.725 32.631962
65.730 33.127193
65.735 33.440834
65.740 34.319466
65.745 34.706802
65.750 34.238575
65.755 33.374477
65.760 33.645885
65.765 34.523472
65.770 34.645351
65.775 34.144432
65.780 33.959255
65.785 33.553707
65.790 34.32468
65.795 33.808285
65.800 32.951893
65.805 32.423325
65.810 32.313721
65.815 32.369621
65.820 33.436031
65.825 33.686775
65.830 34.739933
65.835 35.061184
65.840 35.290119
65.845 35.396194
65.850 35.81551
65.855 36.326172
65.860 36.880436
65.865 38.082642
65.870 38.677582
65.875 39.386406
65.880 39.508312
65.885 40.03006
65.890 39.356506
65.895 38.053234
65.900 36.556568
65.905 36.343632
65.910 36.531731
65.915 37.158421
65.920 37.40168
65.925 38.266388
65.930 38.10759
65.935 38.343979
65.940 39.241611
65.945 39.536392
65.950 39.062759
65.955 38.250679
65.960 38.047119
65.965 38.558208
65.970 38.279778
65.975 37.133659
65.980 36.699345
65.985 37.126282
65.990 37.02351
65.995 37.19442
66.000 37.017075
66.005 36.313236
66.010 36.060547
66.015 35.53751
66.020 35.267216
66.025 35.846783
66.030 35.18317
66.035 35.668159
66.040 36.359226
66.045 36.958401
66.050 38.157055
66.055 37.84037
66.060 37.679893
66.065 37.665241
66.070 37.21851
66.075 36.974678
66.080 36.518761
66.085 35.800919
66.090 36.523186
66.095 36.538662
66.100 36.915627
66.105 36.589634
66.110 36.469433
66.115 36.814171
66.120 36.442398
66.125 36.125622
66.130 36.16708
66.135 36.408424
66.140 37.434349
66.145 37.350876
66.150 37.409309
66.155 37.377163
66.160 35.989719
66.165 34.491566
66.170 33.54232
66.175 33.100437
66.180 32.746738
66.185 32.119518
66.190 31.483044
66.195 31.308912
66.200 31.925619
66.205 31.924919
66.210 31.695005
66.215 31.715664
66.220 31.681545
66.225 32.982513
66.230 33.54269
66.235 33.864189
66.240 34.038467
66.245 34.301586
66.250 34.126308
66.255 33.79594
66.260 33.409351
66.265 33.613121
66.270 33.523731
66.275 33.740585
66.280 33.062584
66.285 32.957134
66.290 33.116161
66.295 33.350544
66.300 33.238087
66.305 33.095551
66.310 32.663601
66.315 32.544449
66.320 32.431271
66.325 32.054722
66.330 31.224964
66.335 30.896418
66.340 31.072725
66.345 30.734449
66.350 30.611824
66.355 30.642187
66.360 30.354223
66.365 30.463511
66.370 29.886633
66.375 28.390928
66.380 28.354677
66.385 28.450043
66.390 27.951658
66.395 28.562267
66.400 28.781797
66.405 29.091763
66.410 30.114805
66.415 30.477129
66.420 30.397816
66.425 30.155437
66.430 29.640003
66.435 29.332716
66.440 29.688688
66.445 29.150003
66.450 28.187288
66.455 28.260675
66.460 28.116241
66.465 28.192675
66.470 28.519335
66.475 27.446732
66.480 27.242239
66.485 27.85367
66.490 27.713417
66.495 28.284374
66.500 27.773592
66.505 27.509773
66.510 28.040499
66.515 27.796814
66.520 27.528271
66.525 27.579245
66.530 27.29191
66.535 27.233294
66.540 27.337845
66.545 28.194496
66.550 27.676245
66.555 27.108433
66.560 27.818338
66.565 28.024525
66.570 28.550737
66.575 28.442583
66.580 27.952154
66.585 28.029791
66.590 27.739744
66.595 26.616081
66.600 25.812714
66.605 24.886328
66.610 24.073092
66.615 24.120148
66.620 24.10535
66.625 24.255281
66.630 24.349237
66.635 24.641615
66.640 25.61725
66.645 25.872379
66.650 25.467733
66.655 25.486444
66.660 25.305862
66.665 25.202318
66.670 24.975403
66.675 24.466816
66.680 24.932062
66.685 24.992325
66.690 25.095884
66.695 25.460449
66.700 26.026203
66.705 25.976299
66.710 25.490269
66.715 24.471109
66.720 24.78046
66.725 24.90374
66.730 24.721607
66.735 24.378532
66.740 24.730227
66.745 25.659927
66.750 25.88826
66.755 26.002739
66.760 25.953526
66.765 25.999599
66.770 26.479263
66.775 25.775827
66.780 25.669634
66.785 25.970079
66.790 24.8258
66.795 24.269802
66.800 24.268438
66.805 23.336985
66.810 23.461884
66.815 22.751766
66.820 22.133791
66.825 22.961025
66.830 22.962919
66.835 21.906771
66.840 21.754297
66.845 21.895311
66.850 21.348879
66.855 21.960693
66.860 22.064636
66.865 21.989632
66.870 21.960907
66.875 21.937006
66.880 21.874256
66.885 22.402893
66.890 21.300785
66.895 21.136101
66.900 21.716125
66.905 21.821194
66.910 21.976929
66.915 22.257811
66.920 22.443933
66.925 22.988825
66.930 23.087517
66.935 22.84774
66.940 22.936443
66.945 22.961853
66.950 22.948935
66.955 22.459286
66.960 22.359951
66.965 22.291918
66.970 22.363976
66.975 22.719997
66.980 23.014664
66.985 22.902288
66.990 23.11404
66.995 22.76944
67.000 22.892365
67.005 22.868029
67.010 22.958759
67.015 22.812986
67.020 22.833231
67.025 22.669777
67.030 22.262453
67.035 22.05621
67.040 21.821035
67.045 21.535601
67.050 21.748707
67.055 22.073982
67.060 22.50713
67.065 22.184393
67.070 21.480171
67.075 21.907377
67.080 21.939095
67.085 21.682617
67.090 20.939878
67.095 20.502159
67.100 21.166225
67.105 21.414005
67.110 21.107454
67.115 21.097317
67.120 21.576111
67.125 22.140499
67.130 22.155821
67.135 21.580727
67.140 21.722269
67.145 22.206299
67.150 21.77656
67.155 21.322052
67.160 21.402994
67.165 22.000223
67.170 22.30435
67.175 22.066008
67.180 21.632364
67.185 21.501745
67.190 21.312996
67.195 21.422581
67.200 21.235891
67.205 21.573683
67.210 22.027502
67.215 22.384581
67.220 23.0298
67.225 23.049112
67.230 22.510674
67.235 22.252594
67.240 22.348108
67.245 22.064526
67.250 21.876768
67.255 21.805956
67.260 22.123764
67.265 22.251091
67.270 22.219593
67.275 21.445446
67.280 21.094866
67.285 21.147198
67.290 21.218445
67.295 21.411455
67.300 21.399292
67.305 21.537081
67.310 22.188873
67.315 22.315409
67.320 22.192869
67.325 21.687799
67.330 21.047747
67.335 21.426682
67.340 21.85815
67.345 22.270226
67.350 22.725889
67.355 23.190861
67.360 23.274061
67.365 23.195702
67.370 22.531351
67.375 22.271521
67.380 21.446211
67.385 20.292959
67.390 19.807674
67.395 20.424246
67.400 21.004827
67.405 21.726988
67.410 21.620905
67.415 21.773258
67.420 22.469622
67.425 22.975353
67.430 22.501118
67.435 22.138906
67.440 21.518181
67.445 21.364277
67.450 21.575754
67.455 20.95949
67.460 20.175287
67.465 19.449289
67.470 19.428612
67.475 19.803125
67.480 20.051022
67.485 20.033272
67.490 20.36949
67.495 21.233837
67.500 22.273479
67.505 22.165401
67.510 21.506298
67.515 21.547255
67.520 21.52356
67.525 21.337341
67.530 21.058599
67.535 21.161728
67.540 21.097206
67.545 21.214716
67.550 20.905939
67.555 21.333874
67.560 21.448809
67.565 20.985197
67.570 20.828547
67.575 20.874035
67.580 21.840448
67.585 22.59664
67.590 22.710049
67.595 22.98897
67.600 22.873934
67.605 22.829353
67.610 22.872419
67.615 22.628431
67.620 21.916521
67.625 21.803621
67.630 22.036106
67.635 22.335878
67.640 22.280191
67.645 22.060167
67.650 21.539724
67.655 22.234659
67.660 22.602867
67.665 22.576593
67.670 22.69092
67.675 22.374493
67.680 22.656263
67.685 22.858725
67.690 21.999638
67.695 21.025486
67.700 20.489241
67.705 20.684233
67.710 20.940994
67.715 20.812981
67.720 20.370041
67.725 19.964966
67.730 20.140682
67.735 20.211369
67.740 20.003515
67.745 20.134691
67.750 19.942007
67.755 20.428379
67.760 21.079914
67.765 21.519213
67.770 21.373451
67.775 21.154163
67.780 21.387873
67.785 21.366402
67.790 20.907028
67.795 20.60964
67.800 20.793354
67.805 21.037954
67.810 20.928825
67.815 20.466434
67.820 20.511347
67.825 20.618277
67.830 20.309742
67.835 20.14777
67.840 19.564837
67.845 18.943798
67.850 19.432936
67.855 19.380577
67.860 19.357477
67.865 19.624477
67.870 19.779858
67.875 20.549089
67.880 21.300066
67.885 20.99061
67.890 21.218088
67.895 21.518494
67.900 21.795128
67.905 21.419653
67.910 21.156128
67.915 21.088699
67.920 20.89188
67.925 20.813608
67.930 21.220078
67.935 21.308359
67.940 21.022316
67.945 21.361048
67.950 21.627279
67.955 21.450838
67.960 21.677303
67.965 21.037539
67.970 21.29645
67.975 22.165018
67.980 21.971245
67.985 21.814537
67.990 22.065191
67.995 22.059698
68.000 22.412235
68.005 21.722099
68.010 21.488411
68.015 21.02182
68.020 20.519867
68.025 20.251337
68.030 19.580509
68.035 18.698919
68.040 18.383223
68.045 18.0697
68.050 18.820646
68.055 19.452702
68.060 20.314291
68.065 21.245811
68.070 22.723579
68.075 23.466667
68.080 23.200445
68.085 23.154331
68.090 22.791779
68.095 22.11117
68.100 21.486574
68.105 21.137548
68.110 21.32518
68.115 21.705755
68.120 21.710091
68.125 22.015114
68.130 22.504568
68.135 22.688314
68.140 21.967718
68.145 21.670708
68.150 21.636042
68.155 21.283594
68.160 21.407085
68.165 21.110044
68.170 20.849527
68.175 20.595535
68.180 19.96924
68.185 19.817722
68.190 19.79537
68.195 19.573111
68.200 19.389677
68.205 19.425573
68.210 19.628466
68.215 19.536388
68.220 19.253824
68.225 19.281456
68.230 19.279463
68.235 19.450439
68.240 19.188595
68.245 19.607325
68.250 20.231096
68.255 20.002272
68.260 19.88809
68.265 19.679195
68.270 19.994448
68.275 19.815039
68.280 19.129045
68.285 18.559362
68.290 18.930752
68.295 18.941771
68.300 18.740625
68.305 18.792652
68.310 18.681002
68.315 18.790668
68.320 19.185915
68.325 18.670275
68.330 18.244667
68.335 18.199093
68.340 18.377115
68.345 19.315018
68.350 19.528458
68.355 19.774176
68.360 20.440643
68.365 20.738741
68.370 21.170639
68.375 21.135406
68.380 21.043036
68.385 21.05032
68.390 21.145321
68.395 21.428047
68.400 21.536507
68.405 21.449316
68.410 21.465462
68.415 21.203724
68.420 21.27898
68.425 21.108139
68.430 20.885118
68.435 21.430403
68.440 21.536663
68.445 21.990103
68.450 22.895155
68.455 23.406364
68.460 23.492641
68.465 23.492428
68.470 23.156136
68.475 22.772709
68.480 22.057747
68.485 21.446463
68.490 22.054342
68.495 22.209394
68.500 22.515532
68.505 22.474545
68.510 22.425301
68.515 22.238705
68.520 22.200754
68.525 21.720957
68.530 21.271051
68.535 20.591656
68.540 20.419519
68.545 20.468878
68.550 20.454926
68.555 20.69187
68.560 20.08252
68.565 20.409437
68.570 20.746822
68.575 20.837093
68.580 20.537039
68.585 20.466513
68.590 20.322609
68.595 20.571041
68.600 20.742287
68.605 20.69153
68.610 20.673376
68.615 21.523283
68.620 21.967793
68.625 22.238462
68.630 22.56209
68.635 22.204409
68.640 21.928635
68.645 21.780087
68.650 21.756962
68.655 21.161428
68.660 21.075735
68.665 19.951914
68.670 19.916555
68.675 20.603428
68.680 20.398878
68.685 20.200888
68.690 20.454065
68.695 20.632526
68.700 21.353781
68.705 21.740524
68.710 21.591736
68.715 22.018583
68.720 22.116108
68.725 22.077866
68.730 21.152178
68.735 20.781876
68.740 20.288712
68.745 20.310949
68.750 20.68321
68.755 20.945702
68.760 20.939127
68.765 21.91317
68.770 22.587091
68.775 22.892292
68.780 23.073814
68.785 22.572084
68.790 22.394394
68.795 22.079254
68.800 21.886221
68.805 21.87331
68.810 21.920282
68.815 21.783884
68.820 22.354465
68.825 22.651197
68.830 22.715845
68.835 22.013252
68.840 21.917887
68.845 22.230749
68.850 22.164419
68.855 22.226957
68.860 22.57379
68.865 22.765362
68.870 23.167755
68.875 23.075151
68.880 22.720316
68.885 22.374249
68.890 22.069216
68.895 21.501394
68.900 21.510309
68.905 21.597454
68.910 22.055176
68.915 22.300482
68.920 22.888247
68.925 22.753073
68.930 22.853123
68.935 23.620255
68.940 24.198238
68.945 23.674955
68.950 23.570734
68.955 23.373816
68.960 23.306992
68.965 23.011484
68.970 22.320446
68.975 21.837502
68.980 22.155359
68.985 22.484848
68.990 22.046213
68.995 22.410629
69.000 22.751137
69.005 23.358715
69.010 22.96339
69.015 22.05859
69.020 21.017071
69.025 21.387339
69.030 21.777626
69.035 21.768673
69.040 21.399694
69.045 21.757627
69.050 22.592068
69.055 23.376511
69.060 23.935228
69.065 23.564348
69.070 23.609093
69.075 23.469442
69.080 23.546625
69.085 23.008722
69.090 23.297461
69.095 22.845762
69.100 23.515251
69.105 24.14217
69.110 24.742954
69.115 25.165798
69.120 25.511559
69.125 25.65546
69.130 25.696739
69.135 25.169947
69.140 25.006525
69.145 25.061424
69.150 25.288815
69.155 25.962133
69.160 25.82604
69.165 25.477119
69.170 25.631081
69.175 25.192341
69.180 24.443468
69.185 24.032726
69.190 23.729244
69.195 23.905409
69.200 24.220942
69.205 24.907265
69.210 25.943293
69.215 26.291384
69.220 26.009148
69.225 26.24892
69.230 26.456049
69.235 26.165899
69.240 24.87331
69.245 24.079901
69.250 25.010473
69.255 25.734518
69.260 25.307747
69.265 25.027971
69.270 25.910963
69.275 27.369816
69.280 27.994616
69.285 27.45158
69.290 27.458698
69.295 27.103085
69.300 27.066814
69.305 26.243118
69.310 25.995867
69.315 26.538652
69.320 26.801809
69.325 26.802673
69.330 26.627722
69.335 26.976891
69.340 27.514484
69.345 27.756693
69.350 27.8291
69.355 27.81752
69.360 28.27549
69.365 28.789471
69.370 28.159149
69.375 27.303942
69.380 27.46563
69.385 27.185215
69.390 27.065605
69.395 26.810871
69.400 27.214218
69.405 27.949839
69.410 28.962093
69.415 28.50474
69.420 28.564213
69.425 28.301826
69.430 29.044161
69.435 29.176605
69.440 29.560072
69.445 29.757225
69.450 29.671494
69.455 29.338797
69.460 29.208311
69.465 28.29493
69.470 28.565205
69.475 28.630175
69.480 28.257813
69.485 28.222883
69.490 28.82427
69.495 28.888706
69.500 28.465687
69.505 27.632858
69.510 26.984543
69.515 26.471706
69.520 26.219395
69.525 26.911386
69.530 27.670866
69.535 28.477489
69.540 28.341919
69.545 28.59063
69.550 29.185404
69.555 28.836123
69.560 27.996639
69.565 28.364054
69.570 28.327295
69.575 28.344011
69.580 28.449234
69.585 28.52651
69.590 29.15563
69.595 29.587894
69.600 28.24925
69.605 28.815617
69.610 29.35055
69.615 28.973284
69.620 28.404518
69.625 27.927044
69.630 27.921238
69.635 28.034281
69.640 27.537981
69.645 27.118954
69.650 27.356644
69.655 28.80094
69.660 28.29837
69.665 28.563183
69.670 29.010452
69.675 28.614391
69.680 28.782637
69.685 28.272205
69.690 28.04825
69.695 28.766815
69.700 28.13154
69.705 28.019733
69.710 27.541739
69.715 27.139948
69.720 26.857885
69.725 25.955608
69.730 26.186113
69.735 26.551374
69.740 26.746183
69.745 27.486744
69.750 27.822702
69.755 28.074642
69.760 27.419209
69.765 26.992662
69.770 27.072449
69.775 26.945372
69.780 26.885544
69.785 26.986883
69.790 26.364334
69.795 25.811903
69.800 25.21084
69.805 24.071993
69.810 23.383373
69.815 22.865078
69.820 22.511915
69.825 22.489281
69.830 23.605793
69.835 24.336086
69.840 24.43668
69.845 23.987959
69.850 24.215372
69.855 24.951946
69.860 25.326399
69.865 23.830225
69.870 24.608633
69.875 25.716114
69.880 26.039474
69.885 25.412928
69.890 24.851635
69.895 25.113533
69.900 25.310575
69.905 24.074457
69.910 23.735405
69.915 23.687803
69.920 23.772972
69.925 23.413101
69.930 23.231441
69.935 23.196617
69.940 23.213776
69.945 22.856058
69.950 22.611931
69.955 22.140879
69.960 22.097349
69.965 22.28401
69.970 22.224361
69.975 22.027367
69.980 21.983637
69.985 22.510284
69.990 22.868824
69.995 23.10747
70.000 22.773354
70.005 22.598749
70.010 22.162645
70.015 22.181568
70.020 22.336733
70.025 22.633915
70.030 22.902744
70.035 22.804794
70.040 22.705662
70.045 22.115021
70.050 21.972187
70.055 21.673296
70.060 21.342703
70.065 20.647148
70.070 20.92557
70.075 21.521532
70.080 21.714706
70.085 21.436937
70.090 20.91559
70.095 20.762569
70.100 20.469418
70.105 19.956846
70.110 19.536697
70.115 19.674353
70.120 19.634821
70.125 20.06999
70.130 19.938864
70.135 20.491001
70.140 20.568562
70.145 20.278072
70.150 20.661016
70.155 20.639341
70.160 21.029551
70.165 21.178051
70.170 21.149544
70.175 21.576393
70.180 21.722807
70.185 21.358068
70.190 21.414261
70.195 21.737787
70.200 21.5313
70.205 21.364193
70.210 20.998318
70.215 21.197033
70.220 21.270023
70.225 21.047977
70.230 20.543797
70.235 20.562733
70.240 20.461548
70.245 20.724438
70.250 20.931492
70.255 20.61829
70.260 20.40258
70.265 20.46961
70.270 20.424614
70.275 20.563217
70.280 19.990969
70.285 19.99288
70.290 20.261482
70.295 20.702795
70.300 20.231949
70.305 20.228628
70.310 20.023829
70.315 20.31275
70.320 20.333883
70.325 19.835661
70.330 19.559235
70.335 19.761108
70.340 19.314209
70.345 19.494011
70.350 19.487387
70.355 18.827778
70.360 19.268311
70.365 19.026136
70.370 19.083239
70.375 19.61076
70.380 19.022461
70.385 18.840414
70.390 19.053556
70.395 18.923889
70.400 19.286034
70.405 19.055799
70.410 19.263161
70.415 19.263021
70.420 19.30064
70.425 19.569818
70.430 19.639927
70.435 19.859348
70.440 20.438854
70.445 20.358532
70.450 20.392233
70.455 19.684711
70.460 19.709942
70.465 20.213377
70.470 20.577772
70.475 20.573532
70.480 20.776075
70.485 21.194483
70.490 21.922558
70.495 21.826683
70.500 21.656456
70.505 20.937197
70.510 20.710257
70.515 20.605196
70.520 20.605024
70.525 20.332638
70.530 19.851938
70.535 19.396498
70.540 19.555882
70.545 19.704967
70.550 19.305504
70.555 19.63826
70.560 20.040516
70.565 20.899706
70.570 20.996145
70.575 20.561745
70.580 20.410353
70.585 20.844604
70.590 20.393309
70.595 20.154667
70.600 19.696754
70.605 19.690994
70.610 19.160059
70.615 18.50584
70.620 17.83707
70.625 17.242846
70.630 16.943163
70.635 16.441877
70.640 16.857683
70.645 17.350819
70.650 18.133179
70.655 18.667841
70.660 19.040771
70.665 19.125254
70.670 19.292555
70.675 19.21747
70.680 18.942053
70.685 18.540451
70.690 19.65999
70.695 20.303499
70.700 20.413183
70.705 20.191803
70.710 20.280518
70.715 21.000422
70.720 21.020512
70.725 19.887209
70.730 19.2824
70.735 18.784512
70.740 18.591509
70.745 18.679234
70.750 18.795172
70.755 18.961485
70.760 18.445196
70.765 18.176075
70.770 18.442326
70.775 18.140245
70.780 17.850586
70.785 16.624466
70.790 16.661808
70.795 17.149208
70.800 17.324314
70.805 17.591187
70.810 17.492331
70.815 17.860462
70.820 19.019831
70.825 18.901251
70.830 19.171833
70.835 19.797531
70.840 19.733873
70.845 19.633284
70.850 19.16164
70.855 17.638844
70.860 17.516104
70.865 17.570005
70.870 17.603397
70.875 17.665426
70.880 17.651325
70.885 18.265741
70.890 18.373886
70.895 18.305977
70.900 18.183777
70.905 18.117723
70.910 18.349098
70.915 18.573929
70.920 18.542343
70.925 19.241629
70.930 18.440413
70.935 18.354866
70.940 17.943409
70.945 18.467213
70.950 18.414545
70.955 18.157562
70.960 18.54645
70.965 19.426369
70.970 19.968487
70.975 20.432217
70.980 20.314468
70.985 20.197334
70.990 19.925343
70.995 19.378481
71.000 18.759596
71.005 18.199581
71.010 17.760248
71.015 18.205614
71.020 18.833624
71.025 18.597715
71.030 18.448914
71.035 18.66865
71.040 19.561451
71.045 19.457005
71.050 19.397541
71.055 18.876003
71.060 19.296206
71.065 19.536882
71.070 19.292723
71.075 18.320349
71.080 17.869135
71.085 17.40284
71.090 17.848558
71.095 18.286633
71.100 18.197815
71.105 17.836552
71.110 17.951637
71.115 18.619539
71.120 18.531
71.125 17.951307
71.130 17.423965
71.135 17.672546
71.140 17.667009
71.145 17.437654
71.150 16.983643
71.155 17.051147
71.160 16.953461
71.165 17.23377
71.170 17.558916
71.175 17.877916
71.180 18.149204
71.185 18.474777
71.190 19.13015
71.195 19.150782
71.200 18.549364
71.205 18.271938
71.210 17.981031
71.215 18.099642
71.220 17.735876
71.225 17.329639
71.230 17.643103
71.235 17.811941
71.240 18.444792
71.245 18.794392
71.250 18.743797
71.255 19.104166
71.260 19.195427
71.265 19.295897
71.270 19.753139
71.275 19.387358
71.280 19.765638
71.285 19.599314
71.290 18.987339
71.295 18.978018
71.300 19.023455
71.305 19.038816
71.310 18.95505
71.315 18.617697
71.320 18.809898
71.325 18.756676
71.330 18.289246
71.335 18.245235
71.340 17.965794
71.345 18.053642
71.350 17.85253
71.355 17.854858
71.360 18.165037
71.365 17.829779
71.370 17.295591
71.375 17.820177
71.380 17.864321
71.385 17.663637
71.390 17.771578
71.395 18.090611
71.400 18.322281
71.405 18.096985
71.410 17.717909
71.415 18.217255
71.420 18.840237
71.425 18.868885
71.430 19.148865
71.435 19.17248
71.440 19.501614
71.445 19.333408
71.450 18.456276
71.455 17.936508
71.460 17.867855
71.465 17.778969
71.470 17.318228
71.475 16.931969
71.480 17.577518
71.485 18.155809
71.490 18.068829
71.495 18.141336
71.500 17.781021
71.505 17.836107
71.510 18.33741
71.515 18.043268
71.520 17.982185
71.525 18.021595
71.530 17.82349
71.535 17.741499
71.540 18.27066
71.545 18.298685
71.550 18.337942
71.555 18.444727
71.560 18.239447
71.565 18.292591
71.570 18.427242
71.575 18.763496
71.580 18.550396
71.585 18.180599
71.590 18.525602
71.595 18.957312
71.600 18.865803
71.605 18.209522
71.610 17.524996
71.615 17.369396
71.620 17.8503
71.625 18.12682
71.630 18.374357
71.635 18.812941
71.640 20.189157
71.645 20.794222
71.650 20.933395
71.655 20.103174
71.660 19.865549
71.665 19.567949
71.670 19.209545
71.675 18.847408
71.680 18.458078
71.685 18.682066
71.690 19.208422
71.695 18.981752
71.700 19.542988
71.705 19.373617
71.710 19.256447
71.715 19.658331
71.720 18.932541
71.725 18.645514
71.730 18.584059
71.735 18.240499
71.740 18.068909
71.745 17.82477
71.750 17.367771
71.755 18.06086
71.760 18.300373
71.765 18.277033
71.770 18.064859
71.775 18.512682
71.780 18.556093
71.785 19.006704
71.790 19.257524
71.795 19.050411
71.800 19.347567
71.805 19.139311
71.810 18.849846
71.815 18.864588
71.820 18.777571
71.825 18.14061
71.830 18.206078
71.835 18.265383
71.840 19.098661
71.845 19.600206
71.850 19.412525
71.855 19.29137
71.860 19.712181
71.865 19.682571
71.870 19.923347
71.875 19.773365
71.880 19.415386
71.885 19.289898
71.890 19.368347
71.895 19.010378
71.900 18.959215
71.905 19.267187
71.910 18.827179
71.915 18.927933
71.920 19.256752
71.925 19.788229
71.930 20.469925
71.935 20.226009
71.940 19.616352
71.945 19.262733
71.950 18.903379
71.955 18.289709
71.960 17.689678
71.965 17.385136
71.970 17.137722
71.975 17.051647
71.980 17.531164
71.985 17.310781
71.990 17.508036
71.995 17.094311
72.000 16.824778
72.005 17.603306
72.010 17.077671
72.015 16.764463
72.020 16.970152
72.025 17.308167
72.030 17.891863
72.035 17.781456
72.040 17.929756
72.045 18.236416
72.050 18.129768
72.055 18.244076
72.060 18.472937
72.065 18.897068
72.070 18.987581
72.075 18.536961
72.080 18.472176
72.085 18.745184
72.090 17.951069
72.095 17.401196
72.100 17.029274
72.105 16.932713
72.110 16.96456
72.115 17.309538
72.120 17.656239
72.125 18.003298
72.130 18.163031
72.135 17.962963
72.140 18.146786
72.145 18.516514
72.150 17.856255
72.155 17.763676
72.160 17.411219
72.165 16.932302
72.170 16.597589
72.175 16.393822
72.180 16.549118
72.185 16.963678
72.190 16.997381
72.195 17.475571
72.200 17.790781
72.205 17.700476
72.210 17.999352
72.215 17.877245
72.220 17.639631
72.225 17.499933
72.230 17.584257
72.235 18.048473
72.240 18.118908
72.245 18.50272
72.250 18.660725
72.255 18.696291
72.260 18.60268
72.265 18.883856
72.270 18.77146
72.275 18.036707
72.280 17.558414
72.285 17.506807
72.290 17.383646
72.295 16.851765
72.300 16.840054
72.305 17.045542
72.310 17.442307
72.315 17.545937
72.320 17.697542
72.325 17.909897
72.330 18.043938
72.335 17.924185
72.340 17.929976
72.345 17.658468
72.350 17.226292
72.355 17.358089
72.360 17.214691
72.365 17.548426
72.370 17.730867
72.375 18.365513
72.380 18.431915
72.385 18.842325
72.390 18.543985
72.395 18.639454
72.400 18.327898
72.405 18.073456
72.410 17.804785
72.415 17.975794
72.420 18.289534
72.425 18.644718
72.430 18.513042
72.435 18.545246
72.440 18.260731
72.445 18.640415
72.450 18.458731
72.455 17.960693
72.460 18.405771
72.465 18.442879
72.470 18.883272
72.475 19.099794
72.480 18.955078
72.485 18.913132
72.490 18.422644
72.495 17.985411
72.500 17.855711
72.505 17.51889
72.510 17.260405
72.515 16.954668
72.520 17.116318
72.525 17.769224
72.530 17.774374
72.535 17.959803
72.540 18.050146
72.545 18.270565
72.550 18.28528
72.555 18.143091
72.560 17.799004
72.565 17.627069
72.570 17.242918
72.575 17.548775
72.580 17.579142
72.585 17.679615
72.590 17.416021
72.595 18.023952
72.600 18.742409
72.605 18.429756
72.610 17.948277
72.615 17.682976
72.620 17.945425
72.625 18.682854
72.630 17.87022
72.635 17.215601
72.640 17.164654
72.645 17.03681
72.650 17.187723
72.655 17.186264
72.660 16.856297
72.665 17.416025
72.670 17.537827
72.675 17.809395
72.680 17.937426
72.685 17.630484
72.690 17.404074
72.695 16.637486
72.700 16.138714
72.705 16.394814
72.710 16.249516
72.715 16.223553
72.720 16.651833
72.725 17.402683
72.730 18.100935
72.735 18.821787
72.740 18.492247
72.745 18.712164
72.750 18.480682
72.755 18.098742
72.760 17.557234
72.765 18.079294
72.770 17.792965
72.775 18.234715
72.780 18.170893
72.785 18.049637
72.790 17.617809
72.795 16.940607
72.800 15.927523
72.805 16.168421
72.810 15.898155
72.815 16.207829
72.820 16.55702
72.825 16.830257
72.830 16.680325
72.835 17.460794
72.840 17.604256
72.845 17.712515
72.850 17.607496
72.855 17.180386
72.860 17.645538
72.865 18.016001
72.870 17.484222
72.875 16.785387
72.880 16.51354
72.885 16.241646
72.890 16.182741
72.895 16.13616
72.900 15.870521
72.905 16.152851
72.910 15.847319
72.915 15.83314
72.920 16.424856
72.925 16.037302
72.930 15.330356
72.935 15.230673
72.940 15.372168
72.945 16.138489
72.950 16.154259
72.955 16.395744
72.960 17.151592
72.965 17.474329
72.970 17.632549
72.975 17.859745
72.980 17.725323
72.985 17.290234
72.990 16.838713
72.995 16.68782
73.000 16.833458
