!@!!GADDS PLOTSO FILE: Chi integration type
!@!!Title/SampleName: map-1e
!@!!Comment: ?
!@!!User: Bruker Instrument Administrator
!@!!Site: University of Illinois Chicago
!@!!Frame: map-1e_01_000.gfrm
!@!!Wavelengths    1.54184   1.54056   1.54439
!@!!Frame angles: 2Theta: 63.000 Omega: 50.000 Phi: 0.000 Chi: 90.000
!@!!Integration range: 2Theta: 53.000 to 73.000  Gamma: -105.000 to -75.000
!@!!Integration method: bin normalized
!@!N
!@!SS
!@!M
!@!L 0.0 0.0 0.0 0.0
!@!XDegrees
!@!YCounts
53.000 7.591165
53.005 7.504845
53.010 7.515353
53.015 7.714137
53.020 7.834593
53.025 7.821072
53.030 8.15903
53.035 8.52811
53.040 8.824471
53.045 8.467276
53.050 8.276054
53.055 8.238174
53.060 8.000769
53.065 7.579219
53.070 7.562549
53.075 7.762702
53.080 8.152887
53.085 8.163354
53.090 8.536407
53.095 9.055649
53.100 8.851572
53.105 8.502693
53.110 8.440877
53.115 9.079568
53.120 9.078105
53.125 9.002353
53.130 8.972595
53.135 9.343216
53.140 9.499781
53.145 8.861105
53.150 8.413479
53.155 8.11907
53.160 7.707637
53.165 7.616341
53.170 7.619955
53.175 7.853938
53.180 7.991016
53.185 7.941987
53.190 8.205811
53.195 8.713964
53.200 8.820856
53.205 8.475769
53.210 8.140262
53.215 8.443296
53.220 8.407456
53.225 8.172172
53.230 7.897861
53.235 7.87003
53.240 7.840507
53.245 8.133053
53.250 8.537971
53.255 8.438537
53.260 8.234802
53.265 8.262209
53.270 8.617226
53.275 8.990731
53.280 8.993716
53.285 9.121521
53.290 9.671016
53.295 9.953294
53.300 9.794253
53.305 9.391327
53.310 8.935987
53.315 8.824313
53.320 8.974778
53.325 8.542524
53.330 8.636658
53.335 9.118494
53.340 9.475683
53.345 9.270538
53.350 8.580018
53.355 8.653799
53.360 9.364307
53.365 9.763303
53.370 9.308768
53.375 9.511847
53.380 9.839516
53.385 9.860806
53.390 9.897694
53.395 9.394892
53.400 9.00587
53.405 9.133208
53.410 9.079482
53.415 9.3583
53.420 9.18476
53.425 8.911499
53.430 8.869759
53.435 9.17829
53.440 8.655139
53.445 8.35594
53.450 8.259592
53.455 8.07067
53.460 8.164854
53.465 7.806717
53.470 7.472749
53.475 7.65707
53.480 7.817569
53.485 7.901143
53.490 8.336582
53.495 8.090412
53.500 8.326167
53.505 8.288058
53.510 8.212732
53.515 8.033001
53.520 7.789787
53.525 7.676177
53.530 7.863498
53.535 8.069641
53.540 8.052273
53.545 8.296329
53.550 8.647134
53.555 8.815609
53.560 8.66802
53.565 8.291133
53.570 8.236624
53.575 8.679729
53.580 8.626405
53.585 8.755322
53.590 8.912191
53.595 9.051601
53.600 9.469013
53.605 9.541808
53.610 9.299497
53.615 9.524451
53.620 9.206367
53.625 9.218395
53.630 9.224956
53.635 8.65283
53.640 8.461581
53.645 8.423059
53.650 8.138026
53.655 8.287878
53.660 8.663522
53.665 8.448565
53.670 8.809489
53.675 8.80778
53.680 8.497969
53.685 8.754285
53.690 8.697952
53.695 8.366935
53.700 8.905202
53.705 9.044439
53.710 9.023628
53.715 9.37724
53.720 9.134102
53.725 8.574146
53.730 8.544913
53.735 8.342367
53.740 8.678196
53.745 8.945053
53.750 8.499988
53.755 8.710675
53.760 9.425009
53.765 10.039187
53.770 9.77037
53.775 9.434133
53.780 9.578359
53.785 10.113074
53.790 10.199543
53.795 9.765882
53.800 10.089496
53.805 10.582888
53.810 10.681364
53.815 10.474935
53.820 10.285419
53.825 10.3737
53.830 10.299228
53.835 9.788684
53.840 9.364676
53.845 9.393572
53.850 9.476036
53.855 9.151277
53.860 8.762353
53.865 8.509534
53.870 8.307262
53.875 8.194648
53.880 8.135024
53.885 7.984651
53.890 8.148682
53.895 8.350816
53.900 8.209492
53.905 8.309587
53.910 8.607077
53.915 8.773232
53.920 9.288063
53.925 9.326243
53.930 9.798605
53.935 10.085086
53.940 10.172358
53.945 10.209652
53.950 10.253965
53.955 9.7991
53.960 9.565286
53.965 9.14689
53.970 9.169068
53.975 9.475144
53.980 9.497303
53.985 9.151499
53.990 9.266292
53.995 9.802052
54.000 9.858295
54.005 9.419721
54.010 8.887713
54.015 8.934754
54.020 9.128699
54.025 8.869439
54.030 8.753032
54.035 8.991289
54.040 9.647065
54.045 10.175188
54.050 10.395042
54.055 10.466825
54.060 10.647677
54.065 10.60503
54.070 10.600712
54.075 10.304489
54.080 9.938743
54.085 9.941213
54.090 10.228924
54.095 10.43441
54.100 10.019084
54.105 9.069495
54.110 9.097753
54.115 9.051846
54.120 8.924149
54.125 8.374496
54.130 8.05115
54.135 8.781497
54.140 9.842975
54.145 9.654175
54.150 9.260745
54.155 9.286344
54.160 9.617101
54.165 9.880075
54.170 9.909112
54.175 9.883131
54.180 10.20565
54.185 10.408566
54.190 10.09839
54.195 10.119462
54.200 10.117685
54.205 9.609363
54.210 9.296964
54.215 9.254315
54.220 9.360654
54.225 9.56719
54.230 9.775111
54.235 10.46652
54.240 10.4986
54.245 10.627687
54.250 10.340776
54.255 9.909783
54.260 10.073741
54.265 9.456104
54.270 9.082133
54.275 9.148067
54.280 8.917867
54.285 8.832799
54.290 9.033751
54.295 8.829359
54.300 9.360034
54.305 9.593241
54.310 9.9922
54.315 10.669639
54.320 10.753049
54.325 10.760148
54.330 10.64937
54.335 10.59415
54.340 10.419304
54.345 9.895217
54.350 9.432485
54.355 9.109884
54.360 8.756147
54.365 8.757397
54.370 8.091223
54.375 8.052827
54.380 8.445057
54.385 8.864378
54.390 9.28758
54.395 9.925718
54.400 10.026297
54.405 10.424994
54.410 10.363386
54.415 10.162795
54.420 10.404182
54.425 10.338806
54.430 10.203702
54.435 10.127923
54.440 10.386685
54.445 10.637461
54.450 11.028752
54.455 11.014798
54.460 10.619148
54.465 10.451677
54.470 10.116904
54.475 9.874902
54.480 9.345226
54.485 8.94108
54.490 9.341066
54.495 9.605209
54.500 9.473186
54.505 9.20162
54.510 9.372454
54.515 9.294394
54.520 9.249882
54.525 8.904323
54.530 9.05346
54.535 9.185664
54.540 9.707033
54.545 9.810413
54.550 10.114623
54.555 9.96645
54.560 10.134831
54.565 10.360215
54.570 10.155607
54.575 9.922848
54.580 10.128587
54.585 10.234911
54.590 10.00894
54.595 9.972905
54.600 10.07881
54.605 10.111738
54.610 9.497155
54.615 9.363565
54.620 9.739126
54.625 10.160467
54.630 10.11222
54.635 10.30623
54.640 10.22156
54.645 9.843378
54.650 9.733866
54.655 9.627187
54.660 9.591094
54.665 9.423771
54.670 9.13118
54.675 9.837161
54.680 10.459542
54.685 10.38974
54.690 10.15
54.695 9.975447
54.700 10.276073
54.705 10.511261
54.710 10.027852
54.715 9.813335
54.720 9.752092
54.725 9.736181
54.730 9.993344
54.735 9.682311
54.740 9.83922
54.745 9.602703
54.750 9.204068
54.755 8.673141
54.760 8.564978
54.765 8.475565
54.770 8.796347
54.775 9.061891
54.780 9.744401
54.785 10.597941
54.790 11.094704
54.795 11.339722
54.800 11.290865
54.805 11.033545
54.810 11.051343
54.815 10.943525
54.820 10.681767
54.825 11.063741
54.830 11.438095
54.835 11.535195
54.840 11.852079
54.845 11.567886
54.850 11.783212
54.855 11.540872
54.860 11.107696
54.865 11.007115
54.870 10.697954
54.875 10.520268
54.880 11.049527
54.885 11.441594
54.890 12.200276
54.895 12.220411
54.900 12.097179
54.905 12.254622
54.910 12.057618
54.915 11.568843
54.920 11.025058
54.925 10.327804
54.930 10.197121
54.935 10.150043
54.940 9.997273
54.945 10.095025
54.950 10.118956
54.955 10.270413
54.960 10.583509
54.965 10.519541
54.970 10.623015
54.975 10.570432
54.980 10.448751
54.985 10.364668
54.990 10.098523
54.995 9.755648
55.000 9.943026
55.005 9.966695
55.010 10.029144
55.015 10.378983
55.020 10.288113
55.025 10.571818
55.030 10.865624
55.035 11.064478
55.040 11.084963
55.045 11.189779
55.050 11.440439
55.055 11.618976
55.060 11.85268
55.065 11.818253
55.070 11.519617
55.075 11.673538
55.080 11.740451
55.085 11.467156
55.090 11.301445
55.095 11.182006
55.100 10.849372
55.105 10.996176
55.110 10.434762
55.115 10.224823
55.120 9.894
55.125 9.429179
55.130 9.101859
55.135 9.002241
55.140 8.978352
55.145 9.286701
55.150 9.935133
55.155 10.611881
55.160 11.087437
55.165 11.371844
55.170 11.62446
55.175 11.370916
55.180 11.091897
55.185 10.493107
55.190 10.531529
55.195 10.147128
55.200 9.943113
55.205 9.933775
55.210 10.234111
55.215 10.209593
55.220 10.250033
55.225 10.044772
55.230 10.295097
55.235 10.843636
55.240 10.87021
55.245 10.913391
55.250 10.934466
55.255 10.591696
55.260 10.651069
55.265 10.581157
55.270 10.522325
55.275 10.47939
55.280 10.449752
55.285 10.30379
55.290 10.832523
55.295 10.88455
55.300 11.309175
55.305 11.303021
55.310 11.458252
55.315 11.689824
55.320 11.675847
55.325 11.762902
55.330 11.486383
55.335 11.03317
55.340 10.962281
55.345 10.696848
55.350 10.808758
55.355 10.701566
55.360 10.322166
55.365 10.092946
55.370 10.161853
55.375 10.226841
55.380 10.818649
55.385 10.955024
55.390 11.058705
55.395 11.2285
55.400 11.486339
55.405 11.606228
55.410 11.14485
55.415 10.523901
55.420 10.618525
55.425 10.818062
55.430 11.210533
55.435 11.225739
55.440 11.579207
55.445 11.845419
55.450 12.090011
55.455 11.557873
55.460 11.576131
55.465 11.748176
55.470 11.824206
55.475 11.551869
55.480 11.608079
55.485 11.389035
55.490 11.478984
55.495 11.457335
55.500 11.296134
55.505 11.391098
55.510 11.802086
55.515 12.279496
55.520 12.53841
55.525 12.526231
55.530 12.459819
55.535 12.541595
55.540 12.45958
55.545 12.021558
55.550 11.692149
55.555 11.846928
55.560 12.346062
55.565 12.271688
55.570 11.989569
55.575 11.885359
55.580 12.124873
55.585 12.391039
55.590 12.484309
55.595 12.016419
55.600 12.363853
55.605 12.255322
55.610 12.077823
55.615 11.30787
55.620 11.028065
55.625 10.685455
55.630 10.455306
55.635 10.06424
55.640 9.960146
55.645 9.977551
55.650 10.185658
55.655 10.322366
55.660 10.200495
55.665 10.52928
55.670 10.75974
55.675 10.807553
55.680 11.076843
55.685 11.077755
55.690 10.767531
55.695 11.432093
55.700 11.005909
55.705 10.554842
55.710 10.37115
55.715 10.129948
55.720 10.310218
55.725 10.432452
55.730 9.88722
55.735 10.448848
55.740 10.841253
55.745 11.359193
55.750 11.33418
55.755 10.950396
55.760 10.917008
55.765 11.463251
55.770 11.34476
55.775 10.821482
55.780 10.502045
55.785 10.899234
55.790 11.388746
55.795 11.390561
55.800 10.99899
55.805 11.090001
55.810 11.257513
55.815 10.984568
55.820 10.44075
55.825 10.226518
55.830 10.350413
55.835 10.839037
55.840 10.962924
55.845 11.258755
55.850 11.642141
55.855 11.965158
55.860 12.109993
55.865 12.03325
55.870 11.924553
55.875 11.78269
55.880 11.793749
55.885 11.875193
55.890 12.099136
55.895 11.824038
55.900 12.039907
55.905 11.921211
55.910 12.22702
55.915 12.284528
55.920 12.247382
55.925 11.986901
55.930 11.970654
55.935 11.645802
55.940 11.988768
55.945 12.183026
55.950 12.019088
55.955 11.791216
55.960 12.284242
55.965 12.80038
55.970 13.028169
55.975 12.840332
55.980 12.487584
55.985 12.567048
55.990 12.300222
55.995 11.44992
56.000 11.021448
56.005 10.464971
56.010 10.916835
56.015 11.017426
56.020 11.012186
56.025 11.423134
56.030 11.925121
56.035 12.002252
56.040 11.831347
56.045 11.107614
56.050 10.940732
56.055 10.594318
56.060 10.747345
56.065 10.488311
56.070 10.319393
56.075 10.623375
56.080 10.792377
56.085 10.854961
56.090 11.10618
56.095 11.051644
56.100 11.371933
56.105 11.635616
56.110 12.095324
56.115 12.531931
56.120 12.752237
56.125 12.984321
56.130 12.882967
56.135 12.863975
56.140 12.691795
56.145 12.132522
56.150 12.062785
56.155 12.047359
56.160 11.840398
56.165 11.575562
56.170 11.4642
56.175 11.554135
56.180 11.899796
56.185 11.932811
56.190 11.95161
56.195 11.986929
56.200 11.718698
56.205 11.301551
56.210 11.254704
56.215 11.462868
56.220 11.840117
56.225 12.058628
56.230 12.67717
56.235 13.23816
56.240 13.56808
56.245 13.723021
56.250 13.059711
56.255 12.850204
56.260 12.657446
56.265 12.402672
56.270 12.691392
56.275 12.773844
56.280 12.840287
56.285 13.09651
56.290 12.981055
56.295 12.977977
56.300 12.69302
56.305 12.184486
56.310 11.624546
56.315 11.423657
56.320 11.357766
56.325 11.081368
56.330 10.81243
56.335 11.238375
56.340 11.549141
56.345 12.308756
56.350 12.600899
56.355 12.135291
56.360 12.013251
56.365 12.17028
56.370 11.5379
56.375 11.734643
56.380 11.436015
56.385 11.432869
56.390 11.967501
56.395 12.565405
56.400 12.604689
56.405 13.203341
56.410 12.824394
56.415 12.651197
56.420 12.6821
56.425 12.374228
56.430 12.226869
56.435 12.01269
56.440 11.439434
56.445 11.977532
56.450 11.809649
56.455 11.660062
56.460 11.688416
56.465 11.615638
56.470 11.643278
56.475 11.711156
56.480 11.43529
56.485 11.873335
56.490 12.439549
56.495 12.303845
56.500 12.326318
56.505 12.823099
56.510 13.3072
56.515 13.351633
56.520 13.034006
56.525 12.763208
56.530 13.018738
56.535 12.647025
56.540 12.501942
56.545 12.258782
56.550 12.09316
56.555 11.738054
56.560 11.839003
56.565 12.267541
56.570 12.596868
56.575 12.976888
56.580 13.070893
56.585 13.3649
56.590 13.839183
56.595 13.353949
56.600 13.384815
56.605 13.62469
56.610 13.36765
56.615 13.306042
56.620 13.458603
56.625 13.241705
56.630 13.294242
56.635 12.527605
56.640 11.814249
56.645 11.537071
56.650 11.575762
56.655 11.299491
56.660 11.370874
56.665 11.45143
56.670 11.675624
56.675 11.759105
56.680 11.894025
56.685 11.337363
56.690 11.369232
56.695 11.185154
56.700 10.953966
56.705 10.838306
56.710 11.053384
56.715 10.846143
56.720 10.740526
56.725 11.152483
56.730 11.530632
56.735 11.963296
56.740 12.520764
56.745 13.018962
56.750 13.426676
56.755 13.839742
56.760 13.160736
56.765 12.850749
56.770 12.551144
56.775 11.91549
56.780 11.096186
56.785 10.623757
56.790 10.976557
56.795 11.561178
56.800 11.946056
56.805 12.189135
56.810 12.779147
56.815 13.449224
56.820 13.55131
56.825 13.577894
56.830 13.645731
56.835 14.392298
56.840 14.239315
56.845 14.153198
56.850 14.200033
56.855 14.067065
56.860 13.489438
56.865 13.151405
56.870 12.484097
56.875 12.292743
56.880 12.172916
56.885 11.890941
56.890 12.311556
56.895 12.774056
56.900 13.055363
56.905 12.562814
56.910 12.435496
56.915 12.294205
56.920 12.410001
56.925 12.552644
56.930 12.243715
56.935 12.450799
56.940 12.717486
56.945 13.032071
56.950 13.139083
56.955 12.897641
56.960 12.530154
56.965 12.468925
56.970 12.042263
56.975 12.573249
56.980 12.788221
56.985 13.119582
56.990 13.085523
56.995 13.121685
57.000 13.547979
57.005 13.676551
57.010 13.423003
57.015 13.124031
57.020 13.164643
57.025 13.756964
57.030 14.051965
57.035 14.008589
57.040 13.836761
57.045 13.977215
57.050 14.56776
57.055 14.494607
57.060 14.250813
57.065 14.348114
57.070 14.003251
57.075 14.175568
57.080 13.932221
57.085 13.162687
57.090 12.71665
57.095 12.506691
57.100 12.172992
57.105 12.494837
57.110 12.799123
57.115 13.375565
57.120 13.403336
57.125 13.925058
57.130 14.363392
57.135 14.584574
57.140 14.824809
57.145 14.784681
57.150 14.325041
57.155 14.56916
57.160 14.465822
57.165 14.279864
57.170 13.756132
57.175 13.243812
57.180 12.701999
57.185 12.44682
57.190 12.183388
57.195 11.890483
57.200 11.548988
57.205 11.618567
57.210 11.75866
57.215 12.469345
57.220 13.052011
57.225 13.5461
57.230 13.617151
57.235 13.862041
57.240 14.298575
57.245 13.958302
57.250 13.291199
57.255 12.667115
57.260 12.466644
57.265 12.984032
57.270 13.225619
57.275 12.919007
57.280 12.943546
57.285 13.133413
57.290 13.277928
57.295 12.859518
57.300 12.56234
57.305 12.35218
57.310 12.344282
57.315 12.809625
57.320 12.808558
57.325 13.184839
57.330 13.940584
57.335 14.272346
57.340 14.411444
57.345 14.611827
57.350 15.208633
57.355 15.283197
57.360 14.834229
57.365 14.465961
57.370 14.689331
57.375 15.099646
57.380 15.075192
57.385 14.303605
57.390 14.385404
57.395 14.283266
57.400 13.682866
57.405 13.306103
57.410 12.999951
57.415 12.973673
57.420 12.9458
57.425 13.199557
57.430 13.308913
57.435 13.584119
57.440 13.570134
57.445 13.487654
57.450 13.39973
57.455 13.178863
57.460 12.90557
57.465 13.299159
57.470 13.478913
57.475 13.290195
57.480 13.424409
57.485 13.669647
57.490 14.239677
57.495 14.398771
57.500 14.622356
57.505 15.192395
57.510 14.937883
57.515 14.619702
57.520 14.767168
57.525 14.690471
57.530 14.769575
57.535 14.155725
57.540 13.410564
57.545 13.303195
57.550 13.660898
57.555 13.327538
57.560 13.332459
57.565 13.303905
57.570 13.43863
57.575 13.86004
57.580 14.181188
57.585 13.848908
57.590 13.629485
57.595 13.259157
57.600 13.30055
57.605 12.75964
57.610 12.772961
57.615 12.864882
57.620 13.091712
57.625 13.700438
57.630 14.585858
57.635 14.862551
57.640 15.55963
57.645 15.71583
57.650 16.299223
57.655 16.529831
57.660 16.291752
57.665 15.861347
57.670 15.492834
57.675 15.268274
57.680 15.189534
57.685 14.693288
57.690 14.51988
57.695 14.458368
57.700 14.303317
57.705 13.955566
57.710 13.710835
57.715 13.708076
57.720 13.556766
57.725 13.948746
57.730 13.958815
57.735 14.180795
57.740 14.693002
57.745 15.242561
57.750 15.77107
57.755 15.480851
57.760 15.316612
57.765 14.87337
57.770 14.682494
57.775 14.773395
57.780 14.246822
57.785 13.830599
57.790 13.880415
57.795 14.087378
57.800 14.482825
57.805 14.805706
57.810 14.711719
57.815 14.783588
57.820 14.326466
57.825 14.388768
57.830 14.201213
57.835 13.914323
57.840 14.051769
57.845 14.162538
57.850 14.708364
57.855 15.704519
57.860 15.496367
57.865 15.496046
57.870 15.747807
57.875 15.663275
57.880 15.99363
57.885 15.614298
57.890 15.222184
57.895 15.339326
57.900 15.255966
57.905 15.395941
57.910 15.239808
57.915 14.928366
57.920 14.687187
57.925 14.740511
57.930 14.662606
57.935 14.569178
57.940 13.920465
57.945 13.840322
57.950 14.105001
57.955 14.126539
57.960 14.063688
57.965 14.732299
57.970 14.620948
57.975 14.90742
57.980 14.71746
57.985 14.901039
57.990 15.088216
57.995 15.044301
58.000 14.988525
58.005 15.864882
58.010 16.260761
58.015 16.003695
58.020 15.456105
58.025 15.264068
58.030 15.466222
58.035 15.163627
58.040 15.135448
58.045 15.315416
58.050 15.744949
58.055 16.220684
58.060 16.359825
58.065 15.850541
58.070 15.739691
58.075 15.063322
58.080 14.422905
58.085 14.26786
58.090 13.880501
58.095 13.901315
58.100 14.012045
58.105 14.009053
58.110 14.188225
58.115 14.488667
58.120 13.933524
58.125 14.133805
58.130 14.200363
58.135 14.518349
58.140 14.95902
58.145 15.132195
58.150 15.218014
58.155 15.255451
58.160 15.27156
58.165 15.6813
58.170 15.907817
58.175 15.471598
58.180 14.813148
58.185 14.833002
58.190 15.438251
58.195 15.017067
58.200 14.586653
58.205 14.637794
58.210 15.284035
58.215 16.326069
58.220 16.440319
58.225 16.576834
58.230 16.60289
58.235 16.932745
58.240 16.931894
58.245 16.982401
58.250 16.606264
58.255 16.447096
58.260 16.216719
58.265 16.151211
58.270 16.025345
58.275 15.593116
58.280 15.55304
58.285 16.045389
58.290 16.674946
58.295 16.708012
58.300 17.133842
58.305 17.146858
58.310 17.001364
58.315 15.682606
58.320 15.436731
58.325 15.308432
58.330 15.207063
58.335 15.004074
58.340 15.497364
58.345 16.320854
58.350 17.085649
58.355 16.914774
58.360 16.784298
58.365 17.867115
58.370 18.52199
58.375 18.401302
58.380 17.782774
58.385 17.591953
58.390 17.711185
58.395 18.250347
58.400 17.930696
58.405 17.430559
58.410 17.761244
58.415 18.703588
58.420 19.279142
58.425 19.461811
58.430 19.109518
58.435 19.589231
58.440 19.622171
58.445 19.405048
58.450 19.170704
58.455 19.189199
58.460 18.777454
58.465 18.871435
58.470 18.648867
58.475 18.479216
58.480 18.062704
58.485 18.012934
58.490 18.718399
58.495 19.221743
58.500 19.294294
58.505 19.238955
58.510 19.490015
58.515 19.909491
58.520 20.120756
58.525 19.386766
58.530 19.438152
58.535 19.02944
58.540 18.850037
58.545 19.040827
58.550 19.219057
58.555 19.376297
58.560 19.911633
58.565 19.059206
58.570 19.377781
58.575 19.253908
58.580 18.637417
58.585 18.480158
58.590 18.13237
58.595 18.238708
58.600 18.660143
58.605 18.288578
58.610 18.290001
58.615 18.625687
58.620 18.911121
58.625 19.067726
58.630 19.131187
58.635 19.361492
58.640 20.018744
58.645 20.422583
58.650 20.34885
58.655 19.664516
58.660 19.428318
58.665 19.160852
58.670 19.1723
58.675 19.140541
58.680 19.033733
58.685 19.25477
58.690 19.961454
58.695 20.153973
58.700 20.231915
58.705 19.745386
58.710 19.271765
58.715 19.286335
58.720 18.982508
58.725 18.391703
58.730 18.119225
58.735 18.456085
58.740 19.070114
58.745 19.172232
58.750 18.908632
58.755 18.562107
58.760 18.684481
58.765 18.579117
58.770 18.424652
58.775 18.319286
58.780 18.941412
58.785 19.387144
58.790 19.692099
58.795 20.080284
58.800 20.523209
58.805 20.083895
58.810 18.997417
58.815 18.71349
58.820 18.93428
58.825 19.233337
58.830 18.993231
58.835 18.654961
58.840 18.709631
58.845 19.350466
58.850 19.408035
58.855 19.423185
58.860 19.281897
58.865 19.262573
58.870 19.082903
58.875 18.708828
58.880 18.53356
58.885 18.352722
58.890 17.791813
58.895 17.700172
58.900 17.66227
58.905 18.008205
58.910 18.435007
58.915 18.132654
58.920 17.813166
58.925 17.922346
58.930 17.860233
58.935 17.93362
58.940 18.063992
58.945 18.735144
58.950 19.058306
58.955 19.164721
58.960 19.360195
58.965 19.378412
58.970 19.387976
58.975 19.668919
58.980 19.068871
58.985 18.390459
58.990 18.591856
58.995 18.358044
59.000 17.436251
59.005 17.605713
59.010 16.837357
59.015 17.078997
59.020 17.354416
59.025 17.255096
59.030 17.259893
59.035 17.554657
59.040 17.509808
59.045 17.704226
59.050 17.939737
59.055 18.490999
59.060 18.406771
59.065 18.022326
59.070 18.231075
59.075 17.876554
59.080 17.38135
59.085 16.790888
59.090 16.244381
59.095 16.007208
59.100 16.564846
59.105 16.317209
59.110 16.635279
59.115 17.192297
59.120 17.568184
59.125 18.199806
59.130 17.950777
59.135 17.971031
59.140 17.94874
59.145 17.571709
59.150 17.494169
59.155 17.215504
59.160 17.104939
59.165 17.354746
59.170 17.663464
59.175 18.092995
59.180 17.925705
59.185 17.770248
59.190 18.05706
59.195 17.774731
59.200 18.118498
59.205 17.909735
59.210 17.866051
59.215 17.999758
59.220 17.647264
59.225 17.464973
59.230 17.192587
59.235 16.287369
59.240 16.091322
59.245 16.16897
59.250 16.645683
59.255 16.825594
59.260 16.581373
59.265 17.163092
59.270 17.947014
59.275 17.957125
59.280 17.774271
59.285 17.624298
59.290 17.654303
59.295 17.623457
59.300 17.233858
59.305 17.116848
59.310 17.222622
59.315 17.260855
59.320 16.807871
59.325 16.570311
59.330 16.901747
59.335 17.323355
59.340 17.050291
59.345 16.934374
59.350 16.870192
59.355 17.160452
59.360 18.015034
59.365 18.258484
59.370 18.214008
59.375 18.150942
59.380 18.027298
59.385 18.321997
59.390 18.623327
59.395 18.318291
59.400 17.985109
59.405 17.42634
59.410 17.404837
59.415 17.582451
59.420 17.426832
59.425 17.017342
59.430 16.441076
59.435 16.427696
59.440 16.753099
59.445 17.592299
59.450 17.565405
59.455 17.608192
59.460 18.273071
59.465 19.13859
59.470 18.966908
59.475 18.890358
59.480 18.46784
59.485 18.568346
59.490 18.556007
59.495 18.114464
59.500 17.80438
59.505 17.75518
59.510 17.694483
59.515 17.615362
59.520 17.431507
59.525 17.196077
59.530 16.76482
59.535 16.912186
59.540 17.380751
59.545 17.823977
59.550 18.165356
59.555 18.748236
59.560 19.37709
59.565 19.78849
59.570 19.197359
59.575 19.313377
59.580 19.228704
59.585 18.650801
59.590 18.166794
59.595 17.497749
59.600 17.504871
59.605 18.301704
59.610 18.072912
59.615 17.880314
59.620 17.431292
59.625 17.273384
59.630 17.145563
59.635 16.936991
59.640 16.806591
59.645 16.655785
59.650 16.284557
59.655 16.641294
59.660 17.119537
59.665 17.28986
59.670 16.97695
59.675 16.982454
59.680 17.441772
59.685 17.706213
59.690 17.860342
59.695 17.816809
59.700 18.958664
59.705 20.026196
59.710 20.548512
59.715 20.306181
59.720 20.062105
59.725 20.155762
59.730 19.993608
59.735 19.614653
59.740 19.53903
59.745 18.419464
59.750 18.241636
59.755 18.681372
59.760 18.843901
59.765 19.418734
59.770 19.101709
59.775 18.908672
59.780 19.363468
59.785 19.39369
59.790 19.000502
59.795 19.153046
59.800 19.508982
59.805 19.157877
59.810 19.173582
59.815 19.174692
59.820 19.354269
59.825 18.974895
59.830 18.574574
59.835 18.215862
59.840 18.221466
59.845 18.323725
59.850 18.438942
59.855 18.269882
59.860 18.65217
59.865 18.462711
59.870 18.103968
59.875 17.504488
59.880 17.578852
59.885 17.820543
59.890 18.131346
59.895 18.331064
59.900 18.197725
59.905 18.308071
59.910 19.051451
59.915 19.010883
59.920 18.818266
59.925 19.26021
59.930 18.969391
59.935 19.495174
59.940 19.188515
59.945 18.720127
59.950 18.597429
59.955 18.232573
59.960 17.494638
59.965 17.371557
59.970 16.884464
59.975 16.925919
59.980 16.966732
59.985 17.073818
59.990 17.30768
59.995 17.635721
60.000 17.949148
60.005 17.894165
60.010 17.778683
60.015 17.450005
60.020 17.523829
60.025 17.472435
60.030 17.529709
60.035 17.006805
60.040 17.378983
60.045 17.94257
60.050 18.819279
60.055 18.977922
60.060 19.20286
60.065 19.639898
60.070 20.180677
60.075 20.239494
60.080 20.179033
60.085 20.264204
60.090 20.804279
60.095 21.132668
60.100 20.88798
60.105 20.957142
60.110 20.909281
60.115 20.813993
60.120 20.800268
60.125 19.911728
60.130 19.796381
60.135 19.684229
60.140 19.407135
60.145 19.638084
60.150 19.457296
60.155 19.49156
60.160 19.511393
60.165 19.480322
60.170 19.635628
60.175 19.646664
60.180 19.557919
60.185 19.507744
60.190 18.631584
60.195 19.117077
60.200 19.459845
60.205 19.734293
60.210 19.840746
60.215 19.374025
60.220 19.00741
60.225 19.478239
60.230 19.470732
60.235 18.986038
60.240 18.819458
60.245 19.061926
60.250 19.628126
60.255 20.203579
60.260 20.198469
60.265 19.566706
60.270 19.359177
60.275 19.850559
60.280 20.450373
60.285 19.778584
60.290 19.964302
60.295 20.268978
60.300 20.192516
60.305 20.009705
60.310 19.086361
60.315 18.469086
60.320 19.053677
60.325 18.088697
60.330 17.106833
60.335 17.458267
60.340 17.608603
60.345 18.342299
60.350 18.226564
60.355 18.360273
60.360 19.235786
60.365 19.764029
60.370 19.516548
60.375 19.747049
60.380 19.843403
60.385 20.19145
60.390 19.860619
60.395 19.767162
60.400 19.963692
60.405 19.583576
60.410 19.102242
60.415 18.452166
60.420 17.83238
60.425 17.852905
60.430 17.297024
60.435 16.77944
60.440 16.767899
60.445 16.479507
60.450 15.974584
60.455 15.982285
60.460 16.159424
60.465 16.990671
60.470 17.389986
60.475 17.515427
60.480 17.418131
60.485 18.00631
60.490 18.186684
60.495 17.830753
60.500 17.522547
60.505 17.540646
60.510 17.65881
60.515 18.057575
60.520 17.618244
60.525 17.601768
60.530 17.48185
60.535 17.603756
60.540 17.583014
60.545 17.242338
60.550 16.646011
60.555 16.690863
60.560 16.601288
60.565 16.303057
60.570 16.294043
60.575 16.344637
60.580 16.896561
60.585 17.585463
60.590 17.499905
60.595 17.781595
60.600 17.849638
60.605 17.099865
60.610 16.875822
60.615 16.909559
60.620 16.47653
60.625 16.595821
60.630 16.715416
60.635 16.71649
60.640 16.558083
60.645 16.757946
60.650 16.740351
60.655 16.939466
60.660 16.429562
60.665 16.406418
60.670 16.67124
60.675 16.567654
60.680 16.30496
60.685 15.896022
60.690 16.1159
60.695 16.980938
60.700 16.795719
60.705 17.068583
60.710 17.714762
60.715 17.712811
60.720 17.733011
60.725 17.335226
60.730 16.540596
60.735 16.464287
60.740 16.061649
60.745 15.394094
60.750 15.49055
60.755 15.919995
60.760 16.56464
60.765 17.150339
60.770 17.347403
60.775 17.545774
60.780 17.802294
60.785 17.820559
60.790 17.691481
60.795 17.434715
60.800 17.164993
60.805 16.520725
60.810 17.232018
60.815 17.471603
60.820 16.450352
60.825 16.528038
60.830 16.514364
60.835 16.589327
60.840 16.821428
60.845 16.186676
60.850 16.123421
60.855 16.564064
60.860 16.336599
60.865 15.926209
60.870 15.866452
60.875 15.238537
60.880 15.611859
60.885 16.56465
60.890 16.7328
60.895 16.624701
60.900 16.719034
60.905 16.895752
60.910 17.064598
60.915 16.465902
60.920 16.204138
60.925 16.420824
60.930 16.536133
60.935 16.447475
60.940 16.298937
60.945 16.671995
60.950 16.919121
60.955 16.45816
60.960 16.336353
60.965 16.148283
60.970 15.653549
60.975 15.502013
60.980 16.078928
60.985 16.138224
60.990 15.969466
60.995 16.160025
61.000 16.42153
61.005 16.726528
61.010 17.18821
61.015 16.635077
61.020 16.389193
61.025 16.785597
61.030 16.658939
61.035 16.611513
61.040 16.500313
61.045 16.316225
61.050 16.283075
61.055 15.887861
61.060 15.774211
61.065 15.849311
61.070 15.896726
61.075 16.280382
61.080 16.08952
61.085 16.141884
61.090 16.49465
61.095 16.777161
61.100 16.48073
61.105 16.116318
61.110 16.215435
61.115 16.573908
61.120 16.469967
61.125 16.394279
61.130 15.891338
61.135 15.801976
61.140 15.896186
61.145 15.608168
61.150 15.552859
61.155 15.838483
61.160 16.209002
61.165 16.727076
61.170 17.264507
61.175 17.745737
61.180 17.509232
61.185 17.41453
61.190 17.366358
61.195 16.924517
61.200 16.740904
61.205 16.777243
61.210 16.66189
61.215 17.174229
61.220 17.630634
61.225 17.610023
61.230 17.869295
61.235 17.99411
61.240 18.362812
61.245 18.779564
61.250 18.352139
61.255 18.141296
61.260 18.229071
61.265 18.488235
61.270 18.537748
61.275 18.155989
61.280 17.442396
61.285 17.670263
61.290 17.5168
61.295 17.436052
61.300 16.71526
61.305 16.114716
61.310 15.898647
61.315 16.14393
61.320 15.632918
61.325 14.943841
61.330 14.736454
61.335 15.372189
61.340 15.503879
61.345 15.19306
61.350 15.176635
61.355 15.296632
61.360 15.407414
61.365 16.215193
61.370 16.203459
61.375 16.221573
61.380 16.229765
61.385 15.813053
61.390 16.438492
61.395 16.384127
61.400 15.389073
61.405 14.822865
61.410 14.697351
61.415 15.068533
61.420 15.713993
61.425 15.51977
61.430 15.614179
61.435 15.248844
61.440 15.026304
61.445 15.258353
61.450 15.569379
61.455 15.080643
61.460 15.101838
61.465 15.84548
61.470 16.544954
61.475 17.14048
61.480 16.966248
61.485 16.402168
61.490 17.143248
61.495 17.175423
61.500 16.800951
61.505 16.565245
61.510 16.775797
61.515 16.995493
61.520 17.515913
61.525 17.365883
61.530 17.209412
61.535 17.290037
61.540 17.035961
61.545 16.776012
61.550 16.561417
61.555 15.732919
61.560 15.588076
61.565 15.297893
61.570 15.031466
61.575 15.165488
61.580 14.537691
61.585 14.145036
61.590 14.34735
61.595 14.441745
61.600 15.018105
61.605 15.4851
61.610 15.959949
61.615 16.623127
61.620 16.964703
61.625 16.462681
61.630 16.44219
61.635 16.150845
61.640 15.613774
61.645 16.078588
61.650 16.206181
61.655 16.37108
61.660 16.685377
61.665 16.365252
61.670 16.641121
61.675 16.998613
61.680 16.140385
61.685 15.916333
61.690 15.862636
61.695 15.630877
61.700 15.275294
61.705 14.699178
61.710 14.735213
61.715 14.829736
61.720 14.353783
61.725 14.169964
61.730 14.502504
61.735 15.125371
61.740 15.394011
61.745 15.439717
61.750 15.027555
61.755 15.581568
61.760 16.094446
61.765 15.942573
61.770 15.962632
61.775 16.213226
61.780 16.311937
61.785 16.790882
61.790 16.196625
61.795 16.294067
61.800 16.883244
61.805 16.797367
61.810 17.008821
61.815 16.839737
61.820 17.114216
61.825 17.941236
61.830 18.379164
61.835 18.063995
61.840 17.308956
61.845 16.734715
61.850 16.696474
61.855 16.55518
61.860 16.290142
61.865 16.292904
61.870 15.904338
61.875 16.276411
61.880 16.334087
61.885 16.780825
61.890 17.782448
61.895 17.544416
61.900 16.900175
61.905 17.49106
61.910 17.531824
61.915 17.409016
61.920 16.93577
61.925 16.204126
61.930 16.685354
61.935 16.923836
61.940 16.995733
61.945 17.51148
61.950 17.450211
61.955 17.344763
61.960 17.815054
61.965 17.509958
61.970 17.976494
61.975 18.216324
61.980 18.082172
61.985 18.038174
61.990 17.860149
61.995 17.30545
62.000 17.240576
62.005 16.631674
62.010 16.314117
62.015 16.5812
62.020 16.778177
62.025 17.214865
62.030 16.881226
62.035 16.593197
62.040 16.687819
62.045 17.006964
62.050 16.718534
62.055 16.48509
62.060 16.061262
62.065 16.267797
62.070 15.69277
62.075 15.244514
62.080 14.982705
62.085 15.187323
62.090 15.38821
62.095 15.96771
62.100 15.891247
62.105 16.565691
62.110 16.704077
62.115 16.063929
62.120 15.824255
62.125 15.85001
62.130 15.706134
62.135 15.925229
62.140 15.893623
62.145 16.478289
62.150 17.107719
62.155 17.483366
62.160 17.6957
62.165 18.288324
62.170 18.892529
62.175 19.091753
62.180 18.545973
62.185 18.217777
62.190 17.951845
62.195 17.296541
62.200 16.100325
62.205 15.718937
62.210 15.788074
62.215 16.690722
62.220 17.156984
62.225 16.994772
62.230 17.612356
62.235 17.52877
62.240 17.34576
62.245 16.886118
62.250 16.048632
62.255 15.717366
62.260 15.649794
62.265 15.303647
62.270 15.350413
62.275 15.526156
62.280 15.594129
62.285 15.19683
62.290 14.653495
62.295 15.111549
62.300 15.337112
62.305 15.230687
62.310 14.819166
62.315 15.224948
62.320 16.120417
62.325 16.308884
62.330 16.006239
62.335 15.79828
62.340 16.512913
62.345 16.817623
62.350 16.542076
62.355 16.317694
62.360 16.29101
62.365 16.186319
62.370 16.049931
62.375 15.749678
62.380 15.915318
62.385 16.228136
62.390 16.773857
62.395 17.011414
62.400 17.289192
62.405 17.517834
62.410 17.849089
62.415 18.178923
62.420 18.325354
62.425 17.905045
62.430 17.455082
62.435 17.536633
62.440 17.825821
62.445 17.605993
62.450 17.57692
62.455 17.397768
62.460 17.535414
62.465 18.068264
62.470 18.221504
62.475 18.709326
62.480 18.794231
62.485 18.13298
62.490 17.945635
62.495 17.509062
62.500 17.244825
62.505 17.179167
62.510 16.680079
62.515 16.343124
62.520 16.422331
62.525 16.40836
62.530 16.513134
62.535 16.567736
62.540 16.32369
62.545 15.906809
62.550 15.953244
62.555 15.919128
62.560 15.591452
62.565 15.541969
62.570 15.325809
62.575 15.171478
62.580 15.504141
62.585 15.636418
62.590 15.518813
62.595 15.815648
62.600 15.651584
62.605 15.699698
62.610 16.435978
62.615 16.678169
62.620 16.576675
62.625 16.713966
62.630 16.949697
62.635 17.310036
62.640 17.103966
62.645 16.726252
62.650 16.565413
62.655 16.640917
62.660 16.773584
62.665 16.982367
62.670 17.479683
62.675 17.328545
62.680 17.548492
62.685 17.670355
62.690 17.987373
62.695 18.402916
62.700 17.798307
62.705 17.404877
62.710 18.040314
62.715 17.893269
62.720 17.873652
62.725 17.868361
62.730 17.58972
62.735 17.741356
62.740 17.634127
62.745 17.599735
62.750 18.193249
62.755 18.154921
62.760 17.338884
62.765 17.483517
62.770 17.757132
62.775 17.47526
62.780 17.262148
62.785 16.893604
62.790 17.247467
62.795 17.403595
62.800 17.358559
62.805 17.398058
62.810 18.319447
62.815 18.419277
62.820 17.999836
62.825 17.97436
62.830 18.160341
62.835 18.519678
62.840 18.181686
62.845 17.309523
62.850 16.9974
62.855 17.149782
62.860 17.317951
62.865 16.769775
62.870 15.890543
62.875 15.83176
62.880 15.919406
62.885 15.7482
62.890 15.168031
62.895 14.710495
62.900 15.544115
62.905 15.700645
62.910 16.044443
62.915 15.979568
62.920 16.38925
62.925 16.498329
62.930 16.073307
62.935 15.925079
62.940 16.661131
62.945 16.318262
62.950 16.890848
62.955 17.058033
62.960 17.220388
62.965 17.629772
62.970 18.023209
62.975 17.903389
62.980 18.29125
62.985 18.534031
62.990 18.117756
62.995 18.217289
63.000 18.270765
63.005 17.519699
63.010 17.124149
63.015 17.109632
63.020 16.577013
63.025 16.395693
63.030 16.096245
63.035 16.039261
63.040 16.237562
63.045 16.564966
63.050 15.941381
63.055 15.880877
63.060 16.024343
63.065 16.367594
63.070 16.249836
63.075 16.232042
63.080 16.320711
63.085 16.221239
63.090 16.754066
63.095 17.073093
63.100 16.801434
63.105 16.83926
63.110 16.463345
63.115 16.381989
63.120 17.203627
63.125 16.606016
63.130 16.192247
63.135 16.372663
63.140 16.702574
63.145 17.203211
63.150 17.685152
63.155 17.663427
63.160 18.227131
63.165 18.782072
63.170 19.145372
63.175 19.025312
63.180 18.246864
63.185 17.251965
63.190 16.651836
63.195 16.356886
63.200 16.482826
63.205 16.408506
63.210 16.538296
63.215 16.69367
63.220 17.119619
63.225 17.330347
63.230 17.499405
63.235 17.145885
63.240 16.870218
63.245 16.404381
63.250 16.433643
63.255 16.617943
63.260 17.01746
63.265 16.939714
63.270 16.727766
63.275 16.731293
63.280 17.013784
63.285 17.339613
63.290 17.67499
63.295 17.045551
63.300 16.86672
63.305 17.092052
63.310 17.601551
63.315 18.007788
63.320 17.220181
63.325 17.563038
63.330 18.033298
63.335 18.615625
63.340 18.18651
63.345 17.43272
63.350 17.111956
63.355 17.524498
63.360 17.30187
63.365 16.913465
63.370 16.155022
63.375 16.503428
63.380 16.768583
63.385 16.923923
63.390 17.224226
63.395 16.796371
63.400 17.23221
63.405 17.462692
63.410 17.484905
63.415 17.323326
63.420 17.328636
63.425 16.897108
63.430 17.020792
63.435 16.581911
63.440 16.051189
63.445 16.338322
63.450 16.239584
63.455 16.268518
63.460 16.554676
63.465 17.14724
63.470 17.88765
63.475 18.578314
63.480 18.241106
63.485 18.750719
63.490 18.783703
63.495 18.984419
63.500 18.628164
63.505 18.469858
63.510 18.225916
63.515 18.389732
63.520 18.0252
63.525 17.642818
63.530 17.009569
63.535 16.772509
63.540 16.495689
63.545 16.656775
63.550 16.491627
63.555 16.251575
63.560 16.390293
63.565 16.820051
63.570 16.619806
63.575 16.373552
63.580 16.425245
63.585 16.445147
63.590 16.764385
63.595 16.944859
63.600 17.132772
63.605 17.914631
63.610 18.415846
63.615 18.552853
63.620 19.019543
63.625 19.249084
63.630 19.62178
63.635 18.709387
63.640 18.587696
63.645 18.7255
63.650 19.225262
63.655 19.086676
63.660 19.139032
63.665 19.146406
63.670 20.196718
63.675 20.151051
63.680 20.306406
63.685 19.885664
63.690 20.113195
63.695 20.466053
63.700 19.935051
63.705 19.376509
63.710 19.292774
63.715 18.967583
63.720 19.33333
63.725 18.897024
63.730 18.402294
63.735 18.446827
63.740 18.692808
63.745 18.546202
63.750 18.300011
63.755 18.132107
63.760 18.079166
63.765 17.771969
63.770 18.114119
63.775 17.946192
63.780 18.021152
63.785 17.999619
63.790 18.098722
63.795 18.106325
63.800 18.559113
63.805 18.665159
63.810 18.569529
63.815 18.148022
63.820 18.071911
63.825 18.380331
63.830 19.125084
63.835 18.820457
63.840 19.401472
63.845 20.132042
63.850 20.786142
63.855 21.127216
63.860 21.197145
63.865 21.25246
63.870 21.744345
63.875 21.329874
63.880 21.337564
63.885 21.278183
63.890 20.573807
63.895 19.998671
63.900 20.014122
63.905 19.849026
63.910 20.189665
63.915 20.124142
63.920 20.161148
63.925 20.519215
63.930 21.224504
63.935 21.337526
63.940 21.775345
63.945 21.35253
63.950 21.360693
63.955 21.780478
63.960 22.364271
63.965 22.626511
63.970 22.850262
63.975 22.756474
63.980 23.845234
63.985 23.345285
63.990 23.535358
63.995 23.343208
64.000 22.910242
64.005 22.784853
64.010 22.981627
64.015 22.383759
64.020 23.513138
64.025 23.689598
64.030 23.548391
64.035 23.668331
64.040 23.895067
64.045 23.982367
64.050 24.583872
64.055 24.065615
64.060 24.022554
64.065 24.673355
64.070 24.667984
64.075 24.048941
64.080 24.035931
64.085 23.435274
64.090 23.035254
64.095 22.549444
64.100 21.408941
64.105 21.542839
64.110 21.683302
64.115 21.656086
64.120 21.246016
64.125 20.933943
64.130 21.625803
64.135 22.303452
64.140 21.951349
64.145 22.153904
64.150 21.563898
64.155 22.190496
64.160 22.971172
64.165 22.617924
64.170 21.678032
64.175 21.863359
64.180 21.89238
64.185 22.089581
64.190 21.818497
64.195 21.144203
64.200 20.894733
64.205 21.253222
64.210 21.713034
64.215 21.330706
64.220 21.148472
64.225 20.566055
64.230 20.496803
64.235 20.96051
64.240 21.626307
64.245 21.124096
64.250 21.286774
64.255 21.270731
64.260 21.588299
64.265 21.408857
64.270 21.068928
64.275 20.739307
64.280 20.788774
64.285 20.827513
64.290 21.144669
64.295 21.343414
64.300 22.426352
64.305 22.522648
64.310 22.073532
64.315 22.579536
64.320 22.675829
64.325 22.24242
64.330 22.029469
64.335 21.411936
64.340 21.25666
64.345 21.20627
64.350 21.011461
64.355 21.408451
64.360 22.349112
64.365 22.743355
64.370 23.009787
64.375 23.040403
64.380 22.977161
64.385 22.670425
64.390 22.450211
64.395 22.584097
64.400 21.924984
64.405 21.125433
64.410 20.769152
64.415 21.019413
64.420 20.857775
64.425 20.853003
64.430 20.630783
64.435 21.000668
64.440 21.852989
64.445 22.359743
64.450 23.007536
64.455 23.310434
64.460 22.851498
64.465 22.739277
64.470 23.169321
64.475 22.996977
64.480 22.97002
64.485 22.577898
64.490 23.084528
64.495 23.49258
64.500 23.048798
64.505 22.54039
64.510 22.2607
64.515 22.273239
64.520 22.006575
64.525 21.692692
64.530 21.600351
64.535 21.609749
64.540 21.612175
64.545 22.277609
64.550 21.662159
64.555 21.546352
64.560 21.41098
64.565 21.325191
64.570 22.094017
64.575 22.339588
64.580 21.905882
64.585 21.781219
64.590 21.663868
64.595 21.62023
64.600 21.618431
64.605 21.256399
64.610 21.50474
64.615 21.333309
64.620 21.208019
64.625 21.497543
64.630 21.426668
64.635 21.587851
64.640 21.172731
64.645 20.945551
64.650 21.829542
64.655 22.367424
64.660 22.376448
64.665 21.863585
64.670 21.208063
64.675 21.135525
64.680 20.812181
64.685 19.769936
64.690 19.752304
64.695 19.530903
64.700 19.89118
64.705 20.48
64.710 20.667278
64.715 20.474863
64.720 20.836672
64.725 20.340214
64.730 20.973389
64.735 21.160822
64.740 20.773874
64.745 20.430103
64.750 20.240913
64.755 20.576338
64.760 20.694929
64.765 20.327568
64.770 20.386753
64.775 20.339573
64.780 19.945957
64.785 20.394457
64.790 20.079964
64.795 19.801241
64.800 20.049179
64.805 20.461494
64.810 20.845255
64.815 21.335276
64.820 20.885952
64.825 20.970982
64.830 20.944044
64.835 20.388626
64.840 19.822708
64.845 19.620821
64.850 19.563951
64.855 19.980392
64.860 19.978533
64.865 19.481569
64.870 19.57542
64.875 20.127604
64.880 19.710724
64.885 20.062223
64.890 19.856787
64.895 20.20167
64.900 20.199339
64.905 20.460081
64.910 20.157772
64.915 20.757898
64.920 20.731525
64.925 21.085058
64.930 20.924444
64.935 21.361423
64.940 21.074036
64.945 20.816719
64.950 20.73797
64.955 20.224169
64.960 20.452763
64.965 21.049616
64.970 21.298584
64.975 21.458595
64.980 22.062946
64.985 21.880445
64.990 22.342314
64.995 21.986242
65.000 21.315763
65.005 21.079977
65.010 21.122059
65.015 20.945768
65.020 21.620132
65.025 21.632511
65.030 21.446768
65.035 21.819027
65.040 22.238445
65.045 22.014242
65.050 21.599434
65.055 21.233652
65.060 21.948418
65.065 22.318436
65.070 22.607018
65.075 22.797903
65.080 23.583078
65.085 24.658157
65.090 24.556967
65.095 24.274429
65.100 23.963896
65.105 23.435904
65.110 23.163332
65.115 22.918123
65.120 22.253075
65.125 22.317438
65.130 22.079786
65.135 22.841129
65.140 23.224447
65.145 23.137794
65.150 22.478418
65.155 22.968754
65.160 22.701487
65.165 22.353357
65.170 22.224325
65.175 21.893921
65.180 22.41836
65.185 22.633053
65.190 22.364223
65.195 22.385979
65.200 23.148851
65.205 23.378681
65.210 23.447422
65.215 23.165365
65.220 23.150806
65.225 23.13592
65.230 23.399986
65.235 23.440968
65.240 23.000549
65.245 23.023651
65.250 22.933622
65.255 22.610559
65.260 22.640135
65.265 23.092865
65.270 22.423355
65.275 22.283892
65.280 22.297695
65.285 22.438959
65.290 22.605242
65.295 22.838123
65.300 21.78487
65.305 21.732763
65.310 21.844715
65.315 21.49354
65.320 21.384897
65.325 20.886591
65.330 20.317373
65.335 20.877457
65.340 21.370672
65.345 20.979181
65.350 21.192007
65.355 21.670633
65.360 21.717075
65.365 21.929979
65.370 21.990345
65.375 22.478859
65.380 22.961824
65.385 23.517281
65.390 23.916618
65.395 24.615053
65.400 24.331779
65.405 23.921768
65.410 23.106361
65.415 22.884315
65.420 22.632833
65.425 22.444502
65.430 22.381523
65.435 22.720114
65.440 22.517345
65.445 22.593904
65.450 22.713881
65.455 22.133284
65.460 22.412569
65.465 22.526609
65.470 22.360161
65.475 22.336601
65.480 22.720196
65.485 23.013376
65.490 23.462704
65.495 23.009609
65.500 22.555626
65.505 23.261934
65.510 23.571852
65.515 23.260773
65.520 23.72205
65.525 23.596354
65.530 24.01363
65.535 24.126453
65.540 23.458616
65.545 24.104328
65.550 24.913549
65.555 24.760527
65.560 25.029413
65.565 25.367767
65.570 26.159744
65.575 27.062637
65.580 26.982571
65.585 26.008284
65.590 25.773764
65.595 25.563856
65.600 25.439383
65.605 25.297165
65.610 24.766579
65.615 24.72817
65.620 24.654816
65.625 25.020208
65.630 25.397614
65.635 25.330521
65.640 25.419312
65.645 25.842129
65.650 26.152231
65.655 26.941294
65.660 27.144295
65.665 27.162699
65.670 27.471136
65.675 27.977436
65.680 28.980949
65.685 29.163731
65.690 29.306305
65.695 29.208183
65.700 29.214674
65.705 29.019442
65.710 28.517544
65.715 28.277454
65.720 28.017607
65.725 27.874477
65.730 28.009094
65.735 28.213894
65.740 28.212101
65.745 28.545208
65.750 29.362047
65.755 30.771185
65.760 30.501833
65.765 30.243059
65.770 30.736731
65.775 30.763018
65.780 30.47739
65.785 29.827158
65.790 29.368982
65.795 30.115126
65.800 30.601084
65.805 30.725077
65.810 31.152569
65.815 30.991943
65.820 31.126846
65.825 32.021122
65.830 32.325069
65.835 32.326389
65.840 32.463463
65.845 32.536194
65.850 33.30611
65.855 33.357254
65.860 32.721153
65.865 33.139904
65.870 33.464989
65.875 33.907616
65.880 34.252487
65.885 34.603439
65.890 35.123432
65.895 35.379173
65.900 35.357723
65.905 35.089928
65.910 35.071594
65.915 34.595219
65.920 33.884899
65.925 33.03653
65.930 33.413784
65.935 32.966053
65.940 32.783745
65.945 33.030315
65.950 33.676437
65.955 34.844223
65.960 35.413063
65.965 35.417648
65.970 35.65295
65.975 35.27338
65.980 35.360527
65.985 35.520424
65.990 35.3284
65.995 35.47393
66.000 35.481792
66.005 35.578247
66.010 36.093426
66.015 36.105427
66.020 36.031776
66.025 36.420052
66.030 36.94474
66.035 38.304104
66.040 39.622658
66.045 40.154949
66.050 40.389725
66.055 40.488235
66.060 40.981667
66.065 41.070217
66.070 40.158398
66.075 39.589886
66.080 39.784523
66.085 40.426228
66.090 40.564137
66.095 39.882999
66.100 39.757412
66.105 39.191067
66.110 39.530586
66.115 39.778507
66.120 39.070347
66.125 38.831005
66.130 39.531544
66.135 39.053097
66.140 39.298096
66.145 38.831871
66.150 38.648365
66.155 39.112679
66.160 39.23296
66.165 39.222221
66.170 38.745884
66.175 38.269382
66.180 38.444664
66.185 38.060623
66.190 37.440811
66.195 37.42408
66.200 37.335117
66.205 38.047657
66.210 38.924904
66.215 38.706203
66.220 38.914482
66.225 38.725376
66.230 38.521233
66.235 39.515556
66.240 39.88686
66.245 39.417782
66.250 38.829578
66.255 38.856564
66.260 38.551704
66.265 38.163475
66.270 37.874401
66.275 38.023628
66.280 37.89854
66.285 38.014904
66.290 37.128403
66.295 36.931664
66.300 36.939121
66.305 35.317898
66.310 33.985714
66.315 33.79689
66.320 34.030922
66.325 35.211311
66.330 35.247421
66.335 35.864384
66.340 37.136124
66.345 37.516964
66.350 37.444248
66.355 36.360104
66.360 35.932384
66.365 35.349472
66.370 34.546593
66.375 33.568661
66.380 32.752449
66.385 32.479977
66.390 32.584896
66.395 32.199455
66.400 32.824646
66.405 33.532433
66.410 33.840965
66.415 33.948551
66.420 34.376991
66.425 34.475826
66.430 33.976135
66.435 33.237568
66.440 32.198208
66.445 31.645245
66.450 31.529808
66.455 30.807951
66.460 30.611179
66.465 31.084984
66.470 30.839603
66.475 30.005955
66.480 29.697412
66.485 29.694389
66.490 29.179466
66.495 28.728716
66.500 28.051247
66.505 27.802145
66.510 28.107157
66.515 28.351421
66.520 28.206608
66.525 28.107368
66.530 28.034592
66.535 28.366528
66.540 28.259895
66.545 28.2246
66.550 28.191416
66.555 28.298746
66.560 28.625984
66.565 28.905386
66.570 28.793798
66.575 28.536943
66.580 27.903584
66.585 27.465006
66.590 27.253658
66.595 27.200592
66.600 26.682888
66.605 26.730085
66.610 27.413139
66.615 26.481537
66.620 25.855875
66.625 25.296978
66.630 24.863365
66.635 24.990364
66.640 24.015198
66.645 23.339602
66.650 23.382452
66.655 23.39089
66.660 23.49534
66.665 23.43325
66.670 23.330029
66.675 23.464272
66.680 23.323572
66.685 23.307739
66.690 22.819611
66.695 22.407333
66.700 22.247068
66.705 21.942884
66.710 22.044895
66.715 21.948009
66.720 22.151098
66.725 22.073315
66.730 22.042816
66.735 21.491322
66.740 21.788748
66.745 22.249149
66.750 22.932531
66.755 22.952894
66.760 23.022657
66.765 22.805216
66.770 23.563255
66.775 23.308147
66.780 22.733084
66.785 21.953142
66.790 21.478224
66.795 21.962872
66.800 21.902193
66.805 20.872995
66.810 20.684553
66.815 21.074503
66.820 21.627489
66.825 22.079798
66.830 22.047733
66.835 22.449764
66.840 23.29475
66.845 22.846455
66.850 22.557829
66.855 22.503254
66.860 22.499866
66.865 21.74827
66.870 21.303488
66.875 20.786358
66.880 21.353334
66.885 21.059008
66.890 20.881636
66.895 21.048004
66.900 21.0222
66.905 20.989271
66.910 20.749046
66.915 20.557087
66.920 20.930841
66.925 20.994328
66.930 21.202852
66.935 21.806787
66.940 21.909386
66.945 22.335869
66.950 21.86722
66.955 21.484875
66.960 21.482002
66.965 20.556412
66.970 19.69578
66.975 19.333548
66.980 19.29888
66.985 19.396889
66.990 19.085379
66.995 18.149406
67.000 18.161047
67.005 18.783949
67.010 19.290386
67.015 19.613026
67.020 19.557844
67.025 19.393927
67.030 19.71912
67.035 20.113785
67.040 20.278511
67.045 19.748936
67.050 19.51704
67.055 20.075884
67.060 20.45693
67.065 20.669643
67.070 20.167179
67.075 19.759157
67.080 19.190653
67.085 18.987196
67.090 18.79442
67.095 18.092676
67.100 18.016649
67.105 17.822479
67.110 17.973146
67.115 19.073242
67.120 19.461363
67.125 19.946272
67.130 20.448322
67.135 20.939199
67.140 21.336128
67.145 21.087238
67.150 20.638918
67.155 20.760303
67.160 20.637426
67.165 20.952656
67.170 20.734505
67.175 20.325659
67.180 20.440615
67.185 20.472321
67.190 19.786531
67.195 19.808657
67.200 19.228497
67.205 19.329323
67.210 20.030254
67.215 20.120779
67.220 20.027761
67.225 20.169735
67.230 19.991961
67.235 20.227798
67.240 20.332584
67.245 20.360149
67.250 20.770988
67.255 21.17494
67.260 21.428864
67.265 21.811586
67.270 21.322302
67.275 20.769804
67.280 20.550329
67.285 20.650972
67.290 19.968731
67.295 19.201658
67.300 18.926977
67.305 19.790735
67.310 19.853407
67.315 19.598335
67.320 19.284452
67.325 19.943228
67.330 20.875654
67.335 20.9151
67.340 20.970085
67.345 21.24305
67.350 20.71949
67.355 20.370865
67.360 20.291521
67.365 20.421366
67.370 20.533266
67.375 20.695784
67.380 20.764296
67.385 21.268679
67.390 21.913057
67.395 22.063002
67.400 21.405642
67.405 21.409397
67.410 21.038061
67.415 20.651237
67.420 20.495287
67.425 19.83777
67.430 19.864494
67.435 19.836422
67.440 19.381802
67.445 19.619806
67.450 20.257711
67.455 20.110786
67.460 19.690283
67.465 19.536505
67.470 19.740919
67.475 20.302212
67.480 20.145224
67.485 20.069927
67.490 20.262547
67.495 20.197016
67.500 20.19313
67.505 20.126825
67.510 19.712244
67.515 20.261246
67.520 20.504858
67.525 21.343231
67.530 21.753738
67.535 21.675491
67.540 21.618351
67.545 21.535137
67.550 20.99085
67.555 20.124418
67.560 19.660263
67.565 19.055944
67.570 18.790918
67.575 18.86602
67.580 18.705088
67.585 18.925596
67.590 18.927553
67.595 18.944561
67.600 19.779554
67.605 20.215176
67.610 20.298782
67.615 20.62451
67.620 20.762577
67.625 20.800787
67.630 20.664984
67.635 20.345694
67.640 20.480875
67.645 20.44865
67.650 19.888166
67.655 19.332232
67.660 19.30615
67.665 19.526665
67.670 19.42836
67.675 18.878927
67.680 19.29537
67.685 19.870275
67.690 20.847212
67.695 20.981941
67.700 20.673229
67.705 20.677265
67.710 20.643547
67.715 19.896957
67.720 19.514658
67.725 18.952578
67.730 19.515547
67.735 19.550524
67.740 19.201002
67.745 19.302536
67.750 19.463812
67.755 19.470026
67.760 19.337059
67.765 18.608257
67.770 18.688963
67.775 19.511707
67.780 19.741312
67.785 19.531012
67.790 19.89798
67.795 19.597462
67.800 19.441221
67.805 19.658699
67.810 18.933723
67.815 18.598085
67.820 18.284246
67.825 17.590366
67.830 17.794073
67.835 17.609884
67.840 17.459566
67.845 17.696812
67.850 17.803467
67.855 18.811565
67.860 18.895456
67.865 18.819958
67.870 19.000256
67.875 18.895178
67.880 19.022745
67.885 19.383242
67.890 18.988148
67.895 19.452248
67.900 19.881504
67.905 19.717785
67.910 19.698938
67.915 19.57835
67.920 19.251194
67.925 19.459053
67.930 19.725599
67.935 20.056986
67.940 20.048737
67.945 19.457216
67.950 19.194386
67.955 19.151144
67.960 18.848085
67.965 19.463591
67.970 19.346212
67.975 19.804003
67.980 20.352837
67.985 20.291931
67.990 19.925781
67.995 19.143297
68.000 18.185255
68.005 17.778425
68.010 17.702616
68.015 17.68969
68.020 18.645279
68.025 18.961596
68.030 19.240726
68.035 19.736885
68.040 20.176474
68.045 19.913876
68.050 19.717497
68.055 19.537712
68.060 19.680252
68.065 19.375128
68.070 19.443447
68.075 19.580212
68.080 20.151537
68.085 20.875809
68.090 20.977753
68.095 21.356819
68.100 21.919666
68.105 21.974541
68.110 22.069443
68.115 21.746861
68.120 21.176458
68.125 21.487972
68.130 21.864374
68.135 22.310881
68.140 21.777903
68.145 21.543913
68.150 21.341799
68.155 21.292391
68.160 20.753189
68.165 20.172195
68.170 19.35128
68.175 19.225328
68.180 19.441059
68.185 19.245907
68.190 19.538076
68.195 20.088528
68.200 20.347979
68.205 20.571264
68.210 20.789005
68.215 20.958136
68.220 20.807632
68.225 20.547556
68.230 20.07115
68.235 19.921984
68.240 20.436802
68.245 20.395746
68.250 20.008181
68.255 20.277636
68.260 20.212109
68.265 20.069813
68.270 20.416321
68.275 20.100479
68.280 20.159134
68.285 20.297274
68.290 19.847128
68.295 19.689999
68.300 19.624332
68.305 19.198238
68.310 18.895712
68.315 18.739422
68.320 18.679003
68.325 19.015919
68.330 18.515223
68.335 18.563311
68.340 18.609961
68.345 18.650793
68.350 18.226154
68.355 18.572432
68.360 19.307697
68.365 19.356874
68.370 19.352436
68.375 20.008631
68.380 20.973454
68.385 21.820112
68.390 21.551666
68.395 21.334333
68.400 22.174623
68.405 22.352201
68.410 21.768162
68.415 21.060186
68.420 20.68552
68.425 20.840532
68.430 20.649252
68.435 20.42156
68.440 20.026823
68.445 19.89143
68.450 19.753637
68.455 19.304319
68.460 18.959246
68.465 18.986012
68.470 18.956827
68.475 19.511978
68.480 19.735527
68.485 19.687466
68.490 19.807304
68.495 19.643398
68.500 19.287922
68.505 18.981686
68.510 18.96874
68.515 19.020485
68.520 18.838278
68.525 18.642027
68.530 18.703436
68.535 19.2899
68.540 19.878344
68.545 20.061699
68.550 19.711914
68.555 20.155069
68.560 20.778738
68.565 20.955475
68.570 20.803787
68.575 20.401018
68.580 20.045547
68.585 19.751621
68.590 19.293947
68.595 19.580393
68.600 20.093176
68.605 20.029097
68.610 19.649162
68.615 20.336201
68.620 20.919592
68.625 21.244078
68.630 20.783325
68.635 20.136652
68.640 20.442755
68.645 20.371817
68.650 19.973921
68.655 20.411346
68.660 20.837372
68.665 20.454605
68.670 19.965075
68.675 19.753372
68.680 20.121931
68.685 20.085947
68.690 20.162725
68.695 20.95129
68.700 21.372396
68.705 22.093201
68.710 22.120747
68.715 22.408834
68.720 22.489471
68.725 21.678715
68.730 20.698862
68.735 20.137159
68.740 19.676487
68.745 19.395048
68.750 19.180704
68.755 19.488384
68.760 20.251198
68.765 21.22315
68.770 22.315258
68.775 22.398418
68.780 22.400047
68.785 23.060902
68.790 22.85774
68.795 22.774994
68.800 21.971394
68.805 21.688881
68.810 22.082468
68.815 22.274969
68.820 21.782433
68.825 22.101097
68.830 22.62377
68.835 23.070761
68.840 22.854301
68.845 22.893293
68.850 22.578989
68.855 22.855858
68.860 22.732389
68.865 22.226692
68.870 22.111816
68.875 22.052906
68.880 22.239271
68.885 22.233597
68.890 22.059546
68.895 21.893936
68.900 22.683002
68.905 23.438707
68.910 24.137491
68.915 24.065704
68.920 24.30822
68.925 24.151308
68.930 23.410749
68.935 22.158842
68.940 21.243948
68.945 20.823805
68.950 21.269157
68.955 21.371504
68.960 21.19935
68.965 22.176008
68.970 23.107988
68.975 23.665054
68.980 23.567577
68.985 23.564438
68.990 24.025625
68.995 24.11009
69.000 23.96242
69.005 24.591494
69.010 24.438929
69.015 24.455893
69.020 24.133743
69.025 24.016787
69.030 24.250629
69.035 24.000551
69.040 23.894543
69.045 23.780216
69.050 23.703684
69.055 24.006413
69.060 23.879229
69.065 24.19433
69.070 25.341896
69.075 25.343153
69.080 25.584213
69.085 26.147947
69.090 26.764097
69.095 27.277975
69.100 27.635147
69.105 26.503981
69.110 26.75906
69.115 26.822172
69.120 26.450325
69.125 25.959015
69.130 26.273771
69.135 26.408861
69.140 27.449522
69.145 28.038538
69.150 28.283937
69.155 28.598789
69.160 28.908085
69.165 28.345562
69.170 28.310282
69.175 28.33263
69.180 28.495281
69.185 29.403357
69.190 29.371489
69.195 28.758379
69.200 28.966122
69.205 29.78105
69.210 28.981136
69.215 28.582813
69.220 28.385426
69.225 28.868431
69.230 29.149836
69.235 28.436916
69.240 27.418125
69.245 28.140417
69.250 27.896563
69.255 27.480146
69.260 27.217628
69.265 28.0147
69.270 29.01911
69.275 29.909719
69.280 30.085865
69.285 30.332251
69.290 30.388069
69.295 30.531012
69.300 30.096395
69.305 29.937452
69.310 29.345989
69.315 28.514147
69.320 29.551107
69.325 30.004644
69.330 30.312046
69.335 31.067064
69.340 31.232145
69.345 32.875587
69.350 33.95232
69.355 33.903641
69.360 33.982063
69.365 33.878796
69.370 33.403458
69.375 32.971672
69.380 32.221664
69.385 31.778496
69.390 31.022802
69.395 31.118734
69.400 30.531593
69.405 30.351551
69.410 30.387484
69.415 30.076029
69.420 29.996603
69.425 29.993439
69.430 30.192738
69.435 30.859749
69.440 31.410034
69.445 31.53705
69.450 31.745661
69.455 32.280022
69.460 32.956753
69.465 32.830345
69.470 32.148262
69.475 31.875458
69.480 32.653778
69.485 33.078594
69.490 32.65271
69.495 32.1875
69.500 32.463531
69.505 33.32637
69.510 33.245975
69.515 32.888008
69.520 33.36063
69.525 33.703037
69.530 33.986446
69.535 33.598431
69.540 33.06636
69.545 33.07375
69.550 32.35606
69.555 31.301758
69.560 30.453548
69.565 30.701721
69.570 31.535376
69.575 32.800488
69.580 33.47126
69.585 33.506847
69.590 34.744015
69.595 35.341614
69.600 34.679703
69.605 33.950443
69.610 32.941914
69.615 32.464668
69.620 32.764408
69.625 32.152191
69.630 31.653994
69.635 31.613434
69.640 31.611847
69.645 31.54907
69.650 31.091244
69.655 30.169056
69.660 29.986101
69.665 29.682383
69.670 29.088909
69.675 28.843431
69.680 28.413227
69.685 29.685013
69.690 30.073702
69.695 29.586943
69.700 29.969364
69.705 30.159275
69.710 30.28635
69.715 30.459923
69.720 29.59753
69.725 28.99856
69.730 29.457239
69.735 28.99312
69.740 28.508194
69.745 28.138824
69.750 28.019604
69.755 27.526573
69.760 26.6528
69.765 26.785889
69.770 27.642109
69.775 27.857586
69.780 27.827829
69.785 27.919039
69.790 28.673983
69.795 28.721004
69.800 27.944876
69.805 26.916485
69.810 25.853674
69.815 24.947861
69.820 24.519476
69.825 23.593758
69.830 23.59337
69.835 23.516226
69.840 23.900324
69.845 24.171732
69.850 24.453011
69.855 24.842916
69.860 24.655619
69.865 24.048374
69.870 23.931652
69.875 23.886131
69.880 23.97163
69.885 23.756289
69.890 23.912592
69.895 24.924845
69.900 25.379038
69.905 25.481344
69.910 25.27457
69.915 24.956024
69.920 24.964092
69.925 24.726593
69.930 23.780924
69.935 23.695597
69.940 23.646814
69.945 24.277737
69.950 24.477762
69.955 24.594505
69.960 24.12652
69.965 24.230431
69.970 23.153
69.975 22.099508
69.980 21.440353
69.985 21.639629
69.990 21.179344
69.995 21.078516
70.000 20.958929
70.005 21.330069
70.010 21.914206
70.015 21.587173
70.020 21.182116
70.025 21.124043
70.030 20.860752
70.035 20.742706
70.040 20.371458
70.045 19.565147
70.050 19.250395
70.055 19.309582
70.060 19.505411
70.065 20.044008
70.070 20.065964
70.075 20.354836
70.080 20.836607
70.085 20.949324
70.090 20.828249
70.095 20.365459
70.100 20.055691
70.105 19.839682
70.110 20.105368
70.115 20.292746
70.120 20.083431
70.125 20.176287
70.130 21.098322
70.135 21.719505
70.140 22.06967
70.145 22.445131
70.150 22.911758
70.155 22.844463
70.160 22.51026
70.165 21.68388
70.170 21.031445
70.175 20.586166
70.180 19.748465
70.185 18.990002
70.190 19.204885
70.195 19.402077
70.200 19.531218
70.205 18.916292
70.210 18.901346
70.215 19.477669
70.220 19.304718
70.225 19.040789
70.230 18.571358
70.235 18.600191
70.240 19.109695
70.245 18.425529
70.250 18.585133
70.255 18.933113
70.260 18.834879
70.265 18.855135
70.270 18.935246
70.275 19.4417
70.280 19.829424
70.285 19.306608
70.290 19.430183
70.295 19.814938
70.300 19.660263
70.305 19.788872
70.310 19.342978
70.315 19.483952
70.320 19.704153
70.325 19.656435
70.330 19.390923
70.335 19.200439
70.340 19.313786
70.345 19.004366
70.350 18.680422
70.355 18.590683
70.360 17.783821
70.365 18.030643
70.370 17.563147
70.375 16.865856
70.380 17.531771
70.385 17.940804
70.390 18.21562
70.395 18.778379
70.400 18.858543
70.405 19.232346
70.410 19.553598
70.415 18.935165
70.420 18.512657
70.425 18.333755
70.430 17.914721
70.435 17.435129
70.440 17.37232
70.445 17.427576
70.450 17.430906
70.455 16.974123
70.460 17.04257
70.465 17.33849
70.470 17.680906
70.475 17.905657
70.480 17.758171
70.485 17.993977
70.490 18.688353
70.495 18.894041
70.500 19.061842
70.505 19.439665
70.510 19.471975
70.515 19.245937
70.520 18.998636
70.525 18.894785
70.530 19.020983
70.535 18.738054
70.540 18.359274
70.545 18.636347
70.550 19.347137
70.555 19.694778
70.560 19.698778
70.565 19.369953
70.570 19.323299
70.575 19.066351
70.580 18.810223
70.585 18.404898
70.590 17.853636
70.595 18.17156
70.600 17.913166
70.605 17.723019
70.610 18.005495
70.615 18.447496
70.620 18.023804
70.625 17.873974
70.630 18.15344
70.635 18.858944
70.640 19.076805
70.645 18.654541
70.650 18.514412
70.655 19.012112
70.660 18.711157
70.665 17.98996
70.670 18.223585
70.675 18.641193
70.680 19.456068
70.685 19.980837
70.690 19.697813
70.695 19.913229
70.700 19.638277
70.705 19.282593
70.710 18.758183
70.715 18.009171
70.720 18.092533
70.725 18.289444
70.730 18.541309
70.735 18.498262
70.740 18.202494
70.745 18.1619
70.750 18.406204
70.755 18.55932
70.760 18.3384
70.765 18.462164
70.770 18.544939
70.775 19.145008
70.780 19.265059
70.785 19.114773
70.790 19.742235
70.795 19.817619
70.800 19.574251
70.805 19.45911
70.810 19.393677
70.815 19.343857
70.820 19.406868
70.825 18.83279
70.830 18.728401
70.835 18.321173
70.840 17.702837
70.845 17.466671
70.850 17.566544
70.855 17.575359
70.860 17.917366
70.865 18.315125
70.870 18.847895
70.875 19.339794
70.880 19.536318
70.885 19.417614
70.890 19.507439
70.895 19.352667
70.900 19.336246
70.905 19.23612
70.910 19.213743
70.915 19.57091
70.920 19.530706
70.925 19.311035
70.930 19.535902
70.935 19.570415
70.940 19.970259
70.945 19.723866
70.950 19.172785
70.955 19.274429
70.960 19.435007
70.965 18.982582
70.970 19.118191
70.975 18.909971
70.980 18.947859
70.985 19.289104
70.990 19.255531
70.995 18.95981
71.000 18.708616
71.005 18.651751
71.010 18.855877
71.015 19.251591
71.020 19.335709
71.025 18.977573
71.030 19.594309
71.035 20.118233
71.040 19.757637
71.045 19.191925
71.050 18.569618
71.055 18.434484
71.060 18.027479
71.065 17.31201
71.070 17.005451
71.075 17.287231
71.080 17.363354
71.085 17.537584
71.090 18.488926
71.095 18.954679
71.100 18.681753
71.105 18.827806
71.110 18.730999
71.115 18.383322
71.120 17.729116
71.125 17.200714
71.130 17.398561
71.135 17.640631
71.140 17.6082
71.145 17.634779
71.150 17.812216
71.155 17.968264
71.160 17.977448
71.165 18.011681
71.170 18.231623
71.175 18.949068
71.180 19.159122
71.185 19.426628
71.190 19.436779
71.195 19.958431
71.200 20.22937
71.205 20.114758
71.210 20.016947
71.215 20.037893
71.220 19.736109
71.225 19.550304
71.230 19.243071
71.235 19.019064
71.240 18.617395
71.245 17.91609
71.250 17.969849
71.255 18.252882
71.260 17.986265
71.265 17.722115
71.270 17.439449
71.275 17.235798
71.280 16.979969
71.285 16.656748
71.290 16.678141
71.295 16.856501
71.300 17.218431
71.305 17.538406
71.310 18.260143
71.315 18.758255
71.320 18.96627
71.325 19.240627
71.330 18.711355
71.335 18.471272
71.340 18.451141
71.345 18.145496
71.350 17.929581
71.355 17.594658
71.360 17.455223
71.365 17.647144
71.370 17.295544
71.375 17.662607
71.380 17.978735
71.385 17.975414
71.390 17.919687
71.395 17.832998
71.400 17.323772
71.405 17.61759
71.410 17.820919
71.415 17.909502
71.420 18.230614
71.425 18.092995
71.430 17.982998
71.435 18.279358
71.440 17.491304
71.445 17.41217
71.450 17.039412
71.455 17.352758
71.460 17.90568
71.465 18.229193
71.470 18.470018
71.475 18.619602
71.480 18.697035
71.485 18.549587
71.490 18.516722
71.495 18.523952
71.500 18.310768
71.505 18.385542
71.510 18.576263
71.515 18.630869
71.520 19.217848
71.525 18.631081
71.530 18.23698
71.535 18.223757
71.540 18.080141
71.545 17.973944
71.550 17.689682
71.555 17.390858
71.560 17.862408
71.565 18.139639
71.570 17.712339
71.575 17.971685
71.580 18.24025
71.585 18.428898
71.590 18.144115
71.595 18.186821
71.600 17.921173
71.605 18.095116
71.610 17.422964
71.615 17.189268
71.620 17.204124
71.625 17.442198
71.630 17.174812
71.635 17.312229
71.640 17.629072
71.645 18.091389
71.650 17.812696
71.655 17.931376
71.660 18.118233
71.665 19.015871
71.670 19.416195
71.675 19.581953
71.680 20.005518
71.685 19.906189
71.690 19.895636
71.695 19.873209
71.700 19.441219
71.705 19.170691
71.710 18.912426
71.715 18.806662
71.720 19.594528
71.725 19.390699
71.730 19.425425
71.735 19.505196
71.740 19.777058
71.745 19.741709
71.750 19.398472
71.755 19.207811
71.760 19.662056
71.765 20.001377
71.770 19.776192
71.775 19.959475
71.780 19.736818
71.785 19.66753
71.790 19.215349
71.795 18.009018
71.800 18.17765
71.805 17.901012
71.810 18.123554
71.815 18.534267
71.820 18.10034
71.825 18.220745
71.830 18.031895
71.835 17.863863
71.840 17.78002
71.845 17.108185
71.850 17.325228
71.855 17.736467
71.860 18.172594
71.865 18.532949
71.870 18.791811
71.875 19.039337
71.880 18.834888
71.885 18.576487
71.890 17.843792
71.895 17.623259
71.900 17.528595
71.905 17.224817
71.910 17.716284
71.915 17.704481
71.920 18.05278
71.925 18.664339
71.930 18.724943
71.935 18.734488
71.940 19.019861
71.945 18.884621
71.950 19.429825
71.955 18.830267
71.960 18.588638
71.965 18.827047
71.970 18.732021
71.975 18.158552
71.980 17.939487
71.985 17.863283
71.990 18.432238
71.995 18.613087
72.000 18.863964
72.005 19.130482
72.010 18.925474
72.015 18.441788
72.020 18.400572
72.025 17.802357
72.030 17.383753
72.035 17.188429
72.040 17.387701
72.045 17.80913
72.050 18.590305
72.055 18.940983
72.060 19.68697
72.065 20.314564
72.070 20.693813
72.075 20.273037
72.080 19.907278
72.085 19.166288
72.090 18.835932
72.095 18.160696
72.100 17.288969
72.105 16.713566
72.110 16.749138
72.115 16.638018
72.120 17.168224
72.125 17.146439
72.130 17.346952
72.135 17.786066
72.140 18.034447
72.145 17.797495
72.150 18.311977
72.155 18.278093
72.160 18.287365
72.165 18.436808
72.170 18.634516
72.175 19.107441
72.180 19.077337
72.185 18.530916
72.190 18.092211
72.195 18.236732
72.200 17.900696
72.205 17.3256
72.210 17.704027
72.215 17.553568
72.220 17.802223
72.225 18.347126
72.230 18.581865
72.235 19.088541
72.240 19.403269
72.245 19.438112
72.250 19.026457
72.255 18.807978
72.260 18.21587
72.265 17.437824
72.270 16.947901
72.275 16.650116
72.280 16.768497
72.285 17.307117
72.290 17.146322
72.295 17.297293
72.300 17.426771
72.305 17.690338
72.310 17.20096
72.315 16.980135
72.320 16.601316
72.325 17.029274
72.330 17.547686
72.335 18.080637
72.340 18.134151
72.345 18.152065
72.350 18.376297
72.355 18.230097
72.360 17.82077
72.365 17.355082
72.370 16.699329
72.375 16.617771
72.380 16.75774
72.385 16.900572
72.390 17.157433
72.395 17.264242
72.400 17.138842
72.405 17.183966
72.410 17.318453
72.415 17.302359
72.420 17.33379
72.425 17.531881
72.430 17.876823
72.435 18.667084
72.440 19.412663
72.445 19.402437
72.450 19.105913
72.455 18.991119
72.460 18.737396
72.465 18.320154
72.470 17.688992
72.475 17.204611
72.480 17.099031
72.485 16.993664
72.490 16.910162
72.495 16.738194
72.500 17.326599
72.505 17.764902
72.510 17.390648
72.515 17.30549
72.520 17.508808
72.525 17.564877
72.530 17.388477
72.535 17.089651
72.540 17.180779
72.545 17.674894
72.550 17.683096
72.555 18.41028
72.560 19.056522
72.565 19.214725
72.570 19.207247
72.575 18.729094
72.580 19.145725
72.585 19.643372
72.590 19.863462
72.595 19.661232
72.600 19.755732
72.605 19.766682
72.610 20.311752
72.615 20.163044
72.620 19.701805
72.625 19.360163
72.630 19.240356
72.635 19.264132
72.640 19.706474
72.645 19.353008
72.650 19.052174
72.655 18.803593
72.660 18.488203
72.665 18.038353
72.670 17.821955
72.675 16.563789
72.680 16.296726
72.685 16.294561
72.690 16.195557
72.695 16.110493
72.700 15.806591
72.705 15.560239
72.710 16.036146
72.715 16.503477
72.720 16.871704
72.725 16.958725
72.730 17.22147
72.735 17.294626
72.740 17.676481
72.745 17.972679
72.750 17.749937
72.755 18.127377
72.760 18.209372
72.765 18.115347
72.770 18.319078
72.775 18.05171
72.780 17.737104
72.785 17.122633
72.790 16.770567
72.795 16.791872
72.800 16.602749
72.805 16.68643
72.810 16.312586
72.815 16.26189
72.820 16.121334
72.825 15.698234
72.830 15.507644
72.835 16.063547
72.840 15.969995
72.845 16.023752
72.850 16.204136
72.855 16.908806
72.860 17.594788
72.865 17.411827
72.870 17.25388
72.875 17.182579
72.880 17.232466
72.885 16.993696
72.890 16.078079
72.895 15.703669
72.900 15.348437
72.905 15.349895
72.910 15.442586
72.915 15.504394
72.920 15.913609
72.925 16.720764
72.930 17.202076
72.935 18.165133
72.940 18.256594
72.945 18.584133
72.950 18.656464
72.955 18.294085
72.960 17.709583
72.965 17.459822
72.970 17.328625
72.975 17.367001
72.980 17.413372
72.985 17.570234
72.990 17.983307
72.995 17.780352
73.000 18.075184
