!@!!GADDS PLOTSO FILE: Chi integration type
!@!!Title/SampleName: map-b1
!@!!Comment: ?
!@!!User: Bruker Instrument Administrator
!@!!Site: University of Illinois Chicago
!@!!Frame: map-b1_01_000.gfrm
!@!!Wavelengths    1.54184   1.54056   1.54439
!@!!Frame angles: 2Theta: 63.000 Omega: 50.000 Phi: 0.000 Chi: 90.000
!@!!Integration range: 2Theta: 53.000 to 73.000  Gamma: -105.000 to -75.000
!@!!Integration method: bin normalized
!@!N
!@!SS
!@!M
!@!L 0.0 0.0 0.0 0.0
!@!XDegrees
!@!YCounts
53.000 5.73429
53.005 5.508669
53.010 5.611972
53.015 5.689269
53.020 5.632722
53.025 5.645113
53.030 5.976679
53.035 5.790023
53.040 5.915466
53.045 5.820458
53.050 5.906048
53.055 5.771699
53.060 5.595154
53.065 5.360974
53.070 5.54409
53.075 5.456502
53.080 5.356595
53.085 5.429566
53.090 5.446493
53.095 5.501501
53.100 5.679501
53.105 5.790689
53.110 5.95563
53.115 5.937615
53.120 5.867413
53.125 6.075827
53.130 6.126859
53.135 6.195372
53.140 6.005555
53.145 5.763547
53.150 5.777105
53.155 6.094725
53.160 6.301647
53.165 6.370494
53.170 6.282862
53.175 6.472898
53.180 6.391743
53.185 6.731372
53.190 6.829209
53.195 6.817567
53.200 6.835046
53.205 6.911292
53.210 6.95228
53.215 6.798492
53.220 6.508875
53.225 6.461227
53.230 6.621781
53.235 6.657122
53.240 6.97698
53.245 7.557875
53.250 8.039134
53.255 8.52098
53.260 8.368301
53.265 8.192752
53.270 8.020556
53.275 7.680591
53.280 7.518219
53.285 7.317709
53.290 7.119269
53.295 7.058849
53.300 7.176664
53.305 7.201873
53.310 7.314074
53.315 7.380005
53.320 7.399368
53.325 7.287114
53.330 7.260015
53.335 7.264023
53.340 7.257833
53.345 7.261129
53.350 7.312526
53.355 7.332019
53.360 7.213088
53.365 7.036311
53.370 6.979401
53.375 6.714667
53.380 6.755306
53.385 6.693524
53.390 6.773402
53.395 7.066265
53.400 6.967877
53.405 6.842871
53.410 6.91667
53.415 6.602905
53.420 6.495708
53.425 6.474127
53.430 6.728849
53.435 7.067644
53.440 7.271268
53.445 7.138538
53.450 6.84555
53.455 6.804295
53.460 7.15122
53.465 6.841807
53.470 6.703243
53.475 6.866154
53.480 7.163444
53.485 7.210191
53.490 6.61058
53.495 5.939995
53.500 5.938606
53.505 5.75218
53.510 5.553216
53.515 5.70626
53.520 6.225018
53.525 6.746487
53.530 7.331264
53.535 7.792202
53.540 8.121436
53.545 8.264644
53.550 7.992539
53.555 7.774929
53.560 7.414271
53.565 7.7277
53.570 7.570752
53.575 7.472586
53.580 7.543314
53.585 7.389284
53.590 7.536554
53.595 7.59217
53.600 6.908366
53.605 7.063146
53.610 6.92703
53.615 6.861443
53.620 6.986371
53.625 7.305722
53.630 7.546278
53.635 8.084412
53.640 8.086808
53.645 8.307899
53.650 8.450842
53.655 8.488714
53.660 8.343929
53.665 8.466973
53.670 8.457653
53.675 8.481154
53.680 8.521061
53.685 8.510277
53.690 8.780936
53.695 8.992861
53.700 8.593796
53.705 8.046753
53.710 7.879582
53.715 7.67759
53.720 7.727203
53.725 7.48278
53.730 7.553602
53.735 7.700893
53.740 7.559741
53.745 7.503845
53.750 7.479357
53.755 7.308474
53.760 6.923785
53.765 6.725891
53.770 6.464599
53.775 6.777435
53.780 6.993519
53.785 7.158388
53.790 7.578429
53.795 7.958395
53.800 8.279221
53.805 8.417248
53.810 8.503283
53.815 8.315302
53.820 8.841505
53.825 8.885365
53.830 8.414313
53.835 8.022007
53.840 8.159884
53.845 8.09526
53.850 8.106308
53.855 7.283597
53.860 7.428237
53.865 7.986503
53.870 8.42023
53.875 8.496181
53.880 8.358484
53.885 8.407516
53.890 8.394915
53.895 8.037868
53.900 7.994577
53.905 7.593597
53.910 7.46044
53.915 7.516785
53.920 8.005935
53.925 8.496674
53.930 8.762744
53.935 8.590775
53.940 8.69222
53.945 8.588046
53.950 8.418952
53.955 8.099857
53.960 8.110643
53.965 7.687536
53.970 7.693002
53.975 8.036721
53.980 8.224004
53.985 8.5741
53.990 8.7372
53.995 8.590996
54.000 8.506177
54.005 8.614332
54.010 8.547624
54.015 8.643549
54.020 8.597669
54.025 8.155616
54.030 8.436193
54.035 8.882863
54.040 9.041482
54.045 9.018374
54.050 8.778324
54.055 8.666331
54.060 8.223219
54.065 7.943418
54.070 7.278563
54.075 7.170682
54.080 7.399677
54.085 7.264458
54.090 7.419721
54.095 7.868314
54.100 8.090332
54.105 8.278054
54.110 8.175097
54.115 7.851444
54.120 7.936396
54.125 7.856131
54.130 7.961594
54.135 7.957793
54.140 8.130811
54.145 8.345136
54.150 8.603894
54.155 8.490365
54.160 8.513403
54.165 9.009872
54.170 9.054694
54.175 8.889142
54.180 8.418377
54.185 8.138771
54.190 8.224033
54.195 8.451918
54.200 8.434105
54.205 8.569805
54.210 8.407294
54.215 8.596454
54.220 8.632809
54.225 8.590573
54.230 7.999078
54.235 7.867103
54.240 7.732673
54.245 8.08952
54.250 8.395829
54.255 8.419477
54.260 8.438725
54.265 8.383627
54.270 8.329968
54.275 8.433286
54.280 8.578783
54.285 8.476395
54.290 8.520392
54.295 8.721728
54.300 8.819366
54.305 8.498507
54.310 8.603625
54.315 8.429595
54.320 8.373108
54.325 8.17982
54.330 7.818273
54.335 8.100527
54.340 8.4722
54.345 8.568973
54.350 8.960272
54.355 9.371573
54.360 9.495741
54.365 9.511024
54.370 9.282706
54.375 9.250415
54.380 9.174347
54.385 8.685981
54.390 8.732903
54.395 9.115385
54.400 9.069895
54.405 8.685454
54.410 8.250345
54.415 8.132215
54.420 8.072279
54.425 7.613863
54.430 7.084074
54.435 7.319553
54.440 7.487534
54.445 8.018176
54.450 8.335853
54.455 8.572387
54.460 8.730545
54.465 8.677508
54.470 8.451001
54.475 8.603667
54.480 8.546494
54.485 8.207585
54.490 7.992506
54.495 8.332309
54.500 8.49501
54.505 8.514375
54.510 8.417423
54.515 8.320152
54.520 8.283215
54.525 8.413815
54.530 8.336233
54.535 8.085254
54.540 8.459987
54.545 8.258709
54.550 7.896772
54.555 8.291773
54.560 8.139054
54.565 7.978513
54.570 8.350176
54.575 8.313417
54.580 8.547819
54.585 8.804431
54.590 8.936803
54.595 9.326416
54.600 9.670162
54.605 9.501703
54.610 9.355678
54.615 9.112968
54.620 8.711914
54.625 8.180645
54.630 7.553257
54.635 7.30639
54.640 7.032333
54.645 6.91421
54.650 7.262119
54.655 7.654177
54.660 7.669312
54.665 7.829998
54.670 7.840886
54.675 7.877738
54.680 7.781103
54.685 7.172473
54.690 7.188828
54.695 7.41626
54.700 7.633629
54.705 7.520572
54.710 7.680124
54.715 7.751204
54.720 7.806371
54.725 7.922321
54.730 7.776395
54.735 7.749872
54.740 7.520642
54.745 7.520304
54.750 7.92294
54.755 8.225999
54.760 8.219615
54.765 8.100643
54.770 8.533606
54.775 9.268614
54.780 9.340919
54.785 9.887297
54.790 9.766332
54.795 9.972118
54.800 9.992404
54.805 9.541742
54.810 9.133134
54.815 8.850054
54.820 8.447802
54.825 8.796726
54.830 8.75597
54.835 9.128692
54.840 9.395722
54.845 9.554584
54.850 10.018748
54.855 10.18987
54.860 9.757671
54.865 9.82683
54.870 9.715939
54.875 10.061803
54.880 10.431916
54.885 10.039124
54.890 9.612498
54.895 10.042364
54.900 10.16085
54.905 9.855062
54.910 9.316483
54.915 8.872532
54.920 8.764437
54.925 8.605902
54.930 8.032135
54.935 7.598025
54.940 7.903645
54.945 7.963881
54.950 8.399982
54.955 9.024173
54.960 9.52808
54.965 10.081017
54.970 10.607138
54.975 10.283811
54.980 10.765938
54.985 10.523439
54.990 10.355361
54.995 9.835601
55.000 9.183353
55.005 9.188894
55.010 9.291147
55.015 8.667133
55.020 8.634243
55.025 8.762295
55.030 9.209298
55.035 9.441192
55.040 9.382174
55.045 9.958691
55.050 10.314484
55.055 10.203951
55.060 10.370601
55.065 10.29115
55.070 10.16167
55.075 9.865273
55.080 9.167871
55.085 9.413638
55.090 9.683936
55.095 9.667935
55.100 9.619088
55.105 9.829005
55.110 9.906001
55.115 10.30635
55.120 10.365801
55.125 9.826786
55.130 9.531493
55.135 10.118689
55.140 10.113704
55.145 10.146728
55.150 9.761128
55.155 9.393636
55.160 9.912563
55.165 10.044608
55.170 9.628499
55.175 9.630486
55.180 9.729124
55.185 9.313839
55.190 9.036416
55.195 9.226651
55.200 8.827395
55.205 9.081832
55.210 9.025609
55.215 9.43518
55.220 10.233427
55.225 10.536758
55.230 10.088015
55.235 9.777063
55.240 9.526734
55.245 9.721115
55.250 9.575315
55.255 9.111773
55.260 9.064322
55.265 9.674539
55.270 10.300219
55.275 10.460016
55.280 9.961875
55.285 9.741877
55.290 9.358877
55.295 8.743754
55.300 8.425884
55.305 8.246332
55.310 8.392365
55.315 8.319461
55.320 8.519217
55.325 8.949969
55.330 9.062389
55.335 9.059541
55.340 9.259644
55.345 9.374505
55.350 9.069461
55.355 9.351369
55.360 9.578643
55.365 9.77098
55.370 9.587464
55.375 9.165794
55.380 9.189994
55.385 9.140518
55.390 8.619299
55.395 9.026361
55.400 9.35855
55.405 9.521731
55.410 9.707211
55.415 9.716082
55.420 9.832704
55.425 9.804277
55.430 9.770769
55.435 9.386945
55.440 9.490726
55.445 9.542119
55.450 9.932887
55.455 10.433575
55.460 10.982952
55.465 10.622375
55.470 11.022982
55.475 10.897496
55.480 10.735621
55.485 10.676579
55.490 10.511271
55.495 10.683393
55.500 10.833298
55.505 11.121961
55.510 11.159415
55.515 11.026361
55.520 11.003422
55.525 11.032805
55.530 10.828104
55.535 10.672957
55.540 10.09002
55.545 9.85204
55.550 10.022221
55.555 9.791631
55.560 9.494727
55.565 9.455606
55.570 9.435596
55.575 9.450554
55.580 9.093037
55.585 9.176199
55.590 9.296522
55.595 9.185972
55.600 9.224187
55.605 9.775431
55.610 10.493022
55.615 11.168959
55.620 11.307848
55.625 11.191663
55.630 11.116875
55.635 11.331987
55.640 11.009497
55.645 10.774219
55.650 10.512284
55.655 10.328123
55.660 10.375633
55.665 10.524394
55.670 10.304018
55.675 10.508898
55.680 10.713872
55.685 10.586131
55.690 10.517692
55.695 10.484061
55.700 10.438888
55.705 10.023119
55.710 9.294725
55.715 9.335954
55.720 9.602873
55.725 10.091174
55.730 9.963812
55.735 9.833508
55.740 10.0351
55.745 10.255903
55.750 10.299919
55.755 9.829557
55.760 9.154861
55.765 9.566175
55.770 9.743756
55.775 9.950476
55.780 9.88493
55.785 9.709703
55.790 10.226977
55.795 10.716835
55.800 10.81694
55.805 10.657429
55.810 10.761105
55.815 10.911767
55.820 10.958104
55.825 10.81294
55.830 10.885703
55.835 10.960033
55.840 11.038423
55.845 10.843861
55.850 10.425879
55.855 10.117748
55.860 9.616302
55.865 9.018097
55.870 8.625108
55.875 8.608629
55.880 8.848387
55.885 9.269465
55.890 9.775506
55.895 10.033089
55.900 10.091662
55.905 10.38207
55.910 10.626165
55.915 10.38291
55.920 10.143848
55.925 9.74832
55.930 9.534356
55.935 9.756899
55.940 9.220377
55.945 8.934759
55.950 9.247134
55.955 9.333654
55.960 9.493424
55.965 9.980404
55.970 10.409428
55.975 10.579034
55.980 10.292378
55.985 9.773813
55.990 9.75464
55.995 9.730841
56.000 9.199146
56.005 9.052358
56.010 9.516887
56.015 9.764954
56.020 9.807385
56.025 9.863326
56.030 10.220298
56.035 10.195059
56.040 9.927645
56.045 9.496406
56.050 9.388547
56.055 9.684041
56.060 9.67455
56.065 9.555195
56.070 9.607037
56.075 9.733145
56.080 10.099661
56.085 10.424467
56.090 10.2482
56.095 9.988142
56.100 9.93141
56.105 9.750125
56.110 9.923251
56.115 9.721695
56.120 9.679056
56.125 9.964663
56.130 10.564621
56.135 10.981768
56.140 11.281459
56.145 11.681742
56.150 11.746973
56.155 11.51298
56.160 11.03612
56.165 10.485552
56.170 10.370287
56.175 10.077679
56.180 9.54445
56.185 9.696792
56.190 10.118696
56.195 10.243741
56.200 10.300877
56.205 9.991604
56.210 10.446063
56.215 10.460595
56.220 10.151202
56.225 9.913363
56.230 10.378695
56.235 10.56009
56.240 10.782165
56.245 10.497267
56.250 10.462184
56.255 10.403889
56.260 10.493547
56.265 10.225151
56.270 9.835725
56.275 9.941384
56.280 9.882866
56.285 9.878211
56.290 9.960885
56.295 10.167927
56.300 9.998571
56.305 9.968719
56.310 10.188527
56.315 10.760715
56.320 11.205038
56.325 11.366994
56.330 11.584688
56.335 12.032418
56.340 12.640654
56.345 12.320983
56.350 11.780785
56.355 11.672728
56.360 11.552642
56.365 11.594193
56.370 11.7357
56.375 11.81533
56.380 12.099049
56.385 12.215867
56.390 12.35108
56.395 12.046992
56.400 11.584621
56.405 10.933728
56.410 10.379143
56.415 10.275473
56.420 10.233659
56.425 10.299571
56.430 10.726822
56.435 10.935475
56.440 11.077229
56.445 11.208913
56.450 11.025051
56.455 10.819323
56.460 10.368214
56.465 9.943698
56.470 10.137958
56.475 10.37304
56.480 10.437622
56.485 10.772459
56.490 11.248788
56.495 11.590825
56.500 12.282067
56.505 12.477931
56.510 12.452609
56.515 12.683552
56.520 12.76376
56.525 12.510541
56.530 12.163123
56.535 11.593772
56.540 11.398144
56.545 11.799471
56.550 11.657098
56.555 11.337136
56.560 11.347752
56.565 11.86366
56.570 12.049374
56.575 11.847808
56.580 11.612479
56.585 11.064975
56.590 10.875843
56.595 10.997283
56.600 10.478326
56.605 10.903631
56.610 10.956728
56.615 11.453981
56.620 11.940022
56.625 11.977947
56.630 11.762526
56.635 11.836187
56.640 11.433025
56.645 11.142063
56.650 10.656384
56.655 10.727871
56.660 10.790903
56.665 10.593903
56.670 10.739335
56.675 10.866984
56.680 11.043136
56.685 11.117892
56.690 11.512564
56.695 11.601902
56.700 11.762318
56.705 11.674712
56.710 11.85075
56.715 12.110305
56.720 12.174685
56.725 12.17571
56.730 12.83693
56.735 13.192465
56.740 13.390726
56.745 13.06343
56.750 12.767434
56.755 12.734568
56.760 12.284267
56.765 12.000849
56.770 11.420096
56.775 10.961482
56.780 10.93842
56.785 10.887097
56.790 10.724657
56.795 11.055498
56.800 11.025331
56.805 11.308941
56.810 11.641028
56.815 12.199002
56.820 12.207934
56.825 12.191625
56.830 11.788596
56.835 12.024519
56.840 12.042813
56.845 11.687537
56.850 11.628325
56.855 11.778752
56.860 11.365887
56.865 11.557047
56.870 11.182906
56.875 10.906301
56.880 11.227798
56.885 11.308121
56.890 11.684493
56.895 11.545033
56.900 11.144255
56.905 10.710751
56.910 10.49991
56.915 10.358571
56.920 9.932106
56.925 9.68146
56.930 10.250824
56.935 10.688414
56.940 11.395207
56.945 11.90935
56.950 11.642759
56.955 11.436224
56.960 11.005041
56.965 10.622784
56.970 10.514315
56.975 10.491994
56.980 10.559174
56.985 10.792501
56.990 10.885365
56.995 11.171193
57.000 11.121008
57.005 11.025855
57.010 11.189477
57.015 11.02142
57.020 11.209347
57.025 11.467519
57.030 11.600087
57.035 11.540008
57.040 11.216848
57.045 10.783826
57.050 10.59685
57.055 10.599152
57.060 10.374161
57.065 10.619846
57.070 11.429136
57.075 12.017112
57.080 12.429219
57.085 12.461337
57.090 12.323772
57.095 12.506026
57.100 12.343543
57.105 11.909994
57.110 11.77614
57.115 11.808164
57.120 11.902246
57.125 12.438783
57.130 12.655783
57.135 12.619477
57.140 13.058427
57.145 12.888038
57.150 12.557591
57.155 12.582794
57.160 11.983935
57.165 11.993473
57.170 11.745598
57.175 10.892809
57.180 10.794833
57.185 11.362704
57.190 11.375389
57.195 11.787643
57.200 11.630177
57.205 11.874399
57.210 12.967775
57.215 12.744635
57.220 12.024994
57.225 11.603469
57.230 11.299201
57.235 11.640934
57.240 11.509274
57.245 10.896116
57.250 10.914021
57.255 11.554689
57.260 11.677445
57.265 11.368448
57.270 11.185273
57.275 11.37702
57.280 12.238852
57.285 12.801021
57.290 12.844659
57.295 12.820164
57.300 13.327184
57.305 13.32327
57.310 13.210973
57.315 13.200785
57.320 13.605966
57.325 14.062495
57.330 14.683241
57.335 14.418796
57.340 14.503675
57.345 14.718331
57.350 13.915695
57.355 12.978835
57.360 12.174519
57.365 12.256931
57.370 11.86613
57.375 11.61734
57.380 11.914392
57.385 12.647695
57.390 12.953452
57.395 12.86917
57.400 13.024993
57.405 13.674162
57.410 13.711884
57.415 13.070406
57.420 12.587332
57.425 13.057153
57.430 12.845965
57.435 12.479598
57.440 12.226208
57.445 11.903016
57.450 11.925876
57.455 11.8474
57.460 11.317271
57.465 11.188648
57.470 11.217472
57.475 11.337079
57.480 11.99885
57.485 11.833825
57.490 11.633249
57.495 12.172561
57.500 12.887404
57.505 13.122927
57.510 12.666363
57.515 12.589791
57.520 13.31295
57.525 13.788012
57.530 13.169875
57.535 12.585553
57.540 12.501738
57.545 12.751125
57.550 12.549024
57.555 12.054266
57.560 11.757262
57.565 12.175054
57.570 12.39988
57.575 12.42369
57.580 12.964148
57.585 13.261764
57.590 13.767839
57.595 14.257291
57.600 14.464071
57.605 14.794497
57.610 14.681638
57.615 14.157655
57.620 14.3116
57.625 14.066265
57.630 13.863919
57.635 13.619967
57.640 13.8469
57.645 13.805313
57.650 13.366186
57.655 12.777992
57.660 13.004301
57.665 12.683821
57.670 12.380258
57.675 12.038263
57.680 12.631322
57.685 13.156525
57.690 14.025089
57.695 14.083638
57.700 14.153626
57.705 14.150601
57.710 14.439726
57.715 14.204005
57.720 14.284982
57.725 13.749218
57.730 13.629342
57.735 13.884195
57.740 13.727595
57.745 13.106064
57.750 13.299705
57.755 12.891479
57.760 12.483717
57.765 12.632967
57.770 13.236693
57.775 13.608679
57.780 13.678226
57.785 13.519009
57.790 13.553455
57.795 13.853333
57.800 13.541123
57.805 13.016521
57.810 13.361291
57.815 13.88548
57.820 14.26073
57.825 14.37423
57.830 14.696016
57.835 14.934329
57.840 15.2154
57.845 14.722443
57.850 14.218109
57.855 13.951989
57.860 13.981806
57.865 13.359928
57.870 13.286616
57.875 13.528104
57.880 13.970151
57.885 14.473859
57.890 14.637602
57.895 14.545001
57.900 14.861326
57.905 15.109797
57.910 15.112679
57.915 14.987614
57.920 15.175306
57.925 14.827564
57.930 14.904747
57.935 14.512018
57.940 13.776414
57.945 13.208539
57.950 13.355782
57.955 13.008698
57.960 13.003808
57.965 13.129225
57.970 13.445252
57.975 13.955105
57.980 14.55534
57.985 15.001406
57.990 15.285626
57.995 15.130569
58.000 14.932159
58.005 14.985505
58.010 14.928476
58.015 14.739798
58.020 13.764456
58.025 13.423131
58.030 13.555852
58.035 13.858972
58.040 13.877776
58.045 13.566366
58.050 13.271091
58.055 13.189307
58.060 13.235564
58.065 12.898799
58.070 12.850591
58.075 12.967528
58.080 13.596308
58.085 13.859895
58.090 14.128022
58.095 14.261332
58.100 14.931601
58.105 15.142408
58.110 15.311266
58.115 15.117217
58.120 15.436234
58.125 15.81097
58.130 16.134981
58.135 15.834168
58.140 15.696465
58.145 15.659768
58.150 15.563125
58.155 15.283295
58.160 15.374331
58.165 15.471036
58.170 15.595111
58.175 15.543923
58.180 15.425322
58.185 15.812242
58.190 16.269567
58.195 16.325428
58.200 16.009857
58.205 15.856883
58.210 15.547507
58.215 15.727859
58.220 15.411016
58.225 15.117845
58.230 14.744795
58.235 14.721848
58.240 15.435627
58.245 15.525569
58.250 15.28504
58.255 15.70662
58.260 16.033258
58.265 17.015976
58.270 16.895466
58.275 16.466133
58.280 17.336592
58.285 17.662743
58.290 18.046778
58.295 17.763662
58.300 17.415461
58.305 18.256659
58.310 18.620676
58.315 18.167465
58.320 17.867952
58.325 17.409576
58.330 17.723211
58.335 18.467306
58.340 19.104351
58.345 20.224314
58.350 21.047943
58.355 21.468225
58.360 22.104849
58.365 22.545795
58.370 21.73032
58.375 21.173515
58.380 20.133715
58.385 19.986908
58.390 20.111496
58.395 20.03134
58.400 20.387438
58.405 20.928236
58.410 20.96677
58.415 21.124809
58.420 21.483166
58.425 22.335865
58.430 22.466402
58.435 21.897171
58.440 21.957951
58.445 21.99324
58.450 22.404591
58.455 22.628347
58.460 22.354889
58.465 23.080219
58.470 23.982355
58.475 23.856028
58.480 23.960831
58.485 23.758575
58.490 24.032949
58.495 24.088398
58.500 23.755259
58.505 23.718325
58.510 24.03977
58.515 24.145622
58.520 24.812305
58.525 25.325232
58.530 25.979498
58.535 25.701159
58.540 25.422228
58.545 26.028099
58.550 26.303753
58.555 26.209471
58.560 26.28167
58.565 25.715271
58.570 26.489584
58.575 26.447838
58.580 25.458574
58.585 24.895872
58.590 24.817825
58.595 24.552555
58.600 24.355829
58.605 23.8375
58.610 23.49567
58.615 23.715204
58.620 24.332344
58.625 24.515518
58.630 24.788479
58.635 25.338099
58.640 25.41329
58.645 25.995485
58.650 25.644777
58.655 25.758663
58.660 25.511812
58.665 25.012548
58.670 24.091074
58.675 23.77702
58.680 23.369791
58.685 23.73617
58.690 23.938286
58.695 24.134315
58.700 23.605314
58.705 24.288294
58.710 24.756031
58.715 24.740351
58.720 24.818338
58.725 24.417341
58.730 24.07152
58.735 24.401054
58.740 24.808626
58.745 24.657904
58.750 24.990078
58.755 24.638193
58.760 24.197472
58.765 23.651888
58.770 23.124712
58.775 22.860044
58.780 22.494377
58.785 22.026754
58.790 21.743767
58.795 21.854408
58.800 22.372299
58.805 22.541752
58.810 22.445118
58.815 22.379524
58.820 22.980238
58.825 23.2143
58.830 23.600473
58.835 23.177212
58.840 22.77862
58.845 22.4708
58.850 22.537889
58.855 21.703602
58.860 20.902636
58.865 20.128994
58.870 20.469133
58.875 20.035362
58.880 19.243683
58.885 18.803755
58.890 18.770855
58.895 18.675356
58.900 18.114775
58.905 17.532951
58.910 17.929964
58.915 18.35696
58.920 18.664591
58.925 19.11747
58.930 18.921295
58.935 18.860937
58.940 19.253162
58.945 19.410387
58.950 19.039545
58.955 18.375811
58.960 18.186987
58.965 18.314192
58.970 18.491217
58.975 17.767469
58.980 17.213667
58.985 17.720104
58.990 17.459173
58.995 16.978579
59.000 16.837173
59.005 16.708338
59.010 16.338707
59.015 16.763712
59.020 16.881605
59.025 17.584488
59.030 17.936844
59.035 18.539543
59.040 18.797886
59.045 19.035557
59.050 18.143089
59.055 17.38904
59.060 16.981377
59.065 16.377459
59.070 15.777228
59.075 15.724616
59.080 16.457325
59.085 16.179541
59.090 15.570675
59.095 15.48603
59.100 15.24858
59.105 15.370971
59.110 15.102207
59.115 14.004435
59.120 14.287208
59.125 14.81215
59.130 14.857431
59.135 15.023064
59.140 14.961877
59.145 14.627984
59.150 14.750388
59.155 14.637588
59.160 14.573156
59.165 14.543994
59.170 14.640885
59.175 14.878314
59.180 14.889615
59.185 14.989449
59.190 15.495393
59.195 15.817332
59.200 15.507067
59.205 15.659391
59.210 14.961308
59.215 15.165798
59.220 15.293339
59.225 15.307323
59.230 15.384672
59.235 15.826202
59.240 16.426884
59.245 16.735144
59.250 16.529833
59.255 16.164278
59.260 15.82769
59.265 15.729567
59.270 14.857971
59.275 13.971596
59.280 13.648293
59.285 13.957894
59.290 14.214341
59.295 14.174865
59.300 14.268205
59.305 14.457092
59.310 14.708014
59.315 14.811261
59.320 14.328484
59.325 13.889593
59.330 13.52076
59.335 13.620332
59.340 13.761127
59.345 13.724352
59.350 13.571072
59.355 14.435121
59.360 14.287984
59.365 14.255206
59.370 13.971336
59.375 14.100838
59.380 13.748573
59.385 13.984435
59.390 13.582256
59.395 13.910124
59.400 14.399372
59.405 14.325169
59.410 14.020777
59.415 14.16947
59.420 13.791317
59.425 13.612843
59.430 13.594614
59.435 13.391682
59.440 13.524224
59.445 13.382545
59.450 13.403106
59.455 14.085375
59.460 14.558349
59.465 14.125765
59.470 13.688452
59.475 13.980879
59.480 14.255563
59.485 14.428168
59.490 13.71911
59.495 13.172687
59.500 13.526444
59.505 13.703329
59.510 13.670589
59.515 13.379647
59.520 13.393115
59.525 13.669857
59.530 13.785945
59.535 13.370377
59.540 13.214125
59.545 13.299794
59.550 13.557563
59.555 13.298951
59.560 13.011216
59.565 13.441253
59.570 13.724408
59.575 13.959121
59.580 13.983627
59.585 13.750451
59.590 14.26949
59.595 14.929205
59.600 15.502982
59.605 15.936354
59.610 15.713252
59.615 16.044189
59.620 16.204041
59.625 15.825416
59.630 15.420164
59.635 14.766474
59.640 14.201605
59.645 14.288317
59.650 13.81453
59.655 14.09112
59.660 13.816554
59.665 13.354715
59.670 13.9994
59.675 14.458079
59.680 14.526749
59.685 14.184484
59.690 14.349991
59.695 15.00109
59.700 15.406069
59.705 15.173443
59.710 15.495732
59.715 15.402631
59.720 15.697639
59.725 15.658935
59.730 15.613963
59.735 15.733748
59.740 15.329724
59.745 14.997045
59.750 15.088365
59.755 15.109053
59.760 15.149751
59.765 14.99476
59.770 14.451857
59.775 14.978586
59.780 15.172939
59.785 15.249861
59.790 15.29273
59.795 15.008205
59.800 15.353853
59.805 15.528749
59.810 15.098677
59.815 14.785699
59.820 14.757321
59.825 14.819626
59.830 14.76734
59.835 14.212665
59.840 13.086501
59.845 13.08132
59.850 12.853566
59.855 12.527159
59.860 12.351674
59.865 12.162538
59.870 12.558197
59.875 13.174715
59.880 13.03319
59.885 13.125667
59.890 13.462898
59.895 13.772829
59.900 14.375117
59.905 14.679588
59.910 14.972765
59.915 14.812028
59.920 14.959841
59.925 14.689723
59.930 14.548519
59.935 13.729537
59.940 13.351646
59.945 13.146616
59.950 12.825974
59.955 12.667303
59.960 12.873274
59.965 12.689234
59.970 12.621457
59.975 12.370833
59.980 12.33036
59.985 12.918854
59.990 13.412921
59.995 13.310774
60.000 13.792622
60.005 14.214201
60.010 14.478583
60.015 14.40643
60.020 14.068999
60.025 13.85176
60.030 14.09236
60.035 13.405647
60.040 13.09054
60.045 13.266158
60.050 13.794742
60.055 13.542527
60.060 13.086349
60.065 12.614867
60.070 13.105641
60.075 13.214586
60.080 12.867711
60.085 13.011402
60.090 13.730916
60.095 13.756685
60.100 14.213498
60.105 14.476943
60.110 14.764234
60.115 14.826378
60.120 14.525724
60.125 14.5239
60.130 15.07693
60.135 15.207518
60.140 14.949669
60.145 14.438098
60.150 14.022468
60.155 13.928735
60.160 13.471478
60.165 12.822545
60.170 12.775726
60.175 12.847339
60.180 13.712427
60.185 14.567306
60.190 14.761281
60.195 14.9281
60.200 15.654274
60.205 16.121042
60.210 16.742809
60.215 16.429142
60.220 15.924864
60.225 16.211637
60.230 16.251438
60.235 15.650043
60.240 14.764195
60.245 14.027079
60.250 14.104368
60.255 14.758166
60.260 14.839579
60.265 14.899585
60.270 15.049022
60.275 14.846555
60.280 14.681765
60.285 13.836527
60.290 13.323318
60.295 12.808027
60.300 12.60136
60.305 12.882154
60.310 13.338181
60.315 13.662503
60.320 14.131326
60.325 13.811401
60.330 14.028484
60.335 13.693187
60.340 13.119177
60.345 13.272513
60.350 13.347916
60.355 13.588238
60.360 14.018626
60.365 13.813766
60.370 14.524744
60.375 14.369641
60.380 14.247141
60.385 13.835682
60.390 13.40459
60.395 12.782516
60.400 12.823545
60.405 13.162055
60.410 13.51096
60.415 12.800077
60.420 12.851516
60.425 12.715578
60.430 13.158648
60.435 13.112573
60.440 12.382781
60.445 12.474615
60.450 12.625264
60.455 12.992902
60.460 12.989432
60.465 12.828364
60.470 13.095354
60.475 13.322997
60.480 13.301864
60.485 13.583791
60.490 13.500155
60.495 13.320498
60.500 13.316048
60.505 13.261826
60.510 12.963675
60.515 13.152052
60.520 13.086446
60.525 13.428568
60.530 14.837744
60.535 14.674776
60.540 14.837805
60.545 15.403671
60.550 15.24447
60.555 15.180848
60.560 14.69404
60.565 14.233672
60.570 15.215356
60.575 15.249906
60.580 14.885045
60.585 14.984092
60.590 15.039246
60.595 14.896527
60.600 14.447343
60.605 13.839602
60.610 13.940499
60.615 13.856834
60.620 14.105575
60.625 14.365715
60.630 14.533699
60.635 14.782093
60.640 14.589562
60.645 14.233628
60.650 14.505681
60.655 14.221841
60.660 14.33619
60.665 14.610618
60.670 14.829269
60.675 14.527273
60.680 14.571541
60.685 14.344228
60.690 15.005008
60.695 15.070904
60.700 14.328765
60.705 14.321549
60.710 14.899819
60.715 15.028446
60.720 14.765661
60.725 13.920009
60.730 13.62008
60.735 14.162366
60.740 14.291547
60.745 14.067623
60.750 13.819663
60.755 13.863428
60.760 13.866515
60.765 14.267449
60.770 13.930969
60.775 13.530073
60.780 13.622358
60.785 13.725567
60.790 14.038468
60.795 13.9244
60.800 13.873673
60.805 13.908156
60.810 13.930818
60.815 13.750587
60.820 13.785868
60.825 13.493055
60.830 13.706478
60.835 13.71288
60.840 14.016577
60.845 14.466854
60.850 15.290356
60.855 15.771981
60.860 16.311665
60.865 16.741999
60.870 16.565123
60.875 16.596918
60.880 16.064243
60.885 15.265265
60.890 14.607446
60.895 14.155747
60.900 13.802907
60.905 13.971208
60.910 13.303237
60.915 13.364208
60.920 13.418186
60.925 13.391005
60.930 13.438582
60.935 12.823834
60.940 12.631757
60.945 13.08862
60.950 12.647189
60.955 12.63762
60.960 12.869121
60.965 13.331367
60.970 13.939289
60.975 14.272751
60.980 14.297365
60.985 14.703991
60.990 14.965532
60.995 14.758418
61.000 14.530946
61.005 14.606771
61.010 14.771557
61.015 14.758821
61.020 15.201784
61.025 15.308636
61.030 15.207103
61.035 14.890305
61.040 14.789588
61.045 14.640244
61.050 14.827688
61.055 14.75174
61.060 15.077918
61.065 15.577278
61.070 16.309914
61.075 16.138145
61.080 16.191113
61.085 16.352409
61.090 16.28709
61.095 15.728751
61.100 15.315794
61.105 15.069332
61.110 14.92297
61.115 14.696608
61.120 14.40466
61.125 13.999825
61.130 14.37468
61.135 14.538401
61.140 14.338722
61.145 14.272101
61.150 14.269429
61.155 14.618928
61.160 14.919702
61.165 14.683222
61.170 14.626724
61.175 14.958346
61.180 15.291559
61.185 15.138058
61.190 14.914491
61.195 15.533079
61.200 15.783634
61.205 16.055304
61.210 16.021135
61.215 16.026209
61.220 16.224962
61.225 16.428534
61.230 16.116673
61.235 15.749482
61.240 15.67801
61.245 16.018635
61.250 15.981831
61.255 16.018229
61.260 15.776096
61.265 15.177543
61.270 15.32429
61.275 15.107599
61.280 14.80307
61.285 14.881339
61.290 14.813419
61.295 15.361193
61.300 15.843447
61.305 15.812839
61.310 16.05925
61.315 16.229574
61.320 16.057018
61.325 15.772356
61.330 15.030725
61.335 14.854465
61.340 14.920295
61.345 14.459946
61.350 13.54834
61.355 13.59728
61.360 13.931788
61.365 14.15587
61.370 14.101121
61.375 13.976161
61.380 14.884922
61.385 15.226166
61.390 14.927836
61.395 14.614904
61.400 14.726234
61.405 14.843063
61.410 14.86912
61.415 14.014609
61.420 14.021894
61.425 14.627715
61.430 14.425556
61.435 14.226703
61.440 14.647553
61.445 15.129264
61.450 15.744859
61.455 16.250607
61.460 16.365784
61.465 16.311323
61.470 15.866017
61.475 15.408591
61.480 14.946711
61.485 14.795839
61.490 14.421371
61.495 14.007092
61.500 14.508026
61.505 15.147749
61.510 15.230183
61.515 15.376117
61.520 15.490256
61.525 16.18359
61.530 16.239759
61.535 16.163033
61.540 16.268013
61.545 16.81329
61.550 16.774485
61.555 16.961435
61.560 16.948376
61.565 17.008905
61.570 16.962677
61.575 17.210052
61.580 16.632801
61.585 16.309389
61.590 15.519071
61.595 14.951464
61.600 14.994134
61.605 15.388823
61.610 15.008716
61.615 14.742675
61.620 15.142041
61.625 15.550964
61.630 15.68921
61.635 15.613269
61.640 14.904284
61.645 14.660713
61.650 14.656498
61.655 14.410545
61.660 14.336909
61.665 13.98005
61.670 13.861737
61.675 14.10565
61.680 14.431348
61.685 14.622678
61.690 14.825186
61.695 14.642851
61.700 14.407854
61.705 14.524189
61.710 14.51351
61.715 14.855758
61.720 14.618175
61.725 14.7141
61.730 15.238647
61.735 15.907412
61.740 16.132236
61.745 16.175331
61.750 16.163883
61.755 16.58703
61.760 16.580664
61.765 16.596594
61.770 16.446566
61.775 16.528284
61.780 16.221352
61.785 15.951439
61.790 15.301601
61.795 14.707476
61.800 14.469731
61.805 14.411991
61.810 14.180537
61.815 13.914714
61.820 13.79575
61.825 14.497663
61.830 15.43506
61.835 15.396971
61.840 15.304951
61.845 16.032524
61.850 16.800032
61.855 17.636473
61.860 17.530079
61.865 16.84651
61.870 17.050169
61.875 17.189297
61.880 17.066254
61.885 16.909525
61.890 16.044338
61.895 15.67159
61.900 15.487129
61.905 15.347562
61.910 15.493959
61.915 15.153028
61.920 14.766172
61.925 14.8378
61.930 14.624812
61.935 14.594617
61.940 14.988546
61.945 14.740837
61.950 14.513857
61.955 14.42626
61.960 14.088779
61.965 14.447403
61.970 14.948441
61.975 15.040809
61.980 15.033739
61.985 15.477411
61.990 15.501128
61.995 15.916898
62.000 15.847307
62.005 15.907187
62.010 15.973377
62.015 15.658739
62.020 15.661808
62.025 16.025467
62.030 15.715002
62.035 15.312943
62.040 14.959889
62.045 14.314605
62.050 14.263052
62.055 13.862498
62.060 14.657161
62.065 15.606852
62.070 16.116711
62.075 15.824242
62.080 16.471434
62.085 17.14505
62.090 17.078642
62.095 16.020315
62.100 15.457146
62.105 15.235156
62.110 15.147442
62.115 14.960703
62.120 14.422666
62.125 14.811945
62.130 15.022074
62.135 15.066827
62.140 15.481333
62.145 15.986623
62.150 15.693645
62.155 15.888486
62.160 16.274559
62.165 16.560944
62.170 16.473951
62.175 16.590834
62.180 16.672081
62.185 17.235596
62.190 17.384905
62.195 17.221323
62.200 17.441896
62.205 17.396105
62.210 17.544645
62.215 17.559734
62.220 16.883116
62.225 16.814241
62.230 16.633867
62.235 16.114027
62.240 16.314514
62.245 15.816406
62.250 15.37891
62.255 15.587023
62.260 15.384777
62.265 15.450489
62.270 15.063029
62.275 14.502373
62.280 14.586573
62.285 14.459862
62.290 14.748554
62.295 14.264265
62.300 14.271673
62.305 14.515724
62.310 14.71246
62.315 14.425553
62.320 14.474312
62.325 14.291186
62.330 14.843225
62.335 15.138691
62.340 15.48642
62.345 15.919676
62.350 16.138422
62.355 16.513857
62.360 16.836454
62.365 16.846107
62.370 16.545952
62.375 15.607056
62.380 15.138381
62.385 14.857944
62.390 14.530803
62.395 14.267258
62.400 14.05693
62.405 13.824744
62.410 14.910759
62.415 15.126399
62.420 15.160083
62.425 15.068848
62.430 14.658306
62.435 14.769033
62.440 14.940007
62.445 15.355769
62.450 15.82283
62.455 16.272606
62.460 17.087582
62.465 17.691486
62.470 17.58498
62.475 17.625843
62.480 16.987185
62.485 16.485836
62.490 15.943784
62.495 15.526526
62.500 15.284922
62.505 15.393829
62.510 15.053835
62.515 14.827462
62.520 15.165361
62.525 15.095363
62.530 15.019362
62.535 15.287231
62.540 15.140029
62.545 15.07727
62.550 15.091951
62.555 15.082573
62.560 15.574097
62.565 15.397765
62.570 15.219517
62.575 15.235935
62.580 15.312462
62.585 15.201127
62.590 14.469877
62.595 14.111541
62.600 14.22593
62.605 14.253607
62.610 14.487238
62.615 14.489935
62.620 14.346225
62.625 14.829786
62.630 15.192353
62.635 15.21948
62.640 14.892383
62.645 14.406486
62.650 14.939443
62.655 15.451212
62.660 15.869077
62.665 15.493634
62.670 15.438152
62.675 15.737054
62.680 16.078749
62.685 16.102766
62.690 16.008778
62.695 15.423675
62.700 15.350436
62.705 15.456544
62.710 15.337622
62.715 15.210999
62.720 14.703484
62.725 15.263899
62.730 15.621232
62.735 15.918244
62.740 16.16687
62.745 16.307138
62.750 16.486246
62.755 16.719154
62.760 16.141283
62.765 16.342251
62.770 15.86356
62.775 15.315132
62.780 15.50866
62.785 15.400374
62.790 15.425166
62.795 16.241261
62.800 15.962446
62.805 16.735605
62.810 17.728161
62.815 17.934343
62.820 18.348383
62.825 18.000776
62.830 17.697725
62.835 17.86286
62.840 17.284767
62.845 16.764416
62.850 16.536385
62.855 16.804302
62.860 17.385832
62.865 16.976387
62.870 17.043678
62.875 17.316269
62.880 17.212591
62.885 16.943155
62.890 16.607605
62.895 16.12705
62.900 16.073919
62.905 15.903084
62.910 15.913959
62.915 15.492464
62.920 15.033202
62.925 14.662792
62.930 14.613811
62.935 15.109849
62.940 15.189414
62.945 14.707223
62.950 14.654678
62.955 14.612871
62.960 14.975634
62.965 14.76147
62.970 14.34811
62.975 14.552279
62.980 14.978925
62.985 15.411834
62.990 15.927547
62.995 15.85154
63.000 16.093422
63.005 15.984719
63.010 15.664067
63.015 15.343749
63.020 15.389524
63.025 15.642329
63.030 15.68881
63.035 15.668853
63.040 15.538772
63.045 16.252993
63.050 16.02607
63.055 15.67592
63.060 15.666559
63.065 16.190094
63.070 16.358213
63.075 16.688585
63.080 16.152122
63.085 16.496077
63.090 16.737276
63.095 16.354904
63.100 16.061916
63.105 16.259283
63.110 15.901241
63.115 16.29447
63.120 16.767723
63.125 16.511509
63.130 16.45142
63.135 16.576349
63.140 16.472509
63.145 16.317978
63.150 16.344854
63.155 15.74373
63.160 15.922166
63.165 15.865392
63.170 15.521059
63.175 15.914651
63.180 16.270494
63.185 16.04949
63.190 16.418692
63.195 16.209923
63.200 16.196234
63.205 15.832631
63.210 15.304904
63.215 15.074809
63.220 14.762027
63.225 14.311601
63.230 14.620413
63.235 14.795939
63.240 15.306118
63.245 15.53994
63.250 15.691093
63.255 16.363827
63.260 16.481104
63.265 16.137766
63.270 15.669098
63.275 15.115186
63.280 14.985551
63.285 15.123128
63.290 14.893578
63.295 14.795747
63.300 14.918849
63.305 15.309439
63.310 15.594013
63.315 15.527321
63.320 15.692744
63.325 16.165899
63.330 17.08189
63.335 17.670235
63.340 17.85841
63.345 18.022268
63.350 17.856516
63.355 17.564356
63.360 17.273357
63.365 16.82093
63.370 16.601963
63.375 16.414612
63.380 16.308191
63.385 16.336855
63.390 17.040007
63.395 17.307652
63.400 17.114601
63.405 16.797201
63.410 16.091469
63.415 16.033535
63.420 15.787164
63.425 15.146494
63.430 15.706736
63.435 15.585369
63.440 15.786505
63.445 16.484875
63.450 16.485901
63.455 16.625259
63.460 16.641556
63.465 16.655235
63.470 17.499905
63.475 18.25688
63.480 18.306856
63.485 18.050446
63.490 18.091612
63.495 18.163809
63.500 17.483263
63.505 17.070026
63.510 16.788973
63.515 17.446711
63.520 17.679731
63.525 17.550705
63.530 17.42243
63.535 17.839266
63.540 17.745953
63.545 17.635334
63.550 17.165419
63.555 16.905024
63.560 17.33037
63.565 17.560349
63.570 17.402815
63.575 17.206018
63.580 17.002192
63.585 16.984634
63.590 17.203096
63.595 17.133606
63.600 16.858799
63.605 16.99309
63.610 17.075628
63.615 17.139608
63.620 17.868179
63.625 17.813713
63.630 17.657618
63.635 17.63163
63.640 17.587664
63.645 17.465271
63.650 17.253365
63.655 16.879761
63.660 17.393011
63.665 18.056135
63.670 18.095539
63.675 18.252851
63.680 18.792713
63.685 19.327631
63.690 19.618954
63.695 19.075203
63.700 18.846388
63.705 18.758453
63.710 19.147583
63.715 19.239613
63.720 18.694653
63.725 18.465647
63.730 18.606359
63.735 18.709209
63.740 18.921852
63.745 18.674311
63.750 18.707123
63.755 19.305107
63.760 19.665777
63.765 20.04689
63.770 20.421862
63.775 20.441912
63.780 20.933363
63.785 20.831411
63.790 20.511621
63.795 20.263124
63.800 19.968538
63.805 19.882505
63.810 20.164146
63.815 20.128397
63.820 20.227282
63.825 20.598921
63.830 21.134689
63.835 21.474926
63.840 22.214674
63.845 21.978323
63.850 21.518688
63.855 21.575459
63.860 21.408924
63.865 21.503126
63.870 21.296206
63.875 21.065752
63.880 20.714935
63.885 20.936522
63.890 20.722946
63.895 20.58922
63.900 20.576801
63.905 20.703766
63.910 20.558741
63.915 21.32041
63.920 21.920774
63.925 22.169386
63.930 22.453913
63.935 22.66828
63.940 22.65501
63.945 22.957836
63.950 22.905743
63.955 23.016302
63.960 23.83251
63.965 24.671787
63.970 24.659039
63.975 24.857269
63.980 24.949465
63.985 25.304916
63.990 25.161247
63.995 24.957664
64.000 25.214298
64.005 25.532495
64.010 26.289289
64.015 27.446848
64.020 27.862545
64.025 28.708355
64.030 29.324547
64.035 29.446859
64.040 29.833517
64.045 29.741131
64.050 30.457649
64.055 30.475187
64.060 29.648199
64.065 28.90959
64.070 28.422493
64.075 28.004377
64.080 28.670534
64.085 28.304134
64.090 28.297449
64.095 28.853611
64.100 29.410692
64.105 30.045527
64.110 31.086502
64.115 30.288994
64.120 29.958174
64.125 30.591553
64.130 30.646418
64.135 30.568682
64.140 30.806192
64.145 30.437304
64.150 30.180603
64.155 30.125908
64.160 30.495569
64.165 31.234009
64.170 31.77701
64.175 31.810242
64.180 32.008102
64.185 33.19931
64.190 34.459156
64.195 34.216724
64.200 33.811729
64.205 33.041706
64.210 32.910675
64.215 32.956757
64.220 32.589767
64.225 31.588602
64.230 31.898338
64.235 32.340107
64.240 33.342754
64.245 33.872028
64.250 34.11274
64.255 34.752121
64.260 34.56673
64.265 34.768993
64.270 34.47784
64.275 33.675148
64.280 32.940376
64.285 31.750652
64.290 30.972528
64.295 31.289968
64.300 30.78693
64.305 31.012907
64.310 31.10174
64.315 31.516685
64.320 32.26635
64.325 33.02507
64.330 32.546391
64.335 32.61776
64.340 32.596092
64.345 32.471386
64.350 31.958858
64.355 31.986406
64.360 31.391792
64.365 31.089918
64.370 30.973646
64.375 30.75906
64.380 31.07255
64.385 31.381493
64.390 31.104839
64.395 30.947124
64.400 31.596077
64.405 32.086109
64.410 32.364639
64.415 31.84482
64.420 31.619162
64.425 31.70771
64.430 31.962286
64.435 31.754322
64.440 31.224669
64.445 30.659315
64.450 30.036758
64.455 30.085215
64.460 29.579386
64.465 28.375662
64.470 26.71678
64.475 26.139103
64.480 25.984051
64.485 26.596127
64.490 27.090298
64.495 27.007666
64.500 27.637901
64.505 27.312124
64.510 27.02529
64.515 26.976503
64.520 26.524792
64.525 25.291397
64.530 25.432596
64.535 24.775297
64.540 25.204241
64.545 25.363079
64.550 25.670658
64.555 25.900772
64.560 26.273949
64.565 26.06192
64.570 26.817156
64.575 27.007586
64.580 26.436802
64.585 25.792259
64.590 25.366919
64.595 24.719481
64.600 24.203894
64.605 23.610765
64.610 22.897089
64.615 22.409735
64.620 22.123255
64.625 22.310963
64.630 22.3155
64.635 21.546246
64.640 20.663822
64.645 20.696102
64.650 20.808691
64.655 21.10046
64.660 20.861025
64.665 21.056208
64.670 21.470892
64.675 21.538816
64.680 21.805729
64.685 22.394403
64.690 22.538179
64.695 22.54273
64.700 22.437605
64.705 21.875814
64.710 21.571329
64.715 21.153006
64.720 20.614557
64.725 20.019871
64.730 19.669048
64.735 19.227848
64.740 19.274948
64.745 19.62756
64.750 19.696438
64.755 19.262247
64.760 19.000637
64.765 19.260096
64.770 19.394167
64.775 19.542067
64.780 19.278273
64.785 18.970493
64.790 19.124226
64.795 19.132849
64.800 18.936237
64.805 19.011936
64.810 18.93709
64.815 18.608786
64.820 18.747379
64.825 19.186945
64.830 19.536123
64.835 19.736362
64.840 19.861322
64.845 20.627581
64.850 21.099758
64.855 20.915043
64.860 20.312851
64.865 19.926474
64.870 20.012222
64.875 19.552338
64.880 18.982935
64.885 18.702631
64.890 19.051537
64.895 19.113579
64.900 19.185825
64.905 19.087412
64.910 19.477663
64.915 19.243658
64.920 18.969786
64.925 18.874535
64.930 18.957275
64.935 18.475073
64.940 18.562834
64.945 18.478117
64.950 18.503244
64.955 18.534842
64.960 18.496117
64.965 18.438036
64.970 18.681641
64.975 18.45409
64.980 18.035053
64.985 18.114822
64.990 18.127522
64.995 18.220631
65.000 18.728785
65.005 19.14662
65.010 19.138962
65.015 19.391018
65.020 20.31307
65.025 21.126501
65.030 20.944944
65.035 20.694166
65.040 20.640572
65.045 21.407961
65.050 21.603596
65.055 20.655838
65.060 20.190645
65.065 20.693645
65.070 20.867868
65.075 20.489508
65.080 19.526758
65.085 19.524368
65.090 19.596132
65.095 19.557932
65.100 18.935455
65.105 18.780689
65.110 19.331684
65.115 19.854755
65.120 19.639265
65.125 19.749794
65.130 19.804228
65.135 19.859407
65.140 20.032669
65.145 19.771887
65.150 20.034319
65.155 20.313362
65.160 20.424461
65.165 21.152014
65.170 21.395624
65.175 21.006231
65.180 21.046385
65.185 20.836615
65.190 20.517075
65.195 20.268942
65.200 19.346182
65.205 19.231298
65.210 19.546215
65.215 19.008097
65.220 18.665276
65.225 18.65744
65.230 19.554527
65.235 19.886911
65.240 20.391523
65.245 20.143297
65.250 20.476173
65.255 20.338816
65.260 20.365444
65.265 19.677479
65.270 19.522938
65.275 19.125443
65.280 18.709002
65.285 18.870121
65.290 19.413597
65.295 19.458237
65.300 20.09244
65.305 20.190323
65.310 19.966604
65.315 20.614462
65.320 21.02372
65.325 21.154081
65.330 20.992859
65.335 20.333849
65.340 20.568281
65.345 20.944061
65.350 21.058683
65.355 21.084888
65.360 20.946228
65.365 21.03957
65.370 21.100151
65.375 20.676954
65.380 20.284161
65.385 19.899376
65.390 19.425062
65.395 19.317736
65.400 19.608538
65.405 19.940838
65.410 20.052252
65.415 20.335806
65.420 20.830774
65.425 21.321032
65.430 21.229225
65.435 20.862196
65.440 20.766052
65.445 20.785557
65.450 20.524763
65.455 20.59585
65.460 20.787434
65.465 21.135202
65.470 21.100494
65.475 20.896355
65.480 21.198353
65.485 21.747803
65.490 21.481241
65.495 21.398563
65.500 21.288193
65.505 21.253265
65.510 21.542501
65.515 21.997093
65.520 21.837265
65.525 22.429642
65.530 22.375637
65.535 22.593277
65.540 23.725294
65.545 24.156324
65.550 24.477486
65.555 24.603142
65.560 24.714067
65.565 24.686119
65.570 24.704285
65.575 24.595104
65.580 24.528231
65.585 24.637604
65.590 24.330385
65.595 24.17094
65.600 24.800877
65.605 24.88216
65.610 25.435732
65.615 25.453465
65.620 25.413818
65.625 25.862375
65.630 25.665728
65.635 25.215025
65.640 25.374647
65.645 25.968443
65.650 26.625031
65.655 25.939423
65.660 25.964817
65.665 26.227079
65.670 27.110277
65.675 27.144102
65.680 26.561728
65.685 26.85811
65.690 28.03931
65.695 28.645657
65.700 28.982077
65.705 28.711136
65.710 30.184757
65.715 30.301046
65.720 30.190172
65.725 30.137262
65.730 30.330805
65.735 31.110424
65.740 30.953651
65.745 30.602983
65.750 31.390226
65.755 31.526791
65.760 31.92955
65.765 32.059986
65.770 31.820913
65.775 31.807634
65.780 31.063845
65.785 31.13973
65.790 31.739967
65.795 32.304291
65.800 32.441559
65.805 32.294693
65.810 32.790668
65.815 32.654339
65.820 32.362133
65.825 32.696651
65.830 33.113255
65.835 33.148582
65.840 33.195461
65.845 33.004608
65.850 33.426796
65.855 33.961941
65.860 33.255482
65.865 33.376465
65.870 33.636093
65.875 33.927532
65.880 34.302937
65.885 34.726761
65.890 34.47089
65.895 34.197094
65.900 33.70446
65.905 33.768673
65.910 33.50219
65.915 33.936989
65.920 33.788551
65.925 33.741688
65.930 33.991581
65.935 34.7575
65.940 35.554291
65.945 35.890583
65.950 36.242825
65.955 36.355408
65.960 37.160465
65.965 37.055248
65.970 36.146412
65.975 35.536114
65.980 35.725063
65.985 35.350597
65.990 35.019234
65.995 34.484779
66.000 34.659466
66.005 34.210716
66.010 33.747452
66.015 33.268135
66.020 32.489597
66.025 33.044823
66.030 33.862247
66.035 34.3536
66.040 35.159016
66.045 35.556416
66.050 36.120121
66.055 36.693283
66.060 35.709969
66.065 35.108326
66.070 35.032822
66.075 34.25399
66.080 34.271095
66.085 33.865139
66.090 33.325321
66.095 34.032982
66.100 34.207737
66.105 33.760471
66.110 34.197052
66.115 34.17857
66.120 34.380699
66.125 35.100674
66.130 34.936672
66.135 34.742939
66.140 34.927296
66.145 35.357891
66.150 35.415722
66.155 34.934586
66.160 35.220604
66.165 36.183636
66.170 36.282635
66.175 36.350918
66.180 35.82885
66.185 35.681461
66.190 35.858501
66.195 35.285709
66.200 34.489044
66.205 33.692348
66.210 32.944035
66.215 32.376698
66.220 32.447182
66.225 32.624088
66.230 32.616913
66.235 32.050568
66.240 32.292572
66.245 33.054337
66.250 33.106701
66.255 32.601177
66.260 32.580631
66.265 32.378922
66.270 32.151779
66.275 31.538652
66.280 31.280235
66.285 31.601116
66.290 30.724394
66.295 30.072275
66.300 29.610231
66.305 29.078175
66.310 29.38002
66.315 28.889101
66.320 28.134056
66.325 28.857628
66.330 28.932205
66.335 29.240957
66.340 29.857695
66.345 28.283804
66.350 27.736605
66.355 27.299326
66.360 26.49589
66.365 25.811476
66.370 25.884682
66.375 25.483459
66.380 25.81245
66.385 26.454815
66.390 26.434706
66.395 26.871691
66.400 26.664688
66.405 26.488869
66.410 26.418303
66.415 26.14344
66.420 25.912956
66.425 26.48546
66.430 26.327044
66.435 26.373505
66.440 25.493866
66.445 25.196115
66.450 25.086151
66.455 24.582298
66.460 24.234533
66.465 24.063606
66.470 23.63406
66.475 23.848198
66.480 23.673615
66.485 23.731424
66.490 23.508335
66.495 23.47316
66.500 24.128862
66.505 23.923759
66.510 24.114792
66.515 24.252796
66.520 23.997448
66.525 23.776857
66.530 22.978144
66.535 22.222132
66.540 22.005842
66.545 21.908274
66.550 21.555189
66.555 21.203156
66.560 21.387957
66.565 21.737242
66.570 21.474745
66.575 21.309326
66.580 20.489309
66.585 20.152332
66.590 19.797325
66.595 20.00861
66.600 19.910908
66.605 20.333637
66.610 20.358521
66.615 20.437529
66.620 20.404921
66.625 20.514706
66.630 19.663273
66.635 18.935575
66.640 18.892134
66.645 18.642004
66.650 18.273977
66.655 19.069031
66.660 19.032928
66.665 19.307613
66.670 19.542814
66.675 18.277203
66.680 18.122828
66.685 17.926643
66.690 17.272673
66.695 16.872782
66.700 16.586063
66.705 16.574137
66.710 17.5616
66.715 17.984158
66.720 18.846251
66.725 18.800144
66.730 18.917604
66.735 19.02422
66.740 19.277424
66.745 19.220032
66.750 18.969204
66.755 18.283646
66.760 18.585569
66.765 19.190399
66.770 19.230097
66.775 18.849092
66.780 18.880239
66.785 18.888962
66.790 18.897514
66.795 19.052162
66.800 18.938234
66.805 18.691998
66.810 18.771235
66.815 18.704943
66.820 18.657833
66.825 18.853233
66.830 18.574867
66.835 18.095219
66.840 18.502205
66.845 18.234161
66.850 17.991167
66.855 17.39323
66.860 17.114218
66.865 17.060789
66.870 17.281149
66.875 16.854013
66.880 16.573338
66.885 16.832325
66.890 16.884163
66.895 16.749701
66.900 16.830032
66.905 16.849007
66.910 17.339977
66.915 17.882402
66.920 18.044422
66.925 17.861233
66.930 18.189724
66.935 18.422388
66.940 18.351767
66.945 17.948011
66.950 17.42956
66.955 17.722811
66.960 18.625456
66.965 17.928181
66.970 17.358027
66.975 17.250803
66.980 17.003597
66.985 17.262991
66.990 16.836821
66.995 16.844349
67.000 17.098122
67.005 17.037601
67.010 17.003983
67.015 16.918854
67.020 17.06768
67.025 17.095436
67.030 17.010885
67.035 17.548174
67.040 17.706339
67.045 18.620293
67.050 19.246195
67.055 18.963413
67.060 18.535915
67.065 18.19322
67.070 18.329273
67.075 18.276329
67.080 17.618704
67.085 17.66457
67.090 17.969418
67.095 18.029325
67.100 17.85578
67.105 17.238901
67.110 17.503517
67.115 17.778673
67.120 17.064409
67.125 17.119614
67.130 17.373007
67.135 17.235798
67.140 17.183529
67.145 16.936666
67.150 17.492702
67.155 17.731102
67.160 17.954212
67.165 18.384237
67.170 18.752909
67.175 18.572891
67.180 19.021572
67.185 18.128958
67.190 17.812323
67.195 17.641634
67.200 17.732635
67.205 18.558014
67.210 19.2087
67.215 18.887383
67.220 20.004076
67.225 20.805965
67.230 20.690678
67.235 20.532923
67.240 19.858158
67.245 19.324137
67.250 19.116962
67.255 18.463367
67.260 18.310127
67.265 18.94968
67.270 18.922356
67.275 19.12254
67.280 19.387516
67.285 19.165482
67.290 18.928703
67.295 18.731384
67.300 18.272835
67.305 17.937504
67.310 17.424328
67.315 17.842663
67.320 17.956697
67.325 18.070061
67.330 18.305344
67.335 18.20422
67.340 18.234936
67.345 18.908958
67.350 18.980169
67.355 19.146435
67.360 19.349218
67.365 19.092155
67.370 19.117937
67.375 18.858555
67.380 18.682383
67.385 18.483204
67.390 18.614756
67.395 18.378937
67.400 18.148495
67.405 18.470694
67.410 18.549873
67.415 18.167801
67.420 18.392868
67.425 18.630363
67.430 18.727858
67.435 18.676804
67.440 18.52836
67.445 18.513611
67.450 18.825945
67.455 18.105749
67.460 17.966076
67.465 18.098965
67.470 17.811808
67.475 17.364601
67.480 17.122622
67.485 17.454933
67.490 17.52121
67.495 16.862661
67.500 16.784706
67.505 16.775328
67.510 17.159733
67.515 17.500029
67.520 17.368603
67.525 17.735083
67.530 18.06385
67.535 18.09465
67.540 18.221167
67.545 18.224569
67.550 17.673946
67.555 17.477449
67.560 17.281672
67.565 17.313717
67.570 17.025629
67.575 16.781347
67.580 16.76335
67.585 16.579853
67.590 16.419157
67.595 16.381361
67.600 16.780495
67.605 16.881659
67.610 16.863813
67.615 16.721405
67.620 17.453968
67.625 18.047693
67.630 18.318089
67.635 18.302839
67.640 18.582457
67.645 18.915997
67.650 18.722006
67.655 18.457832
67.660 17.883486
67.665 17.763779
67.670 17.850668
67.675 17.61162
67.680 17.698225
67.685 18.100559
67.690 17.645567
67.695 18.086533
67.700 18.482746
67.705 18.242672
67.710 18.132757
67.715 18.288456
67.720 17.941933
67.725 18.021732
67.730 17.423674
67.735 16.770462
67.740 16.5739
67.745 16.363735
67.750 16.007252
67.755 15.868232
67.760 15.915195
67.765 16.042673
67.770 16.17667
67.775 16.888477
67.780 17.200939
67.785 17.587202
67.790 17.793726
67.795 18.034891
67.800 18.045317
67.805 17.667301
67.810 17.231361
67.815 17.213467
67.820 17.081617
67.825 17.450127
67.830 17.427021
67.835 17.195471
67.840 17.380053
67.845 17.331203
67.850 17.308346
67.855 17.041447
67.860 16.699015
67.865 16.894072
67.870 17.255468
67.875 17.690023
67.880 17.713228
67.885 17.351877
67.890 17.045214
67.895 16.888758
67.900 17.298471
67.905 17.337215
67.910 16.766958
67.915 16.826721
67.920 17.810333
67.925 18.439695
67.930 18.605659
67.935 18.338812
67.940 17.764809
67.945 18.107323
67.950 17.895372
67.955 17.545982
67.960 17.661278
67.965 17.445829
67.970 17.108419
67.975 17.293587
67.980 17.196754
67.985 17.073433
67.990 16.935217
67.995 16.925755
68.000 16.398905
68.005 16.466381
68.010 16.407156
68.015 16.558641
68.020 16.579145
68.025 16.952509
68.030 17.038895
68.035 17.235006
68.040 17.187651
68.045 17.25667
68.050 17.414759
68.055 17.444403
68.060 16.802032
68.065 16.596115
68.070 16.817446
68.075 16.993465
68.080 17.364607
68.085 17.506367
68.090 17.747845
68.095 18.107277
68.100 18.219563
68.105 18.229315
68.110 18.036983
68.115 17.304276
68.120 16.891069
68.125 16.776468
68.130 16.154892
68.135 16.117926
68.140 16.21582
68.145 16.456245
68.150 16.89497
68.155 17.254427
68.160 17.452967
68.165 17.539011
68.170 17.592962
68.175 17.476046
68.180 17.24054
68.185 17.386223
68.190 17.362898
68.195 17.29468
68.200 17.483967
68.205 18.061617
68.210 18.294222
68.215 18.318882
68.220 17.934359
68.225 17.917376
68.230 18.06687
68.235 18.576256
68.240 18.206413
68.245 18.413544
68.250 18.640306
68.255 18.834578
68.260 18.30422
68.265 18.653093
68.270 18.717371
68.275 19.089361
68.280 18.929152
68.285 19.307844
68.290 19.443541
68.295 19.577442
68.300 18.927578
68.305 18.669718
68.310 18.471743
68.315 18.591341
68.320 18.581091
68.325 18.513123
68.330 18.775307
68.335 19.122047
68.340 19.323534
68.345 19.43346
68.350 18.787504
68.355 18.801357
68.360 18.936298
68.365 18.693996
68.370 18.493561
68.375 18.505306
68.380 18.502228
68.385 18.511326
68.390 17.918404
68.395 17.667744
68.400 17.626938
68.405 17.962887
68.410 18.131758
68.415 18.620689
68.420 18.821938
68.425 19.557344
68.430 20.218363
68.435 19.637911
68.440 19.432474
68.445 19.466862
68.450 19.257372
68.455 19.886684
68.460 19.763351
68.465 19.460884
68.470 19.610569
68.475 19.01692
68.480 18.682053
68.485 19.032253
68.490 18.673273
68.495 18.514877
68.500 18.435068
68.505 18.359396
68.510 18.59107
68.515 18.629019
68.520 17.706161
68.525 17.890539
68.530 18.02005
68.535 18.458654
68.540 18.682638
68.545 19.63876
68.550 19.859415
68.555 20.106701
68.560 20.873259
68.565 20.640524
68.570 20.912367
68.575 20.435032
68.580 19.143667
68.585 18.974421
68.590 19.033102
68.595 18.133373
68.600 17.959932
68.605 17.73151
68.610 17.839128
68.615 18.207851
68.620 18.413839
68.625 18.669353
68.630 18.74114
68.635 18.768511
68.640 18.524382
68.645 18.655415
68.650 18.810539
68.655 18.360018
68.660 18.320894
68.665 18.229214
68.670 18.74851
68.675 19.136324
68.680 19.352299
68.685 19.786036
68.690 20.393976
68.695 20.492441
68.700 20.940868
68.705 21.230326
68.710 21.702066
68.715 21.804363
68.720 21.778614
68.725 21.481634
68.730 21.225113
68.735 21.272245
68.740 21.137213
68.745 20.64904
68.750 20.856422
68.755 20.771376
68.760 20.88884
68.765 21.849602
68.770 22.379173
68.775 22.963772
68.780 23.643629
68.785 24.024937
68.790 24.414547
68.795 24.772739
68.800 24.19471
68.805 23.648283
68.810 23.785694
68.815 23.524336
68.820 22.988512
68.825 22.940697
68.830 23.750219
68.835 24.692205
68.840 25.377422
68.845 26.040409
68.850 26.606775
68.855 27.037268
68.860 27.635286
68.865 26.916368
68.870 26.71776
68.875 26.520452
68.880 26.074537
68.885 25.754519
68.890 25.580137
68.895 25.702688
68.900 26.251413
68.905 26.03351
68.910 26.605366
68.915 27.444834
68.920 27.872946
68.925 28.288548
68.930 28.434574
68.935 28.88419
68.940 29.436523
68.945 29.811964
68.950 29.669041
68.955 30.095243
68.960 30.27268
68.965 30.835194
68.970 31.845419
68.975 32.462502
68.980 31.827307
68.985 31.856356
68.990 31.824839
68.995 31.840982
69.000 31.998281
69.005 31.587715
69.010 31.784159
69.015 32.203327
69.020 32.553368
69.025 32.465351
69.030 32.686466
69.035 32.470596
69.040 32.845947
69.045 32.906204
69.050 32.785702
69.055 32.565006
69.060 32.389664
69.065 32.397121
69.070 32.349724
69.075 31.667145
69.080 31.605722
69.085 31.688013
69.090 31.842413
69.095 32.153439
69.100 32.389214
69.105 32.863079
69.110 33.570061
69.115 34.015087
69.120 34.516369
69.125 35.289558
69.130 35.481171
69.135 35.11219
69.140 34.469212
69.145 34.0825
69.150 33.972267
69.155 33.285
69.160 32.517735
69.165 31.791817
69.170 32.115082
69.175 32.156502
69.180 31.923826
69.185 31.345892
69.190 31.209909
69.195 30.991503
69.200 31.398123
69.205 31.392096
69.210 31.970446
69.215 32.298183
69.220 32.849415
69.225 32.932682
69.230 33.439369
69.235 33.136959
69.240 33.378792
69.245 33.462631
69.250 33.629539
69.255 33.269299
69.260 33.365147
69.265 32.813179
69.270 33.03793
69.275 32.001945
69.280 30.844572
69.285 30.216169
69.290 29.992146
69.295 29.971369
69.300 30.475174
69.305 30.813044
69.310 31.289915
69.315 31.351336
69.320 30.960993
69.325 30.897268
69.330 30.440554
69.335 30.447668
69.340 30.039097
69.345 29.487307
69.350 29.755447
69.355 30.349747
69.360 30.347944
69.365 30.266396
69.370 30.293234
69.375 30.591232
69.380 31.236168
69.385 30.93251
69.390 31.743168
69.395 32.119358
69.400 32.627831
69.405 31.437334
69.410 31.15633
69.415 31.34193
69.420 31.17617
69.425 30.803688
69.430 30.545113
69.435 30.315367
69.440 30.671242
69.445 30.841946
69.450 30.849812
69.455 30.369984
69.460 29.37989
69.465 28.708864
69.470 27.901794
69.475 27.738209
69.480 27.063519
69.485 27.221098
69.490 27.795448
69.495 27.886677
69.500 28.104691
69.505 28.640774
69.510 28.375607
69.515 28.179455
69.520 26.75362
69.525 26.291344
69.530 27.156298
69.535 26.473976
69.540 25.950167
69.545 26.084154
69.550 25.775589
69.555 26.218475
69.560 25.614384
69.565 25.709278
69.570 26.457302
69.575 26.667816
69.580 26.349304
69.585 26.065556
69.590 25.531961
69.595 25.176411
69.600 23.944933
69.605 23.648165
69.610 23.690674
69.615 23.356451
69.620 23.884235
69.625 23.941895
69.630 24.300203
69.635 24.621298
69.640 24.30661
69.645 24.138521
69.650 24.309399
69.655 24.004795
69.660 23.60533
69.665 23.316813
69.670 23.363619
69.675 23.354305
69.680 23.680668
69.685 23.805258
69.690 23.766844
69.695 24.132368
69.700 24.428722
69.705 23.708071
69.710 23.656866
69.715 23.472126
69.720 23.261526
69.725 23.45137
69.730 23.526556
69.735 23.023361
69.740 23.170317
69.745 22.574608
69.750 22.253868
69.755 22.339838
69.760 21.730982
69.765 21.52133
69.770 21.430544
69.775 21.164673
69.780 21.576443
69.785 20.996387
69.790 20.62509
69.795 20.20923
69.800 19.616383
69.805 19.800867
69.810 20.430027
69.815 20.395369
69.820 20.749298
69.825 20.958691
69.830 20.583796
69.835 20.667915
69.840 20.675936
69.845 20.396133
69.850 20.425337
69.855 20.119978
69.860 19.481974
69.865 19.823843
69.870 19.437727
69.875 18.764551
69.880 18.596609
69.885 18.587469
69.890 18.748117
69.895 19.251514
69.900 19.293877
69.905 19.272631
69.910 19.303486
69.915 18.972231
69.920 18.943012
69.925 18.764618
69.930 18.401407
69.935 18.034182
69.940 17.987341
69.945 18.305695
69.950 18.878515
69.955 18.792185
69.960 18.977566
69.965 19.477413
69.970 19.971649
69.975 20.101528
69.980 19.433701
69.985 18.857742
69.990 18.66749
69.995 18.3545
70.000 18.289213
70.005 18.068821
70.010 17.686193
70.015 17.904903
70.020 18.412302
70.025 18.671864
70.030 18.632719
70.035 17.982355
70.040 18.28804
70.045 18.302725
70.050 18.065739
70.055 17.600952
70.060 17.245205
70.065 17.468567
70.070 17.602728
70.075 17.727928
70.080 17.435991
70.085 17.631376
70.090 17.9111
70.095 17.802748
70.100 18.358217
70.105 18.275566
70.110 17.885284
70.115 17.925945
70.120 17.194592
70.125 17.266708
70.130 17.743177
70.135 17.68697
70.140 17.875044
70.145 17.700317
70.150 17.866289
70.155 18.321074
70.160 18.674656
70.165 17.782089
70.170 16.964468
70.175 17.277443
70.180 17.697247
70.185 17.716049
70.190 17.372833
70.195 17.02342
70.200 17.056036
70.205 17.747654
70.210 17.863478
70.215 18.15234
70.220 18.149418
70.225 17.777033
70.230 18.324568
70.235 18.516813
70.240 17.900331
70.245 17.103104
70.250 17.133194
70.255 17.371487
70.260 17.772125
70.265 17.479164
70.270 17.126135
70.275 17.16091
70.280 17.320831
70.285 17.457596
70.290 17.551373
70.295 17.675144
70.300 17.549713
70.305 17.603054
70.310 17.375244
70.315 17.465183
70.320 17.013027
70.325 16.780718
70.330 16.626696
70.335 16.769682
70.340 17.396818
70.345 17.51358
70.350 17.452803
70.355 17.962229
70.360 17.737909
70.365 17.688158
70.370 17.539391
70.375 17.043777
70.380 17.727612
70.385 17.624012
70.390 17.186546
70.395 17.528284
70.400 17.002316
70.405 17.374004
70.410 17.355087
70.415 16.876444
70.420 16.820148
70.425 16.5516
70.430 16.649462
70.435 16.975143
70.440 16.909403
70.445 16.252491
70.450 16.173458
70.455 16.787283
70.460 17.535139
70.465 17.72854
70.470 17.869658
70.475 18.225834
70.480 19.181778
70.485 19.625616
70.490 19.060053
70.495 18.505547
70.500 18.893742
70.505 18.733095
70.510 18.809126
70.515 18.595312
70.520 18.856546
70.525 19.094519
70.530 19.098475
70.535 18.682669
70.540 18.192822
70.545 17.686323
70.550 17.261091
70.555 16.957129
70.560 17.075602
70.565 16.794565
70.570 17.110928
70.575 17.200853
70.580 16.866013
70.585 16.834249
70.590 16.525936
70.595 16.332756
70.600 15.629253
70.605 15.532704
70.610 15.834735
70.615 15.839339
70.620 15.27043
70.625 15.237214
70.630 15.671283
70.635 16.357119
70.640 16.42651
70.645 16.273983
70.650 16.404076
70.655 16.851799
70.660 16.806713
70.665 16.204332
70.670 16.332159
70.675 16.407328
70.680 16.33498
70.685 16.648245
70.690 16.756609
70.695 16.563679
70.700 16.259508
70.705 15.92774
70.710 16.338083
70.715 16.820887
70.720 16.627361
70.725 16.529839
70.730 17.403677
70.735 17.553082
70.740 17.594873
70.745 17.435459
70.750 17.867268
70.755 18.231377
70.760 18.657778
70.765 18.480974
70.770 19.257633
70.775 19.487261
70.780 18.987944
70.785 17.960972
70.790 17.947229
70.795 17.50036
70.800 17.212006
70.805 16.758438
70.810 16.570913
70.815 16.800575
70.820 17.870489
70.825 17.974747
70.830 17.707989
70.835 17.689821
70.840 17.30488
70.845 17.323328
70.850 17.541533
70.855 16.86478
70.860 16.597258
70.865 17.179838
70.870 17.443781
70.875 16.665274
70.880 16.412113
70.885 16.476448
70.890 16.459944
70.895 16.537449
70.900 16.499989
70.905 16.506599
70.910 16.981426
70.915 16.482426
70.920 16.34807
70.925 16.787527
70.930 16.410444
70.935 16.788198
70.940 17.235992
70.945 17.739122
70.950 18.434549
70.955 18.96236
70.960 19.408638
70.965 19.956623
70.970 19.54825
70.975 19.731857
70.980 19.787001
70.985 19.211874
70.990 18.210165
70.995 17.626902
71.000 16.983326
71.005 16.646933
71.010 16.470467
71.015 16.710075
71.020 16.879274
71.025 16.476334
71.030 16.49711
71.035 16.830559
71.040 17.180813
71.045 17.61532
71.050 17.848883
71.055 18.600449
71.060 19.490009
71.065 19.413122
71.070 19.347475
71.075 18.859602
71.080 18.123569
71.085 17.829109
71.090 17.378641
71.095 17.383514
71.100 18.155167
71.105 17.849377
71.110 17.923189
71.115 17.809814
71.120 17.847971
71.125 17.698107
71.130 18.080933
71.135 18.423096
71.140 19.026674
71.145 18.79361
71.150 18.503511
71.155 18.240807
71.160 17.892988
71.165 16.511105
71.170 16.373503
71.175 16.63563
71.180 16.861776
71.185 16.753496
71.190 16.829742
71.195 17.036404
71.200 17.141865
71.205 16.922428
71.210 16.74518
71.215 16.506083
71.220 16.510006
71.225 16.314831
71.230 16.038177
71.235 15.986426
71.240 15.906743
71.245 15.884973
71.250 16.403339
71.255 16.602751
71.260 17.212151
71.265 17.478155
71.270 17.458216
71.275 16.965406
71.280 17.37318
71.285 17.439737
71.290 16.827799
71.295 16.359861
71.300 16.042597
71.305 16.220705
71.310 16.230265
71.315 15.992383
71.320 16.17169
71.325 16.406622
71.330 16.322155
71.335 16.421677
71.340 16.415268
71.345 16.486986
71.350 16.465309
71.355 16.151655
71.360 15.93833
71.365 15.490125
71.370 15.824136
71.375 16.402048
71.380 16.364893
71.385 16.764719
71.390 17.183578
71.395 17.88994
71.400 18.951918
71.405 19.167793
71.410 19.19322
71.415 19.20503
71.420 18.874992
71.425 19.372919
71.430 19.140102
71.435 18.349648
71.440 17.726585
71.445 17.829128
71.450 18.094543
71.455 18.218809
71.460 18.212255
71.465 18.117737
71.470 17.944038
71.475 18.135609
71.480 17.69455
71.485 16.850922
71.490 16.274399
71.495 16.135481
71.500 16.550087
71.505 16.937784
71.510 16.540373
71.515 16.751762
71.520 17.512493
71.525 17.553173
71.530 17.20647
71.535 16.965704
71.540 17.085051
71.545 17.374651
71.550 17.446493
71.555 17.636456
71.560 17.935211
71.565 17.921604
71.570 18.134678
71.575 17.970028
71.580 17.207664
71.585 16.412281
71.590 16.075502
71.595 16.114428
71.600 16.436701
71.605 16.542162
71.610 16.837639
71.615 16.970901
71.620 17.69146
71.625 17.297411
71.630 17.648649
71.635 17.877321
71.640 17.735731
71.645 18.0382
71.650 18.602087
71.655 18.719862
71.660 18.797634
71.665 18.183758
71.670 17.447828
71.675 17.367455
71.680 17.628994
71.685 17.554558
71.690 17.499792
71.695 17.533213
71.700 18.008461
71.705 18.923481
71.710 19.045992
71.715 18.878252
71.720 18.902008
71.725 18.941544
71.730 18.781977
71.735 18.569931
71.740 18.511227
71.745 18.366772
71.750 18.254827
71.755 18.119101
71.760 18.099358
71.765 17.98811
71.770 17.677454
71.775 17.384022
71.780 17.026085
71.785 16.211906
71.790 16.212828
71.795 16.019325
71.800 15.954427
71.805 15.631604
71.810 15.662416
71.815 15.556768
71.820 16.319822
71.825 16.283857
71.830 16.32745
71.835 16.827084
71.840 17.030697
71.845 16.883955
71.850 16.977585
71.855 17.150764
71.860 17.144943
71.865 17.103827
71.870 16.458086
71.875 16.808384
71.880 16.974323
71.885 16.94569
71.890 16.161789
71.895 15.953444
71.900 15.948821
71.905 16.165661
71.910 17.273504
71.915 17.372206
71.920 17.214464
71.925 17.644079
71.930 17.65893
71.935 18.066929
71.940 17.4918
71.945 16.073446
71.950 16.280684
71.955 16.358141
71.960 16.677378
71.965 16.966862
71.970 16.564455
71.975 16.347452
71.980 16.360888
71.985 16.880192
71.990 16.306852
71.995 16.155186
72.000 15.413019
72.005 15.700582
72.010 16.502991
72.015 16.485714
72.020 16.699446
72.025 17.217709
72.030 17.213558
72.035 17.999241
72.040 18.212753
72.045 17.693953
72.050 17.245373
72.055 16.673082
72.060 16.57877
72.065 17.032307
72.070 16.81381
72.075 16.858042
72.080 17.474657
72.085 17.687441
72.090 17.700874
72.095 17.566854
72.100 17.578653
72.105 17.320932
72.110 16.65337
72.115 16.414051
72.120 16.611538
72.125 16.982685
72.130 16.970375
72.135 17.168314
72.140 17.638071
72.145 17.942545
72.150 17.269535
72.155 17.090094
72.160 16.843771
72.165 16.678299
72.170 16.43137
72.175 16.229584
72.180 16.129375
72.185 16.069185
72.190 16.055414
72.195 15.841953
72.200 15.545468
72.205 15.96799
72.210 16.34137
72.215 16.4837
72.220 17.224174
72.225 17.808533
72.230 18.634247
72.235 18.555872
72.240 18.643173
72.245 18.634695
72.250 18.472956
72.255 17.892174
72.260 18.138359
72.265 18.145887
72.270 17.738243
72.275 17.497993
72.280 17.473415
72.285 17.540339
72.290 17.358395
72.295 17.045877
72.300 17.256546
72.305 17.716898
72.310 17.66382
72.315 18.27034
72.320 18.640505
72.325 18.807047
72.330 18.552113
72.335 18.375576
72.340 18.390694
72.345 18.801737
72.350 17.899836
72.355 17.775578
72.360 18.472301
72.365 18.255066
72.370 17.865067
72.375 17.833107
72.380 17.662363
72.385 17.856432
72.390 17.382029
72.395 16.813894
72.400 16.552773
72.405 16.756245
72.410 16.389935
72.415 17.11965
72.420 16.763037
72.425 16.874563
72.430 16.646729
72.435 16.91996
72.440 16.85939
72.445 16.810659
72.450 16.653015
72.455 16.661938
72.460 16.483234
72.465 16.546219
72.470 16.319498
72.475 16.208006
72.480 16.291819
72.485 15.77734
72.490 15.670286
72.495 15.071709
72.500 14.850671
72.505 14.991868
72.510 14.893003
72.515 15.016607
72.520 15.791158
72.525 16.483112
72.530 17.020597
72.535 17.246408
72.540 17.182903
72.545 16.424042
72.550 16.051832
72.555 15.958797
72.560 15.71296
72.565 15.756834
72.570 15.305367
72.575 15.572142
72.580 16.521317
72.585 16.621317
72.590 16.575438
72.595 16.564602
72.600 16.840973
72.605 17.690639
72.610 17.849382
72.615 18.102564
72.620 18.27256
72.625 18.220316
72.630 17.985897
72.635 18.164942
72.640 17.4851
72.645 16.90555
72.650 16.785528
72.655 16.536921
72.660 16.751188
72.665 16.75493
72.670 16.424915
72.675 16.71382
72.680 16.275755
72.685 15.542397
72.690 15.232196
72.695 15.529721
72.700 15.582015
72.705 15.574932
72.710 15.766523
72.715 16.162212
72.720 16.945654
72.725 17.412706
72.730 17.690283
72.735 17.65254
72.740 17.874447
72.745 18.115459
72.750 17.907665
72.755 18.075472
72.760 18.011345
72.765 17.791124
72.770 17.87092
72.775 17.710028
72.780 17.549419
72.785 17.703041
72.790 17.456366
72.795 16.9722
72.800 16.525249
72.805 16.497919
72.810 15.812699
72.815 15.539122
72.820 14.929482
72.825 14.454143
72.830 14.573182
72.835 14.961292
72.840 15.295988
72.845 15.555116
72.850 15.596723
72.855 15.312399
72.860 15.127559
72.865 14.655635
72.870 14.880019
72.875 15.128481
72.880 15.764523
72.885 16.325888
72.890 16.997898
72.895 17.308542
72.900 17.563301
72.905 17.399731
72.910 17.132484
72.915 17.349461
72.920 17.556545
72.925 17.5748
72.930 17.008556
72.935 16.497553
72.940 15.856215
72.945 15.58246
72.950 15.783401
72.955 15.933871
72.960 16.24535
72.965 16.379425
72.970 16.728004
72.975 17.358202
72.980 17.116541
72.985 15.867139
72.990 15.749268
72.995 16.346912
73.000 16.548811
