!@!!GADDS PLOTSO FILE: Chi integration type
!@!!Title/SampleName: map-44
!@!!Comment: ?
!@!!User: Bruker Instrument Administrator
!@!!Site: University of Illinois Chicago
!@!!Frame: map-44_01_000.gfrm
!@!!Wavelengths    1.54184   1.54056   1.54439
!@!!Frame angles: 2Theta: 63.000 Omega: 50.000 Phi: 0.000 Chi: 90.000
!@!!Integration range: 2Theta: 53.000 to 73.000  Gamma: -105.000 to -75.000
!@!!Integration method: bin normalized
!@!N
!@!SS
!@!M
!@!L 0.0 0.0 0.0 0.0
!@!XDegrees
!@!YCounts
53.000 8.474277
53.005 8.496561
53.010 8.677657
53.015 8.593094
53.020 8.537561
53.025 8.645768
53.030 8.652998
53.035 8.582597
53.040 8.936786
53.045 8.906608
53.050 8.739154
53.055 8.96761
53.060 9.066367
53.065 9.487182
53.070 9.507071
53.075 9.083432
53.080 8.974177
53.085 8.874629
53.090 9.070282
53.095 9.296041
53.100 9.229243
53.105 8.728626
53.110 8.3846
53.115 8.637651
53.120 8.253525
53.125 7.64198
53.130 7.41631
53.135 7.088677
53.140 7.070007
53.145 7.176582
53.150 6.97981
53.155 7.138161
53.160 7.150991
53.165 6.925344
53.170 7.128109
53.175 7.531836
53.180 7.527845
53.185 7.37128
53.190 7.493632
53.195 7.85867
53.200 8.147944
53.205 8.115674
53.210 7.8223
53.215 8.385777
53.220 8.613865
53.225 8.793922
53.230 8.823407
53.235 8.970813
53.240 9.087461
53.245 9.330799
53.250 9.152104
53.255 9.365063
53.260 9.542936
53.265 9.677411
53.270 9.88664
53.275 9.969026
53.280 9.888538
53.285 9.880401
53.290 9.302124
53.295 8.891364
53.300 8.566755
53.305 8.173646
53.310 8.346031
53.315 8.199296
53.320 8.506192
53.325 8.993057
53.330 8.913406
53.335 8.986546
53.340 9.463735
53.345 9.060369
53.350 8.832785
53.355 8.603323
53.360 8.440115
53.365 8.539795
53.370 8.482125
53.375 8.307007
53.380 8.594604
53.385 8.913043
53.390 8.580729
53.395 8.699492
53.400 8.29439
53.405 8.350179
53.410 8.284299
53.415 8.040474
53.420 7.884164
53.425 8.297204
53.430 8.537268
53.435 9.096564
53.440 9.266449
53.445 8.971378
53.450 9.233943
53.455 9.31395
53.460 8.803363
53.465 8.91752
53.470 7.931684
53.475 7.719715
53.480 8.247089
53.485 7.5708
53.490 7.10949
53.495 7.128891
53.500 7.212608
53.505 7.565127
53.510 7.514098
53.515 7.411836
53.520 8.118525
53.525 8.750631
53.530 9.090113
53.535 9.453162
53.540 9.707044
53.545 9.824311
53.550 9.879804
53.555 9.720492
53.560 9.515161
53.565 9.439438
53.570 9.107969
53.575 9.035107
53.580 8.999138
53.585 8.885055
53.590 9.064615
53.595 8.700206
53.600 8.459009
53.605 8.96061
53.610 8.810702
53.615 9.019353
53.620 9.549179
53.625 10.05959
53.630 10.241356
53.635 9.872704
53.640 9.166719
53.645 9.122195
53.650 8.984728
53.655 7.904614
53.660 7.737335
53.665 7.836344
53.670 8.206264
53.675 8.832036
53.680 9.045042
53.685 9.452794
53.690 10.023857
53.695 9.845147
53.700 10.114939
53.705 10.102403
53.710 9.950865
53.715 9.703659
53.720 9.871954
53.725 10.045986
53.730 10.019639
53.735 10.011508
53.740 10.224753
53.745 10.685274
53.750 10.84845
53.755 10.179832
53.760 10.098194
53.765 9.822561
53.770 9.842365
53.775 9.384904
53.780 8.707921
53.785 8.350684
53.790 8.564333
53.795 8.388695
53.800 8.658913
53.805 8.262933
53.810 8.500352
53.815 8.653993
53.820 8.799508
53.825 9.021079
53.830 9.321506
53.835 9.352941
53.840 9.684352
53.845 9.941051
53.850 10.20671
53.855 10.363307
53.860 10.319802
53.865 10.368078
53.870 10.610986
53.875 10.605816
53.880 10.405064
53.885 10.244223
53.890 9.887494
53.895 9.867435
53.900 9.476523
53.905 9.012342
53.910 9.155565
53.915 9.385496
53.920 9.421634
53.925 9.512858
53.930 9.508761
53.935 9.283019
53.940 9.428529
53.945 8.9279
53.950 8.491829
53.955 8.505606
53.960 8.279471
53.965 8.357984
53.970 8.581404
53.975 8.401288
53.980 8.516143
53.985 8.668766
53.990 8.78721
53.995 8.496207
54.000 8.89443
54.005 9.20862
54.010 9.460519
54.015 9.482836
54.020 9.757912
54.025 10.379002
54.030 10.749545
54.035 10.48109
54.040 10.081397
54.045 9.964502
54.050 10.171741
54.055 9.557366
54.060 9.047379
54.065 9.044951
54.070 8.857728
54.075 9.265033
54.080 9.366765
54.085 9.406327
54.090 9.814468
54.095 10.21234
54.100 10.375194
54.105 10.668665
54.110 10.423435
54.115 10.412301
54.120 10.250464
54.125 10.025946
54.130 10.083222
54.135 9.818804
54.140 9.643458
54.145 10.1171
54.150 9.8918
54.155 10.026624
54.160 9.909446
54.165 9.638151
54.170 9.756471
54.175 9.798876
54.180 9.799352
54.185 9.888807
54.190 9.930155
54.195 10.189086
54.200 10.352094
54.205 10.395816
54.210 10.319231
54.215 10.419679
54.220 10.332867
54.225 10.075232
54.230 10.293434
54.235 10.569339
54.240 10.344456
54.245 10.273952
54.250 9.995516
54.255 10.32586
54.260 10.446534
54.265 9.881847
54.270 9.899569
54.275 9.989157
54.280 10.725144
54.285 10.843031
54.290 10.671455
54.295 10.773751
54.300 10.902593
54.305 10.506844
54.310 10.036416
54.315 9.627265
54.320 9.850466
54.325 9.906625
54.330 9.818849
54.335 9.809715
54.340 10.06905
54.345 10.499196
54.350 10.246258
54.355 9.955866
54.360 10.134614
54.365 10.524096
54.370 10.749966
54.375 10.555052
54.380 9.825974
54.385 9.788324
54.390 9.795938
54.395 9.670859
54.400 9.370204
54.405 9.205308
54.410 9.225413
54.415 9.774763
54.420 9.683225
54.425 9.161745
54.430 8.973892
54.435 9.077273
54.440 9.05743
54.445 8.829523
54.450 8.697752
54.455 9.019697
54.460 9.326381
54.465 8.97288
54.470 9.117846
54.475 9.230823
54.480 9.524612
54.485 10.026424
54.490 9.908466
54.495 10.047726
54.500 10.422548
54.505 10.727454
54.510 10.952451
54.515 10.435241
54.520 10.368277
54.525 10.453974
54.530 10.190877
54.535 10.249931
54.540 10.309925
54.545 10.651192
54.550 10.975711
54.555 10.979307
54.560 11.727391
54.565 12.000484
54.570 11.460746
54.575 11.278972
54.580 11.054078
54.585 11.221086
54.590 11.5216
54.595 10.895
54.600 10.565919
54.605 10.956087
54.610 11.059945
54.615 10.951813
54.620 10.73572
54.625 10.302999
54.630 10.612168
54.635 10.85335
54.640 10.167695
54.645 9.646727
54.650 9.627612
54.655 9.518413
54.660 9.209328
54.665 8.7489
54.670 8.963137
54.675 9.431586
54.680 9.633652
54.685 9.590318
54.690 9.592863
54.695 9.94893
54.700 10.210989
54.705 10.193883
54.710 10.178372
54.715 10.565907
54.720 10.984272
54.725 10.92411
54.730 10.752506
54.735 10.204338
54.740 10.004335
54.745 9.72398
54.750 9.536124
54.755 9.162141
54.760 9.416533
54.765 9.775984
54.770 10.407398
54.775 10.693307
54.780 10.435167
54.785 10.229089
54.790 10.139117
54.795 9.695142
54.800 9.797054
54.805 9.615687
54.810 9.638991
54.815 9.768946
54.820 9.93113
54.825 10.290655
54.830 10.484399
54.835 10.150534
54.840 10.379897
54.845 10.792959
54.850 11.534572
54.855 11.741634
54.860 11.970092
54.865 12.015951
54.870 12.170223
54.875 11.999201
54.880 11.383924
54.885 10.797347
54.890 10.748108
54.895 10.539449
54.900 10.338751
54.905 10.401402
54.910 10.264598
54.915 10.628801
54.920 10.309396
54.925 10.095286
54.930 10.12018
54.935 10.074098
54.940 10.093996
54.945 10.102331
54.950 10.23786
54.955 10.451233
54.960 10.237597
54.965 10.617253
54.970 10.850574
54.975 11.114801
54.980 10.602186
54.985 10.628701
54.990 10.589618
54.995 10.393178
55.000 10.185126
55.005 9.79563
55.010 9.681966
55.015 10.543086
55.020 10.732218
55.025 10.851205
55.030 11.128233
55.035 11.198848
55.040 11.459707
55.045 11.40328
55.050 11.384277
55.055 10.794919
55.060 11.164843
55.065 11.352691
55.070 11.30586
55.075 11.321439
55.080 10.948208
55.085 10.448157
55.090 10.576735
55.095 9.48642
55.100 9.495042
55.105 9.773371
55.110 10.093946
55.115 10.055684
55.120 10.149198
55.125 10.368422
55.130 10.914025
55.135 10.599431
55.140 10.002174
55.145 9.933378
55.150 10.214329
55.155 10.287054
55.160 10.229227
55.165 9.864651
55.170 9.995426
55.175 9.99976
55.180 9.742867
55.185 10.276316
55.190 10.60322
55.195 10.797852
55.200 10.913835
55.205 10.881825
55.210 11.249318
55.215 11.143019
55.220 11.04146
55.225 11.148175
55.230 11.179501
55.235 11.884124
55.240 12.400265
55.245 12.110361
55.250 11.829103
55.255 11.356281
55.260 11.11119
55.265 11.182222
55.270 11.055159
55.275 10.902658
55.280 11.122583
55.285 11.358138
55.290 10.903923
55.295 10.919808
55.300 11.311522
55.305 11.04652
55.310 10.861556
55.315 10.902331
55.320 11.235139
55.325 11.559837
55.330 11.303716
55.335 10.816178
55.340 10.544291
55.345 10.335934
55.350 10.469002
55.355 10.610551
55.360 11.19477
55.365 11.461309
55.370 11.467721
55.375 11.691034
55.380 11.532688
55.385 11.819083
55.390 11.653348
55.395 11.747068
55.400 11.669968
55.405 11.949209
55.410 12.34634
55.415 12.723299
55.420 12.513285
55.425 11.802387
55.430 11.399818
55.435 11.776652
55.440 11.761298
55.445 11.766758
55.450 11.705976
55.455 11.989874
55.460 12.535395
55.465 12.234288
55.470 11.832684
55.475 11.218369
55.480 11.126934
55.485 10.986805
55.490 10.551214
55.495 11.009169
55.500 11.368817
55.505 11.562555
55.510 11.918782
55.515 12.079964
55.520 12.027845
55.525 11.785461
55.530 11.134951
55.535 11.602991
55.540 11.530681
55.545 11.212409
55.550 11.655116
55.555 12.368342
55.560 12.561099
55.565 12.382368
55.570 11.680815
55.575 12.139994
55.580 12.666647
55.585 12.873162
55.590 13.171006
55.595 13.340565
55.600 13.310082
55.605 12.98148
55.610 12.87008
55.615 12.334132
55.620 11.450053
55.625 10.620875
55.630 10.482771
55.635 10.524239
55.640 10.963242
55.645 10.822512
55.650 10.939891
55.655 11.167409
55.660 11.27029
55.665 11.492837
55.670 11.600919
55.675 11.600824
55.680 11.734042
55.685 12.07804
55.690 12.392515
55.695 12.478054
55.700 12.067417
55.705 11.867605
55.710 11.826614
55.715 12.081555
55.720 11.913647
55.725 11.944172
55.730 12.085501
55.735 12.400463
55.740 12.48157
55.745 12.147487
55.750 11.880724
55.755 11.705971
55.760 11.50125
55.765 11.288813
55.770 12.195598
55.775 12.70544
55.780 12.618469
55.785 12.46895
55.790 11.858214
55.795 11.99926
55.800 11.655966
55.805 10.447327
55.810 10.079703
55.815 10.482124
55.820 10.590219
55.825 10.562189
55.830 10.376325
55.835 11.123607
55.840 11.731114
55.845 11.742276
55.850 11.331646
55.855 11.894842
55.860 12.70709
55.865 13.04766
55.870 12.794844
55.875 13.477784
55.880 13.235189
55.885 13.209719
55.890 12.93222
55.895 12.581937
55.900 12.729241
55.905 12.369303
55.910 12.190476
55.915 12.445951
55.920 12.136058
55.925 11.799984
55.930 11.965871
55.935 11.879807
55.940 11.711626
55.945 11.845956
55.950 12.272003
55.955 12.490218
55.960 12.540557
55.965 12.291698
55.970 12.337873
55.975 12.263776
55.980 11.998819
55.985 11.519384
55.990 11.203891
55.995 11.248314
56.000 11.345
56.005 11.191644
56.010 11.5983
56.015 11.197714
56.020 11.558083
56.025 12.021253
56.030 11.996567
56.035 11.619829
56.040 11.159512
56.045 10.763699
56.050 10.979567
56.055 10.677476
56.060 10.25324
56.065 10.234858
56.070 10.932811
56.075 11.220366
56.080 11.398837
56.085 11.179281
56.090 11.072625
56.095 10.972738
56.100 10.61288
56.105 10.439851
56.110 10.356627
56.115 10.49775
56.120 11.154393
56.125 11.568123
56.130 11.659479
56.135 11.871202
56.140 11.844206
56.145 12.231909
56.150 12.599864
56.155 12.703294
56.160 12.68949
56.165 13.029523
56.170 13.307041
56.175 13.415001
56.180 13.186935
56.185 12.780722
56.190 12.959794
56.195 13.419219
56.200 13.707561
56.205 13.779734
56.210 13.970751
56.215 14.43266
56.220 14.146595
56.225 13.71874
56.230 13.252994
56.235 13.317235
56.240 13.301508
56.245 13.297887
56.250 12.969861
56.255 12.649919
56.260 12.762923
56.265 12.643996
56.270 11.906047
56.275 11.858444
56.280 11.722556
56.285 11.91103
56.290 12.409686
56.295 12.712112
56.300 13.062437
56.305 13.301526
56.310 13.297809
56.315 13.050889
56.320 12.958668
56.325 13.111464
56.330 12.720231
56.335 12.969399
56.340 13.253696
56.345 13.312246
56.350 13.232463
56.355 13.180383
56.360 13.211746
56.365 13.409574
56.370 13.242807
56.375 13.26609
56.380 13.589055
56.385 14.017851
56.390 13.844395
56.395 13.371101
56.400 13.428401
56.405 13.51888
56.410 13.695627
56.415 13.505214
56.420 13.545893
56.425 13.692427
56.430 13.466856
56.435 13.223236
56.440 13.179775
56.445 12.840093
56.450 12.643535
56.455 12.636345
56.460 12.847826
56.465 12.846763
56.470 12.819189
56.475 12.539812
56.480 11.85955
56.485 11.732462
56.490 12.158023
56.495 12.089809
56.500 11.929047
56.505 11.765429
56.510 12.030106
56.515 12.444902
56.520 12.046351
56.525 11.444749
56.530 11.349396
56.535 11.553714
56.540 11.691192
56.545 11.777467
56.550 12.247151
56.555 12.457482
56.560 12.777553
56.565 13.059562
56.570 12.916509
56.575 12.438416
56.580 12.342495
56.585 11.640473
56.590 11.357156
56.595 11.137741
56.600 11.15379
56.605 11.67481
56.610 11.932269
56.615 11.968371
56.620 12.756113
56.625 13.143131
56.630 13.424861
56.635 13.153963
56.640 12.832951
56.645 12.910105
56.650 12.73772
56.655 12.855976
56.660 12.646334
56.665 12.512333
56.670 13.012523
56.675 13.017809
56.680 13.009175
56.685 13.18288
56.690 12.651716
56.695 12.533092
56.700 12.581457
56.705 12.629068
56.710 13.132024
56.715 13.416838
56.720 13.536674
56.725 13.930161
56.730 13.977345
56.735 13.427916
56.740 13.185597
56.745 13.36186
56.750 13.438965
56.755 13.12476
56.760 12.773544
56.765 13.130734
56.770 13.30086
56.775 12.808215
56.780 12.241243
56.785 11.691095
56.790 11.928741
56.795 11.847541
56.800 12.180413
56.805 12.881313
56.810 13.289401
56.815 13.229867
56.820 13.311976
56.825 13.624469
56.830 13.939585
56.835 13.580647
56.840 13.510083
56.845 13.538309
56.850 13.637708
56.855 13.735757
56.860 13.762256
56.865 13.604562
56.870 13.783703
56.875 13.659568
56.880 13.625011
56.885 13.974648
56.890 13.755109
56.895 13.652455
56.900 13.60513
56.905 13.915165
56.910 14.010369
56.915 13.44895
56.920 13.183878
56.925 13.666807
56.930 13.77548
56.935 13.359364
56.940 13.060712
56.945 13.382731
56.950 13.649384
56.955 14.245228
56.960 14.382939
56.965 14.612202
56.970 15.102003
56.975 14.801566
56.980 15.147927
56.985 15.616647
56.990 14.87737
56.995 14.447103
57.000 14.264492
57.005 13.983517
57.010 13.964258
57.015 13.437404
57.020 13.00779
57.025 13.239161
57.030 13.272335
57.035 13.607721
57.040 13.453781
57.045 13.17011
57.050 13.479388
57.055 13.646254
57.060 13.651911
57.065 13.755816
57.070 13.157192
57.075 13.456641
57.080 13.295943
57.085 12.928827
57.090 12.909497
57.095 12.94355
57.100 12.591514
57.105 12.206394
57.110 12.243082
57.115 12.007119
57.120 11.855667
57.125 11.848345
57.130 11.55296
57.135 11.465682
57.140 11.712532
57.145 11.418059
57.150 11.668427
57.155 11.80038
57.160 12.211243
57.165 13.001105
57.170 13.368979
57.175 13.465165
57.180 13.758514
57.185 13.929494
57.190 13.721374
57.195 13.384196
57.200 12.800961
57.205 12.87465
57.210 12.939834
57.215 13.099667
57.220 13.210662
57.225 13.074425
57.230 12.711433
57.235 12.839158
57.240 12.840206
57.245 12.733482
57.250 12.462595
57.255 11.709179
57.260 11.673686
57.265 11.942014
57.270 12.250503
57.275 12.25005
57.280 12.357185
57.285 12.373821
57.290 12.533628
57.295 12.757666
57.300 12.363495
57.305 11.755604
57.310 11.482521
57.315 11.473258
57.320 11.950063
57.325 12.336633
57.330 12.77354
57.335 13.189196
57.340 13.645283
57.345 14.294871
57.350 14.279946
57.355 14.381422
57.360 14.44218
57.365 14.451716
57.370 14.555014
57.375 14.508217
57.380 14.270596
57.385 14.121598
57.390 13.906027
57.395 14.096223
57.400 14.35723
57.405 14.710067
57.410 14.80634
57.415 14.495481
57.420 14.465424
57.425 14.625045
57.430 14.473024
57.435 14.07731
57.440 13.437769
57.445 13.582509
57.450 14.237372
57.455 14.846215
57.460 14.756852
57.465 14.703724
57.470 14.577901
57.475 14.775651
57.480 14.448477
57.485 13.932719
57.490 13.282804
57.495 13.284644
57.500 13.462181
57.505 13.380932
57.510 13.101154
57.515 13.083609
57.520 13.396418
57.525 13.146204
57.530 12.446692
57.535 12.091714
57.540 12.372965
57.545 12.480618
57.550 12.406591
57.555 12.300788
57.560 12.535237
57.565 12.926458
57.570 13.765593
57.575 13.975747
57.580 13.942171
57.585 13.489106
57.590 13.238174
57.595 13.171729
57.600 13.069984
57.605 12.585992
57.610 12.707679
57.615 12.66268
57.620 13.206106
57.625 13.291261
57.630 13.32581
57.635 13.104788
57.640 12.783882
57.645 12.134955
57.650 12.3476
57.655 12.732347
57.660 13.616545
57.665 13.454826
57.670 13.116635
57.675 13.277468
57.680 13.635722
57.685 13.222913
57.690 12.816399
57.695 12.215022
57.700 12.842039
57.705 13.748587
57.710 13.419068
57.715 13.486391
57.720 13.986247
57.725 14.382538
57.730 14.220882
57.735 13.631832
57.740 13.236547
57.745 13.630215
57.750 14.082132
57.755 14.414203
57.760 14.327233
57.765 14.844829
57.770 14.907473
57.775 14.917039
57.780 14.584182
57.785 13.847487
57.790 13.372113
57.795 13.117408
57.800 13.016829
57.805 13.141372
57.810 13.130851
57.815 13.323426
57.820 13.255625
57.825 13.609654
57.830 13.920504
57.835 13.835165
57.840 13.884159
57.845 14.510952
57.850 14.784908
57.855 14.970259
57.860 14.491787
57.865 14.428605
57.870 14.60773
57.875 14.264099
57.880 13.837071
57.885 13.763532
57.890 13.819406
57.895 13.670771
57.900 13.483825
57.905 13.275612
57.910 13.356846
57.915 12.9581
57.920 12.684237
57.925 12.591221
57.930 12.575749
57.935 12.31041
57.940 12.565202
57.945 13.100367
57.950 13.131135
57.955 12.934813
57.960 12.604909
57.965 12.657932
57.970 12.814308
57.975 13.110882
57.980 13.378688
57.985 13.936857
57.990 14.426348
57.995 14.764338
58.000 14.627522
58.005 14.336724
58.010 14.375603
58.015 14.052496
58.020 13.69068
58.025 13.774854
58.030 14.387547
58.035 14.977736
58.040 14.984943
58.045 14.763281
58.050 14.776917
58.055 14.77442
58.060 14.665294
58.065 14.336947
58.070 14.498724
58.075 14.819957
58.080 14.817263
58.085 14.801277
58.090 15.024053
58.095 15.175993
58.100 15.164255
58.105 15.349339
58.110 15.427681
58.115 15.787429
58.120 16.414391
58.125 16.692492
58.130 16.645777
58.135 16.710323
58.140 16.24144
58.145 16.042608
58.150 14.987619
58.155 13.778846
58.160 13.051718
58.165 12.980923
58.170 13.107532
58.175 13.135281
58.180 13.165443
58.185 13.756136
58.190 14.490792
58.195 14.615761
58.200 14.355689
58.205 14.258072
58.210 13.87761
58.215 14.288091
58.220 14.56662
58.225 14.966719
58.230 15.399946
58.235 15.490912
58.240 15.844653
58.245 16.393698
58.250 15.931039
58.255 15.652281
58.260 15.313321
58.265 15.025776
58.270 14.752331
58.275 14.423632
58.280 13.789479
58.285 14.107473
58.290 14.514647
58.295 14.753984
58.300 14.7376
58.305 14.736717
58.310 14.73497
58.315 14.925609
58.320 14.331786
58.325 14.014131
58.330 13.663206
58.335 13.545541
58.340 13.990597
58.345 14.073332
58.350 13.769645
58.355 14.104677
58.360 14.305339
58.365 14.634581
58.370 14.807649
58.375 14.921369
58.380 14.91846
58.385 15.138366
58.390 14.637107
58.395 14.112439
58.400 13.884911
58.405 13.722709
58.410 13.449159
58.415 13.248869
58.420 14.332001
58.425 14.598051
58.430 14.756112
58.435 14.905484
58.440 15.025744
58.445 15.410355
58.450 15.490841
58.455 14.806074
58.460 15.058368
58.465 15.127721
58.470 15.307933
58.475 15.48196
58.480 15.404924
58.485 15.536772
58.490 15.671794
58.495 15.673825
58.500 15.663392
58.505 15.796566
58.510 15.663394
58.515 15.382175
58.520 15.339334
58.525 15.118618
58.530 14.693711
58.535 14.681714
58.540 14.18318
58.545 13.937556
58.550 14.15926
58.555 13.973109
58.560 13.922352
58.565 14.131613
58.570 14.077596
58.575 14.343864
58.580 14.54285
58.585 14.314379
58.590 14.467023
58.595 14.772917
58.600 15.089495
58.605 15.143828
58.610 15.308288
58.615 15.408452
58.620 15.799766
58.625 16.612984
58.630 16.980192
58.635 16.630424
58.640 16.018692
58.645 15.8324
58.650 15.516342
58.655 15.353491
58.660 14.630244
58.665 14.40519
58.670 14.668122
58.675 14.449111
58.680 13.87942
58.685 14.40649
58.690 14.195466
58.695 14.19868
58.700 13.110375
58.705 13.073495
58.710 14.076679
58.715 14.732702
58.720 14.324835
58.725 14.399858
58.730 14.507524
58.735 14.902583
58.740 14.974173
58.745 14.659262
58.750 14.445841
58.755 14.234236
58.760 13.976464
58.765 13.834408
58.770 14.182364
58.775 14.224135
58.780 14.072943
58.785 14.289727
58.790 14.780249
58.795 14.95824
58.800 14.868772
58.805 14.860187
58.810 15.155478
58.815 15.160362
58.820 14.954135
58.825 15.272478
58.830 15.294558
58.835 15.025166
58.840 14.499678
58.845 14.336734
58.850 14.349745
58.855 14.467085
58.860 14.262574
58.865 14.625319
58.870 15.475638
58.875 15.980724
58.880 15.933507
58.885 15.851806
58.890 15.201071
58.895 15.132231
58.900 14.861342
58.905 14.318514
58.910 14.881657
58.915 15.315281
58.920 15.689439
58.925 15.713871
58.930 16.079363
58.935 15.904055
58.940 15.968716
58.945 15.219584
58.950 14.290804
58.955 13.872973
58.960 13.740472
58.965 13.532474
58.970 14.069236
58.975 15.005565
58.980 15.668179
58.985 16.447304
58.990 16.494316
58.995 16.983662
59.000 17.006157
59.005 16.872845
59.010 16.216118
59.015 16.109825
59.020 15.686389
59.025 15.490934
59.030 15.573215
59.035 15.896487
59.040 16.485514
59.045 17.138262
59.050 17.218733
59.055 17.464539
59.060 18.012966
59.065 17.836098
59.070 18.299568
59.075 18.155054
59.080 17.66711
59.085 17.547405
59.090 17.739025
59.095 17.391169
59.100 16.997007
59.105 15.916462
59.110 15.100933
59.115 14.804227
59.120 14.542474
59.125 14.620006
59.130 15.205331
59.135 15.890331
59.140 16.104338
59.145 16.837006
59.150 16.809208
59.155 16.913666
59.160 16.848392
59.165 16.111465
59.170 15.715952
59.175 15.623043
59.180 16.119331
59.185 16.179976
59.190 15.894006
59.195 15.354456
59.200 15.22812
59.205 15.127007
59.210 15.885749
59.215 15.395742
59.220 15.890578
59.225 16.174147
59.230 16.368876
59.235 16.205248
59.240 16.086155
59.245 15.857452
59.250 15.567845
59.255 15.350912
59.260 15.589347
59.265 16.224964
59.270 16.853054
59.275 17.401686
59.280 17.574148
59.285 17.043451
59.290 17.541979
59.295 17.53125
59.300 17.520662
59.305 16.828783
59.310 16.447945
59.315 15.812197
59.320 16.196201
59.325 16.629131
59.330 17.135489
59.335 17.125742
59.340 17.327417
59.345 17.149153
59.350 17.703016
59.355 17.460911
59.360 17.013054
59.365 16.767235
59.370 16.647797
59.375 16.800358
59.380 17.172424
59.385 17.63492
59.390 18.564369
59.395 18.317221
59.400 18.691076
59.405 18.885134
59.410 19.217598
59.415 18.850014
59.420 18.331404
59.425 17.863699
59.430 18.529776
59.435 18.174089
59.440 18.529322
59.445 18.516172
59.450 18.997793
59.455 19.260405
59.460 19.835199
59.465 19.46483
59.470 19.700758
59.475 19.769224
59.480 20.381145
59.485 20.627832
59.490 20.742577
59.495 20.186337
59.500 20.320496
59.505 20.489683
59.510 20.045979
59.515 19.333723
59.520 19.508297
59.525 19.712751
59.530 19.833424
59.535 19.600029
59.540 19.202431
59.545 19.214928
59.550 19.062986
59.555 17.991747
59.560 17.257734
59.565 17.189629
59.570 17.32513
59.575 17.646912
59.580 17.495518
59.585 17.338093
59.590 17.597691
59.595 18.231882
59.600 18.294655
59.605 17.961739
59.610 18.069023
59.615 18.299526
59.620 18.796713
59.625 19.109558
59.630 19.513124
59.635 20.098629
59.640 19.926165
59.645 19.694147
59.650 19.987968
59.655 20.026869
59.660 19.965094
59.665 19.732038
59.670 19.903332
59.675 20.481398
59.680 20.409697
59.685 20.120462
59.690 19.950258
59.695 19.604307
59.700 19.795328
59.705 19.839533
59.710 20.223373
59.715 20.074718
59.720 20.836805
59.725 21.335508
59.730 21.386129
59.735 22.070738
59.740 21.320749
59.745 21.036167
59.750 21.701273
59.755 21.205488
59.760 21.315453
59.765 21.628687
59.770 20.864285
59.775 21.144936
59.780 21.228043
59.785 20.681646
59.790 20.564919
59.795 20.328522
59.800 20.36738
59.805 19.905525
59.810 20.051752
59.815 20.291544
59.820 21.051937
59.825 21.32015
59.830 21.367472
59.835 21.637033
59.840 22.03141
59.845 22.493877
59.850 22.4963
59.855 21.946964
59.860 21.823034
59.865 21.692587
59.870 21.730822
59.875 22.359993
59.880 22.471376
59.885 22.749855
59.890 23.504696
59.895 24.10659
59.900 24.646692
59.905 23.636284
59.910 22.380766
59.915 21.257822
59.920 20.599606
59.925 20.219505
59.930 19.845333
59.935 19.386549
59.940 19.560389
59.945 19.712404
59.950 19.957129
59.955 20.257135
59.960 20.47658
59.965 20.531391
59.970 20.093132
59.975 20.260838
59.980 20.644215
59.985 21.396217
59.990 21.643835
59.995 21.50915
60.000 21.26046
60.005 21.653715
60.010 22.087742
60.015 22.501482
60.020 22.266451
60.025 21.537077
60.030 21.498188
60.035 21.668488
60.040 22.139582
60.045 21.998838
60.050 21.642408
60.055 22.412836
60.060 22.768543
60.065 22.42441
60.070 22.195795
60.075 21.961988
60.080 21.96274
60.085 22.016777
60.090 22.047331
60.095 22.375172
60.100 22.905773
60.105 23.258999
60.110 22.852417
60.115 23.130854
60.120 23.073427
60.125 22.013342
60.130 21.228573
60.135 21.487804
60.140 21.604527
60.145 22.176884
60.150 22.064318
60.155 22.403627
60.160 22.687407
60.165 22.97732
60.170 22.683384
60.175 22.278074
60.180 21.977997
60.185 22.135271
60.190 22.230904
60.195 22.58732
60.200 23.158234
60.205 23.174477
60.210 23.126276
60.215 22.629036
60.220 21.344069
60.225 20.827545
60.230 20.999813
60.235 20.539806
60.240 20.596989
60.245 20.837519
60.250 21.452589
60.255 21.981297
60.260 21.811031
60.265 20.921274
60.270 20.76384
60.275 20.450134
60.280 20.120554
60.285 20.015396
60.290 20.50416
60.295 20.377817
60.300 20.655235
60.305 20.520248
60.310 20.648575
60.315 20.639595
60.320 20.4823
60.325 20.141367
60.330 19.850851
60.335 19.668825
60.340 19.979128
60.345 20.211973
60.350 20.095896
60.355 19.737261
60.360 19.580334
60.365 19.877884
60.370 19.855274
60.375 19.35018
60.380 18.865091
60.385 18.942734
60.390 19.115854
60.395 19.091898
60.400 18.668629
60.405 18.637817
60.410 18.726841
60.415 19.00902
60.420 19.50864
60.425 19.484762
60.430 19.272371
60.435 18.780752
60.440 18.420179
60.445 18.576447
60.450 19.002007
60.455 18.664007
60.460 18.994856
60.465 19.588547
60.470 20.453251
60.475 20.488962
60.480 19.824594
60.485 18.852619
60.490 18.412584
60.495 18.278469
60.500 18.135456
60.505 17.867569
60.510 18.012108
60.515 18.521702
60.520 19.1833
60.525 19.182037
60.530 18.816938
60.535 18.852795
60.540 19.13509
60.545 19.019089
60.550 18.633392
60.555 18.58353
60.560 19.106878
60.565 19.241571
60.570 19.341999
60.575 19.294256
60.580 19.837433
60.585 20.224764
60.590 20.230291
60.595 19.982969
60.600 19.609913
60.605 19.379045
60.610 19.184546
60.615 18.608046
60.620 18.377237
60.625 17.958946
60.630 17.670126
60.635 17.503017
60.640 17.577421
60.645 17.13773
60.650 17.467928
60.655 17.112247
60.660 16.792221
60.665 16.659912
60.670 16.597193
60.675 16.485571
60.680 16.077036
60.685 15.708196
60.690 15.897971
60.695 15.918794
60.700 16.381664
60.705 16.456467
60.710 17.243649
60.715 17.500471
60.720 17.487963
60.725 18.227983
60.730 18.458738
60.735 18.343494
60.740 18.338181
60.745 17.266968
60.750 17.618164
60.755 18.089231
60.760 17.756907
60.765 18.284483
60.770 18.10343
60.775 17.55834
60.780 18.140394
60.785 18.350355
60.790 18.181372
60.795 18.04019
60.800 17.511238
60.805 17.747023
60.810 17.812489
60.815 16.949747
60.820 16.839336
60.825 16.763411
60.830 17.200287
60.835 17.851845
60.840 18.074646
60.845 18.714779
60.850 18.685171
60.855 18.409424
60.860 18.079441
60.865 18.121508
60.870 17.328108
60.875 16.979
60.880 16.401005
60.885 16.172234
60.890 16.271774
60.895 15.838807
60.900 15.630408
60.905 15.927806
60.910 16.128683
60.915 16.654444
60.920 17.387156
60.925 17.355932
60.930 17.316662
60.935 17.21681
60.940 17.122505
60.945 16.340166
60.950 15.990659
60.955 16.229921
60.960 16.625278
60.965 16.740644
60.970 16.22481
60.975 15.846819
60.980 16.070541
60.985 16.061604
60.990 16.057817
60.995 15.800545
61.000 16.353254
61.005 16.661722
61.010 16.953886
61.015 17.094719
61.020 17.319265
61.025 16.829163
61.030 16.890871
61.035 16.477304
61.040 16.673199
61.045 16.749443
61.050 16.731934
61.055 17.097387
61.060 17.589964
61.065 17.323927
61.070 16.784323
61.075 16.692484
61.080 17.195679
61.085 17.302118
61.090 17.422277
61.095 17.19025
61.100 18.109493
61.105 18.987246
61.110 18.929018
61.115 18.830778
61.120 18.827684
61.125 17.918226
61.130 17.691122
61.135 16.852785
61.140 16.260002
61.145 16.266773
61.150 15.64575
61.155 15.487072
61.160 15.396802
61.165 15.699538
61.170 15.832038
61.175 15.450609
61.180 15.490757
61.185 15.908837
61.190 16.311632
61.195 17.137548
61.200 17.092209
61.205 17.482409
61.210 18.426979
61.215 18.562149
61.220 18.490141
61.225 18.414553
61.230 18.639868
61.235 18.101641
61.240 17.578466
61.245 17.24238
61.250 17.665897
61.255 17.928324
61.260 17.766329
61.265 17.188797
61.270 17.850842
61.275 17.971493
61.280 17.878159
61.285 17.364538
61.290 17.198553
61.295 17.268824
61.300 16.988235
61.305 16.74004
61.310 16.843142
61.315 17.185274
61.320 17.51371
61.325 17.584396
61.330 17.200632
61.335 17.898344
61.340 17.940516
61.345 17.794991
61.350 17.690302
61.355 17.858246
61.360 17.989498
61.365 18.187664
61.370 17.569183
61.375 17.234074
61.380 17.229845
61.385 16.973866
61.390 16.580158
61.395 16.539732
61.400 16.625353
61.405 16.474848
61.410 16.503683
61.415 16.463198
61.420 16.167593
61.425 15.75477
61.430 15.925569
61.435 15.808959
61.440 16.021059
61.445 15.799088
61.450 15.610014
61.455 15.591237
61.460 15.846329
61.465 15.955368
61.470 16.122419
61.475 16.296684
61.480 17.086798
61.485 17.889565
61.490 18.131647
61.495 18.376062
61.500 18.318932
61.505 18.185015
61.510 17.710615
61.515 17.43479
61.520 16.872332
61.525 16.850607
61.530 16.919907
61.535 16.889709
61.540 16.805035
61.545 16.793665
61.550 16.656269
61.555 17.102131
61.560 17.593107
61.565 17.347837
61.570 16.7089
61.575 16.669998
61.580 17.022434
61.585 17.304529
61.590 16.875883
61.595 16.321274
61.600 16.305824
61.605 16.399313
61.610 16.715794
61.615 16.15929
61.620 15.637214
61.625 15.65815
61.630 15.964156
61.635 15.823478
61.640 16.339035
61.645 16.311047
61.650 16.614618
61.655 17.024296
61.660 17.429634
61.665 17.787567
61.670 18.190742
61.675 18.119993
61.680 18.170691
61.685 18.230574
61.690 17.818836
61.695 17.446716
61.700 16.859917
61.705 16.358747
61.710 15.720412
61.715 15.434254
61.720 14.893914
61.725 14.823491
61.730 14.425452
61.735 14.935098
61.740 15.479856
61.745 16.441111
61.750 17.008112
61.755 17.661243
61.760 17.993671
61.765 18.02018
61.770 17.924496
61.775 17.29073
61.780 16.6555
61.785 17.312113
61.790 17.518562
61.795 17.774462
61.800 17.839554
61.805 17.748774
61.810 18.086481
61.815 17.917694
61.820 17.292826
61.825 16.880579
61.830 16.363857
61.835 16.038874
61.840 15.884426
61.845 15.62403
61.850 15.486667
61.855 15.879408
61.860 16.481224
61.865 16.86344
61.870 17.26886
61.875 17.415648
61.880 17.577526
61.885 17.861555
61.890 17.973227
61.895 17.908258
61.900 17.900448
61.905 17.770279
61.910 17.871294
61.915 17.817335
61.920 17.821733
61.925 17.464764
61.930 17.194584
61.935 17.011606
61.940 17.067225
61.945 16.744652
61.950 16.999937
61.955 17.009291
61.960 16.705374
61.965 16.560673
61.970 16.600346
61.975 16.572754
61.980 16.610022
61.985 16.7535
61.990 16.821718
61.995 16.993521
62.000 17.560593
62.005 17.825476
62.010 18.497034
62.015 18.296303
62.020 18.14394
62.025 17.589478
62.030 18.238134
62.035 17.929731
62.040 17.660954
62.045 17.477377
62.050 18.059441
62.055 18.426899
62.060 18.557352
62.065 18.032745
62.070 17.741741
62.075 17.707903
62.080 17.303446
62.085 16.838089
62.090 16.657436
62.095 16.927917
62.100 16.691387
62.105 16.495047
62.110 16.361629
62.115 16.529741
62.120 16.469284
62.125 15.974192
62.130 15.967433
62.135 16.111906
62.140 16.591951
62.145 16.721682
62.150 16.803171
62.155 17.114111
62.160 17.6427
62.165 18.084803
62.170 18.061064
62.175 17.959484
62.180 18.214405
62.185 17.909401
62.190 17.615376
62.195 16.929813
62.200 16.125278
62.205 15.639474
62.210 14.964522
62.215 14.503149
62.220 14.463044
62.225 14.427892
62.230 14.701277
62.235 15.278033
62.240 16.299696
62.245 16.894653
62.250 16.612249
62.255 16.667997
62.260 16.809084
62.265 16.471134
62.270 16.294394
62.275 15.796065
62.280 15.547714
62.285 15.356112
62.290 15.389997
62.295 15.368499
62.300 15.22075
62.305 14.713307
62.310 14.654313
62.315 14.892509
62.320 15.716925
62.325 16.116404
62.330 16.354725
62.335 16.589859
62.340 16.702097
62.345 17.064409
62.350 17.35779
62.355 16.776312
62.360 16.660101
62.365 17.391165
62.370 17.552731
62.375 17.550909
62.380 18.146358
62.385 18.567017
62.390 19.14175
62.395 19.147745
62.400 18.934179
62.405 19.27919
62.410 19.520754
62.415 19.025728
62.420 18.875597
62.425 18.548216
62.430 18.319605
62.435 18.238964
62.440 17.658831
62.445 17.893782
62.450 18.473417
62.455 18.486532
62.460 18.676714
62.465 18.998404
62.470 19.152584
62.475 19.404253
62.480 19.334665
62.485 18.287771
62.490 18.407314
62.495 18.719645
62.500 18.685843
62.505 18.5198
62.510 18.585878
62.515 18.203691
62.520 18.427952
62.525 17.882875
62.530 17.124029
62.535 16.945822
62.540 17.45451
62.545 17.639416
62.550 17.433538
62.555 16.832365
62.560 17.308815
62.565 17.588665
62.570 17.052874
62.575 16.620796
62.580 17.012957
62.585 17.637888
62.590 17.943691
62.595 17.310898
62.600 17.144251
62.605 17.697237
62.610 17.617445
62.615 17.052765
62.620 16.89979
62.625 17.313885
62.630 18.064939
62.635 18.72407
62.640 18.695236
62.645 18.677908
62.650 18.82202
62.655 19.264254
62.660 19.255732
62.665 18.480785
62.670 17.757843
62.675 17.602579
62.680 17.985968
62.685 17.983215
62.690 17.559284
62.695 17.495823
62.700 17.827528
62.705 17.661005
62.710 17.33387
62.715 17.038912
62.720 17.451225
62.725 16.836267
62.730 16.419231
62.735 16.621571
62.740 17.232643
62.745 17.50267
62.750 17.092173
62.755 16.773037
62.760 17.336582
62.765 17.555429
62.770 17.576403
62.775 16.936359
62.780 16.412964
62.785 16.407141
62.790 16.699812
62.795 16.949791
62.800 17.044762
62.805 16.921032
62.810 16.857723
62.815 16.826616
62.820 16.97521
62.825 16.306561
62.830 16.038942
62.835 15.828499
62.840 15.720039
62.845 15.736169
62.850 16.004957
62.855 15.608247
62.860 15.763813
62.865 15.918447
62.870 16.173552
62.875 16.261715
62.880 16.448706
62.885 16.466068
62.890 16.702995
62.895 16.926615
62.900 17.389994
62.905 17.312704
62.910 17.080212
62.915 16.772236
62.920 16.582211
62.925 16.905533
62.930 16.753401
62.935 15.834508
62.940 15.820692
62.945 16.161465
62.950 16.475853
62.955 17.013859
62.960 16.694851
62.965 16.65052
62.970 17.362383
62.975 17.848663
62.980 18.291943
62.985 18.58548
62.990 18.506052
62.995 18.386173
63.000 18.515741
63.005 18.352308
63.010 18.310551
63.015 18.272753
63.020 17.973845
63.025 17.646379
63.030 17.483658
63.035 17.584185
63.040 17.513105
63.045 17.092625
63.050 16.683434
63.055 16.51601
63.060 17.29394
63.065 17.739801
63.070 18.254282
63.075 18.133894
63.080 17.895998
63.085 17.748339
63.090 18.16534
63.095 17.892101
63.100 17.677742
63.105 17.151642
63.110 17.09445
63.115 17.567722
63.120 17.428928
63.125 17.238861
63.130 17.17905
63.135 17.413929
63.140 17.125469
63.145 17.129662
63.150 17.136484
63.155 17.766485
63.160 17.503099
63.165 17.464594
63.170 17.48764
63.175 17.855879
63.180 18.452522
63.185 18.542282
63.190 18.659946
63.195 19.006018
63.200 19.338509
63.205 19.059454
63.210 18.273134
63.215 17.664238
63.220 17.453773
63.225 16.827398
63.230 16.455736
63.235 15.600733
63.240 15.52183
63.245 15.597894
63.250 15.980043
63.255 15.958037
63.260 16.590984
63.265 16.705555
63.270 17.605808
63.275 18.02264
63.280 18.328386
63.285 18.328398
63.290 18.370934
63.295 17.718904
63.300 17.859676
63.305 17.692125
63.310 17.926878
63.315 17.844526
63.320 17.674501
63.325 18.129185
63.330 18.501175
63.335 18.187254
63.340 17.911522
63.345 17.7637
63.350 17.63546
63.355 17.455093
63.360 17.284376
63.365 17.420925
63.370 18.245729
63.375 18.465729
63.380 17.886192
63.385 17.9977
63.390 18.045464
63.395 17.658888
63.400 17.274181
63.405 16.85677
63.410 17.134714
63.415 17.329103
63.420 16.899639
63.425 16.382078
63.430 16.590208
63.435 16.791082
63.440 16.452271
63.445 16.351606
63.450 16.527145
63.455 17.191898
63.460 17.786852
63.465 17.456057
63.470 17.51618
63.475 17.404217
63.480 17.609833
63.485 17.645393
63.490 17.725689
63.495 17.916027
63.500 18.306772
63.505 19.118914
63.510 19.563925
63.515 19.271212
63.520 18.994404
63.525 18.425186
63.530 18.268402
63.535 17.957462
63.540 17.301374
63.545 17.188257
63.550 17.173162
63.555 17.672853
63.560 18.230185
63.565 18.251602
63.570 18.2981
63.575 18.398357
63.580 18.533375
63.585 18.704582
63.590 18.287527
63.595 18.158859
63.600 17.957886
63.605 17.885012
63.610 17.73332
63.615 18.02846
63.620 18.452538
63.625 18.28706
63.630 18.307768
63.635 18.156124
63.640 18.399014
63.645 18.829859
63.650 18.316305
63.655 17.956369
63.660 18.052128
63.665 18.346405
63.670 18.676865
63.675 18.407146
63.680 17.566404
63.685 17.167818
63.690 16.60001
63.695 16.592365
63.700 16.131392
63.705 16.121561
63.710 16.000998
63.715 16.106483
63.720 16.441158
63.725 17.33322
63.730 17.72773
63.735 17.72975
63.740 17.493496
63.745 17.198273
63.750 17.501616
63.755 17.613346
63.760 17.437902
63.765 17.186783
63.770 17.048847
63.775 17.885267
63.780 18.579636
63.785 18.593067
63.790 18.66292
63.795 18.352123
63.800 18.242468
63.805 17.760607
63.810 16.824783
63.815 16.657564
63.820 16.322071
63.825 15.795104
63.830 15.651443
63.835 16.086075
63.840 17.101223
63.845 17.309216
63.850 17.305357
63.855 17.657137
63.860 18.057951
63.865 18.406561
63.870 18.143145
63.875 17.645845
63.880 17.718107
63.885 17.707098
63.890 17.533518
63.895 17.555695
63.900 17.486153
63.905 17.981796
63.910 18.485146
63.915 17.964417
63.920 17.796362
63.925 17.523155
63.930 17.092403
63.935 16.93881
63.940 16.928717
63.945 17.532301
63.950 18.427111
63.955 18.611795
63.960 19.234926
63.965 19.950672
63.970 19.693502
63.975 19.02429
63.980 18.850328
63.985 18.720465
63.990 18.880642
63.995 18.810085
64.000 18.992683
64.005 19.583658
64.010 19.91592
64.015 19.374779
64.020 19.351772
64.025 19.27923
64.030 19.091421
64.035 18.865332
64.040 18.383587
64.045 18.435755
64.050 18.872446
64.055 18.499195
64.060 18.209803
64.065 17.961475
64.070 17.729237
64.075 17.759388
64.080 17.445015
64.085 17.106474
64.090 16.844625
64.095 17.271662
64.100 17.701382
64.105 17.607103
64.110 17.698076
64.115 17.584517
64.120 17.784986
64.125 18.689491
64.130 18.23275
64.135 18.156832
64.140 18.580029
64.145 18.870579
64.150 19.285961
64.155 19.237535
64.160 18.647692
64.165 18.843622
64.170 18.79406
64.175 18.821043
64.180 18.517569
64.185 17.351135
64.190 17.030218
64.195 17.143328
64.200 16.541172
64.205 16.366278
64.210 16.321383
64.215 17.023329
64.220 17.850191
64.225 18.149305
64.230 18.075552
64.235 17.780937
64.240 17.790472
64.245 17.667639
64.250 17.246208
64.255 17.534616
64.260 17.797319
64.265 18.047585
64.270 18.615606
64.275 18.748875
64.280 19.073309
64.285 19.496807
64.290 19.261536
64.295 18.924044
64.300 18.865095
64.305 19.110798
64.310 19.322792
64.315 19.141905
64.320 18.769234
64.325 18.22031
64.330 18.132647
64.335 18.355677
64.340 18.361013
64.345 18.010208
64.350 18.10903
64.355 18.549751
64.360 19.197073
64.365 19.048552
64.370 18.608015
64.375 18.653872
64.380 19.007587
64.385 19.39566
64.390 19.122965
64.395 18.753613
64.400 19.25906
64.405 19.650524
64.410 19.519686
64.415 18.812122
64.420 17.954958
64.425 18.494268
64.430 18.34244
64.435 18.04215
64.440 18.073877
64.445 18.186058
64.450 18.24053
64.455 18.142115
64.460 17.978889
64.465 18.449444
64.470 19.025354
64.475 19.044241
64.480 19.563047
64.485 19.854849
64.490 20.233747
64.495 19.815037
64.500 19.958506
64.505 19.38224
64.510 19.243486
64.515 18.52861
64.520 19.114914
64.525 19.208561
64.530 19.245701
64.535 18.902016
64.540 18.911476
64.545 19.160311
64.550 19.123102
64.555 19.180269
64.560 19.161219
64.565 19.177471
64.570 19.32971
64.575 19.518213
64.580 19.81525
64.585 19.768383
64.590 19.060539
64.595 18.526646
64.600 18.535297
64.605 17.882389
64.610 17.401579
64.615 17.323938
64.620 17.662443
64.625 18.019827
64.630 18.674818
64.635 19.088726
64.640 19.985508
64.645 19.993519
64.650 19.724121
64.655 19.843594
64.660 19.672884
64.665 19.495647
64.670 19.130013
64.675 19.12093
64.680 19.170593
64.685 19.379929
64.690 19.473938
64.695 19.873453
64.700 19.970404
64.705 20.463125
64.710 20.742935
64.715 20.974375
64.720 20.756628
64.725 20.998314
64.730 20.777515
64.735 20.892511
64.740 21.103251
64.745 20.519108
64.750 20.585234
64.755 20.499878
64.760 19.992128
64.765 20.142094
64.770 19.748909
64.775 19.274416
64.780 19.58716
64.785 19.904953
64.790 20.051764
64.795 20.162842
64.800 19.80953
64.805 19.80415
64.810 20.016405
64.815 20.011826
64.820 19.907646
64.825 19.655405
64.830 19.375303
64.835 19.214516
64.840 19.503033
64.845 19.538073
64.850 19.620747
64.855 19.689037
64.860 20.240889
64.865 20.571579
64.870 21.045935
64.875 20.733301
64.880 19.835566
64.885 19.585018
64.890 19.439276
64.895 19.051497
64.900 19.054483
64.905 19.132046
64.910 19.559471
64.915 19.955585
64.920 20.261374
64.925 21.062391
64.930 21.53812
64.935 21.853127
64.940 22.175249
64.945 22.39016
64.950 22.754072
64.955 22.997681
64.960 22.171474
64.965 21.452435
64.970 21.629848
64.975 21.759115
64.980 21.689272
64.985 21.887075
64.990 21.919676
64.995 22.320044
65.000 23.257206
65.005 23.051987
65.010 23.043934
65.015 23.445934
65.020 23.689075
65.025 24.584492
65.030 25.100243
65.035 25.600641
65.040 25.262615
65.045 24.81135
65.050 24.658972
65.055 24.221651
65.060 23.535727
65.065 23.486378
65.070 22.836782
65.075 23.143869
65.080 23.109329
65.085 22.855124
65.090 22.471189
65.095 22.031494
65.100 21.463776
65.105 21.823803
65.110 22.224901
65.115 22.176191
65.120 21.966276
65.125 22.225119
65.130 22.125315
65.135 22.693634
65.140 22.055948
65.145 22.144361
65.150 22.202108
65.155 22.388861
65.160 22.626688
65.165 23.24618
65.170 22.811464
65.175 22.071798
65.180 21.57645
65.185 22.037729
65.190 22.854475
65.195 22.617945
65.200 22.233234
65.205 22.517756
65.210 23.215771
65.215 22.940193
65.220 22.923399
65.225 23.1182
65.230 23.524029
65.235 23.390491
65.240 23.615177
65.245 23.506426
65.250 23.917498
65.255 24.262094
65.260 24.017296
65.265 23.005587
65.270 22.675684
65.275 22.741518
65.280 22.809454
65.285 23.120117
65.290 22.616304
65.295 22.533449
65.300 23.248104
65.305 23.393261
65.310 23.46069
65.315 23.66441
65.320 23.366234
65.325 22.98967
65.330 22.438944
65.335 22.566229
65.340 23.111538
65.345 22.760283
65.350 22.462067
65.355 21.984653
65.360 21.641151
65.365 22.233541
65.370 22.336147
65.375 22.362675
65.380 23.067171
65.385 23.276718
65.390 24.280655
65.395 24.702442
65.400 24.928801
65.405 24.771435
65.410 23.816568
65.415 23.44655
65.420 24.128222
65.425 23.951548
65.430 23.95903
65.435 23.69059
65.440 24.246023
65.445 25.302267
65.450 25.06032
65.455 24.946741
65.460 25.218178
65.465 24.818752
65.470 24.934235
65.475 24.242479
65.480 23.447969
65.485 24.213758
65.490 24.696857
65.495 24.408953
65.500 24.80628
65.505 24.811319
65.510 24.800926
65.515 24.961248
65.520 24.580036
65.525 23.776825
65.530 23.681517
65.535 24.588442
65.540 25.476608
65.545 27.35519
65.550 27.889069
65.555 27.485981
65.560 28.342131
65.565 29.147224
65.570 28.931786
65.575 28.778702
65.580 28.749495
65.585 28.963821
65.590 29.403816
65.595 29.957603
65.600 30.187969
65.605 31.041973
65.610 31.163565
65.615 31.42642
65.620 31.951881
65.625 32.196629
65.630 31.826834
65.635 32.089092
65.640 32.034832
65.645 31.850857
65.650 31.590912
65.655 31.080242
65.660 31.87915
65.665 32.202412
65.670 31.867598
65.675 31.792437
65.680 32.682182
65.685 32.802929
65.690 33.605068
65.695 33.387066
65.700 33.36842
65.705 33.711021
65.710 33.579594
65.715 33.527405
65.720 33.422531
65.725 33.578945
65.730 33.419468
65.735 32.956543
65.740 32.901901
65.745 33.163967
65.750 33.982155
65.755 35.021137
65.760 35.104572
65.765 35.267067
65.770 35.936333
65.775 35.731567
65.780 36.154285
65.785 36.111183
65.790 36.335533
65.795 36.650513
65.800 36.344704
65.805 36.442924
65.810 36.518867
65.815 35.763302
65.820 35.040253
65.825 34.814568
65.830 35.638153
65.835 36.820194
65.840 37.347473
65.845 37.712658
65.850 38.007507
65.855 38.432674
65.860 37.842476
65.865 37.57386
65.870 36.92395
65.875 36.716713
65.880 36.181026
65.885 35.988255
65.890 36.344559
65.895 36.046143
65.900 35.527317
65.905 36.125313
65.910 36.660114
65.915 37.467407
65.920 38.534527
65.925 37.921688
65.930 38.685234
65.935 39.246964
65.940 39.329662
65.945 39.299252
65.950 39.100803
65.955 38.996979
65.960 40.010143
65.965 39.485493
65.970 39.494904
65.975 38.523396
65.980 38.206127
65.985 39.092037
65.990 39.263435
65.995 40.437752
66.000 40.676888
66.005 41.18689
66.010 41.93409
66.015 41.557407
66.020 41.515923
66.025 41.248264
66.030 41.223545
66.035 41.465908
66.040 41.063908
66.045 41.502335
66.050 42.010876
66.055 42.165306
66.060 41.736927
66.065 40.349373
66.070 39.854481
66.075 40.24258
66.080 40.369904
66.085 40.467503
66.090 40.03109
66.095 40.515312
66.100 41.531574
66.105 41.843094
66.110 41.778107
66.115 41.069366
66.120 40.895546
66.125 40.730137
66.130 40.777981
66.135 40.52422
66.140 41.017326
66.145 41.114185
66.150 41.412006
66.155 40.449902
66.160 39.960571
66.165 40.110718
66.170 39.812969
66.175 39.222103
66.180 38.567043
66.185 38.852398
66.190 39.718826
66.195 40.464817
66.200 40.08812
66.205 39.396488
66.210 38.804806
66.215 38.344299
66.220 38.003578
66.225 37.899605
66.230 37.245998
66.235 37.113625
66.240 37.000175
66.245 37.116756
66.250 37.281929
66.255 37.027184
66.260 36.772007
66.265 36.199692
66.270 35.502544
66.275 35.427464
66.280 35.764923
66.285 35.159828
66.290 35.276112
66.295 35.382309
66.300 35.138855
66.305 35.252541
66.310 35.045105
66.315 33.300884
66.320 32.938755
66.325 32.980537
66.330 33.111671
66.335 32.843494
66.340 32.308403
66.345 32.912628
66.350 34.158142
66.355 34.57386
66.360 34.633804
66.365 33.954689
66.370 34.320976
66.375 33.546196
66.380 32.149757
66.385 31.172194
66.390 30.392662
66.395 29.716101
66.400 30.030319
66.405 29.828075
66.410 30.385231
66.415 30.82266
66.420 31.184004
66.425 31.558157
66.430 31.348042
66.435 30.826805
66.440 31.068007
66.445 30.908915
66.450 30.920761
66.455 30.173931
66.460 29.99435
66.465 29.803911
66.470 29.792866
66.475 29.808407
66.480 29.233313
66.485 28.186773
66.490 28.172615
66.495 28.106819
66.500 28.417797
66.505 27.924345
66.510 27.447433
66.515 27.321117
66.520 27.837818
66.525 27.46347
66.530 27.00264
66.535 26.488092
66.540 26.560152
66.545 26.371216
66.550 26.745331
66.555 26.909245
66.560 27.203918
66.565 26.935991
66.570 26.865194
66.575 26.780334
66.580 26.66094
66.585 26.050175
66.590 26.033855
66.595 26.187567
66.600 26.350969
66.605 26.047876
66.610 25.598921
66.615 25.2293
66.620 25.202736
66.625 24.248022
66.630 24.257261
66.635 24.021185
66.640 23.698122
66.645 24.221685
66.650 23.947529
66.655 23.711786
66.660 23.887766
66.665 23.381893
66.670 23.78624
66.675 23.661335
66.680 23.514696
66.685 23.506666
66.690 23.385845
66.695 23.582382
66.700 23.577179
66.705 23.529016
66.710 23.672451
66.715 23.648542
66.720 24.457787
66.725 24.440269
66.730 24.324249
66.735 23.97122
66.740 24.081678
66.745 23.893751
66.750 23.841471
66.755 23.064754
66.760 22.387096
66.765 22.102709
66.770 22.231569
66.775 21.992798
66.780 22.363232
66.785 23.146324
66.790 23.521023
66.795 24.097061
66.800 24.338711
66.805 24.153233
66.810 23.998981
66.815 23.309765
66.820 22.218863
66.825 22.344275
66.830 21.854746
66.835 21.644476
66.840 20.665482
66.845 20.638943
66.850 20.36973
66.855 19.627796
66.860 19.167557
66.865 19.288673
66.870 19.574825
66.875 20.47617
66.880 20.196978
66.885 19.954136
66.890 20.099749
66.895 19.995939
66.900 19.919241
66.905 19.344885
66.910 19.462334
66.915 20.337685
66.920 21.060482
66.925 21.523878
66.930 21.939442
66.935 22.311472
66.940 22.879906
66.945 22.667912
66.950 21.92207
66.955 21.135025
66.960 20.834635
66.965 20.457428
66.970 20.627548
66.975 20.63378
66.980 20.993031
66.985 21.18923
66.990 21.433146
66.995 20.85697
67.000 20.224737
67.005 19.557304
67.010 18.825638
67.015 18.579071
67.020 18.278294
67.025 18.521374
67.030 19.000498
67.035 19.697485
67.040 20.276047
67.045 20.863161
67.050 20.5762
67.055 21.011229
67.060 21.25864
67.065 21.082214
67.070 21.149216
67.075 20.963148
67.080 20.947296
67.085 21.306318
67.090 21.501019
67.095 21.552622
67.100 21.744474
67.105 20.84671
67.110 21.135439
67.115 21.322618
67.120 21.367157
67.125 21.082867
67.130 20.853994
67.135 20.614105
67.140 20.299631
67.145 19.926094
67.150 19.610506
67.155 19.488085
67.160 20.164804
67.165 19.911812
67.170 20.377209
67.175 21.278439
67.180 21.327347
67.185 20.987514
67.190 20.777023
67.195 20.225191
67.200 20.751162
67.205 21.022326
67.210 21.147125
67.215 21.653528
67.220 22.141691
67.225 22.342415
67.230 22.508371
67.235 22.285492
67.240 20.983763
67.245 20.05221
67.250 19.570145
67.255 19.283529
67.260 18.860067
67.265 18.683697
67.270 19.160744
67.275 20.396486
67.280 20.861507
67.285 20.717667
67.290 20.8367
67.295 21.189672
67.300 21.788101
67.305 21.93714
67.310 21.806829
67.315 21.746996
67.320 22.395464
67.325 23.058792
67.330 22.806681
67.335 22.389521
67.340 22.511803
67.345 21.80551
67.350 21.589796
67.355 20.983913
67.360 20.567068
67.365 20.432724
67.370 20.100262
67.375 19.718855
67.380 20.87925
67.385 21.203953
67.390 20.776037
67.395 20.775568
67.400 20.983974
67.405 20.60976
67.410 20.908804
67.415 20.936171
67.420 20.450932
67.425 20.294497
67.430 19.843157
67.435 19.422281
67.440 19.845699
67.445 19.626968
67.450 18.820108
67.455 18.72048
67.460 19.421925
67.465 19.779181
67.470 20.180538
67.475 20.331129
67.480 20.801409
67.485 20.749273
67.490 20.950121
67.495 19.827442
67.500 19.753424
67.505 19.565819
67.510 19.099806
67.515 18.996864
67.520 19.588577
67.525 20.245541
67.530 21.133682
67.535 21.217478
67.540 21.381851
67.545 21.256334
67.550 21.025314
67.555 20.455393
67.560 19.503716
67.565 19.73336
67.570 20.281185
67.575 20.315128
67.580 20.698706
67.585 21.299469
67.590 21.468395
67.595 22.034916
67.600 21.832832
67.605 21.458258
67.610 21.565693
67.615 21.071728
67.620 20.746502
67.625 20.568014
67.630 20.596804
67.635 20.399462
67.640 20.465096
67.645 20.455103
67.650 21.059687
67.655 21.264462
67.660 21.458363
67.665 21.166227
67.670 21.268555
67.675 21.225409
67.680 21.417913
67.685 21.14082
67.690 21.168983
67.695 21.517162
67.700 21.158585
67.705 20.990053
67.710 21.368876
67.715 21.2031
67.720 21.249512
67.725 21.752064
67.730 22.069059
67.735 22.922247
67.740 23.139109
67.745 22.021658
67.750 21.542093
67.755 21.488371
67.760 21.118105
67.765 21.162258
67.770 20.726929
67.775 20.248917
67.780 20.624561
67.785 21.012859
67.790 20.491503
67.795 19.434603
67.800 19.50782
67.805 20.240847
67.810 20.587553
67.815 21.315819
67.820 21.783506
67.825 21.982033
67.830 22.894707
67.835 22.858017
67.840 22.443913
67.845 22.400326
67.850 21.994329
67.855 21.659643
67.860 21.858316
67.865 21.507322
67.870 20.649635
67.875 20.207277
67.880 19.639065
67.885 19.546803
67.890 19.920263
67.895 20.101023
67.900 20.163504
67.905 21.08172
67.910 21.263763
67.915 21.205671
67.920 21.216091
67.925 21.114183
67.930 21.297407
67.935 20.840399
67.940 21.065203
67.945 20.889494
67.950 21.1374
67.955 21.425329
67.960 21.355276
67.965 21.661579
67.970 22.129932
67.975 21.937099
67.980 22.458818
67.985 22.05221
67.990 22.094404
67.995 21.777653
68.000 20.541971
68.005 20.412737
68.010 20.153072
68.015 20.119036
68.020 20.204603
68.025 20.387529
68.030 20.405437
68.035 21.248859
68.040 21.64344
68.045 21.904129
68.050 22.082485
68.055 21.973349
68.060 21.192322
68.065 20.972471
68.070 20.358099
68.075 20.378605
68.080 20.682608
68.085 20.766565
68.090 20.707775
68.095 21.260168
68.100 22.020332
68.105 22.061035
68.110 22.276878
68.115 22.126799
68.120 22.563206
68.125 22.46575
68.130 22.423025
68.135 22.426449
68.140 22.385944
68.145 21.58283
68.150 21.493879
68.155 21.122158
68.160 21.087427
68.165 20.857594
68.170 20.7033
68.175 20.3536
68.180 20.983946
68.185 20.643822
68.190 20.485727
68.195 20.573189
68.200 20.613369
68.205 20.653608
68.210 20.299454
68.215 19.990349
68.220 20.339579
68.225 20.719538
68.230 20.721289
68.235 20.343355
68.240 20.329487
68.245 20.433737
68.250 20.22394
68.255 19.710875
68.260 19.576216
68.265 19.686546
68.270 20.035643
68.275 19.945539
68.280 19.502115
68.285 19.303755
68.290 19.870678
68.295 19.806179
68.300 20.322989
68.305 20.260218
68.310 20.338783
68.315 21.70676
68.320 21.99539
68.325 21.499233
68.330 21.16069
68.335 20.822517
68.340 20.483189
68.345 20.442991
68.350 19.510412
68.355 19.264362
68.360 19.217407
68.365 18.781967
68.370 18.660959
68.375 18.938526
68.380 19.415504
68.385 20.296711
68.390 21.208014
68.395 21.928024
68.400 22.251358
68.405 22.386059
68.410 22.137114
68.415 21.807028
68.420 21.877144
68.425 20.793951
68.430 20.265575
68.435 20.174152
68.440 19.88023
68.445 19.769859
68.450 19.308428
68.455 19.270319
68.460 20.11388
68.465 20.414932
68.470 20.386372
68.475 21.131575
68.480 21.864992
68.485 21.733505
68.490 20.959358
68.495 20.868546
68.500 21.053499
68.505 21.29657
68.510 20.983673
68.515 20.285452
68.520 20.65082
68.525 20.577707
68.530 20.237387
68.535 20.141909
68.540 20.4608
68.545 20.722504
68.550 20.431984
68.555 20.466433
68.560 21.167618
68.565 20.975634
68.570 20.757813
68.575 20.697643
68.580 20.956741
68.585 21.397779
68.590 21.715437
68.595 21.110418
68.600 21.529245
68.605 21.649046
68.610 21.180161
68.615 20.689184
68.620 20.358496
68.625 20.056158
68.630 20.595297
68.635 20.982212
68.640 21.337271
68.645 21.662382
68.650 22.487986
68.655 22.543203
68.660 22.872072
68.665 22.801456
68.670 22.212133
68.675 21.386292
68.680 21.096428
68.685 20.801105
68.690 21.133291
68.695 21.189083
68.700 21.062487
68.705 21.060465
68.710 20.707098
68.715 20.619894
68.720 20.402786
68.725 20.057077
68.730 20.278757
68.735 20.197937
68.740 20.680138
68.745 21.587456
68.750 21.68317
68.755 22.147152
68.760 21.605186
68.765 20.962305
68.770 20.790873
68.775 20.193369
68.780 19.977951
68.785 20.462351
68.790 20.121429
68.795 20.302139
68.800 20.7188
68.805 21.486176
68.810 21.871727
68.815 21.639975
68.820 20.976107
68.825 21.18841
68.830 22.340563
68.835 22.084923
68.840 21.514885
68.845 21.601753
68.850 22.063314
68.855 22.399414
68.860 22.226023
68.865 21.476719
68.870 21.864056
68.875 22.234587
68.880 22.026941
68.885 21.77857
68.890 21.589508
68.895 21.760193
68.900 22.150349
68.905 21.910986
68.910 22.090069
68.915 22.088791
68.920 22.248692
68.925 22.619884
68.930 22.476717
68.935 22.256718
68.940 22.265017
68.945 22.60598
68.950 23.077169
68.955 22.706493
68.960 22.716534
68.965 22.744585
68.970 22.906229
68.975 22.807751
68.980 21.791466
68.985 21.194399
68.990 21.420752
68.995 20.98143
69.000 20.737144
69.005 20.469618
69.010 20.088581
69.015 21.237148
69.020 22.384127
69.025 22.80323
69.030 23.25783
69.035 23.948118
69.040 25.214567
69.045 25.651426
69.050 25.567112
69.055 25.428635
69.060 25.527336
69.065 25.568565
69.070 25.344383
69.075 25.173059
69.080 25.590235
69.085 25.803053
69.090 25.710165
69.095 25.573738
69.100 25.776194
69.105 25.751957
69.110 25.821011
69.115 26.066378
69.120 26.498915
69.125 26.627026
69.130 26.531057
69.135 26.429777
69.140 26.564472
69.145 26.571442
69.150 25.856346
69.155 25.382784
69.160 25.205807
69.165 25.426174
69.170 25.649153
69.175 25.165941
69.180 25.313272
69.185 25.866735
69.190 26.266052
69.195 26.033873
69.200 25.702728
69.205 25.563694
69.210 26.407156
69.215 26.808687
69.220 26.633068
69.225 26.65243
69.230 26.971792
69.235 26.720629
69.240 26.789341
69.245 26.32177
69.250 25.791151
69.255 25.92041
69.260 26.154928
69.265 26.214962
69.270 27.134272
69.275 27.300083
69.280 27.699492
69.285 28.358843
69.290 28.725618
69.295 28.711321
69.300 28.538502
69.305 28.071077
69.310 28.878357
69.315 28.588331
69.320 27.887506
69.325 27.570965
69.330 28.064432
69.335 28.496674
69.340 28.502989
69.345 28.777157
69.350 29.31398
69.355 30.043386
69.360 29.714993
69.365 29.084929
69.370 28.776859
69.375 28.552502
69.380 27.556017
69.385 27.344152
69.390 26.967896
69.395 27.336224
69.400 27.739416
69.405 27.935555
69.410 28.613581
69.415 29.587183
69.420 30.481646
69.425 31.195032
69.430 32.193058
69.435 32.893654
69.440 33.936268
69.445 33.619995
69.450 32.849407
69.455 31.934746
69.460 31.652239
69.465 31.023323
69.470 31.527605
69.475 31.427748
69.480 32.127811
69.485 32.784119
69.490 32.858013
69.495 32.624989
69.500 31.999018
69.505 31.325827
69.510 30.680891
69.515 29.933844
69.520 29.828276
69.525 29.944683
69.530 30.142916
69.535 29.831284
69.540 30.375147
69.545 30.704029
69.550 31.186157
69.555 31.402918
69.560 31.255405
69.565 30.8361
69.570 31.243214
69.575 31.189997
69.580 31.178638
69.585 31.433159
69.590 31.525698
69.595 31.824383
69.600 32.588615
69.605 31.860809
69.610 31.352978
69.615 30.911686
69.620 29.606638
69.625 29.769537
69.630 29.535488
69.635 29.661495
69.640 30.174047
69.645 30.654467
69.650 30.769592
69.655 31.419159
69.660 31.423876
69.665 31.300331
69.670 31.572044
69.675 31.164886
69.680 30.722889
69.685 30.853889
69.690 30.068783
69.695 29.95285
69.700 30.156622
69.705 30.58215
69.710 31.107016
69.715 31.30777
69.720 31.303131
69.725 31.336748
69.730 31.535446
69.735 30.856047
69.740 30.355709
69.745 30.298529
69.750 30.15514
69.755 30.083199
69.760 30.172983
69.765 29.558151
69.770 29.308411
69.775 28.258076
69.780 27.604662
69.785 28.120018
69.790 27.928846
69.795 27.248354
69.800 27.259157
69.805 27.022951
69.810 26.864393
69.815 27.012749
69.820 27.245802
69.825 27.14875
69.830 27.17433
69.835 27.293959
69.840 27.496244
69.845 27.573593
69.850 27.533278
69.855 27.210365
69.860 27.845741
69.865 27.804365
69.870 27.31267
69.875 27.046312
69.880 26.845104
69.885 26.349133
69.890 25.764599
69.895 24.891201
69.900 24.309904
69.905 24.297224
69.910 24.549717
69.915 24.515816
69.920 24.861423
69.925 24.653149
69.930 24.64706
69.935 25.090414
69.940 25.056496
69.945 25.02314
69.950 25.344969
69.955 24.868486
69.960 24.425674
69.965 24.471706
69.970 24.448341
69.975 24.267925
69.980 23.219625
69.985 22.260601
69.990 21.849085
69.995 21.664526
70.000 21.289711
70.005 20.753208
70.010 20.909639
70.015 21.181562
70.020 20.981724
70.025 21.383959
70.030 21.554211
70.035 21.237465
70.040 21.335659
70.045 21.31015
70.050 21.159523
70.055 21.245539
70.060 20.710518
70.065 20.699326
70.070 20.752466
70.075 20.068142
70.080 19.818264
70.085 19.939713
70.090 20.541035
70.095 21.044065
70.100 20.858358
70.105 21.220627
70.110 21.883375
70.115 22.111059
70.120 22.136034
70.125 21.894316
70.130 22.205353
70.135 22.110756
70.140 21.557377
70.145 20.923512
70.150 20.646873
70.155 20.62504
70.160 20.606327
70.165 20.365488
70.170 20.425352
70.175 20.612648
70.180 21.02717
70.185 21.249756
70.190 21.348499
70.195 21.251057
70.200 20.65082
70.205 20.424099
70.210 20.57902
70.215 20.230253
70.220 19.415495
70.225 18.709949
70.230 18.546919
70.235 19.079372
70.240 19.097595
70.245 19.087395
70.250 19.105757
70.255 19.273092
70.260 19.370956
70.265 19.149254
70.270 18.534445
70.275 18.294731
70.280 18.567673
70.285 18.608847
70.290 18.626507
70.295 18.836975
70.300 19.146851
70.305 20.212797
70.310 20.419262
70.315 20.450474
70.320 21.075132
70.325 21.3237
70.330 21.288538
70.335 21.078817
70.340 20.756149
70.345 20.372913
70.350 20.426819
70.355 19.939123
70.360 19.640442
70.365 19.848122
70.370 19.859724
70.375 20.143314
70.380 20.576313
70.385 20.276222
70.390 20.78606
70.395 20.473711
70.400 20.249132
70.405 19.639748
70.410 18.885698
70.415 18.683502
70.420 18.287083
70.425 18.550861
70.430 18.85615
70.435 19.076046
70.440 19.475136
70.445 19.16696
70.450 19.397045
70.455 19.571959
70.460 19.14954
70.465 18.603878
70.470 18.599737
70.475 19.01824
70.480 19.608047
70.485 19.738813
70.490 19.610289
70.495 19.363483
70.500 19.710617
70.505 19.641102
70.510 19.157824
70.515 18.455427
70.520 18.155293
70.525 18.262783
70.530 18.94182
70.535 18.440952
70.540 18.58161
70.545 19.003447
70.550 19.043808
70.555 18.605034
70.560 18.675867
70.565 18.993725
70.570 19.413078
70.575 19.125084
70.580 19.274023
70.585 19.338379
70.590 19.402075
70.595 19.605936
70.600 18.980581
70.605 18.643066
70.610 18.487125
70.615 18.578917
70.620 18.612688
70.625 18.877947
70.630 18.58515
70.635 18.63525
70.640 18.803724
70.645 18.914198
70.650 19.099075
70.655 18.825832
70.660 18.677593
70.665 19.115225
70.670 19.192358
70.675 19.274082
70.680 19.238756
70.685 19.764614
70.690 20.260134
70.695 20.617897
70.700 20.607723
70.705 20.609495
70.710 20.38229
70.715 19.867456
70.720 19.373508
70.725 19.007555
70.730 18.934328
70.735 19.186829
70.740 19.291992
70.745 19.605812
70.750 19.719625
70.755 19.644413
70.760 19.162212
70.765 18.611914
70.770 18.495592
70.775 18.117004
70.780 17.756859
70.785 17.38932
70.790 17.921114
70.795 18.76873
70.800 18.498884
70.805 18.123289
70.810 18.087772
70.815 18.482021
70.820 18.985094
70.825 19.096884
70.830 18.442039
70.835 18.622808
70.840 19.199373
70.845 19.508059
70.850 19.6064
70.855 18.905491
70.860 18.473049
70.865 18.989948
70.870 19.008629
70.875 18.89436
70.880 18.544346
70.885 19.07662
70.890 19.765865
70.895 20.038851
70.900 20.001593
70.905 19.714993
70.910 20.209839
70.915 19.9575
70.920 19.102003
70.925 18.812477
70.930 17.993332
70.935 17.291119
70.940 17.237295
70.945 17.053959
70.950 17.599709
70.955 17.796518
70.960 17.659756
70.965 18.159723
70.970 18.594795
70.975 18.625593
70.980 18.268209
70.985 17.829231
70.990 17.030533
70.995 16.946262
71.000 16.365526
71.005 16.144371
71.010 16.561218
71.015 16.635748
71.020 17.131123
71.025 17.744139
71.030 18.522556
71.035 19.392393
71.040 19.557428
71.045 19.609016
71.050 19.550905
71.055 19.674915
71.060 19.446598
71.065 18.842049
71.070 18.509275
71.075 17.915279
71.080 17.938023
71.085 18.083082
71.090 18.077208
71.095 18.349922
71.100 18.742638
71.105 19.258816
71.110 19.159552
71.115 19.095388
71.120 19.322969
71.125 19.068373
71.130 19.034576
71.135 18.646091
71.140 18.10721
71.145 18.225283
71.150 18.412199
71.155 17.869665
71.160 17.809406
71.165 17.695797
71.170 17.880718
71.175 18.238407
71.180 18.329903
71.185 17.992056
71.190 17.777941
71.195 18.100126
71.200 18.479406
71.205 18.64222
71.210 18.477139
71.215 18.557011
71.220 18.93314
71.225 18.858952
71.230 18.42528
71.235 18.020309
71.240 17.905716
71.245 18.328945
71.250 18.709145
71.255 18.509884
71.260 18.7195
71.265 19.04229
71.270 18.831465
71.275 18.980892
71.280 18.83569
71.285 18.382195
71.290 18.936407
71.295 19.236641
71.300 19.321079
71.305 19.898228
71.310 19.591106
71.315 19.631313
71.320 19.39086
71.325 19.009258
71.330 18.498495
71.335 18.378029
71.340 18.058193
71.345 17.697351
71.350 17.685726
71.355 17.726887
71.360 17.45822
71.365 17.834072
71.370 18.271807
71.375 18.678972
71.380 18.660799
71.385 18.409576
71.390 18.37887
71.395 18.338243
71.400 18.000944
71.405 17.466898
71.410 17.153788
71.415 17.279999
71.420 17.264181
71.425 17.881716
71.430 17.433741
71.435 17.593718
71.440 17.289543
71.445 17.497784
71.450 16.870523
71.455 16.711826
71.460 16.650011
71.465 17.253145
71.470 17.414278
71.475 17.449591
71.480 17.476906
71.485 18.323608
71.490 18.622896
71.495 18.421005
71.500 17.857481
71.505 17.489515
71.510 17.730425
71.515 17.588276
71.520 17.406103
71.525 17.356237
71.530 17.998514
71.535 18.545122
71.540 18.968126
71.545 18.854618
71.550 19.017683
71.555 19.229853
71.560 18.981421
71.565 18.405506
71.570 17.786247
71.575 18.158211
71.580 18.3036
71.585 18.053082
71.590 17.975571
71.595 18.442122
71.600 19.27763
71.605 19.323284
71.610 19.106407
71.615 19.235697
71.620 19.52754
71.625 19.599968
71.630 19.095339
71.635 18.42815
71.640 18.80147
71.645 18.954533
71.650 18.900396
71.655 18.500525
71.660 18.290573
71.665 18.502134
71.670 18.948524
71.675 18.983507
71.680 18.859215
71.685 19.210768
71.690 19.466167
71.695 19.712734
71.700 19.743938
71.705 19.291649
71.710 18.589863
71.715 18.127785
71.720 17.917498
71.725 18.032913
71.730 17.999969
71.735 18.075607
71.740 18.346575
71.745 18.382866
71.750 18.298586
71.755 17.762215
71.760 17.994259
71.765 18.574728
71.770 18.992798
71.775 19.05542
71.780 19.318766
71.785 19.826838
71.790 20.354685
71.795 19.463978
71.800 18.622297
71.805 18.27956
71.810 18.246567
71.815 17.776552
71.820 17.632694
71.825 17.502171
71.830 17.637075
71.835 17.278017
71.840 17.333612
71.845 17.801702
71.850 18.047729
71.855 18.2635
71.860 18.263065
71.865 18.420197
71.870 18.720697
71.875 18.185019
71.880 18.103365
71.885 17.919691
71.890 17.46439
71.895 17.330368
71.900 17.154938
71.905 17.603909
71.910 18.193012
71.915 18.365503
71.920 18.333733
71.925 18.358654
71.930 18.608492
71.935 18.568575
71.940 17.934303
71.945 17.34359
71.950 16.489761
71.955 16.758635
71.960 17.473282
71.965 17.256178
71.970 17.203259
71.975 17.058014
71.980 17.744781
71.985 18.769384
71.990 18.190012
71.995 17.559225
72.000 18.27425
72.005 18.473372
72.010 18.384802
72.015 18.50078
72.020 18.293922
72.025 18.255085
72.030 18.129419
72.035 17.571096
72.040 17.3186
72.045 16.797522
72.050 17.314495
72.055 17.642221
72.060 17.759686
72.065 17.691675
72.070 17.91139
72.075 18.521555
72.080 18.603151
72.085 17.421352
72.090 17.393259
72.095 17.694798
72.100 17.913347
72.105 17.815296
72.110 17.985519
72.115 18.002298
72.120 18.242592
72.125 17.971947
72.130 17.538801
72.135 17.255798
72.140 17.388763
72.145 17.090366
72.150 17.264885
72.155 17.656952
72.160 17.43292
72.165 17.586527
72.170 17.515099
72.175 17.455843
72.180 17.581139
72.185 17.807436
72.190 17.273682
72.195 17.4464
72.200 17.609922
72.205 17.96368
72.210 18.240187
72.215 18.024403
72.220 17.277885
72.225 16.954962
72.230 16.915976
72.235 16.764942
72.240 16.837862
72.245 16.809479
72.250 17.275606
72.255 17.640148
72.260 18.323711
72.265 18.430758
72.270 18.480057
72.275 18.514423
72.280 18.304201
72.285 17.869612
72.290 17.601889
72.295 17.597528
72.300 18.073738
72.305 17.683104
72.310 17.264416
72.315 17.146563
72.320 17.530157
72.325 17.631302
72.330 17.151608
72.335 16.948214
72.340 17.041012
72.345 17.79105
72.350 18.259716
72.355 18.407185
72.360 19.290159
72.365 19.533443
72.370 19.3902
72.375 18.978804
72.380 18.386293
72.385 18.667162
72.390 18.367807
72.395 18.106642
72.400 18.022449
72.405 17.878319
72.410 17.674255
72.415 17.507713
72.420 17.123919
72.425 16.755644
72.430 16.248411
72.435 16.377659
72.440 16.297802
72.445 16.483492
72.450 16.655989
72.455 16.82304
72.460 17.091377
72.465 17.120884
72.470 17.456696
72.475 18.084723
72.480 18.489016
72.485 18.373392
72.490 18.055828
72.495 17.611427
72.500 17.985703
72.505 18.171797
72.510 17.608246
72.515 17.461058
72.520 17.721878
72.525 17.95669
72.530 18.177025
72.535 17.593317
72.540 17.188229
72.545 16.828487
72.550 17.148401
72.555 18.102095
72.560 19.02058
72.565 18.936949
72.570 18.987959
72.575 19.611383
72.580 20.204798
72.585 20.561523
72.590 20.259817
72.595 19.760704
72.600 20.205137
72.605 20.440578
72.610 20.209188
72.615 19.819111
72.620 18.672333
72.625 18.120646
72.630 18.086842
72.635 18.083433
72.640 17.960789
72.645 17.694199
72.650 18.017336
72.655 18.568056
72.660 18.110973
72.665 17.534561
72.670 16.910963
72.675 16.859953
72.680 16.681923
72.685 16.131033
72.690 16.806292
72.695 17.881105
72.700 18.390438
72.705 18.509882
72.710 19.01482
72.715 19.205715
72.720 18.948086
72.725 17.510628
72.730 16.951639
72.735 17.334736
72.740 17.290512
72.745 16.828793
72.750 16.595226
72.755 16.775635
72.760 17.418606
72.765 17.70937
72.770 17.044521
72.775 17.06506
72.780 17.236753
72.785 17.163395
72.790 17.315323
72.795 16.885725
72.800 16.86031
72.805 16.918756
72.810 17.082708
72.815 16.951462
72.820 17.437294
72.825 17.438013
72.830 16.826464
72.835 16.974716
72.840 17.724098
72.845 17.727474
72.850 17.838869
72.855 17.222265
72.860 17.559839
72.865 17.563547
72.870 17.326168
72.875 17.548414
72.880 17.324074
72.885 17.118071
72.890 17.320585
72.895 17.382351
72.900 17.483515
72.905 17.535831
72.910 17.000446
72.915 17.124855
72.920 17.222315
72.925 16.879515
72.930 16.958567
72.935 16.902498
72.940 16.407572
72.945 17.189896
72.950 17.383514
72.955 17.329233
72.960 17.284012
72.965 17.089046
72.970 17.072681
72.975 17.386621
72.980 16.8999
72.985 16.981514
72.990 17.117954
72.995 18.133789
73.000 18.116318
