!@!!GADDS PLOTSO FILE: Chi integration type
!@!!Title/SampleName: map-11e
!@!!Comment: ?
!@!!User: Bruker Instrument Administrator
!@!!Site: University of Illinois Chicago
!@!!Frame: map-11e_01_000.gfrm
!@!!Wavelengths    1.54184   1.54056   1.54439
!@!!Frame angles: 2Theta: 63.000 Omega: 50.000 Phi: 0.000 Chi: 90.000
!@!!Integration range: 2Theta: 53.000 to 73.000  Gamma: -105.000 to -75.000
!@!!Integration method: bin normalized
!@!N
!@!SS
!@!M
!@!L 0.0 0.0 0.0 0.0
!@!XDegrees
!@!YCounts
53.000 7.88117
53.005 8.000829
53.010 8.289145
53.015 8.162982
53.020 8.303566
53.025 8.300669
53.030 7.955359
53.035 8.139383
53.040 8.111515
53.045 7.884871
53.050 7.83291
53.055 8.281638
53.060 8.408252
53.065 8.851334
53.070 8.906118
53.075 9.173487
53.080 9.426075
53.085 9.513811
53.090 9.017319
53.095 9.072702
53.100 9.031205
53.105 9.195315
53.110 9.345355
53.115 9.326865
53.120 9.324762
53.125 9.790071
53.130 10.090227
53.135 9.747427
53.140 9.394367
53.145 9.051166
53.150 9.124816
53.155 8.297583
53.160 7.905587
53.165 7.912762
53.170 8.134535
53.175 7.971361
53.180 7.988131
53.185 8.187344
53.190 8.708806
53.195 8.602849
53.200 8.759169
53.205 8.86115
53.210 9.606064
53.215 10.072254
53.220 10.560081
53.225 10.283067
53.230 10.261858
53.235 10.15386
53.240 10.175269
53.245 9.453596
53.250 9.404118
53.255 9.47719
53.260 9.493275
53.265 9.413214
53.270 9.578757
53.275 9.608827
53.280 9.424087
53.285 9.199787
53.290 9.229759
53.295 9.282605
53.300 9.224659
53.305 8.923391
53.310 8.84838
53.315 8.865491
53.320 9.113265
53.325 9.402843
53.330 9.300795
53.335 9.108554
53.340 9.096619
53.345 9.25821
53.350 9.106443
53.355 8.679622
53.360 8.52807
53.365 9.10181
53.370 9.450007
53.375 9.619785
53.380 9.647122
53.385 9.791361
53.390 9.7536
53.395 9.959708
53.400 9.658583
53.405 9.333555
53.410 8.684975
53.415 8.882594
53.420 8.699754
53.425 8.433863
53.430 8.074034
53.435 7.579792
53.440 7.688219
53.445 7.516092
53.450 7.049431
53.455 7.124327
53.460 7.043355
53.465 7.248614
53.470 7.566274
53.475 8.056394
53.480 8.287601
53.485 8.230322
53.490 8.087245
53.495 7.969092
53.500 8.063049
53.505 7.795823
53.510 7.554672
53.515 8.030967
53.520 8.615531
53.525 8.660147
53.530 8.384584
53.535 8.613935
53.540 8.493961
53.545 8.721229
53.550 8.225046
53.555 7.955051
53.560 8.195295
53.565 8.286627
53.570 8.044621
53.575 8.076961
53.580 8.286074
53.585 8.430196
53.590 8.764935
53.595 8.91206
53.600 9.288412
53.605 9.82959
53.610 9.790045
53.615 9.746959
53.620 9.557466
53.625 9.121804
53.630 8.951686
53.635 9.092416
53.640 9.345882
53.645 9.415617
53.650 8.971034
53.655 8.948846
53.660 9.213775
53.665 9.140843
53.670 8.885396
53.675 8.329545
53.680 8.126386
53.685 8.436239
53.690 8.423534
53.695 8.495398
53.700 8.583429
53.705 8.359463
53.710 8.598849
53.715 8.862727
53.720 9.150704
53.725 9.168771
53.730 8.917733
53.735 8.796988
53.740 8.666059
53.745 8.816548
53.750 8.820662
53.755 8.821923
53.760 8.781445
53.765 9.385545
53.770 9.353894
53.775 9.764895
53.780 10.084757
53.785 10.541016
53.790 10.66765
53.795 10.64417
53.800 10.063648
53.805 9.849573
53.810 9.789952
53.815 9.81707
53.820 9.590985
53.825 9.529639
53.830 9.879432
53.835 10.645187
53.840 10.484281
53.845 10.090294
53.850 9.518185
53.855 9.106852
53.860 8.852887
53.865 8.830595
53.870 8.750577
53.875 9.059182
53.880 9.323231
53.885 9.916836
53.890 10.111883
53.895 9.520888
53.900 9.313248
53.905 9.355719
53.910 9.731235
53.915 9.600333
53.920 9.272333
53.925 9.401966
53.930 10.123976
53.935 10.02313
53.940 9.596711
53.945 9.221716
53.950 9.273048
53.955 9.126693
53.960 8.785369
53.965 8.585275
53.970 8.865717
53.975 9.134281
53.980 8.938727
53.985 9.032372
53.990 9.112306
53.995 9.117864
54.000 8.975955
54.005 8.707384
54.010 8.650843
54.015 8.811834
54.020 8.528279
54.025 8.678926
54.030 9.287798
54.035 9.559011
54.040 9.341878
54.045 9.512567
54.050 9.391305
54.055 9.453443
54.060 9.476778
54.065 9.041842
54.070 9.160969
54.075 9.328454
54.080 9.411184
54.085 9.755468
54.090 9.851969
54.095 10.024819
54.100 10.410531
54.105 10.448077
54.110 10.824085
54.115 10.807546
54.120 10.464845
54.125 10.39731
54.130 9.779281
54.135 9.096705
54.140 8.495825
54.145 8.333869
54.150 8.099501
54.155 8.197016
54.160 8.152632
54.165 8.728674
54.170 9.311062
54.175 9.286642
54.180 9.227659
54.185 9.378977
54.190 9.345016
54.195 9.425127
54.200 9.272374
54.205 9.181724
54.210 9.231428
54.215 8.776638
54.220 8.711951
54.225 8.744122
54.230 8.620791
54.235 8.684203
54.240 8.631512
54.245 8.706127
54.250 8.765776
54.255 8.961387
54.260 9.245133
54.265 9.421505
54.270 9.435271
54.275 9.436877
54.280 9.764428
54.285 10.112786
54.290 10.090547
54.295 10.102944
54.300 10.346968
54.305 10.621333
54.310 10.999104
54.315 11.223604
54.320 11.305042
54.325 11.078635
54.330 10.754905
54.335 10.258199
54.340 9.957848
54.345 9.417593
54.350 9.410879
54.355 9.454607
54.360 9.256653
54.365 9.680007
54.370 9.929113
54.375 9.822412
54.380 10.503522
54.385 10.76554
54.390 11.388067
54.395 11.528099
54.400 10.974424
54.405 10.78735
54.410 10.946184
54.415 10.452427
54.420 9.696493
54.425 9.281661
54.430 9.468365
54.435 10.078469
54.440 10.049136
54.445 10.117316
54.450 10.01248
54.455 9.900365
54.460 10.005109
54.465 9.970863
54.470 9.899876
54.475 9.735461
54.480 9.38763
54.485 9.511786
54.490 9.706714
54.495 9.804643
54.500 9.516656
54.505 9.066451
54.510 9.079531
54.515 9.135764
54.520 9.340404
54.525 9.730847
54.530 9.990273
54.535 9.912156
54.540 10.103621
54.545 10.324493
54.550 10.587987
54.555 10.858051
54.560 10.402964
54.565 10.594329
54.570 11.178114
54.575 10.991747
54.580 11.067526
54.585 10.70645
54.590 10.212466
54.595 10.047342
54.600 9.457261
54.605 9.341161
54.610 9.799975
54.615 9.265937
54.620 8.949032
54.625 9.100132
54.630 9.308487
54.635 9.657543
54.640 9.258926
54.645 8.999336
54.650 9.414206
54.655 9.288007
54.660 9.262727
54.665 9.255625
54.670 9.276525
54.675 9.611217
54.680 9.875723
54.685 10.184365
54.690 10.774075
54.695 10.766498
54.700 10.574241
54.705 10.525183
54.710 10.287968
54.715 10.199568
54.720 9.980862
54.725 9.665118
54.730 9.488255
54.735 9.532345
54.740 9.622811
54.745 9.687947
54.750 9.349678
54.755 9.099926
54.760 9.182995
54.765 9.311219
54.770 9.452443
54.775 9.307434
54.780 9.05925
54.785 9.015007
54.790 9.064438
54.795 8.68986
54.800 8.575033
54.805 8.468153
54.810 8.313404
54.815 8.878393
54.820 8.986547
54.825 9.275561
54.830 9.688078
54.835 10.079574
54.840 9.924818
54.845 10.462975
54.850 10.484741
54.855 10.710371
54.860 10.613686
54.865 10.367963
54.870 10.408804
54.875 10.878466
54.880 10.869716
54.885 10.599895
54.890 10.594452
54.895 10.356742
54.900 10.116001
54.905 9.720302
54.910 9.406667
54.915 9.157677
54.920 9.422854
54.925 9.236289
54.930 9.309815
54.935 9.425404
54.940 9.381378
54.945 9.474181
54.950 9.378801
54.955 9.444655
54.960 9.720286
54.965 9.943486
54.970 9.999249
54.975 10.095183
54.980 10.248583
54.985 10.306318
54.990 10.294047
54.995 10.336503
55.000 9.825932
55.005 9.987387
55.010 10.392235
55.015 10.478218
55.020 10.742124
55.025 10.576528
55.030 10.424052
55.035 10.546163
55.040 9.734135
55.045 9.296255
55.050 9.463009
55.055 9.325483
55.060 9.764353
55.065 10.032074
55.070 10.357831
55.075 11.010414
55.080 11.096874
55.085 10.917583
55.090 10.722728
55.095 10.548553
55.100 10.661768
55.105 10.742801
55.110 10.807569
55.115 10.679541
55.120 10.175673
55.125 10.248942
55.130 9.545983
55.135 9.038774
55.140 8.888428
55.145 8.61067
55.150 8.743883
55.155 9.430384
55.160 9.689916
55.165 10.03207
55.170 10.014094
55.175 9.880839
55.180 10.207965
55.185 9.995722
55.190 9.183393
55.195 8.918482
55.200 8.820358
55.205 8.877994
55.210 8.377282
55.215 8.146016
55.220 8.285403
55.225 8.629301
55.230 8.818216
55.235 9.484917
55.240 9.639827
55.245 10.108305
55.250 10.432603
55.255 10.424293
55.260 10.614126
55.265 10.79778
55.270 10.723097
55.275 11.172693
55.280 11.275037
55.285 10.68588
55.290 10.763652
55.295 10.662112
55.300 10.583079
55.305 10.371281
55.310 10.332791
55.315 10.460203
55.320 10.744979
55.325 10.918127
55.330 10.85686
55.335 10.679934
55.340 10.507278
55.345 10.035685
55.350 9.832027
55.355 10.072729
55.360 9.702323
55.365 9.760549
55.370 10.00876
55.375 10.486159
55.380 10.766461
55.385 10.600145
55.390 10.335746
55.395 10.529968
55.400 10.436197
55.405 10.524426
55.410 10.194715
55.415 10.324409
55.420 10.125885
55.425 10.129029
55.430 10.054333
55.435 9.509482
55.440 9.261219
55.445 8.869348
55.450 8.544666
55.455 9.007205
55.460 8.951048
55.465 9.342587
55.470 10.080682
55.475 9.885568
55.480 10.330246
55.485 10.635519
55.490 10.748833
55.495 10.809526
55.500 10.875188
55.505 10.994576
55.510 11.520988
55.515 11.586989
55.520 11.336782
55.525 10.931857
55.530 10.689092
55.535 10.42725
55.540 9.657285
55.545 8.78157
55.550 8.841106
55.555 9.156953
55.560 9.084864
55.565 9.157456
55.570 9.579725
55.575 10.18019
55.580 10.845756
55.585 11.039615
55.590 11.227382
55.595 11.628814
55.600 11.270531
55.605 11.261192
55.610 10.971931
55.615 10.446838
55.620 10.443588
55.625 10.771597
55.630 11.003901
55.635 11.040909
55.640 10.947084
55.645 10.874487
55.650 10.950598
55.655 10.578257
55.660 10.118953
55.665 9.933917
55.670 9.663713
55.675 9.535398
55.680 9.888552
55.685 10.239299
55.690 10.512654
55.695 10.465109
55.700 10.227127
55.705 10.504397
55.710 10.61349
55.715 10.654327
55.720 10.588565
55.725 10.442038
55.730 10.639297
55.735 11.23323
55.740 11.193185
55.745 11.037246
55.750 10.744869
55.755 10.420301
55.760 10.495641
55.765 10.969099
55.770 10.986795
55.775 11.033553
55.780 10.94115
55.785 10.998398
55.790 11.174424
55.795 11.147557
55.800 11.083055
55.805 10.877599
55.810 11.313174
55.815 11.356537
55.820 11.516052
55.825 11.417258
55.830 11.258021
55.835 11.639463
55.840 11.912782
55.845 11.783222
55.850 12.405265
55.855 12.215496
55.860 12.075285
55.865 12.072683
55.870 11.365183
55.875 10.870176
55.880 10.52373
55.885 10.438959
55.890 10.641842
55.895 10.502504
55.900 10.208175
55.905 10.70056
55.910 11.29543
55.915 10.923078
55.920 10.977454
55.925 10.786824
55.930 11.104583
55.935 11.465947
55.940 11.389174
55.945 11.744964
55.950 12.154794
55.955 11.777124
55.960 11.709881
55.965 11.140726
55.970 10.920826
55.975 10.91182
55.980 10.472858
55.985 10.386755
55.990 10.469624
55.995 10.361468
56.000 10.154461
56.005 9.671931
56.010 9.09828
56.015 9.329384
56.020 9.500867
56.025 9.478088
56.030 9.495519
56.035 10.124203
56.040 10.719437
56.045 11.115846
56.050 10.74685
56.055 10.574472
56.060 10.707196
56.065 10.593549
56.070 10.282689
56.075 9.913533
56.080 9.660517
56.085 9.826402
56.090 9.694982
56.095 9.959405
56.100 9.948139
56.105 9.356027
56.110 9.65738
56.115 9.753678
56.120 9.51074
56.125 9.540763
56.130 9.576475
56.135 9.937923
56.140 10.426345
56.145 10.474741
56.150 10.704426
56.155 11.087887
56.160 11.150422
56.165 10.930613
56.170 10.86583
56.175 11.025625
56.180 10.76811
56.185 10.705265
56.190 10.750704
56.195 10.552579
56.200 10.501979
56.205 10.41841
56.210 10.001684
56.215 9.922097
56.220 9.626751
56.225 10.024433
56.230 10.722345
56.235 11.129004
56.240 11.551464
56.245 12.224607
56.250 12.411235
56.255 12.423978
56.260 12.236079
56.265 12.199531
56.270 11.841199
56.275 11.523479
56.280 11.225547
56.285 11.203953
56.290 11.556487
56.295 11.235331
56.300 11.323557
56.305 11.667251
56.310 11.5086
56.315 11.577704
56.320 11.71132
56.325 11.509381
56.330 11.241005
56.335 10.889674
56.340 10.614284
56.345 10.795458
56.350 10.656045
56.355 10.267046
56.360 9.981647
56.365 10.096541
56.370 10.205037
56.375 10.288722
56.380 9.789926
56.385 9.579589
56.390 9.866209
56.395 10.171497
56.400 10.139421
56.405 10.207746
56.410 9.977905
56.415 10.629354
56.420 11.070794
56.425 11.309225
56.430 11.325632
56.435 11.578905
56.440 12.079866
56.445 12.282601
56.450 11.832761
56.455 11.291532
56.460 11.087404
56.465 10.983778
56.470 11.150541
56.475 11.118486
56.480 11.13687
56.485 11.405835
56.490 12.167417
56.495 12.14165
56.500 12.205179
56.505 11.688879
56.510 11.512655
56.515 11.600295
56.520 11.795673
56.525 11.472156
56.530 11.304625
56.535 11.237848
56.540 11.010194
56.545 10.915674
56.550 11.110971
56.555 10.850879
56.560 11.082412
56.565 11.461212
56.570 11.272689
56.575 11.631518
56.580 12.032093
56.585 12.276495
56.590 12.605575
56.595 12.88407
56.600 13.098413
56.605 12.923433
56.610 12.598462
56.615 12.322256
56.620 12.046278
56.625 11.935572
56.630 11.693951
56.635 11.642126
56.640 11.878891
56.645 12.190861
56.650 12.029236
56.655 12.28136
56.660 12.074686
56.665 12.675548
56.670 12.619119
56.675 12.983047
56.680 12.682483
56.685 12.929214
56.690 13.135522
56.695 12.689898
56.700 12.187908
56.705 11.959559
56.710 11.829515
56.715 12.123645
56.720 12.245353
56.725 12.42412
56.730 12.860796
56.735 12.815605
56.740 13.258321
56.745 13.231396
56.750 12.912781
56.755 12.341389
56.760 11.401571
56.765 10.7947
56.770 10.825222
56.775 10.460712
56.780 10.456659
56.785 10.754278
56.790 10.625878
56.795 10.503932
56.800 10.753083
56.805 10.570193
56.810 10.552262
56.815 10.234695
56.820 9.892649
56.825 10.441282
56.830 10.773021
56.835 10.478211
56.840 10.552882
56.845 10.838661
56.850 11.051119
56.855 10.975937
56.860 10.649201
56.865 10.544062
56.870 10.751892
56.875 10.499922
56.880 10.861146
56.885 11.012389
56.890 11.207579
56.895 11.403404
56.900 11.225266
56.905 11.541372
56.910 11.552259
56.915 10.977496
56.920 10.986712
56.925 11.12063
56.930 11.204512
56.935 11.355505
56.940 11.703011
56.945 12.330371
56.950 12.455814
56.955 11.972655
56.960 11.70963
56.965 11.535456
56.970 11.561822
56.975 10.948782
56.980 10.749198
56.985 10.89628
56.990 11.206178
56.995 11.602828
57.000 11.360576
57.005 10.710106
57.010 10.890527
57.015 11.307686
57.020 11.059182
57.025 11.268397
57.030 10.953123
57.035 11.131119
57.040 11.565818
57.045 11.404485
57.050 11.252215
57.055 11.525684
57.060 11.338168
57.065 11.976966
57.070 12.527074
57.075 13.053366
57.080 13.022122
57.085 12.351962
57.090 12.313274
57.095 12.360636
57.100 11.741611
57.105 11.102275
57.110 10.790701
57.115 10.836708
57.120 11.159714
57.125 11.034809
57.130 10.858802
57.135 10.905704
57.140 11.281367
57.145 11.38748
57.150 11.415455
57.155 11.690533
57.160 12.182262
57.165 12.672221
57.170 13.130579
57.175 13.328918
57.180 13.776147
57.185 13.934943
57.190 13.804944
57.195 13.554928
57.200 13.501578
57.205 13.180511
57.210 12.455013
57.215 11.457321
57.220 11.16064
57.225 11.443667
57.230 11.294004
57.235 11.164711
57.240 11.270393
57.245 11.441289
57.250 11.835116
57.255 12.090832
57.260 11.774397
57.265 11.757946
57.270 11.137197
57.275 10.891406
57.280 10.666676
57.285 10.726447
57.290 10.847306
57.295 10.792994
57.300 10.756427
57.305 11.316912
57.310 11.794038
57.315 11.923369
57.320 11.952611
57.325 11.85767
57.330 11.906184
57.335 12.379578
57.340 12.506447
57.345 12.455728
57.350 12.370984
57.355 12.273275
57.360 12.334064
57.365 12.709142
57.370 12.684037
57.375 13.018579
57.380 13.816512
57.385 14.270341
57.390 14.152303
57.395 13.886328
57.400 13.564563
57.405 13.092435
57.410 12.220244
57.415 11.535014
57.420 11.231835
57.425 11.193776
57.430 11.60113
57.435 12.18715
57.440 12.797089
57.445 13.159757
57.450 13.42741
57.455 13.728492
57.460 13.886399
57.465 14.052231
57.470 13.548789
57.475 13.275103
57.480 13.43921
57.485 13.340941
57.490 13.721983
57.495 13.843896
57.500 13.700571
57.505 14.004793
57.510 14.033007
57.515 13.661548
57.520 13.505141
57.525 13.268925
57.530 13.119609
57.535 13.020722
57.540 13.000545
57.545 13.184717
57.550 13.261981
57.555 13.05219
57.560 13.109706
57.565 12.899814
57.570 13.348152
57.575 13.102527
57.580 12.75184
57.585 12.848274
57.590 13.430807
57.595 13.020577
57.600 13.015999
57.605 12.643641
57.610 12.588315
57.615 12.708318
57.620 12.624871
57.625 11.986701
57.630 12.07502
57.635 11.682672
57.640 11.545886
57.645 11.710379
57.650 11.760976
57.655 12.31299
57.660 12.837379
57.665 13.377066
57.670 13.342984
57.675 13.377412
57.680 13.153964
57.685 13.146255
57.690 12.700716
57.695 12.19022
57.700 12.037615
57.705 12.455039
57.710 12.298337
57.715 12.436106
57.720 12.363564
57.725 12.94553
57.730 13.411025
57.735 13.005537
57.740 12.906459
57.745 12.489759
57.750 12.221745
57.755 12.2471
57.760 11.660694
57.765 11.748663
57.770 11.625395
57.775 11.840431
57.780 12.600863
57.785 12.592233
57.790 12.041558
57.795 11.884469
57.800 11.742884
57.805 11.904103
57.810 11.493937
57.815 11.487097
57.820 11.674094
57.825 12.321712
57.830 12.634412
57.835 12.743846
57.840 12.897834
57.845 13.275223
57.850 13.345529
57.855 13.651389
57.860 13.484295
57.865 13.239674
57.870 13.25584
57.875 12.94045
57.880 12.921193
57.885 12.546897
57.890 12.744617
57.895 12.692422
57.900 12.577384
57.905 12.648629
57.910 12.900825
57.915 12.867738
57.920 13.213108
57.925 12.947892
57.930 12.768204
57.935 12.918223
57.940 12.914204
57.945 12.84659
57.950 13.216539
57.955 13.001459
57.960 12.971334
57.965 13.602125
57.970 13.774212
57.975 14.004774
57.980 14.174935
57.985 13.876209
57.990 14.10929
57.995 14.224089
58.000 13.748655
58.005 13.24579
58.010 13.067089
58.015 12.670464
58.020 12.597108
58.025 12.478051
58.030 12.729367
58.035 12.967429
58.040 12.981673
58.045 13.223321
58.050 13.731272
58.055 13.865264
58.060 13.9942
58.065 13.547066
58.070 13.461618
58.075 13.673905
58.080 13.74315
58.085 13.632353
58.090 13.616043
58.095 13.432248
58.100 13.842799
58.105 14.267483
58.110 14.092069
58.115 14.049014
58.120 13.895146
58.125 14.349852
58.130 14.543371
58.135 14.24215
58.140 14.266955
58.145 14.794765
58.150 14.702516
58.155 14.512428
58.160 14.345814
58.165 14.280454
58.170 14.142648
58.175 14.077129
58.180 14.064127
58.185 14.728072
58.190 14.902887
58.195 14.937921
58.200 15.224817
58.205 15.382101
58.210 15.363381
58.215 14.987702
58.220 15.244914
58.225 15.411929
58.230 15.456715
58.235 15.381211
58.240 15.300616
58.245 15.554023
58.250 15.672761
58.255 15.75671
58.260 16.336767
58.265 16.702984
58.270 17.790752
58.275 18.76651
58.280 19.044287
58.285 19.085886
58.290 18.254663
58.295 17.81568
58.300 17.582949
58.305 16.963684
58.310 16.819679
58.315 17.403624
58.320 18.677212
58.325 19.307648
58.330 19.291603
58.335 19.60059
58.340 20.12402
58.345 20.361166
58.350 20.067883
58.355 19.748571
58.360 19.565542
58.365 19.863016
58.370 19.735073
58.375 19.081884
58.380 19.257019
58.385 19.379183
58.390 19.479631
58.395 20.161892
58.400 20.553436
58.405 21.176117
58.410 21.651686
58.415 21.263973
58.420 21.749937
58.425 21.942743
58.430 21.87042
58.435 21.762121
58.440 21.469488
58.445 22.207626
58.450 22.487732
58.455 22.13213
58.460 22.560822
58.465 23.007965
58.470 23.814474
58.475 24.245655
58.480 23.604767
58.485 23.122873
58.490 23.301514
58.495 22.670456
58.500 22.861006
58.505 22.719662
58.510 22.786415
58.515 22.792349
58.520 23.083996
58.525 23.493359
58.530 24.414196
58.535 24.088507
58.540 23.954681
58.545 23.996206
58.550 24.234533
58.555 24.118757
58.560 23.554371
58.565 23.048132
58.570 23.066845
58.575 23.411259
58.580 23.233694
58.585 23.05788
58.590 22.759914
58.595 22.855518
58.600 22.597635
58.605 22.241028
58.610 22.287096
58.615 22.19997
58.620 22.054905
58.625 22.522081
58.630 22.629869
58.635 21.920568
58.640 21.554056
58.645 20.954185
58.650 20.9806
58.655 20.564831
58.660 20.384138
58.665 19.830912
58.670 20.402065
58.675 20.388491
58.680 19.876308
58.685 20.045761
58.690 20.441935
58.695 20.417488
58.700 20.322832
58.705 19.485569
58.710 18.610161
58.715 18.298344
58.720 17.938057
58.725 17.582672
58.730 17.729715
58.735 18.154205
58.740 18.844267
58.745 19.388906
58.750 19.783567
58.755 19.681831
58.760 19.922003
58.765 19.250225
58.770 18.80419
58.775 18.204653
58.780 17.968939
58.785 17.988308
58.790 18.211239
58.795 17.589453
58.800 17.713514
58.805 17.945475
58.810 17.866121
58.815 17.515011
58.820 17.022285
58.825 17.140961
58.830 17.506096
58.835 17.307554
58.840 17.429031
58.845 17.307133
58.850 17.044336
58.855 16.906378
58.860 16.208792
58.865 16.006498
58.870 15.253234
58.875 14.64307
58.880 14.663719
58.885 15.109975
58.890 14.733733
58.895 14.812251
58.900 15.066801
58.905 15.638255
58.910 15.567366
58.915 15.845173
58.920 15.745944
58.925 15.88619
58.930 15.625116
58.935 15.523711
58.940 15.504392
58.945 15.628799
58.950 15.372041
58.955 15.288659
58.960 15.406289
58.965 15.206472
58.970 15.111712
58.975 15.024248
58.980 15.223104
58.985 15.131452
58.990 15.15536
58.995 15.428976
59.000 15.455824
59.005 15.832414
59.010 16.096081
59.015 15.972955
59.020 15.919181
59.025 15.552653
59.030 15.280663
59.035 16.027735
59.040 15.591518
59.045 15.138115
59.050 14.810161
59.055 15.506966
59.060 15.766645
59.065 15.569937
59.070 14.924998
59.075 14.816914
59.080 14.973804
59.085 15.059036
59.090 14.056653
59.095 13.83758
59.100 14.180089
59.105 14.183184
59.110 13.983441
59.115 13.435141
59.120 13.22885
59.125 13.665635
59.130 13.506381
59.135 12.533732
59.140 12.614483
59.145 12.817813
59.150 13.46452
59.155 12.928577
59.160 12.58649
59.165 12.292644
59.170 12.852879
59.175 12.763313
59.180 12.52802
59.185 12.319859
59.190 12.550924
59.195 12.43616
59.200 12.790646
59.205 12.716619
59.210 12.421782
59.215 12.209165
59.220 11.830623
59.225 12.231129
59.230 12.593372
59.235 12.873678
59.240 13.226416
59.245 13.698294
59.250 14.019337
59.255 14.806216
59.260 14.881283
59.265 14.834778
59.270 14.774389
59.275 14.292526
59.280 13.881444
59.285 13.698712
59.290 13.322501
59.295 13.386234
59.300 13.521145
59.305 13.112418
59.310 12.734169
59.315 12.910471
59.320 13.058818
59.325 13.337683
59.330 13.139909
59.335 13.32023
59.340 13.322994
59.345 13.727711
59.350 13.808336
59.355 13.273794
59.360 13.186693
59.365 13.263292
59.370 12.992473
59.375 12.934159
59.380 12.504165
59.385 12.575939
59.390 13.278937
59.395 13.316775
59.400 13.28656
59.405 13.255715
59.410 13.678514
59.415 13.725901
59.420 13.055984
59.425 12.138891
59.430 11.930804
59.435 12.179085
59.440 12.661625
59.445 12.707206
59.450 12.737789
59.455 12.897017
59.460 13.307508
59.465 13.310458
59.470 12.187765
59.475 11.63055
59.480 11.322878
59.485 11.900325
59.490 12.701982
59.495 12.601301
59.500 12.436748
59.505 12.604096
59.510 12.536928
59.515 12.923651
59.520 12.239277
59.525 11.661485
59.530 12.00748
59.535 12.177876
59.540 12.210369
59.545 12.427756
59.550 12.23406
59.555 12.532584
59.560 13.248323
59.565 13.1353
59.570 13.136518
59.575 13.641319
59.580 13.371942
59.585 13.277713
59.590 13.215622
59.595 13.07398
59.600 12.998836
59.605 12.889553
59.610 12.600496
59.615 12.849136
59.620 12.786245
59.625 12.571446
59.630 11.89372
59.635 11.573304
59.640 11.690785
59.645 11.738192
59.650 11.893543
59.655 12.005009
59.660 12.105056
59.665 12.375647
59.670 12.686306
59.675 12.531253
59.680 12.375376
59.685 12.227272
59.690 12.620552
59.695 12.755606
59.700 13.343196
59.705 13.317957
59.710 14.247123
59.715 14.40498
59.720 14.246121
59.725 14.22807
59.730 14.386381
59.735 13.885766
59.740 13.942355
59.745 13.352929
59.750 13.347021
59.755 13.554964
59.760 13.281247
59.765 13.15274
59.770 12.882777
59.775 12.821512
59.780 12.638369
59.785 12.548324
59.790 12.57357
59.795 12.497053
59.800 12.344409
59.805 12.791415
59.810 12.630327
59.815 12.826796
59.820 12.744136
59.825 12.832341
59.830 12.871564
59.835 12.645501
59.840 12.023842
59.845 12.243016
59.850 11.901481
59.855 12.287292
59.860 11.924564
59.865 11.709638
59.870 11.950442
59.875 12.422498
59.880 12.531123
59.885 12.593016
59.890 12.180803
59.895 12.146545
59.900 12.462725
59.905 12.491286
59.910 12.442142
59.915 12.281297
59.920 12.393085
59.925 13.049553
59.930 13.021669
59.935 12.636235
59.940 12.646318
59.945 13.257767
59.950 13.232093
59.955 13.363486
59.960 13.116599
59.965 13.202175
59.970 13.644013
59.975 13.678592
59.980 12.642895
59.985 12.442904
59.990 12.17345
59.995 12.017847
60.000 11.984757
60.005 11.852283
60.010 11.542543
60.015 12.080866
60.020 12.392927
60.025 12.580072
60.030 12.531635
60.035 12.577341
60.040 12.440753
60.045 12.973716
60.050 12.99236
60.055 12.700944
60.060 12.680108
60.065 12.749362
60.070 12.567775
60.075 12.78062
60.080 12.772554
60.085 12.254088
60.090 12.387393
60.095 12.705358
60.100 12.504859
60.105 12.48498
60.110 12.213373
60.115 11.830028
60.120 12.541853
60.125 12.578994
60.130 11.878828
60.135 12.21955
60.140 12.301801
60.145 11.986216
60.150 11.644573
60.155 11.085773
60.160 10.882324
60.165 11.043397
60.170 11.557566
60.175 12.248243
60.180 12.666011
60.185 13.162909
60.190 13.572476
60.195 13.642139
60.200 14.098329
60.205 14.091391
60.210 13.800228
60.215 13.475727
60.220 13.113005
60.225 13.196417
60.230 13.806831
60.235 13.711823
60.240 13.451787
60.245 13.656023
60.250 13.954967
60.255 13.98062
60.260 13.758832
60.265 13.496608
60.270 13.398739
60.275 13.176375
60.280 12.704327
60.285 12.719669
60.290 13.189425
60.295 13.193887
60.300 12.868537
60.305 12.627712
60.310 12.599526
60.315 12.858419
60.320 12.618171
60.325 12.219578
60.330 12.275503
60.335 12.82455
60.340 13.27611
60.345 13.351364
60.350 13.426434
60.355 13.570093
60.360 13.4242
60.365 13.104258
60.370 12.733793
60.375 12.389727
60.380 12.380817
60.385 12.179906
60.390 12.253216
60.395 12.684464
60.400 12.480254
60.405 12.673557
60.410 12.982451
60.415 12.662419
60.420 12.50078
60.425 12.437444
60.430 12.293654
60.435 12.422805
60.440 12.358503
60.445 12.134182
60.450 12.206203
60.455 12.229604
60.460 12.022106
60.465 12.085047
60.470 11.75481
60.475 11.769677
60.480 11.553951
60.485 11.57268
60.490 11.339379
60.495 11.267388
60.500 11.02919
60.505 11.427403
60.510 10.844009
60.515 10.964993
60.520 11.386856
60.525 11.908085
60.530 12.008875
60.535 12.06627
60.540 11.753534
60.545 12.379499
60.550 12.851123
60.555 12.235728
60.560 11.622852
60.565 11.629142
60.570 11.805932
60.575 12.026342
60.580 11.762081
60.585 11.608803
60.590 11.957242
60.595 12.233804
60.600 12.471051
60.605 12.833535
60.610 13.140988
60.615 13.285723
60.620 13.254176
60.625 13.348499
60.630 13.366809
60.635 13.49339
60.640 12.977859
60.645 12.564214
60.650 11.73582
60.655 11.505882
60.660 12.101295
60.665 12.066797
60.670 11.981213
60.675 12.497447
60.680 12.682659
60.685 13.720219
60.690 13.580639
60.695 13.20205
60.700 13.565125
60.705 13.472416
60.710 13.510872
60.715 13.797429
60.720 13.718652
60.725 14.041466
60.730 14.468123
60.735 14.510004
60.740 14.564685
60.745 14.607154
60.750 14.543138
60.755 14.348536
60.760 14.174635
60.765 13.774491
60.770 13.967636
60.775 13.798762
60.780 13.389838
60.785 13.202419
60.790 13.369103
60.795 13.357892
60.800 13.524337
60.805 13.341784
60.810 13.397094
60.815 13.435659
60.820 13.354305
60.825 13.037584
60.830 13.15146
60.835 12.919476
60.840 12.955951
60.845 13.161942
60.850 13.593824
60.855 13.787516
60.860 14.281378
60.865 14.418306
60.870 14.386036
60.875 13.827287
60.880 13.341424
60.885 13.054031
60.890 12.92382
60.895 12.500903
60.900 12.303535
60.905 12.412904
60.910 12.659185
60.915 12.604427
60.920 12.318809
60.925 12.131298
60.930 12.070403
60.935 12.184429
60.940 12.001193
60.945 12.145745
60.950 12.538503
60.955 12.953911
60.960 13.26626
60.965 13.257724
60.970 13.356694
60.975 13.553193
60.980 13.622334
60.985 13.719339
60.990 13.395073
60.995 13.209233
61.000 13.209161
61.005 13.312593
61.010 13.479395
61.015 13.628841
61.020 13.536255
61.025 13.49273
61.030 13.678058
61.035 13.565489
61.040 12.82963
61.045 12.240674
61.050 12.039818
61.055 12.06651
61.060 12.34595
61.065 12.141234
61.070 11.999106
61.075 11.909228
61.080 11.955124
61.085 11.883738
61.090 11.631199
61.095 11.19296
61.100 11.348706
61.105 11.862181
61.110 12.330002
61.115 12.963013
61.120 13.226859
61.125 13.405375
61.130 13.616746
61.135 13.820299
61.140 14.23223
61.145 14.11549
61.150 13.44127
61.155 13.025704
61.160 13.414804
61.165 13.348144
61.170 12.59376
61.175 12.292831
61.180 11.805232
61.185 11.963704
61.190 11.961513
61.195 12.441707
61.200 13.082257
61.205 13.664496
61.210 13.643437
61.215 14.397231
61.220 14.714037
61.225 14.454627
61.230 14.214759
61.235 13.551282
61.240 13.310612
61.245 13.256102
61.250 13.153309
61.255 13.099311
61.260 13.605821
61.265 12.925251
61.270 12.871984
61.275 12.996713
61.280 13.029694
61.285 12.682549
61.290 12.503985
61.295 12.331414
61.300 12.54653
61.305 12.751875
61.310 12.779217
61.315 12.970739
61.320 12.948702
61.325 12.76061
61.330 12.829834
61.335 13.212639
61.340 13.130086
61.345 12.647265
61.350 12.225495
61.355 12.274081
61.360 12.757427
61.365 12.711096
61.370 12.344846
61.375 12.235916
61.380 12.458757
61.385 12.820056
61.390 12.952006
61.395 12.403082
61.400 11.871964
61.405 12.196747
61.410 12.158935
61.415 12.156717
61.420 11.538924
61.425 11.422895
61.430 11.92673
61.435 12.514506
61.440 12.79345
61.445 13.431832
61.450 13.670673
61.455 14.312051
61.460 14.355588
61.465 14.177233
61.470 13.933358
61.475 13.443116
61.480 12.665373
61.485 12.542325
61.490 12.389921
61.495 12.258729
61.500 12.200399
61.505 12.117764
61.510 11.773214
61.515 11.877147
61.520 12.438277
61.525 13.025597
61.530 13.206149
61.535 13.232778
61.540 13.137898
61.545 13.939476
61.550 14.714347
61.555 14.766608
61.560 13.984661
61.565 14.138573
61.570 14.366946
61.575 14.539266
61.580 13.553237
61.585 12.825022
61.590 12.486145
61.595 12.686852
61.600 12.429844
61.605 12.019979
61.610 11.62938
61.615 11.84689
61.620 11.798278
61.625 11.77916
61.630 11.895487
61.635 11.787729
61.640 12.128104
61.645 12.841674
61.650 13.373518
61.655 13.776713
61.660 14.088914
61.665 13.888312
61.670 14.313404
61.675 14.611886
61.680 14.597052
61.685 14.595654
61.690 14.430025
61.695 13.931874
61.700 14.104395
61.705 14.041411
61.710 13.415026
61.715 12.725532
61.720 12.558569
61.725 12.378221
61.730 12.565042
61.735 12.569577
61.740 12.044497
61.745 12.01905
61.750 12.033433
61.755 11.562272
61.760 12.140928
61.765 12.065096
61.770 12.282709
61.775 12.939349
61.780 13.49343
61.785 13.613814
61.790 14.193469
61.795 14.320924
61.800 14.499843
61.805 14.361312
61.810 14.621231
61.815 14.827984
61.820 14.804494
61.825 14.257477
61.830 13.720073
61.835 13.428025
61.840 13.069355
61.845 12.887926
61.850 12.832114
61.855 13.490888
61.860 14.380038
61.865 14.897367
61.870 15.421803
61.875 16.08555
61.880 16.365856
61.885 16.244059
61.890 16.244665
61.895 15.895729
61.900 16.192219
61.905 16.324474
61.910 16.083082
61.915 15.783443
61.920 15.668814
61.925 15.090473
61.930 14.19152
61.935 12.937139
61.940 12.223446
61.945 11.740161
61.950 11.526261
61.955 11.445057
61.960 11.570887
61.965 12.286502
61.970 13.063281
61.975 13.309958
61.980 13.625032
61.985 14.136399
61.990 14.01321
61.995 13.886477
62.000 13.727438
62.005 13.558558
62.010 13.630332
62.015 13.532784
62.020 13.373818
62.025 13.363771
62.030 13.881882
62.035 14.178423
62.040 14.075354
62.045 13.868856
62.050 13.340182
62.055 12.779016
62.060 12.58246
62.065 11.739029
62.070 11.452693
62.075 11.552316
62.080 11.267693
62.085 11.824451
62.090 11.969909
62.095 12.337536
62.100 12.967347
62.105 13.395449
62.110 13.330355
62.115 13.372101
62.120 13.063567
62.125 13.286181
62.130 13.43659
62.135 13.49967
62.140 13.207716
62.145 13.703823
62.150 14.372957
62.155 14.410292
62.160 14.460049
62.165 14.175508
62.170 13.9371
62.175 14.388872
62.180 13.971171
62.185 13.851471
62.190 14.092898
62.195 14.196836
62.200 14.652603
62.205 14.289657
62.210 13.269925
62.215 12.892018
62.220 12.744514
62.225 12.667106
62.230 12.647309
62.235 12.459664
62.240 12.52387
62.245 13.113143
62.250 13.692177
62.255 13.40569
62.260 13.105999
62.265 12.800646
62.270 13.157447
62.275 13.278946
62.280 13.154296
62.285 12.77128
62.290 13.135332
62.295 13.348468
62.300 13.150389
62.305 12.835176
62.310 13.079963
62.315 13.103119
62.320 13.159122
62.325 12.732847
62.330 12.617716
62.335 12.716663
62.340 12.451437
62.345 11.957674
62.350 11.595031
62.355 12.003065
62.360 12.48207
62.365 12.809965
62.370 12.781973
62.375 12.698818
62.380 13.214809
62.385 13.113041
62.390 12.812844
62.395 12.800732
62.400 12.936308
62.405 12.955556
62.410 13.749543
62.415 13.881254
62.420 14.052112
62.425 14.325114
62.430 14.455294
62.435 14.355091
62.440 14.537864
62.445 14.535398
62.450 14.64573
62.455 14.8045
62.460 14.32713
62.465 14.251878
62.470 14.321937
62.475 14.415101
62.480 13.78633
62.485 13.112552
62.490 13.092875
62.495 13.523853
62.500 13.879809
62.505 14.071053
62.510 13.843569
62.515 13.441582
62.520 13.801239
62.525 14.143029
62.530 14.14194
62.535 13.590453
62.540 13.094836
62.545 13.133085
62.550 13.383354
62.555 13.47508
62.560 12.96006
62.565 12.850263
62.570 12.722009
62.575 12.875962
62.580 13.013809
62.585 13.175973
62.590 13.062915
62.595 12.917929
62.600 12.609252
62.605 12.671315
62.610 12.676923
62.615 12.671001
62.620 12.680833
62.625 12.770425
62.630 13.129483
62.635 13.462093
62.640 13.685504
62.645 14.02956
62.650 14.194022
62.655 13.745926
62.660 13.667166
62.665 13.727276
62.670 13.723448
62.675 13.917262
62.680 13.643437
62.685 13.885581
62.690 14.425933
62.695 14.652492
62.700 14.492761
62.705 14.411766
62.710 13.833169
62.715 13.742711
62.720 13.470654
62.725 13.282293
62.730 13.062143
62.735 13.265214
62.740 13.249967
62.745 13.682604
62.750 13.891001
62.755 14.259894
62.760 14.905396
62.765 15.316463
62.770 14.947717
62.775 14.833132
62.780 14.806176
62.785 14.80538
62.790 14.503578
62.795 14.29955
62.800 14.082815
62.805 14.181444
62.810 14.424434
62.815 14.3915
62.820 13.999884
62.825 14.181672
62.830 13.81047
62.835 13.881559
62.840 14.266778
62.845 14.18371
62.850 14.336816
62.855 14.395679
62.860 14.23441
62.865 14.778788
62.870 14.918865
62.875 14.920434
62.880 14.315559
62.885 13.717675
62.890 13.569518
62.895 13.919278
62.900 14.142035
62.905 13.714694
62.910 13.570292
62.915 14.050848
62.920 14.776828
62.925 15.520905
62.930 14.921138
62.935 14.490849
62.940 14.655832
62.945 14.123635
62.950 14.041135
62.955 13.724716
62.960 13.0653
62.965 13.40297
62.970 13.623435
62.975 13.633814
62.980 13.632259
62.985 13.527734
62.990 13.921902
62.995 14.366842
63.000 14.165319
63.005 13.814004
63.010 13.58985
63.015 13.76319
63.020 13.91645
63.025 13.611699
63.030 13.316481
63.035 12.803535
63.040 12.287704
63.045 12.545429
63.050 13.160531
63.055 13.047363
63.060 12.649512
63.065 13.178395
63.070 13.749832
63.075 14.159533
63.080 14.03424
63.085 13.347645
63.090 13.277276
63.095 13.518308
63.100 12.894917
63.105 12.845145
63.110 13.172895
63.115 13.402481
63.120 13.997569
63.125 14.685907
63.130 14.425898
63.135 14.605894
63.140 14.501262
63.145 14.527934
63.150 14.616579
63.155 14.597808
63.160 14.297402
63.165 14.93274
63.170 14.895082
63.175 14.794083
63.180 14.566561
63.185 14.12518
63.190 14.328145
63.195 14.173867
63.200 13.819397
63.205 13.859994
63.210 14.795531
63.215 14.804662
63.220 14.503052
63.225 13.803748
63.230 13.934415
63.235 13.959389
63.240 14.504162
63.245 13.870956
63.250 14.446195
63.255 14.762416
63.260 14.584919
63.265 14.945297
63.270 15.132969
63.275 14.625404
63.280 15.159709
63.285 15.046706
63.290 15.115523
63.295 15.036489
63.300 14.675901
63.305 14.694672
63.310 14.861819
63.315 14.738667
63.320 15.121177
63.325 15.661167
63.330 16.109631
63.335 15.920956
63.340 15.266609
63.345 14.548108
63.350 14.248124
63.355 13.588252
63.360 13.711592
63.365 13.693968
63.370 13.883647
63.375 14.566322
63.380 14.917512
63.385 14.867287
63.390 14.752737
63.395 14.276141
63.400 14.398769
63.405 14.181582
63.410 14.448558
63.415 14.819518
63.420 15.051975
63.425 15.761544
63.430 15.959644
63.435 15.730883
63.440 15.978385
63.445 15.472768
63.450 15.206875
63.455 14.979406
63.460 14.591942
63.465 14.774143
63.470 14.848768
63.475 14.781631
63.480 14.876014
63.485 14.592494
63.490 14.421032
63.495 13.95906
63.500 13.809693
63.505 14.129738
63.510 14.112387
63.515 14.041994
63.520 14.216311
63.525 14.721086
63.530 15.233018
63.535 15.591809
63.540 15.995025
63.545 16.038996
63.550 16.490021
63.555 16.367811
63.560 16.488371
63.565 16.794138
63.570 16.768496
63.575 16.46771
63.580 16.544205
63.585 16.641594
63.590 16.808989
63.595 16.24637
63.600 15.573187
63.605 15.467723
63.610 15.115854
63.615 14.992443
63.620 14.652106
63.625 14.661362
63.630 14.814176
63.635 15.141803
63.640 15.479704
63.645 15.391175
63.650 15.391032
63.655 15.53743
63.660 15.714256
63.665 16.572561
63.670 17.094194
63.675 16.880714
63.680 17.402155
63.685 17.352442
63.690 17.249794
63.695 17.333195
63.700 16.850071
63.705 16.896776
63.710 16.803707
63.715 16.779564
63.720 16.957438
63.725 17.261768
63.730 17.041569
63.735 17.614826
63.740 17.20517
63.745 17.094368
63.750 16.587698
63.755 16.414356
63.760 16.769415
63.765 17.141254
63.770 16.798998
63.775 16.620634
63.780 16.971193
63.785 17.728779
63.790 17.96921
63.795 17.454948
63.800 17.650274
63.805 17.478645
63.810 18.019857
63.815 17.571972
63.820 17.553358
63.825 17.601793
63.830 17.896843
63.835 18.035137
63.840 18.138779
63.845 17.556644
63.850 17.618492
63.855 17.402714
63.860 17.892303
63.865 18.298611
63.870 18.308941
63.875 18.944462
63.880 19.898882
63.885 20.190866
63.890 20.70801
63.895 20.145468
63.900 20.340275
63.905 20.655998
63.910 20.507198
63.915 20.471544
63.920 21.316093
63.925 22.024118
63.930 22.67281
63.935 22.383879
63.940 22.558929
63.945 22.941347
63.950 23.01067
63.955 23.421633
63.960 22.929098
63.965 23.012094
63.970 23.41707
63.975 23.496498
63.980 23.830585
63.985 23.747942
63.990 23.867441
63.995 24.245792
64.000 24.346081
64.005 24.385855
64.010 24.052509
64.015 24.219418
64.020 24.712955
64.025 24.491064
64.030 24.229057
64.035 24.224712
64.040 23.859798
64.045 24.23723
64.050 24.659269
64.055 24.446411
64.060 24.792671
64.065 24.79715
64.070 25.001572
64.075 25.907982
64.080 26.1668
64.085 26.480927
64.090 26.61994
64.095 26.07494
64.100 26.1467
64.105 25.999329
64.110 25.610962
64.115 25.793562
64.120 26.075323
64.125 26.414663
64.130 26.723541
64.135 27.313297
64.140 27.704468
64.145 28.153831
64.150 27.321249
64.155 26.67518
64.160 26.46249
64.165 25.805189
64.170 25.49799
64.175 25.48488
64.180 25.551151
64.185 25.817455
64.190 25.980537
64.195 25.841467
64.200 26.565018
64.205 26.536898
64.210 26.388346
64.215 25.549208
64.220 25.163691
64.225 24.952782
64.230 25.220444
64.235 24.864817
64.240 24.724453
64.245 24.223257
64.250 24.485796
64.255 24.601521
64.260 24.457775
64.265 24.739052
64.270 24.441114
64.275 23.812185
64.280 23.246674
64.285 23.319302
64.290 23.642994
64.295 24.084167
64.300 23.664701
64.305 24.373949
64.310 24.577581
64.315 25.056831
64.320 24.845839
64.325 24.307957
64.330 23.217358
64.335 22.426264
64.340 21.463676
64.345 21.512651
64.350 21.450333
64.355 21.168116
64.360 20.815243
64.365 21.484594
64.370 21.375586
64.375 22.099295
64.380 22.023344
64.385 21.776094
64.390 22.270718
64.395 22.392986
64.400 22.290642
64.405 22.759264
64.410 22.443661
64.415 21.883327
64.420 21.429041
64.425 20.807804
64.430 20.510136
64.435 20.758886
64.440 20.33194
64.445 20.3915
64.450 21.05632
64.455 21.390066
64.460 21.339657
64.465 20.404001
64.470 19.772697
64.475 19.465145
64.480 19.604485
64.485 19.712347
64.490 19.903685
64.495 20.170298
64.500 20.619204
64.505 20.883055
64.510 21.255264
64.515 20.982632
64.520 20.556879
64.525 20.807312
64.530 20.566156
64.535 20.41868
64.540 20.145292
64.545 20.163393
64.550 20.14489
64.555 19.740473
64.560 19.382746
64.565 19.561541
64.570 19.41905
64.575 19.425665
64.580 19.147057
64.585 18.543175
64.590 18.671009
64.595 18.335913
64.600 18.220633
64.605 18.493071
64.610 18.478243
64.615 18.457172
64.620 18.966105
64.625 18.418825
64.630 18.010778
64.635 17.923948
64.640 17.59824
64.645 17.66371
64.650 17.400909
64.655 17.010422
64.660 17.388054
64.665 17.827385
64.670 18.093708
64.675 18.026213
64.680 18.023376
64.685 18.365389
64.690 18.103989
64.695 18.129129
64.700 17.897938
64.705 17.788113
64.710 17.410259
64.715 16.743608
64.720 16.164417
64.725 16.281666
64.730 16.051647
64.735 16.214336
64.740 16.175098
64.745 16.980106
64.750 17.286152
64.755 17.775984
64.760 17.972729
64.765 18.012106
64.770 17.544338
64.775 16.904684
64.780 16.210394
64.785 16.14057
64.790 15.793695
64.795 15.708899
64.800 15.692919
64.805 16.031727
64.810 16.641157
64.815 17.130472
64.820 16.960127
64.825 17.573336
64.830 18.14913
64.835 18.284258
64.840 18.106983
64.845 17.439068
64.850 16.852131
64.855 16.789354
64.860 16.545956
64.865 16.098419
64.870 15.98967
64.875 16.38526
64.880 16.804451
64.885 16.662584
64.890 16.646923
64.895 16.805565
64.900 17.006985
64.905 17.177143
64.910 16.466452
64.915 16.538296
64.920 16.878778
64.925 16.75733
64.930 16.253687
64.935 15.738792
64.940 15.558509
64.945 15.644261
64.950 15.482807
64.955 15.852007
64.960 16.065268
64.965 16.586752
64.970 16.736591
64.975 17.066793
64.980 17.383825
64.985 18.178137
64.990 17.980265
64.995 18.292721
65.000 18.116777
65.005 18.22504
65.010 17.882763
65.015 17.582537
65.020 17.54446
65.025 18.114559
65.030 18.18161
65.035 18.568123
65.040 18.585579
65.045 19.177999
65.050 19.410532
65.055 19.059515
65.060 18.951033
65.065 18.698565
65.070 18.90946
65.075 19.642681
65.080 19.845188
65.085 19.759583
65.090 19.862709
65.095 19.946907
65.100 19.944279
65.105 19.084667
65.110 18.855482
65.115 18.808912
65.120 19.012007
65.125 18.710476
65.130 18.457981
65.135 18.556566
65.140 18.77956
65.145 18.229492
65.150 18.001825
65.155 18.119425
65.160 17.49807
65.165 17.280453
65.170 17.235529
65.175 17.410902
65.180 17.252447
65.185 17.280363
65.190 17.109158
65.195 17.553944
65.200 17.603561
65.205 17.564741
65.210 17.269247
65.215 17.382971
65.220 17.423208
65.225 17.201849
65.230 17.214348
65.235 17.339046
65.240 17.103069
65.245 16.949562
65.250 16.681192
65.255 16.612465
65.260 16.845774
65.265 16.508743
65.270 16.72121
65.275 17.505135
65.280 18.161449
65.285 17.969309
65.290 17.701042
65.295 17.663795
65.300 17.708776
65.305 17.232891
65.310 16.401329
65.315 15.82549
65.320 16.550766
65.325 16.75699
65.330 16.759884
65.335 16.605595
65.340 17.284565
65.345 17.616251
65.350 18.085775
65.355 17.775305
65.360 17.631769
65.365 17.185062
65.370 16.858381
65.375 16.27685
65.380 16.093748
65.385 16.38862
65.390 16.631544
65.395 16.512348
65.400 16.288046
65.405 16.119946
65.410 15.851648
65.415 15.552515
65.420 14.788864
65.425 14.653676
65.430 15.18144
65.435 15.973491
65.440 16.017757
65.445 16.709841
65.450 16.857294
65.455 17.214508
65.460 17.577183
65.465 17.783144
65.470 17.891247
65.475 18.077587
65.480 17.659494
65.485 17.485712
65.490 17.28314
65.495 17.152683
65.500 16.667791
65.505 16.847538
65.510 16.548979
65.515 16.268847
65.520 16.496607
65.525 16.378096
65.530 16.257805
65.535 15.780365
65.540 15.29205
65.545 15.875707
65.550 16.606274
65.555 17.155603
65.560 17.167702
65.565 17.211473
65.570 17.807707
65.575 18.31604
65.580 18.076605
65.585 17.26255
65.590 17.005678
65.595 16.750061
65.600 17.016855
65.605 17.102594
65.610 16.761786
65.615 16.381353
65.620 16.58563
65.625 16.867697
65.630 17.501108
65.635 17.074076
65.640 17.594978
65.645 18.059509
65.650 18.44772
65.655 18.739347
65.660 18.503368
65.665 18.26523
65.670 18.29034
65.675 18.543856
65.680 18.788948
65.685 18.837927
65.690 18.923063
65.695 19.130352
65.700 19.341568
65.705 19.401648
65.710 18.634176
65.715 18.733568
65.720 18.986553
65.725 18.601963
65.730 18.633512
65.735 18.884163
65.740 18.953854
65.745 19.369299
65.750 19.461195
65.755 19.780407
65.760 19.765945
65.765 19.772955
65.770 20.131138
65.775 20.913757
65.780 21.35239
65.785 21.258833
65.790 21.411983
65.795 22.469593
65.800 22.985945
65.805 23.033268
65.810 22.857346
65.815 22.406965
65.820 22.424561
65.825 22.476223
65.830 22.208118
65.835 22.201633
65.840 21.955732
65.845 21.202751
65.850 21.585842
65.855 22.334808
65.860 21.927599
65.865 21.921221
65.870 22.106516
65.875 22.657022
65.880 23.182529
65.885 23.070087
65.890 23.001169
65.895 23.328659
65.900 23.235435
65.905 22.852921
65.910 23.027027
65.915 23.658138
65.920 24.274336
65.925 24.095312
65.930 24.353863
65.935 25.286871
65.940 25.807367
65.945 26.066717
65.950 26.517538
65.955 27.000326
65.960 28.051493
65.965 28.618038
65.970 28.493498
65.975 28.222898
65.980 28.113077
65.985 27.699692
65.990 27.364103
65.995 26.953012
66.000 27.321751
66.005 27.208431
66.010 27.862116
66.015 28.122511
66.020 28.066523
66.025 28.598528
66.030 29.917412
66.035 30.122471
66.040 30.722834
66.045 30.826317
66.050 30.787815
66.055 30.804367
66.060 30.63002
66.065 30.537834
66.070 30.364862
66.075 30.002708
66.080 30.173693
66.085 30.51462
66.090 30.843576
66.095 31.420614
66.100 31.694885
66.105 31.772285
66.110 32.921585
66.115 33.29285
66.120 34.128826
66.125 34.636787
66.130 34.212543
66.135 34.148956
66.140 34.276463
66.145 33.10445
66.150 32.19368
66.155 30.985495
66.160 30.158192
66.165 29.705297
66.170 29.28306
66.175 29.065388
66.180 29.028387
66.185 28.774429
66.190 29.210176
66.195 30.299387
66.200 31.254784
66.205 31.334496
66.210 31.243267
66.215 31.083313
66.220 31.151739
66.225 30.474958
66.230 29.61067
66.235 28.957348
66.240 28.834036
66.245 28.45661
66.250 28.371941
66.255 28.72888
66.260 29.129745
66.265 29.745552
66.270 29.818262
66.275 29.768625
66.280 29.863411
66.285 30.185369
66.290 29.598673
66.295 28.845551
66.300 27.967873
66.305 27.276608
66.310 26.72613
66.315 27.481239
66.320 27.102686
66.325 27.147234
66.330 26.9235
66.335 26.423409
66.340 25.625635
66.345 24.772917
66.350 23.810688
66.355 23.250612
66.360 22.91523
66.365 22.462364
66.370 22.4471
66.375 22.219337
66.380 22.398655
66.385 22.375963
66.390 22.51795
66.395 23.314732
66.400 23.799637
66.405 23.702213
66.410 22.983297
66.415 22.382586
66.420 21.420912
66.425 20.950068
66.430 20.153275
66.435 19.584497
66.440 19.06743
66.445 18.945919
66.450 18.722263
66.455 18.315254
66.460 18.080153
66.465 17.409409
66.470 17.192438
66.475 17.375759
66.480 17.665066
66.485 17.857365
66.490 18.57728
66.495 18.763674
66.500 19.021471
66.505 18.971937
66.510 19.144627
66.515 19.523327
66.520 19.900198
66.525 19.210461
66.530 18.853937
66.535 18.321814
66.540 18.130096
66.545 18.110201
66.550 17.466129
66.555 16.736115
66.560 16.255209
66.565 16.424463
66.570 16.974791
66.575 16.983246
66.580 16.225225
66.585 15.842555
66.590 15.497753
66.595 15.662766
66.600 15.380193
66.605 15.428005
66.610 15.824245
66.615 16.018309
66.620 15.928561
66.625 15.946171
66.630 16.009556
66.635 15.659757
66.640 15.266892
66.645 14.553748
66.650 14.389814
66.655 15.44416
66.660 15.502818
66.665 15.831121
66.670 16.11216
66.675 15.799384
66.680 15.704937
66.685 15.452186
66.690 14.542706
66.695 14.368882
66.700 13.963008
66.705 13.835889
66.710 14.591628
66.715 15.283944
66.720 15.561607
66.725 15.813494
66.730 16.161928
66.735 15.836576
66.740 15.673705
66.745 15.113887
66.750 14.967232
66.755 15.318906
66.760 15.470845
66.765 15.70743
66.770 15.838367
66.775 15.912701
66.780 16.160662
66.785 16.195478
66.790 15.893916
66.795 15.165255
66.800 14.781313
66.805 15.274716
66.810 15.47559
66.815 15.410176
66.820 15.05273
66.825 14.531125
66.830 14.950791
66.835 15.22341
66.840 14.854381
66.845 14.522524
66.850 14.268453
66.855 14.342976
66.860 15.046117
66.865 15.283819
66.870 15.447243
66.875 15.354242
66.880 15.311838
66.885 15.472502
66.890 15.747409
66.895 15.226803
66.900 14.853345
66.905 14.918078
66.910 14.973742
66.915 15.434372
66.920 15.291441
66.925 15.014766
66.930 15.663281
66.935 16.545067
66.940 16.252039
66.945 16.540777
66.950 16.37414
66.955 16.529139
66.960 16.309061
66.965 15.720213
66.970 14.901453
66.975 14.485433
66.980 14.079151
66.985 13.936705
66.990 14.080555
66.995 14.212948
67.000 14.478788
67.005 14.315654
67.010 14.793006
67.015 15.567835
67.020 15.690063
67.025 15.653296
67.030 15.736528
67.035 16.146925
67.040 16.434233
67.045 16.399191
67.050 16.14875
67.055 16.11952
67.060 16.769901
67.065 16.646736
67.070 16.132553
67.075 16.236341
67.080 16.111944
67.085 16.034
67.090 16.168663
67.095 15.595158
67.100 15.686833
67.105 15.255332
67.110 15.012129
67.115 14.249143
67.120 13.684988
67.125 13.402175
67.130 13.313714
67.135 12.797251
67.140 12.83476
67.145 12.988094
67.150 13.445789
67.155 14.034658
67.160 14.355305
67.165 14.266155
67.170 15.071123
67.175 15.576262
67.180 15.850936
67.185 16.005209
67.190 15.886221
67.195 15.944802
67.200 16.101259
67.205 15.657074
67.210 15.435247
67.215 15.539739
67.220 15.707461
67.225 15.316675
67.230 14.870601
67.235 14.990512
67.240 14.904031
67.245 15.120674
67.250 15.323709
67.255 14.947181
67.260 14.807038
67.265 15.01601
67.270 14.781764
67.275 15.108878
67.280 14.866211
67.285 14.588797
67.290 14.945448
67.295 15.842217
67.300 16.07452
67.305 15.991784
67.310 16.332468
67.315 16.600622
67.320 16.44643
67.325 16.372807
67.330 15.55778
67.335 15.363107
67.340 15.553409
67.345 15.279558
67.350 15.060384
67.355 14.626679
67.360 14.797232
67.365 15.16748
67.370 14.875568
67.375 14.788566
67.380 15.020227
67.385 15.276258
67.390 15.381193
67.395 15.030873
67.400 14.901024
67.405 15.124588
67.410 15.198894
67.415 15.310031
67.420 15.377878
67.425 15.388609
67.430 15.94561
67.435 15.640374
67.440 15.522755
67.445 15.244823
67.450 14.585054
67.455 14.811017
67.460 14.786009
67.465 14.191286
67.470 14.434506
67.475 14.410496
67.480 14.508215
67.485 14.656574
67.490 14.994362
67.495 15.607588
67.500 16.194096
67.505 16.29023
67.510 16.317749
67.515 16.613413
67.520 16.747793
67.525 16.230648
67.530 15.725052
67.535 15.265115
67.540 14.906003
67.545 14.480349
67.550 14.199388
67.555 14.284021
67.560 13.897719
67.565 13.840381
67.570 14.008419
67.575 14.364869
67.580 14.788843
67.585 14.630055
67.590 14.912606
67.595 15.591197
67.600 15.703808
67.605 15.833974
67.610 15.827351
67.615 16.342634
67.620 16.625046
67.625 15.838624
67.630 15.680723
67.635 15.281698
67.640 14.880216
67.645 14.519542
67.650 14.028881
67.655 13.590021
67.660 13.310207
67.665 13.103032
67.670 13.631125
67.675 14.179167
67.680 14.676397
67.685 14.816592
67.690 15.276244
67.695 16.207664
67.700 16.081406
67.705 15.437109
67.710 15.160727
67.715 14.866539
67.720 14.846192
67.725 14.264468
67.730 13.514898
67.735 13.542045
67.740 13.614072
67.745 13.506075
67.750 13.386299
67.755 13.699814
67.760 14.240586
67.765 14.801028
67.770 15.287961
67.775 15.581302
67.780 15.844774
67.785 15.47467
67.790 15.507159
67.795 14.91505
67.800 14.777696
67.805 14.901504
67.810 15.144751
67.815 14.90475
67.820 15.106685
67.825 14.648348
67.830 14.86227
67.835 14.890477
67.840 14.972742
67.845 14.578275
67.850 14.738444
67.855 14.780489
67.860 14.849366
67.865 14.797354
67.870 14.512795
67.875 14.228271
67.880 14.798712
67.885 14.58893
67.890 14.670043
67.895 15.064104
67.900 15.075518
67.905 15.172349
67.910 14.810136
67.915 14.555955
67.920 14.275327
67.925 13.889954
67.930 13.670198
67.935 14.113593
67.940 14.584412
67.945 15.250939
67.950 15.3843
67.955 16.116428
67.960 16.394567
67.965 16.758341
67.970 16.357779
67.975 16.137012
67.980 15.738316
67.985 15.642577
67.990 15.366864
67.995 15.287761
68.000 14.926534
68.005 14.844466
68.010 14.838105
68.015 14.545911
68.020 14.503928
68.025 14.509956
68.030 14.341594
68.035 13.904057
68.040 13.362494
68.045 13.347228
68.050 13.889445
68.055 14.293626
68.060 14.374586
68.065 14.780308
68.070 15.22134
68.075 15.70989
68.080 15.897501
68.085 15.385617
68.090 14.889657
68.095 14.885144
68.100 14.786509
68.105 14.737468
68.110 14.667628
68.115 14.434157
68.120 14.81017
68.125 14.616263
68.130 14.450709
68.135 14.188989
68.140 14.408169
68.145 14.660968
68.150 14.785966
68.155 14.955294
68.160 15.410304
68.165 15.565242
68.170 15.680634
68.175 15.194668
68.180 15.201698
68.185 15.02719
68.190 14.919139
68.195 14.604843
68.200 14.195493
68.205 14.560827
68.210 14.807348
68.215 14.598731
68.220 14.454946
68.225 14.575032
68.230 14.587255
68.235 15.06575
68.240 15.058828
68.245 15.586859
68.250 16.164627
68.255 16.161612
68.260 15.925207
68.265 16.366934
68.270 16.417233
68.275 15.903181
68.280 15.07585
68.285 15.082313
68.290 14.846849
68.295 14.494603
68.300 14.104465
68.305 14.04756
68.310 14.168957
68.315 14.583304
68.320 14.312037
68.325 14.588721
68.330 15.0757
68.335 15.394564
68.340 15.289642
68.345 15.121974
68.350 14.369368
68.355 14.225015
68.360 14.218274
68.365 13.953024
68.370 13.625184
68.375 13.433765
68.380 13.500685
68.385 13.814828
68.390 14.615479
68.395 14.775314
68.400 14.549474
68.405 14.578321
68.410 15.058058
68.415 15.416853
68.420 15.503176
68.425 14.849033
68.430 14.651379
68.435 14.65064
68.440 14.518477
68.445 14.335516
68.450 14.128829
68.455 13.796728
68.460 13.548666
68.465 13.752777
68.470 14.152131
68.475 14.178227
68.480 14.104056
68.485 14.527416
68.490 15.307613
68.495 15.825119
68.500 15.84609
68.505 16.181648
68.510 16.620686
68.515 16.520884
68.520 16.385178
68.525 16.061668
68.530 15.618113
68.535 15.681867
68.540 15.202158
68.545 15.141583
68.550 15.402864
68.555 15.193672
68.560 15.328068
68.565 15.713805
68.570 15.572538
68.575 15.687666
68.580 15.295862
68.585 14.789253
68.590 15.182
68.595 15.203053
68.600 15.294597
68.605 15.247691
68.610 15.673948
68.615 16.467384
68.620 16.929392
68.625 16.782333
68.630 16.980572
68.635 17.307564
68.640 17.386524
68.645 16.72109
68.650 16.37738
68.655 16.014481
68.660 15.587744
68.665 15.711872
68.670 15.726864
68.675 16.304708
68.680 16.496952
68.685 16.48144
68.690 16.645042
68.695 17.150928
68.700 17.236094
68.705 17.023046
68.710 16.67379
68.715 16.946795
68.720 16.645205
68.725 16.558027
68.730 16.592115
68.735 16.646416
68.740 16.636068
68.745 16.591478
68.750 17.253075
68.755 18.155363
68.760 18.975513
68.765 19.290257
68.770 20.29771
68.775 20.771959
68.780 20.576962
68.785 19.8706
68.790 19.538593
68.795 18.722481
68.800 18.517498
68.805 17.390381
68.810 17.456594
68.815 18.01676
68.820 18.054407
68.825 18.181641
68.830 18.580217
68.835 18.61591
68.840 18.734356
68.845 18.527512
68.850 18.362728
68.855 18.029026
68.860 17.972269
68.865 17.524654
68.870 17.337702
68.875 17.092846
68.880 17.246567
68.885 17.33486
68.890 17.371819
68.895 17.266134
68.900 17.114954
68.905 17.595757
68.910 18.154142
68.915 18.093197
68.920 18.572775
68.925 19.254326
68.930 19.681002
68.935 20.056732
68.940 20.169725
68.945 20.638962
68.950 21.042171
68.955 21.66087
68.960 21.702013
68.965 21.943228
68.970 22.010754
68.975 21.582726
68.980 20.851696
68.985 20.614735
68.990 20.334871
68.995 19.910454
69.000 19.910389
69.005 20.323303
69.010 21.163792
69.015 21.419024
69.020 21.484516
69.025 21.619524
69.030 22.140884
69.035 22.016197
69.040 22.28871
69.045 22.554829
69.050 23.642378
69.055 23.892271
69.060 24.659555
69.065 25.017717
69.070 24.813545
69.075 25.262018
69.080 24.600605
69.085 24.079235
69.090 24.685394
69.095 24.937748
69.100 25.425001
69.105 26.374935
69.110 25.857807
69.115 26.13513
69.120 25.905628
69.125 25.636017
69.130 24.966959
69.135 24.6901
69.140 24.840755
69.145 25.297199
69.150 25.506886
69.155 25.15884
69.160 25.195057
69.165 25.564177
69.170 26.055758
69.175 26.766775
69.180 27.7159
69.185 28.576927
69.190 29.073847
69.195 29.140949
69.200 29.835461
69.205 29.366339
69.210 28.201094
69.215 27.225662
69.220 26.699953
69.225 26.690702
69.230 26.584669
69.235 25.666916
69.240 26.097773
69.245 26.721924
69.250 27.149473
69.255 27.785463
69.260 27.729729
69.265 28.246735
69.270 28.477413
69.275 27.957062
69.280 27.201826
69.285 27.143202
69.290 26.77585
69.295 26.719719
69.300 26.536409
69.305 26.253836
69.310 26.664474
69.315 26.527819
69.320 26.079895
69.325 26.334095
69.330 26.35025
69.335 25.918056
69.340 26.745203
69.345 27.460911
69.350 27.794731
69.355 27.570168
69.360 27.666763
69.365 27.854803
69.370 27.517891
69.375 27.015703
69.380 26.864508
69.385 27.647011
69.390 28.536495
69.395 27.770988
69.400 27.93713
69.405 28.237671
69.410 27.560501
69.415 27.038885
69.420 26.241003
69.425 25.509872
69.430 25.263403
69.435 25.54813
69.440 25.685236
69.445 26.141083
69.450 26.978725
69.455 27.204723
69.460 27.096153
69.465 26.277403
69.470 25.892433
69.475 26.211985
69.480 25.508472
69.485 24.315355
69.490 24.042213
69.495 24.288927
69.500 24.45752
69.505 23.644676
69.510 22.649761
69.515 22.538624
69.520 22.403368
69.525 21.799675
69.530 21.425812
69.535 21.7633
69.540 22.072298
69.545 22.323446
69.550 21.589464
69.555 21.378853
69.560 21.408089
69.565 21.204634
69.570 20.781199
69.575 20.727821
69.580 20.707304
69.585 20.760248
69.590 20.797001
69.595 20.789433
69.600 20.946932
69.605 20.904726
69.610 20.137196
69.615 19.96129
69.620 20.60289
69.625 20.556118
69.630 20.202118
69.635 20.089952
69.640 20.283871
69.645 20.615166
69.650 20.384558
69.655 19.988802
69.660 19.829464
69.665 19.666851
69.670 19.362352
69.675 18.984114
69.680 19.041061
69.685 19.331251
69.690 19.46958
69.695 19.473949
69.700 19.091698
69.705 19.135355
69.710 18.919323
69.715 18.268152
69.720 17.518429
69.725 17.250143
69.730 16.898687
69.735 17.064798
69.740 16.888103
69.745 17.200083
69.750 17.306919
69.755 17.13549
69.760 16.968618
69.765 17.426714
69.770 17.584475
69.775 17.401098
69.780 17.227406
69.785 17.038654
69.790 16.930332
69.795 16.678284
69.800 16.757082
69.805 16.352747
69.810 15.788385
69.815 15.684359
69.820 15.516896
69.825 15.182357
69.830 14.629497
69.835 14.435825
69.840 14.465977
69.845 14.235367
69.850 14.24136
69.855 14.354668
69.860 14.261262
69.865 14.2461
69.870 14.345633
69.875 14.825709
69.880 15.784111
69.885 15.751363
69.890 16.156174
69.895 16.413952
69.900 16.670212
69.905 17.056627
69.910 17.099779
69.915 17.299084
69.920 17.487669
69.925 17.481438
69.930 17.358852
69.935 17.10734
69.940 16.689112
69.945 16.587723
69.950 15.862498
69.955 15.55915
69.960 15.245719
69.965 14.874248
69.970 14.489722
69.975 13.851937
69.980 13.549182
69.985 13.704493
69.990 13.95793
69.995 13.918992
70.000 14.296818
70.005 14.762847
70.010 14.788162
70.015 14.11062
70.020 14.111155
70.025 14.320425
70.030 14.081778
70.035 14.13244
70.040 14.014088
70.045 14.140103
70.050 14.396867
70.055 14.340828
70.060 14.322656
70.065 15.226293
70.070 15.569634
70.075 15.455479
70.080 15.476469
70.085 15.674451
70.090 15.344809
70.095 15.059249
70.100 14.295156
70.105 13.98997
70.110 14.126622
70.115 14.150896
70.120 14.157253
70.125 14.128639
70.130 14.471198
70.135 14.746738
70.140 14.845386
70.145 14.859461
70.150 15.200361
70.155 15.38593
70.160 15.597532
70.165 15.458862
70.170 15.355496
70.175 15.349832
70.180 15.113292
70.185 14.745894
70.190 14.780675
70.195 14.746311
70.200 14.857666
70.205 14.805811
70.210 15.082807
70.215 15.69468
70.220 15.611015
70.225 15.42484
70.230 15.545522
70.235 15.411325
70.240 15.693125
70.245 15.306793
70.250 15.004516
70.255 15.076694
70.260 14.870324
70.265 14.066578
70.270 14.123408
70.275 14.370677
70.280 14.68137
70.285 14.431998
70.290 15.053403
70.295 15.497636
70.300 16.398905
70.305 16.338518
70.310 16.348314
70.315 16.096361
70.320 16.038746
70.325 15.728042
70.330 15.905952
70.335 15.819266
70.340 15.348693
70.345 14.689598
70.350 14.749221
70.355 14.591531
70.360 14.666656
70.365 14.184989
70.370 13.824031
70.375 14.768787
70.380 15.248701
70.385 15.463439
70.390 15.520422
70.395 15.471114
70.400 15.905594
70.405 16.087301
70.410 15.27828
70.415 15.090605
70.420 15.098683
70.425 14.943915
70.430 14.378871
70.435 14.047942
70.440 14.173717
70.445 14.432974
70.450 14.572138
70.455 14.384516
70.460 14.437675
70.465 14.474128
70.470 14.502455
70.475 14.581389
70.480 14.524939
70.485 14.38815
70.490 14.199908
70.495 14.301549
70.500 14.578827
70.505 14.364785
70.510 14.221461
70.515 14.474854
70.520 14.483125
70.525 14.497933
70.530 14.267478
70.535 14.867561
70.540 15.156923
70.545 15.29059
70.550 14.890967
70.555 14.885139
70.560 15.338553
70.565 15.478649
70.570 15.156347
70.575 14.998487
70.580 14.654564
70.585 14.446689
70.590 14.159915
70.595 13.528643
70.600 13.121915
70.605 12.766838
70.610 12.718516
70.615 13.046241
70.620 13.755024
70.625 13.925466
70.630 14.19422
70.635 14.556065
70.640 14.87457
70.645 15.122829
70.650 14.878484
70.655 14.54218
70.660 14.589344
70.665 14.480596
70.670 14.359546
70.675 14.728733
70.680 14.362387
70.685 14.08881
70.690 14.40107
70.695 14.302253
70.700 14.235866
70.705 14.043687
70.710 13.739396
70.715 14.052886
70.720 14.053241
70.725 13.769051
70.730 13.87297
70.735 13.97404
70.740 13.714375
70.745 13.694154
70.750 13.806121
70.755 14.150927
70.760 14.55739
70.765 14.635715
70.770 14.645375
70.775 14.520269
70.780 14.151999
70.785 13.734852
70.790 13.797496
70.795 13.913461
70.800 13.870491
70.805 13.759447
70.810 13.414632
70.815 13.618981
70.820 14.125908
70.825 13.643147
70.830 13.259794
70.835 14.08195
70.840 14.318702
70.845 14.722769
70.850 14.569076
70.855 14.203451
70.860 14.250455
70.865 14.47104
70.870 13.815974
70.875 13.834143
70.880 14.221763
70.885 14.069587
70.890 14.708728
70.895 14.62476
70.900 14.631745
70.905 14.523735
70.910 14.590501
70.915 14.230582
70.920 14.50386
70.925 14.701658
70.930 14.058099
70.935 13.988778
70.940 14.511915
70.945 14.412862
70.950 14.524842
70.955 13.867652
70.960 13.466699
70.965 14.283505
70.970 14.328685
70.975 13.948233
70.980 14.005389
70.985 14.185684
70.990 14.465033
70.995 14.774288
71.000 14.680247
71.005 14.949861
71.010 14.812386
71.015 14.61256
71.020 14.626354
71.025 14.420321
71.030 14.575028
71.035 14.217127
71.040 13.950791
71.045 14.398042
71.050 14.487043
71.055 14.216692
71.060 14.579318
71.065 14.162515
71.070 14.558708
71.075 14.61309
71.080 14.661624
71.085 15.153924
71.090 15.237776
71.095 15.242814
71.100 15.650789
71.105 15.503587
71.110 15.113171
71.115 14.705795
71.120 14.366924
71.125 14.682682
71.130 14.543546
71.135 14.23907
71.140 13.900176
71.145 14.268659
71.150 14.501273
71.155 14.330613
71.160 13.803744
71.165 13.834792
71.170 13.957247
71.175 14.471385
71.180 14.128932
71.185 14.268519
71.190 14.345702
71.195 14.396629
71.200 14.648898
71.205 14.610175
71.210 14.540326
71.215 14.520726
71.220 14.519601
71.225 14.276448
71.230 14.627407
71.235 14.617369
71.240 14.6105
71.245 14.553109
71.250 15.23368
71.255 15.6857
71.260 15.905478
71.265 15.90499
71.270 15.533339
71.275 15.607183
71.280 15.904442
71.285 15.182213
71.290 15.234797
71.295 15.091922
71.300 14.551235
71.305 14.404548
71.310 14.18716
71.315 13.751068
71.320 13.896516
71.325 13.755767
71.330 14.363216
71.335 14.958384
71.340 14.863401
71.345 14.613871
71.350 14.636587
71.355 14.213614
71.360 13.906207
71.365 13.411396
71.370 13.302385
71.375 13.799407
71.380 13.922225
71.385 14.216779
71.390 14.391424
71.395 14.916044
71.400 15.38257
71.405 15.22867
71.410 15.528508
71.415 15.703801
71.420 15.213381
71.425 15.01308
71.430 14.372062
71.435 14.303405
71.440 14.104881
71.445 13.58557
71.450 14.108924
71.455 14.354008
71.460 14.957599
71.465 14.867176
71.470 14.526201
71.475 14.306046
71.480 14.302805
71.485 14.532843
71.490 14.624701
71.495 14.322414
71.500 14.711561
71.505 15.17168
71.510 15.380764
71.515 15.490297
71.520 15.342152
71.525 15.220172
71.530 15.151429
71.535 15.005923
71.540 14.511092
71.545 13.928434
71.550 13.65986
71.555 13.575167
71.560 13.794819
71.565 13.719367
71.570 13.096867
71.575 13.457065
71.580 13.908232
71.585 13.670743
71.590 13.323339
71.595 13.001743
71.600 13.215521
71.605 13.643959
71.610 13.929677
71.615 13.980485
71.620 14.499726
71.625 14.451545
71.630 14.69472
71.635 14.927752
71.640 14.714232
71.645 14.63788
71.650 14.473765
71.655 14.600288
71.660 14.803853
71.665 14.977183
71.670 14.924393
71.675 15.440169
71.680 15.399737
71.685 15.214516
71.690 14.788026
71.695 14.495467
71.700 14.101375
71.705 13.441498
71.710 12.845498
71.715 12.469722
71.720 12.583288
71.725 12.956547
71.730 13.27427
71.735 13.400471
71.740 14.588559
71.745 15.082788
71.750 15.577015
71.755 15.289561
71.760 15.30429
71.765 15.41468
71.770 15.365714
71.775 14.783946
71.780 14.623039
71.785 14.751256
71.790 14.689754
71.795 14.223623
71.800 13.968233
71.805 14.298996
71.810 13.992101
71.815 13.842612
71.820 13.654019
71.825 13.53297
71.830 13.487699
71.835 13.491985
71.840 13.363882
71.845 13.510094
71.850 13.474798
71.855 13.417763
71.860 13.582407
71.865 13.699844
71.870 13.489605
71.875 13.01268
71.880 13.664617
71.885 13.974294
71.890 14.706873
71.895 15.150608
71.900 14.899508
71.905 15.054266
71.910 15.546018
71.915 14.986153
71.920 14.920703
71.925 14.394712
71.930 14.501377
71.935 14.640939
71.940 14.79986
71.945 14.334793
71.950 14.754912
71.955 15.003464
71.960 15.102465
71.965 14.911791
71.970 15.03642
71.975 15.266228
71.980 14.941797
71.985 15.228011
71.990 15.122855
71.995 14.897117
72.000 14.748094
72.005 14.463131
72.010 14.940212
72.015 15.21792
72.020 15.138755
72.025 15.106929
72.030 15.020213
72.035 14.750888
72.040 14.771011
72.045 14.58428
72.050 14.21116
72.055 13.37137
72.060 13.356146
72.065 13.895452
72.070 13.737961
72.075 13.282146
72.080 13.080242
72.085 13.376699
72.090 13.690681
72.095 14.104998
72.100 13.684583
72.105 14.207006
72.110 14.489551
72.115 14.400033
72.120 14.20809
72.125 14.1854
72.130 14.645775
72.135 14.908811
72.140 14.552286
72.145 14.321723
72.150 14.426674
72.155 14.093499
72.160 13.929934
72.165 13.429613
72.170 13.374504
72.175 13.550369
72.180 13.297318
72.185 13.519262
72.190 13.857124
72.195 13.416522
72.200 14.003033
72.205 14.851219
72.210 15.210851
72.215 15.438029
72.220 14.612999
72.225 14.901116
72.230 15.355627
72.235 15.232667
72.240 15.079631
72.245 14.780752
72.250 14.96391
72.255 15.695945
72.260 15.4844
72.265 15.300911
72.270 14.801961
72.275 14.549421
72.280 14.578937
72.285 14.137715
72.290 13.559847
72.295 13.166083
72.300 13.196638
72.305 13.325886
72.310 13.766025
72.315 14.20118
72.320 15.0085
72.325 15.455079
72.330 16.228897
72.335 16.464249
72.340 16.684725
72.345 16.55204
72.350 16.557007
72.355 16.248661
72.360 16.313469
72.365 15.50139
72.370 15.322247
72.375 15.041407
72.380 14.97944
72.385 14.890227
72.390 14.450855
72.395 13.884158
72.400 13.545065
72.405 13.774219
72.410 14.415969
72.415 14.414709
72.420 13.98922
72.425 14.271702
72.430 14.6236
72.435 15.290439
72.440 14.595379
72.445 14.284739
72.450 13.923708
72.455 14.182117
72.460 14.238161
72.465 14.137776
72.470 13.700472
72.475 13.950693
72.480 13.68436
72.485 14.617957
72.490 14.825844
72.495 14.5368
72.500 14.300246
72.505 14.464481
72.510 14.320206
72.515 14.510617
72.520 14.280926
72.525 14.03718
72.530 14.315045
72.535 14.286886
72.540 14.117656
72.545 14.003952
72.550 14.070544
72.555 13.877458
72.560 14.186647
72.565 14.486617
72.570 14.644573
72.575 14.821372
72.580 14.883698
72.585 14.743543
72.590 14.790713
72.595 14.50274
72.600 14.339613
72.605 14.378728
72.610 14.38071
72.615 14.696221
72.620 15.11274
72.625 15.155568
72.630 14.908383
72.635 14.507151
72.640 14.268563
72.645 14.117614
72.650 13.391338
72.655 12.706427
72.660 13.288018
72.665 13.501704
72.670 13.73571
72.675 13.537761
72.680 12.851091
72.685 12.827559
72.690 13.000837
72.695 12.767228
72.700 12.770069
72.705 13.078296
72.710 13.571181
72.715 14.172927
72.720 14.273026
72.725 13.70369
72.730 13.729413
72.735 13.073034
72.740 13.100358
72.745 12.953219
72.750 12.977692
72.755 13.248216
72.760 13.246085
72.765 13.829351
72.770 14.024542
72.775 14.044833
72.780 13.742027
72.785 13.1551
72.790 12.634967
72.795 12.484743
72.800 12.049304
72.805 11.856297
72.810 11.418095
72.815 11.633057
72.820 12.466213
72.825 13.290343
72.830 13.545841
72.835 13.550926
72.840 13.61199
72.845 14.027123
72.850 14.00241
72.855 13.707992
72.860 13.319965
72.865 13.495249
72.870 13.994863
72.875 14.077148
72.880 14.00569
72.885 14.396354
72.890 14.228151
72.895 14.209934
72.900 14.096276
72.905 13.8794
72.910 13.669087
72.915 13.871765
72.920 13.866895
72.925 13.810062
72.930 13.758267
72.935 13.761527
72.940 13.945339
72.945 13.91354
72.950 13.630368
72.955 13.635437
72.960 13.507727
72.965 13.563209
72.970 13.412218
72.975 13.116663
72.980 13.012116
72.985 12.740355
72.990 12.661124
72.995 13.076552
73.000 12.778746
