!@!!GADDS PLOTSO FILE: Chi integration type
!@!!Title/SampleName: map-76
!@!!Comment: ?
!@!!User: Bruker Instrument Administrator
!@!!Site: University of Illinois Chicago
!@!!Frame: map-76_01_000.gfrm
!@!!Wavelengths    1.54184   1.54056   1.54439
!@!!Frame angles: 2Theta: 63.000 Omega: 50.000 Phi: 0.000 Chi: 90.000
!@!!Integration range: 2Theta: 53.000 to 73.000  Gamma: -105.000 to -75.000
!@!!Integration method: bin normalized
!@!N
!@!SS
!@!M
!@!L 0.0 0.0 0.0 0.0
!@!XDegrees
!@!YCounts
53.000 6.618302
53.005 6.530021
53.010 6.449247
53.015 6.594625
53.020 6.663371
53.025 7.246094
53.030 7.477877
53.035 7.266499
53.040 7.191955
53.045 6.900398
53.050 6.830645
53.055 6.931623
53.060 6.75697
53.065 6.76308
53.070 6.717929
53.075 6.852291
53.080 7.323882
53.085 7.826014
53.090 7.875216
53.095 8.095387
53.100 8.35027
53.105 8.662997
53.110 8.710541
53.115 8.836659
53.120 8.801826
53.125 8.653849
53.130 8.55376
53.135 8.30927
53.140 7.926646
53.145 8.082168
53.150 7.742017
53.155 7.555664
53.160 7.208494
53.165 7.299283
53.170 7.490906
53.175 7.940786
53.180 8.086974
53.185 8.261858
53.190 8.204915
53.195 8.391015
53.200 8.400684
53.205 8.454729
53.210 8.33092
53.215 7.95461
53.220 8.082933
53.225 8.504898
53.230 8.538432
53.235 8.483899
53.240 8.409848
53.245 8.29934
53.250 8.801291
53.255 8.761646
53.260 8.942421
53.265 8.873477
53.270 9.022522
53.275 9.337926
53.280 9.587542
53.285 9.643961
53.290 9.953188
53.295 9.874526
53.300 9.943285
53.305 9.789888
53.310 9.46431
53.315 9.023782
53.320 8.665062
53.325 8.302433
53.330 8.092487
53.335 8.204283
53.340 8.043756
53.345 8.034638
53.350 8.444396
53.355 8.451777
53.360 8.461574
53.365 8.536467
53.370 8.425902
53.375 8.906858
53.380 9.144847
53.385 8.845633
53.390 8.666957
53.395 8.468162
53.400 8.369653
53.405 8.385098
53.410 8.383451
53.415 8.247923
53.420 8.341284
53.425 8.480036
53.430 9.026299
53.435 9.339173
53.440 9.38475
53.445 9.16803
53.450 8.952803
53.455 8.960493
53.460 8.275101
53.465 7.847969
53.470 7.711347
53.475 7.637515
53.480 7.521767
53.485 7.874858
53.490 7.711271
53.495 8.488345
53.500 8.259227
53.505 8.182666
53.510 8.124526
53.515 7.565856
53.520 6.867246
53.525 6.804926
53.530 6.474155
53.535 6.687365
53.540 6.771215
53.545 6.955653
53.550 7.502534
53.555 7.796279
53.560 7.732581
53.565 7.653217
53.570 7.611112
53.575 7.527942
53.580 7.527377
53.585 7.400653
53.590 8.070842
53.595 8.638095
53.600 8.938824
53.605 9.060566
53.610 8.967207
53.615 8.997163
53.620 8.801083
53.625 8.40026
53.630 7.742652
53.635 7.333004
53.640 7.803782
53.645 8.3773
53.650 8.590966
53.655 9.018517
53.660 8.908591
53.665 9.007175
53.670 9.044888
53.675 8.572072
53.680 8.109223
53.685 7.75996
53.690 7.589154
53.695 7.709268
53.700 7.731612
53.705 7.857316
53.710 7.772444
53.715 8.047259
53.720 8.630669
53.725 8.891221
53.730 9.123747
53.735 9.462591
53.740 9.430233
53.745 9.581636
53.750 9.312009
53.755 9.05986
53.760 8.877791
53.765 8.729835
53.770 8.413245
53.775 8.338527
53.780 8.360426
53.785 8.164619
53.790 7.637988
53.795 7.666023
53.800 7.872744
53.805 7.995826
53.810 7.93468
53.815 8.198844
53.820 8.694753
53.825 8.835988
53.830 8.802502
53.835 8.671698
53.840 9.018648
53.845 9.029822
53.850 8.634312
53.855 8.795076
53.860 9.269891
53.865 9.76777
53.870 10.033049
53.875 9.707239
53.880 9.684329
53.885 9.758679
53.890 9.39176
53.895 8.913543
53.900 8.245729
53.905 7.942155
53.910 8.389549
53.915 8.541567
53.920 8.498521
53.925 8.60547
53.930 8.998228
53.935 9.15601
53.940 8.989186
53.945 8.946054
53.950 9.069668
53.955 9.254024
53.960 9.436377
53.965 9.583044
53.970 9.628572
53.975 9.954877
53.980 9.907579
53.985 10.143605
53.990 9.855755
53.995 9.390615
54.000 9.164094
54.005 9.123115
54.010 9.064532
54.015 8.731379
54.020 8.343293
54.025 9.036236
54.030 9.57835
54.035 9.837083
54.040 9.759818
54.045 10.035367
54.050 9.951661
54.055 9.877659
54.060 9.41808
54.065 8.969438
54.070 8.40029
54.075 7.872383
54.080 7.377715
54.085 7.348357
54.090 7.516943
54.095 7.910812
54.100 8.425135
54.105 9.004359
54.110 9.264445
54.115 9.329601
54.120 9.465414
54.125 9.135726
54.130 8.497191
54.135 8.344531
54.140 7.890002
54.145 8.484393
54.150 8.813301
54.155 9.260715
54.160 9.972396
54.165 10.30493
54.170 10.257335
54.175 10.684118
54.180 10.006705
54.185 9.585342
54.190 9.562911
54.195 9.280224
54.200 8.831355
54.205 8.776686
54.210 8.826407
54.215 9.288421
54.220 9.694878
54.225 9.451395
54.230 9.891357
54.235 10.488572
54.240 10.580229
54.245 10.793429
54.250 10.807568
54.255 10.664519
54.260 10.516135
54.265 10.223816
54.270 10.457513
54.275 10.513653
54.280 10.20695
54.285 10.488578
54.290 10.701128
54.295 10.918635
54.300 10.692325
54.305 10.588037
54.310 10.607601
54.315 10.314802
54.320 10.164255
54.325 9.836561
54.330 9.837082
54.335 10.130497
54.340 9.920407
54.345 10.240053
54.350 10.01678
54.355 9.773649
54.360 9.503117
54.365 9.076401
54.370 8.415829
54.375 8.177429
54.380 7.72323
54.385 7.785091
54.390 8.132957
54.395 9.177551
54.400 9.985641
54.405 10.422207
54.410 10.372548
54.415 10.633301
54.420 10.765313
54.425 10.277382
54.430 9.802111
54.435 10.56601
54.440 11.332335
54.445 11.415965
54.450 11.291322
54.455 11.086321
54.460 11.160546
54.465 10.757573
54.470 10.136799
54.475 10.185154
54.480 10.408822
54.485 10.549089
54.490 10.226798
54.495 10.007415
54.500 10.04173
54.505 9.405602
54.510 8.876436
54.515 8.87859
54.520 8.500816
54.525 8.871965
54.530 8.670986
54.535 8.422828
54.540 8.251921
54.545 8.466343
54.550 8.662933
54.555 9.303922
54.560 9.408417
54.565 9.441323
54.570 9.725304
54.575 10.010406
54.580 9.999737
54.585 10.258035
54.590 10.48295
54.595 10.674881
54.600 10.777797
54.605 10.812011
54.610 10.539608
54.615 10.403833
54.620 10.064468
54.625 9.594276
54.630 9.610811
54.635 9.513616
54.640 9.05908
54.645 8.95054
54.650 8.61256
54.655 8.653893
54.660 8.542923
54.665 8.342414
54.670 8.54516
54.675 9.58341
54.680 9.986069
54.685 9.89062
54.690 10.190766
54.695 10.582855
54.700 10.616067
54.705 10.240279
54.710 9.911696
54.715 10.138002
54.720 10.307331
54.725 10.030181
54.730 9.616697
54.735 9.557841
54.740 9.517375
54.745 9.252094
54.750 9.322633
54.755 9.637537
54.760 9.937197
54.765 10.60987
54.770 11.075769
54.775 11.536623
54.780 11.599162
54.785 11.342864
54.790 11.180089
54.795 11.094102
54.800 10.91166
54.805 10.867894
54.810 10.8352
54.815 11.220728
54.820 11.499806
54.825 11.809336
54.830 11.899059
54.835 11.782306
54.840 11.505498
54.845 11.305138
54.850 11.020523
54.855 10.684242
54.860 10.202215
54.865 10.184043
54.870 10.562899
54.875 10.719042
54.880 10.517501
54.885 10.785112
54.890 11.038219
54.895 11.145085
54.900 10.976695
54.905 10.766867
54.910 10.77439
54.915 10.922618
54.920 10.96876
54.925 10.972569
54.930 10.809003
54.935 10.699281
54.940 10.579329
54.945 10.795794
54.950 10.423673
54.955 9.881626
54.960 9.511809
54.965 9.34859
54.970 9.228438
54.975 9.041403
54.980 8.985463
54.985 9.220901
54.990 9.665451
54.995 10.178051
55.000 10.23999
55.005 10.318667
55.010 9.941357
55.015 9.507669
55.020 9.166333
55.025 8.913014
55.030 8.58944
55.035 8.948716
55.040 9.033134
55.045 9.548966
55.050 9.824743
55.055 9.988733
55.060 10.380808
55.065 9.957449
55.070 10.197647
55.075 10.154985
55.080 10.185254
55.085 10.637077
55.090 10.649057
55.095 11.100212
55.100 11.624172
55.105 11.411942
55.110 11.475333
55.115 11.171193
55.120 11.398008
55.125 11.53546
55.130 10.771586
55.135 10.271067
55.140 10.491599
55.145 10.677272
55.150 10.494778
55.155 10.228647
55.160 10.191115
55.165 10.513203
55.170 10.800077
55.175 10.585583
55.180 10.712708
55.185 10.601544
55.190 10.829188
55.195 10.765924
55.200 10.861199
55.205 10.361248
55.210 10.509801
55.215 10.404286
55.220 10.734654
55.225 11.085997
55.230 11.283648
55.235 10.807007
55.240 10.92059
55.245 11.137097
55.250 11.74214
55.255 11.02538
55.260 10.553092
55.265 10.974502
55.270 11.507275
55.275 11.580734
55.280 11.272612
55.285 11.209929
55.290 11.238709
55.295 10.650883
55.300 9.970711
55.305 9.707399
55.310 9.744603
55.315 9.598674
55.320 9.49358
55.325 9.474115
55.330 10.044424
55.335 9.967939
55.340 10.484057
55.345 10.389008
55.350 10.411952
55.355 10.96077
55.360 11.433196
55.365 11.089062
55.370 11.32957
55.375 11.012284
55.380 11.471334
55.385 11.294396
55.390 10.911617
55.395 10.493484
55.400 10.369972
55.405 10.489713
55.410 10.756751
55.415 10.916366
55.420 10.774018
55.425 11.105116
55.430 11.168986
55.435 11.218753
55.440 10.708218
55.445 10.274806
55.450 9.766182
55.455 9.778267
55.460 9.24006
55.465 9.497574
55.470 9.53746
55.475 9.326301
55.480 8.889384
55.485 8.777074
55.490 8.842233
55.495 9.248966
55.500 8.943302
55.505 9.01493
55.510 9.751008
55.515 10.168521
55.520 10.140415
55.525 9.933521
55.530 10.054529
55.535 10.336054
55.540 10.429239
55.545 10.453638
55.550 10.618905
55.555 11.204701
55.560 11.301008
55.565 10.886166
55.570 10.876234
55.575 10.916454
55.580 10.390148
55.585 10.263026
55.590 9.805971
55.595 10.042471
55.600 10.334435
55.605 10.338336
55.610 10.435511
55.615 10.467927
55.620 10.568445
55.625 10.920404
55.630 10.901763
55.635 11.13711
55.640 10.955518
55.645 10.930782
55.650 11.01888
55.655 10.960382
55.660 10.776897
55.665 10.715452
55.670 10.44124
55.675 10.306081
55.680 10.518693
55.685 10.688263
55.690 10.73129
55.695 10.96942
55.700 11.242355
55.705 11.994146
55.710 12.161487
55.715 12.248857
55.720 12.263438
55.725 11.92286
55.730 11.354802
55.735 10.897417
55.740 10.336471
55.745 9.989141
55.750 9.915828
55.755 10.085002
55.760 10.225246
55.765 10.658494
55.770 10.629706
55.775 10.951874
55.780 11.601442
55.785 11.744433
55.790 11.739233
55.795 11.481514
55.800 11.207872
55.805 10.992805
55.810 10.647164
55.815 10.3536
55.820 10.473273
55.825 10.906792
55.830 11.283919
55.835 11.864252
55.840 12.429781
55.845 12.987079
55.850 12.979088
55.855 12.589225
55.860 12.2643
55.865 12.14083
55.870 11.944449
55.875 11.801401
55.880 11.455576
55.885 11.463684
55.890 11.475295
55.895 11.449642
55.900 11.837269
55.905 12.038808
55.910 11.402385
55.915 11.570827
55.920 11.450933
55.925 11.611771
55.930 12.236918
55.935 12.170138
55.940 12.590914
55.945 12.955215
55.950 13.198605
55.955 13.577948
55.960 13.269666
55.965 12.712675
55.970 12.11218
55.975 11.644947
55.980 11.409117
55.985 10.939391
55.990 10.758472
55.995 11.25913
56.000 11.448863
56.005 11.619086
56.010 11.71074
56.015 12.124479
56.020 12.421428
56.025 12.221662
56.030 11.665138
56.035 11.466316
56.040 11.593452
56.045 11.411689
56.050 10.666017
56.055 10.022162
56.060 10.069371
56.065 10.033147
56.070 9.894729
56.075 9.897273
56.080 10.168228
56.085 10.296522
56.090 10.570988
56.095 10.52757
56.100 10.224686
56.105 9.874181
56.110 9.763174
56.115 9.923729
56.120 10.145368
56.125 10.200342
56.130 10.597711
56.135 11.075664
56.140 11.238238
56.145 11.2935
56.150 11.694174
56.155 12.246722
56.160 12.143631
56.165 11.990582
56.170 12.302454
56.175 12.083695
56.180 11.95742
56.185 11.717302
56.190 11.296731
56.195 11.464128
56.200 11.588623
56.205 11.55768
56.210 11.745107
56.215 11.351237
56.220 11.576599
56.225 11.823013
56.230 11.822517
56.235 12.306354
56.240 12.903811
56.245 13.348529
56.250 13.244152
56.255 13.021023
56.260 12.769068
56.265 12.596581
56.270 11.575327
56.275 11.104162
56.280 10.763765
56.285 10.70192
56.290 10.762162
56.295 11.254207
56.300 11.673918
56.305 12.565269
56.310 12.595092
56.315 12.801325
56.320 12.440413
56.325 12.631394
56.330 12.281777
56.335 11.902077
56.340 11.432506
56.345 11.638659
56.350 12.067914
56.355 12.204888
56.360 11.380342
56.365 10.948715
56.370 10.997071
56.375 10.683198
56.380 10.305464
56.385 9.950009
56.390 10.729501
56.395 11.722379
56.400 12.240196
56.405 12.387341
56.410 12.127299
56.415 11.825968
56.420 11.886931
56.425 11.527023
56.430 11.300541
56.435 11.20936
56.440 10.947136
56.445 11.458691
56.450 11.629197
56.455 11.472698
56.460 11.698012
56.465 11.63341
56.470 11.772418
56.475 12.032378
56.480 12.048306
56.485 12.452213
56.490 13.340652
56.495 13.35633
56.500 13.061712
56.505 12.998612
56.510 13.182615
56.515 13.553682
56.520 13.321258
56.525 12.204782
56.530 11.88571
56.535 12.021266
56.540 12.348342
56.545 12.567428
56.550 12.674853
56.555 12.725242
56.560 13.148286
56.565 13.108731
56.570 13.325549
56.575 12.90187
56.580 12.297068
56.585 12.128592
56.590 11.964719
56.595 11.750392
56.600 11.695914
56.605 11.454181
56.610 11.487241
56.615 11.447492
56.620 11.063184
56.625 11.723397
56.630 11.745901
56.635 11.443097
56.640 11.304935
56.645 11.191734
56.650 11.445905
56.655 11.723743
56.660 11.563993
56.665 11.609221
56.670 11.873627
56.675 12.068782
56.680 12.013996
56.685 11.751919
56.690 11.827596
56.695 11.420854
56.700 11.560479
56.705 11.51674
56.710 11.758787
56.715 12.314703
56.720 12.500243
56.725 12.483597
56.730 13.0508
56.735 13.398911
56.740 13.605562
56.745 13.105469
56.750 12.555535
56.755 12.339735
56.760 12.458932
56.765 12.555074
56.770 12.392716
56.775 12.283159
56.780 12.349651
56.785 12.615645
56.790 12.968912
56.795 13.126414
56.800 12.94428
56.805 13.112521
56.810 13.092736
56.815 12.947591
56.820 12.988928
56.825 12.83622
56.830 12.281299
56.835 12.655698
56.840 12.486993
56.845 12.607245
56.850 12.872242
56.855 12.515136
56.860 12.054784
56.865 12.154121
56.870 12.083963
56.875 11.98243
56.880 12.220608
56.885 12.292801
56.890 12.659254
56.895 12.974621
56.900 12.63664
56.905 12.24302
56.910 12.460232
56.915 12.200256
56.920 12.258451
56.925 11.893579
56.930 12.182139
56.935 12.811145
56.940 13.08159
56.945 12.922449
56.950 13.517203
56.955 13.625319
56.960 13.567549
56.965 13.284215
56.970 13.028774
56.975 13.253028
56.980 13.234604
56.985 12.976346
56.990 12.89895
56.995 13.12024
57.000 12.773649
57.005 13.014659
57.010 13.250201
57.015 13.542319
57.020 13.143248
57.025 12.921648
57.030 12.887157
57.035 13.136468
57.040 12.769693
57.045 12.367476
57.050 12.202025
57.055 12.141238
57.060 12.152748
57.065 12.201787
57.070 12.362467
57.075 12.489736
57.080 12.610952
57.085 12.509148
57.090 12.646557
57.095 13.13033
57.100 13.590063
57.105 13.434155
57.110 13.557311
57.115 13.366855
57.120 13.236817
57.125 13.206889
57.130 12.716519
57.135 12.341959
57.140 11.638926
57.145 11.254745
57.150 11.037935
57.155 11.274146
57.160 11.498031
57.165 11.310034
57.170 11.222083
57.175 11.555412
57.180 11.733522
57.185 12.019829
57.190 12.342026
57.195 12.823433
57.200 13.569613
57.205 13.96013
57.210 14.004399
57.215 13.88036
57.220 13.470808
57.225 12.712247
57.230 11.981859
57.235 11.565527
57.240 11.740369
57.245 12.94371
57.250 13.021613
57.255 13.430638
57.260 13.75303
57.265 13.957405
57.270 14.156472
57.275 13.30829
57.280 11.772697
57.285 12.137417
57.290 12.301141
57.295 12.229467
57.300 12.135715
57.305 11.897492
57.310 12.247341
57.315 13.123202
57.320 12.846501
57.325 12.823823
57.330 13.016398
57.335 13.219939
57.340 13.095115
57.345 12.788267
57.350 11.985022
57.355 11.959217
57.360 12.3798
57.365 12.117987
57.370 11.471483
57.375 11.807837
57.380 12.431502
57.385 12.963451
57.390 13.023174
57.395 12.962505
57.400 13.121451
57.405 13.566689
57.410 13.857096
57.415 14.013438
57.420 14.045529
57.425 14.142254
57.430 13.995052
57.435 14.092025
57.440 13.731196
57.445 13.177559
57.450 13.221312
57.455 13.417438
57.460 13.534431
57.465 13.786915
57.470 13.96723
57.475 14.098366
57.480 14.357186
57.485 14.012299
57.490 13.452868
57.495 12.837518
57.500 12.124145
57.505 12.075839
57.510 12.379334
57.515 12.482656
57.520 12.932727
57.525 12.77122
57.530 12.553573
57.535 12.505373
57.540 12.542463
57.545 12.410417
57.550 12.141412
57.555 12.255637
57.560 13.111926
57.565 13.706163
57.570 13.826753
57.575 14.070804
57.580 14.685071
57.585 14.733373
57.590 14.725545
57.595 14.349657
57.600 14.1812
57.605 14.609241
57.610 14.660898
57.615 13.878484
57.620 13.826959
57.625 13.632909
57.630 13.694901
57.635 13.731886
57.640 13.475817
57.645 13.01894
57.650 13.245686
57.655 13.435537
57.660 13.334247
57.665 13.267286
57.670 13.267745
57.675 13.381021
57.680 13.840057
57.685 14.254136
57.690 14.277349
57.695 14.425642
57.700 14.405806
57.705 14.319564
57.710 13.918224
57.715 13.14421
57.720 12.635
57.725 12.595641
57.730 12.956031
57.735 13.004134
57.740 13.346275
57.745 13.796887
57.750 14.339767
57.755 14.398023
57.760 14.019788
57.765 14.102069
57.770 13.837588
57.775 13.493994
57.780 13.558496
57.785 13.496835
57.790 13.742183
57.795 14.109455
57.800 13.969163
57.805 14.275617
57.810 14.919199
57.815 14.912459
57.820 14.543848
57.825 14.091915
57.830 13.378594
57.835 13.596755
57.840 13.52147
57.845 13.67828
57.850 13.693439
57.855 14.243357
57.860 14.800415
57.865 14.971522
57.870 14.707311
57.875 14.354512
57.880 13.647931
57.885 13.829314
57.890 13.76911
57.895 13.505742
57.900 13.852733
57.905 13.853819
57.910 14.134441
57.915 14.472482
57.920 14.412164
57.925 14.168863
57.930 14.568974
57.935 14.787101
57.940 14.605682
57.945 14.559122
57.950 14.431108
57.955 14.785275
57.960 14.92442
57.965 14.643426
57.970 14.016578
57.975 13.815701
57.980 13.783468
57.985 13.594023
57.990 13.180343
57.995 13.106744
58.000 13.278371
58.005 13.563482
58.010 13.67804
58.015 13.80455
58.020 13.522776
58.025 13.533835
58.030 13.341657
58.035 13.155731
58.040 13.439484
58.045 13.170165
58.050 12.63256
58.055 12.708689
58.060 12.679924
58.065 12.795942
58.070 12.865189
58.075 12.674629
58.080 13.110109
58.085 13.413431
58.090 13.579115
58.095 13.9164
58.100 14.30722
58.105 14.434178
58.110 14.565015
58.115 14.622993
58.120 14.710052
58.125 14.556206
58.130 14.027908
58.135 13.571671
58.140 13.417776
58.145 12.980692
58.150 12.678087
58.155 12.66698
58.160 13.221018
58.165 13.583944
58.170 13.580018
58.175 13.603263
58.180 13.48131
58.185 13.433459
58.190 13.137297
58.195 12.765663
58.200 12.589739
58.205 12.666175
58.210 13.056254
58.215 13.745173
58.220 14.414687
58.225 14.796308
58.230 14.966722
58.235 15.273058
58.240 15.235891
58.245 15.812087
58.250 15.609596
58.255 15.335208
58.260 15.044761
58.265 14.709216
58.270 14.377855
58.275 14.141773
58.280 13.537052
58.285 13.96376
58.290 14.018619
58.295 14.289918
58.300 14.908062
58.305 15.325375
58.310 15.361549
58.315 15.296535
58.320 14.907508
58.325 14.809716
58.330 15.013153
58.335 15.013203
58.340 14.895259
58.345 14.683057
58.350 14.405219
58.355 14.39852
58.360 14.315474
58.365 14.105971
58.370 13.842952
58.375 13.701155
58.380 14.018429
58.385 14.454347
58.390 14.16908
58.395 13.720219
58.400 13.810514
58.405 13.762535
58.410 13.84707
58.415 13.852522
58.420 13.92117
58.425 14.57506
58.430 15.696766
58.435 15.71565
58.440 16.124136
58.445 16.322763
58.450 15.938231
58.455 15.600841
58.460 15.214061
58.465 14.339892
58.470 14.488521
58.475 14.145916
58.480 14.581661
58.485 14.844847
58.490 15.317408
58.495 15.736367
58.500 15.609715
58.505 15.754747
58.510 15.487576
58.515 15.010518
58.520 15.152413
58.525 15.059488
58.530 15.280667
58.535 15.357721
58.540 15.491817
58.545 16.466061
58.550 16.536125
58.555 15.693094
58.560 15.248623
58.565 15.469054
58.570 15.95704
58.575 15.295953
58.580 14.71031
58.585 15.135202
58.590 16.028494
58.595 16.280796
58.600 15.746552
58.605 15.817454
58.610 15.922186
58.615 15.597838
58.620 15.326133
58.625 15.380052
58.630 15.641369
58.635 15.524547
58.640 15.647229
58.645 16.060284
58.650 16.66573
58.655 16.769808
58.660 16.943336
58.665 16.772614
58.670 16.526169
58.675 16.421265
58.680 16.342854
58.685 16.148825
58.690 16.165165
58.695 16.136856
58.700 16.268229
58.705 16.784908
58.710 16.734684
58.715 16.697237
58.720 16.227957
58.725 16.0893
58.730 15.849494
58.735 15.724841
58.740 15.922912
58.745 15.775222
58.750 15.730256
58.755 15.752608
58.760 15.943652
58.765 16.348642
58.770 16.713133
58.775 16.507135
58.780 16.487534
58.785 16.370661
58.790 16.622082
58.795 16.7544
58.800 16.74349
58.805 16.75749
58.810 16.985884
58.815 17.01659
58.820 17.24996
58.825 17.440855
58.830 17.049892
58.835 16.591103
58.840 16.037962
58.845 15.787946
58.850 16.048433
58.855 15.946056
58.860 15.988366
58.865 15.986404
58.870 15.777218
58.875 15.82778
58.880 15.532313
58.885 15.443101
58.890 15.339044
58.895 15.227592
58.900 15.565429
58.905 15.823951
58.910 15.552828
58.915 16.30278
58.920 15.958511
58.925 15.97249
58.930 16.05278
58.935 15.565965
58.940 16.201359
58.945 16.734274
58.950 16.644262
58.955 16.822054
58.960 16.576761
58.965 16.355841
58.970 16.806074
58.975 16.40263
58.980 16.396391
58.985 16.407185
58.990 16.732069
58.995 17.122665
59.000 17.287552
59.005 17.153959
59.010 16.951435
59.015 16.829954
59.020 16.455515
59.025 16.675499
59.030 16.46855
59.035 16.398394
59.040 16.612526
59.045 17.455553
59.050 17.887577
59.055 18.367279
59.060 18.065968
59.065 18.191893
59.070 18.146891
59.075 18.102875
59.080 17.936783
59.085 17.983505
59.090 17.058695
59.095 16.865175
59.100 16.897081
59.105 17.014786
59.110 16.794662
59.115 16.099577
59.120 15.812047
59.125 15.950807
59.130 15.744857
59.135 15.812728
59.140 15.953088
59.145 16.041168
59.150 15.998261
59.155 16.117119
59.160 17.088449
59.165 17.819141
59.170 18.432489
59.175 18.316439
59.180 17.97644
59.185 18.009739
59.190 18.059088
59.195 17.849705
59.200 17.255724
59.205 16.627689
59.210 17.189383
59.215 17.6134
59.220 17.61882
59.225 16.902969
59.230 16.468311
59.235 16.40555
59.240 16.169943
59.245 15.819014
59.250 14.947083
59.255 14.401727
59.260 14.842939
59.265 15.108952
59.270 15.1455
59.275 15.417439
59.280 15.599268
59.285 16.809759
59.290 17.509418
59.295 17.440397
59.300 17.599611
59.305 17.502874
59.310 17.703127
59.315 17.434462
59.320 17.158966
59.325 17.12623
59.330 17.303835
59.335 17.390377
59.340 17.87985
59.345 17.678223
59.350 17.157183
59.355 16.947563
59.360 16.79867
59.365 16.32114
59.370 16.63196
59.375 17.004631
59.380 17.387724
59.385 17.865082
59.390 17.87974
59.395 17.890257
59.400 18.223005
59.405 17.335703
59.410 17.15217
59.415 17.025406
59.420 17.292637
59.425 17.941214
59.430 17.872541
59.435 17.931755
59.440 18.324024
59.445 18.417322
59.450 18.614531
59.455 18.686707
59.460 18.849674
59.465 19.330463
59.470 19.126551
59.475 18.843946
59.480 18.698294
59.485 18.866774
59.490 19.436724
59.495 19.254608
59.500 19.711075
59.505 20.037436
59.510 19.783529
59.515 19.381889
59.520 18.842394
59.525 17.893883
59.530 17.665346
59.535 17.380018
59.540 17.352053
59.545 17.73583
59.550 18.098352
59.555 18.393101
59.560 18.948503
59.565 18.523499
59.570 18.127274
59.575 18.426262
59.580 18.3258
59.585 17.935444
59.590 17.9517
59.595 18.641785
59.600 19.203489
59.605 19.132296
59.610 18.156
59.615 17.88419
59.620 18.283604
59.625 17.730465
59.630 17.099525
59.635 16.944998
59.640 17.27372
59.645 17.831202
59.650 17.901861
59.655 18.631634
59.660 19.10899
59.665 18.536459
59.670 18.4533
59.675 18.401983
59.680 18.628582
59.685 19.373838
59.690 18.774473
59.695 18.727236
59.700 19.379831
59.705 19.77829
59.710 20.036497
59.715 20.085331
59.720 19.465649
59.725 19.496649
59.730 19.780958
59.735 19.63859
59.740 19.407421
59.745 19.467136
59.750 19.653006
59.755 19.614494
59.760 19.898907
59.765 20.007166
59.770 20.4035
59.775 20.484306
59.780 20.246983
59.785 20.205259
59.790 20.154327
59.795 19.905767
59.800 20.214586
59.805 20.344444
59.810 20.402206
59.815 20.432589
59.820 19.841085
59.825 19.955719
59.830 19.666065
59.835 18.895266
59.840 18.424856
59.845 18.209723
59.850 17.943077
59.855 18.19434
59.860 18.341377
59.865 18.299534
59.870 18.272694
59.875 17.835047
59.880 17.559616
59.885 18.190382
59.890 18.123659
59.895 17.827871
59.900 18.483505
59.905 18.782679
59.910 19.380013
59.915 19.34973
59.920 19.106745
59.925 19.150324
59.930 18.563833
59.935 18.234589
59.940 18.261658
59.945 17.95701
59.950 18.245245
59.955 18.870083
59.960 19.720737
59.965 20.219894
59.970 19.976374
59.975 19.410261
59.980 19.223484
59.985 19.125246
59.990 18.679871
59.995 17.872282
60.000 17.680609
60.005 18.325897
60.010 19.069578
60.015 19.167765
60.020 19.004971
60.025 18.832499
60.030 18.964687
60.035 19.377666
60.040 19.033979
60.045 19.27932
60.050 19.561895
60.055 19.737688
60.060 19.526697
60.065 20.084885
60.070 19.479725
60.075 18.855518
60.080 18.26903
60.085 17.825417
60.090 18.301554
60.095 19.330561
60.100 19.395523
60.105 19.980715
60.110 20.316072
60.115 20.858177
60.120 21.588348
60.125 20.760643
60.130 19.712975
60.135 19.348427
60.140 19.773903
60.145 20.411945
60.150 20.023762
60.155 19.32324
60.160 19.433802
60.165 19.519297
60.170 19.928883
60.175 19.812479
60.180 19.120951
60.185 19.081333
60.190 19.112734
60.195 19.119152
60.200 19.172188
60.205 19.113924
60.210 18.641655
60.215 19.287701
60.220 19.800318
60.225 20.488579
60.230 21.244629
60.235 21.028948
60.240 20.521837
60.245 20.423306
60.250 19.9655
60.255 19.647644
60.260 19.066498
60.265 18.539534
60.270 18.528292
60.275 18.814043
60.280 19.202536
60.285 19.643747
60.290 20.363422
60.295 20.239393
60.300 19.9816
60.305 19.990553
60.310 19.8708
60.315 19.561069
60.320 19.034452
60.325 18.332891
60.330 18.367718
60.335 17.991381
60.340 18.13908
60.345 18.28791
60.350 17.989857
60.355 17.863626
60.360 17.956499
60.365 18.45277
60.370 18.964233
60.375 18.806627
60.380 19.072281
60.385 19.443823
60.390 19.627977
60.395 19.738787
60.400 19.538038
60.405 19.276854
60.410 18.990093
60.415 18.695869
60.420 18.619278
60.425 18.660477
60.430 18.244642
60.435 17.973104
60.440 18.427404
60.445 18.405771
60.450 18.099501
60.455 17.767544
60.460 17.348888
60.465 17.475639
60.470 18.515858
60.475 18.896147
60.480 19.492426
60.485 19.518044
60.490 19.527447
60.495 19.446791
60.500 19.736307
60.505 19.17238
60.510 18.829317
60.515 18.673018
60.520 19.075285
60.525 19.684254
60.530 20.104473
60.535 19.801353
60.540 20.209444
60.545 20.593727
60.550 20.273609
60.555 20.31901
60.560 20.208973
60.565 20.00219
60.570 19.790674
60.575 19.30722
60.580 18.976444
60.585 19.556997
60.590 19.674822
60.595 19.843636
60.600 20.316162
60.605 20.95986
60.610 20.725843
60.615 20.701855
60.620 20.231083
60.625 20.35006
60.630 20.168104
60.635 19.459427
60.640 18.710314
60.645 18.797031
60.650 18.381407
60.655 18.295462
60.660 17.976086
60.665 17.548912
60.670 17.708235
60.675 17.960958
60.680 17.785437
60.685 18.091599
60.690 18.04804
60.695 18.037951
60.700 17.787249
60.705 17.846926
60.710 17.478369
60.715 17.619631
60.720 17.339182
60.725 17.367733
60.730 17.222389
60.735 17.419857
60.740 17.283009
60.745 17.244198
60.750 17.255358
60.755 17.621288
60.760 17.567776
60.765 17.852282
60.770 17.976692
60.775 17.959467
60.780 17.793547
60.785 17.658251
60.790 17.478149
60.795 17.352522
60.800 17.1327
60.805 16.930273
60.810 17.533323
60.815 17.981939
60.820 18.114029
60.825 18.323944
60.830 18.098248
60.835 17.761986
60.840 17.740152
60.845 16.970556
60.850 16.5411
60.855 16.514549
60.860 16.117403
60.865 16.007698
60.870 16.341574
60.875 16.41634
60.880 16.601812
60.885 16.775244
60.890 15.94873
60.895 15.58978
60.900 15.628185
60.905 15.276687
60.910 15.472253
60.915 15.079126
60.920 15.304072
60.925 16.277296
60.930 16.983109
60.935 17.302128
60.940 17.112232
60.945 16.675863
60.950 16.706017
60.955 16.055265
60.960 15.250567
60.965 14.820608
60.970 14.738922
60.975 15.275149
60.980 16.080799
60.985 16.635441
60.990 16.502584
60.995 16.543285
61.000 16.211033
61.005 15.79505
61.010 15.888667
61.015 15.124537
61.020 14.506668
61.025 14.545061
61.030 14.200824
61.035 15.064678
61.040 15.707796
61.045 15.50533
61.050 15.655269
61.055 15.624196
61.060 15.702435
61.065 15.815466
61.070 15.302442
61.075 15.211757
61.080 15.327097
61.085 15.299833
61.090 15.797765
61.095 16.15254
61.100 15.74237
61.105 15.545219
61.110 15.122803
61.115 14.866354
61.120 14.774454
61.125 14.416622
61.130 14.581916
61.135 15.277748
61.140 15.677896
61.145 15.959924
61.150 16.313019
61.155 16.982386
61.160 17.839375
61.165 17.808939
61.170 17.641678
61.175 17.522585
61.180 17.812431
61.185 17.650322
61.190 17.056503
61.195 16.599373
61.200 17.290739
61.205 17.658003
61.210 17.918766
61.215 17.421795
61.220 17.667271
61.225 18.12418
61.230 18.098892
61.235 17.606972
61.240 17.156837
61.245 16.858343
61.250 17.15974
61.255 17.100294
61.260 16.76782
61.265 16.995762
61.270 17.232613
61.275 17.453278
61.280 17.767052
61.285 17.485643
61.290 17.0923
61.295 16.699245
61.300 16.40093
61.305 16.53776
61.310 16.365879
61.315 16.039434
61.320 15.824151
61.325 15.642937
61.330 15.088469
61.335 14.73377
61.340 14.024467
61.345 14.46396
61.350 14.673812
61.355 15.088631
61.360 15.520476
61.365 15.812763
61.370 15.830657
61.375 15.865539
61.380 15.383919
61.385 15.295877
61.390 15.367577
61.395 15.772136
61.400 15.825092
61.405 16.145958
61.410 15.949019
61.415 15.709111
61.420 15.61799
61.425 14.756897
61.430 14.245902
61.435 14.212387
61.440 14.185128
61.445 14.894427
61.450 14.871903
61.455 15.181422
61.460 15.843462
61.465 15.915724
61.470 16.032045
61.475 16.1924
61.480 16.580156
61.485 16.56641
61.490 16.501833
61.495 16.561478
61.500 16.430677
61.505 16.765591
61.510 16.138527
61.515 15.54951
61.520 15.728048
61.525 15.95173
61.530 16.576977
61.535 17.319187
61.540 17.512619
61.545 18.192144
61.550 18.095654
61.555 18.218561
61.560 17.895388
61.565 17.587013
61.570 17.371639
61.575 16.964821
61.580 17.022882
61.585 17.560326
61.590 17.394184
61.595 17.063419
61.600 16.883171
61.605 16.913731
61.610 16.595884
61.615 15.990899
61.620 15.895057
61.625 16.002737
61.630 16.421419
61.635 16.50104
61.640 16.432798
61.645 16.497013
61.650 16.791302
61.655 16.527712
61.660 17.048025
61.665 17.065529
61.670 17.34844
61.675 17.059555
61.680 17.025444
61.685 16.591545
61.690 16.536293
61.695 16.450291
61.700 15.951477
61.705 15.469094
61.710 15.647611
61.715 15.676141
61.720 15.52284
61.725 14.957952
61.730 14.660542
61.735 14.683349
61.740 14.941386
61.745 14.872245
61.750 15.145247
61.755 15.401626
61.760 15.933903
61.765 16.083172
61.770 16.552061
61.775 16.387314
61.780 16.394829
61.785 16.518305
61.790 16.889229
61.795 17.183117
61.800 17.06028
61.805 16.984615
61.810 16.800251
61.815 16.383385
61.820 16.153378
61.825 15.991362
61.830 16.021957
61.835 15.689627
61.840 15.701727
61.845 16.103319
61.850 16.113062
61.855 16.251932
61.860 16.394596
61.865 16.380358
61.870 16.519123
61.875 16.22904
61.880 16.442621
61.885 16.876118
61.890 16.92663
61.895 16.962019
61.900 16.996552
61.905 16.994547
61.910 16.798883
61.915 16.373262
61.920 16.125923
61.925 15.494864
61.930 14.817073
61.935 14.912426
61.940 15.051805
61.945 15.177798
61.950 15.002995
61.955 14.837054
61.960 15.255565
61.965 15.065916
61.970 14.701866
61.975 14.739641
61.980 14.199289
61.985 14.42626
61.990 14.714729
61.995 14.967861
62.000 15.409084
62.005 15.641763
62.010 15.712103
62.015 16.412548
62.020 16.430851
62.025 16.345749
62.030 15.723253
62.035 15.835176
62.040 15.661335
62.045 15.604394
62.050 15.489424
62.055 15.743648
62.060 15.429527
62.065 15.784541
62.070 15.513305
62.075 15.669497
62.080 16.028379
62.085 16.454651
62.090 16.48214
62.095 16.253506
62.100 15.876936
62.105 15.669623
62.110 15.335423
62.115 14.975429
62.120 14.958278
62.125 15.178075
62.130 15.55792
62.135 15.893524
62.140 15.771402
62.145 15.706369
62.150 16.094282
62.155 16.23682
62.160 16.186632
62.165 16.777859
62.170 16.774294
62.175 17.015759
62.180 16.98308
62.185 16.874353
62.190 16.410526
62.195 16.329096
62.200 16.133717
62.205 16.235065
62.210 16.427477
62.215 16.326927
62.220 15.620828
62.225 15.96404
62.230 16.173769
62.235 16.25164
62.240 16.143915
62.245 16.053921
62.250 16.585369
62.255 16.987103
62.260 16.561989
62.265 16.393314
62.270 15.974944
62.275 15.684874
62.280 15.66566
62.285 16.017508
62.290 16.319242
62.295 16.29126
62.300 15.627669
62.305 15.692856
62.310 16.501411
62.315 17.15188
62.320 17.055506
62.325 17.06671
62.330 17.344244
62.335 18.094898
62.340 18.042824
62.345 17.412769
62.350 16.742582
62.355 16.260809
62.360 15.710629
62.365 15.588322
62.370 15.332119
62.375 15.813052
62.380 16.514059
62.385 16.856129
62.390 17.194887
62.395 17.741528
62.400 17.855625
62.405 17.810911
62.410 17.739899
62.415 17.376772
62.420 16.599314
62.425 16.096455
62.430 15.951929
62.435 16.212458
62.440 16.071957
62.445 15.391076
62.450 15.815412
62.455 16.684496
62.460 16.422827
62.465 16.459312
62.470 16.702063
62.475 16.881266
62.480 16.951883
62.485 16.224518
62.490 15.769634
62.495 16.181488
62.500 16.049673
62.505 15.402973
62.510 15.293104
62.515 15.434545
62.520 15.801827
62.525 16.200642
62.530 16.475225
62.535 16.499641
62.540 17.051903
62.545 17.317461
62.550 17.494402
62.555 17.489363
62.560 17.240505
62.565 17.09374
62.570 16.847553
62.575 16.740715
62.580 16.745068
62.585 16.08992
62.590 15.520994
62.595 15.254549
62.600 14.981693
62.605 15.110748
62.610 15.190503
62.615 15.095764
62.620 16.097137
62.625 16.359037
62.630 16.471424
62.635 16.723351
62.640 17.001352
62.645 16.895241
62.650 16.934525
62.655 16.367743
62.660 16.327753
62.665 16.246494
62.670 16.430698
62.675 16.698803
62.680 16.744396
62.685 17.205786
62.690 17.504745
62.695 17.328476
62.700 17.420097
62.705 17.341093
62.710 17.160063
62.715 16.720869
62.720 16.153555
62.725 15.570883
62.730 16.588947
62.735 17.100098
62.740 17.348814
62.745 17.508467
62.750 17.8106
62.755 18.284138
62.760 18.672686
62.765 17.762539
62.770 16.993015
62.775 16.247194
62.780 16.084152
62.785 15.735494
62.790 15.46951
62.795 15.310547
62.800 15.34257
62.805 15.917174
62.810 16.314373
62.815 15.639155
62.820 15.846819
62.825 15.738426
62.830 15.808919
62.835 15.362839
62.840 14.670492
62.845 14.126044
62.850 14.694658
62.855 15.190855
62.860 15.506731
62.865 15.516249
62.870 15.394218
62.875 15.546493
62.880 15.699241
62.885 15.711463
62.890 15.419254
62.895 15.289188
62.900 15.619818
62.905 16.135986
62.910 16.35239
62.915 16.401974
62.920 16.263723
62.925 16.139528
62.930 15.988514
62.935 15.836607
62.940 16.184486
62.945 16.75985
62.950 17.173441
62.955 17.227428
62.960 17.028492
62.965 17.300726
62.970 17.374012
62.975 17.428068
62.980 17.299957
62.985 17.187819
62.990 17.186329
62.995 17.561447
63.000 17.805355
63.005 17.542261
63.010 17.155172
63.015 16.512842
63.020 16.341782
63.025 16.404537
63.030 15.886628
63.035 15.460428
63.040 15.398113
63.045 15.575387
63.050 16.507607
63.055 16.494549
63.060 16.723335
63.065 17.106747
63.070 17.325336
63.075 17.056892
63.080 16.450846
63.085 15.93938
63.090 15.912883
63.095 15.678946
63.100 15.511544
63.105 15.3034
63.110 15.650249
63.115 16.260071
63.120 16.294708
63.125 15.963522
63.130 16.227421
63.135 16.443413
63.140 16.699001
63.145 17.044544
63.150 16.846519
63.155 16.91926
63.160 17.366943
63.165 17.410965
63.170 17.501745
63.175 18.146654
63.180 18.013601
63.185 17.719316
63.190 17.530035
63.195 17.668636
63.200 17.540382
63.205 17.010008
63.210 16.714277
63.215 17.181755
63.220 17.452894
63.225 17.266495
63.230 16.703079
63.235 16.546509
63.240 17.051199
63.245 16.683903
63.250 16.180861
63.255 16.100498
63.260 16.201416
63.265 16.339052
63.270 16.152992
63.275 16.161303
63.280 16.550903
63.285 16.840935
63.290 17.428356
63.295 17.564037
63.300 17.838957
63.305 18.220448
63.310 18.173298
63.315 17.958481
63.320 18.091848
63.325 17.805033
63.330 17.984699
63.335 17.830761
63.340 17.679363
63.345 17.187696
63.350 16.895279
63.355 16.847931
63.360 16.934647
63.365 16.898396
63.370 17.317026
63.375 17.439749
63.380 18.082621
63.385 18.188892
63.390 18.218657
63.395 18.065134
63.400 18.344906
63.405 18.098127
63.410 17.749342
63.415 17.689585
63.420 18.026781
63.425 18.232958
63.430 18.682013
63.435 18.166271
63.440 18.448589
63.445 18.698727
63.450 18.882824
63.455 18.755564
63.460 18.077328
63.465 17.677639
63.470 17.567385
63.475 17.255762
63.480 17.355293
63.485 17.544882
63.490 17.228638
63.495 17.307755
63.500 17.532597
63.505 17.692474
63.510 18.14674
63.515 18.238836
63.520 17.484156
63.525 17.391535
63.530 17.599123
63.535 17.608601
63.540 17.821507
63.545 17.852974
63.550 17.557095
63.555 17.951973
63.560 18.503899
63.565 18.149155
63.570 17.921576
63.575 17.565681
63.580 16.92651
63.585 16.828915
63.590 16.756126
63.595 16.354813
63.600 16.533398
63.605 16.729309
63.610 16.549391
63.615 16.991987
63.620 17.390114
63.625 17.405045
63.630 17.632013
63.635 18.032209
63.640 17.800943
63.645 18.14802
63.650 18.133163
63.655 17.483532
63.660 17.913671
63.665 17.657717
63.670 17.399372
63.675 17.725569
63.680 17.802176
63.685 18.319971
63.690 18.653151
63.695 18.625872
63.700 18.596243
63.705 18.141857
63.710 17.533125
63.715 17.129093
63.720 16.499819
63.725 16.540115
63.730 16.498934
63.735 17.155487
63.740 17.636541
63.745 17.850203
63.750 17.748705
63.755 17.702047
63.760 17.605894
63.765 17.612978
63.770 16.765636
63.775 16.503748
63.780 16.624306
63.785 17.030085
63.790 17.178286
63.795 17.394005
63.800 17.820765
63.805 18.564604
63.810 18.826508
63.815 18.886284
63.820 18.404957
63.825 18.610329
63.830 18.278505
63.835 17.562347
63.840 17.476206
63.845 17.527311
63.850 17.349989
63.855 17.413914
63.860 17.503218
63.865 18.473564
63.870 18.468367
63.875 18.660753
63.880 18.962902
63.885 19.460972
63.890 20.276678
63.895 20.185339
63.900 19.227448
63.905 19.330057
63.910 18.414366
63.915 18.506264
63.920 18.466358
63.925 17.929424
63.930 17.739929
63.935 17.817549
63.940 17.882837
63.945 18.011803
63.950 17.510572
63.955 17.561058
63.960 17.521658
63.965 17.523947
63.970 18.016993
63.975 18.196407
63.980 18.974277
63.985 19.01969
63.990 19.324574
63.995 19.270128
64.000 19.584705
64.005 19.285217
64.010 19.133162
64.015 19.19021
64.020 19.405193
64.025 18.972153
64.030 19.042919
64.035 19.035133
64.040 19.485237
64.045 19.064693
64.050 18.279608
64.055 18.003506
64.060 17.718294
64.065 17.633507
64.070 17.005318
64.075 16.644648
64.080 17.050764
64.085 17.369576
64.090 17.226116
64.095 17.367973
64.100 17.256577
64.105 17.246006
64.110 17.293442
64.115 17.462307
64.120 18.0471
64.125 18.506418
64.130 18.866392
64.135 19.029001
64.140 18.789181
64.145 18.639706
64.150 18.283245
64.155 17.310995
64.160 17.370907
64.165 17.607563
64.170 17.526552
64.175 17.247498
64.180 17.386549
64.185 18.175005
64.190 19.262381
64.195 19.590157
64.200 19.895824
64.205 20.478382
64.210 21.008331
64.215 20.914608
64.220 20.417074
64.225 19.451185
64.230 18.440994
64.235 17.221415
64.240 17.011145
64.245 17.597212
64.250 17.178228
64.255 17.839216
64.260 18.182312
64.265 18.441801
64.270 18.845732
64.275 18.333485
64.280 18.157759
64.285 18.458344
64.290 17.632919
64.295 17.60199
64.300 17.777117
64.305 18.015841
64.310 18.453325
64.315 19.078037
64.320 19.597275
64.325 20.116741
64.330 20.725056
64.335 20.804359
64.340 21.223423
64.345 21.338028
64.350 20.335211
64.355 20.020477
64.360 19.526705
64.365 19.763502
64.370 19.698315
64.375 18.925001
64.380 18.662184
64.385 18.561054
64.390 19.111856
64.395 19.737556
64.400 19.341927
64.405 19.656693
64.410 19.991795
64.415 20.022329
64.420 20.370775
64.425 19.869886
64.430 19.678255
64.435 20.199282
64.440 20.268499
64.445 20.230255
64.450 20.118299
64.455 20.018421
64.460 20.310381
64.465 20.25441
64.470 20.100031
64.475 20.616966
64.480 21.206472
64.485 21.911779
64.490 22.725079
64.495 22.38199
64.500 21.780432
64.505 22.18195
64.510 21.5721
64.515 21.141068
64.520 20.726088
64.525 20.264751
64.530 20.259874
64.535 20.566753
64.540 19.776777
64.545 20.303722
64.550 20.471815
64.555 20.505754
64.560 20.576967
64.565 20.689806
64.570 20.064838
64.575 20.640356
64.580 20.33419
64.585 19.88402
64.590 19.641985
64.595 19.639549
64.600 20.066967
64.605 20.441086
64.610 20.158958
64.615 20.290293
64.620 20.317471
64.625 20.202312
64.630 19.675743
64.635 19.087458
64.640 19.101837
64.645 18.932356
64.650 19.383823
64.655 19.568636
64.660 19.903078
64.665 20.660103
64.670 21.135633
64.675 20.258154
64.680 19.990765
64.685 19.7876
64.690 19.820498
64.695 19.468054
64.700 19.078175
64.705 19.056002
64.710 19.523443
64.715 19.330723
64.720 18.729343
64.725 18.305536
64.730 18.316446
64.735 18.06424
64.740 18.110943
64.745 18.717258
64.750 19.032335
64.755 19.000851
64.760 19.474377
64.765 19.605131
64.770 19.868183
64.775 20.341713
64.780 20.644495
64.785 20.679155
64.790 21.392672
64.795 22.157925
64.800 22.941603
64.805 23.13883
64.810 22.067671
64.815 21.786715
64.820 22.025337
64.825 21.787323
64.830 21.21932
64.835 20.535692
64.840 20.241941
64.845 20.708914
64.850 20.529245
64.855 20.294992
64.860 19.975853
64.865 19.985929
64.870 20.183949
64.875 20.566456
64.880 20.734861
64.885 20.418447
64.890 19.962862
64.895 19.803701
64.900 19.57185
64.905 19.434097
64.910 19.51202
64.915 20.25404
64.920 21.225296
64.925 22.339802
64.930 23.199841
64.935 23.399458
64.940 23.97113
64.945 23.356899
64.950 21.605471
64.955 20.551908
64.960 19.722466
64.965 19.377832
64.970 19.338736
64.975 19.143307
64.980 20.339499
64.985 21.88431
64.990 22.592781
64.995 22.84062
65.000 22.761778
65.005 22.907274
65.010 22.801718
65.015 22.702484
65.020 22.907225
65.025 23.037571
65.030 23.525217
65.035 23.51952
65.040 23.222424
65.045 23.123161
65.050 23.590946
65.055 23.73539
65.060 23.632429
65.065 23.539106
65.070 24.143942
65.075 24.575005
65.080 24.098227
65.085 23.064577
65.090 22.009903
65.095 22.141674
65.100 21.745413
65.105 21.209257
65.110 21.353605
65.115 22.459999
65.120 23.198994
65.125 23.293446
65.130 23.326794
65.135 23.858393
65.140 24.342596
65.145 24.072197
65.150 23.469645
65.155 23.174553
65.160 23.47377
65.165 23.776371
65.170 23.469366
65.175 23.210428
65.180 23.537691
65.185 23.288172
65.190 23.122448
65.195 22.862562
65.200 22.6938
65.205 23.189007
65.210 23.249611
65.215 23.514269
65.220 23.934912
65.225 23.735695
65.230 23.785707
65.235 23.101076
65.240 22.550068
65.245 22.360561
65.250 21.895138
65.255 21.674673
65.260 22.323414
65.265 22.549379
65.270 23.219486
65.275 23.727932
65.280 23.71876
65.285 23.174763
65.290 22.861042
65.295 22.608654
65.300 22.219648
65.305 21.995152
65.310 21.79207
65.315 21.819271
65.320 22.36294
65.325 22.785028
65.330 23.334148
65.335 23.834658
65.340 23.458206
65.345 23.769915
65.350 23.880152
65.355 23.499119
65.360 23.668562
65.365 24.065128
65.370 24.033337
65.375 24.710543
65.380 24.370131
65.385 24.417473
65.390 25.243927
65.395 25.341183
65.400 24.542273
65.405 24.31671
65.410 23.708868
65.415 24.222958
65.420 23.93679
65.425 23.551506
65.430 23.009733
65.435 23.352667
65.440 23.893814
65.445 23.884829
65.450 23.744032
65.455 24.34441
65.460 24.579416
65.465 25.050764
65.470 24.821428
65.475 25.116945
65.480 25.222797
65.485 25.497738
65.490 25.663248
65.495 25.354725
65.500 25.720711
65.505 26.136194
65.510 26.182505
65.515 27.08213
65.520 26.91363
65.525 27.012047
65.530 26.987553
65.535 26.350599
65.540 26.019323
65.545 26.006592
65.550 25.582773
65.555 25.590691
65.560 25.707607
65.565 26.035988
65.570 26.64076
65.575 26.628477
65.580 26.832729
65.585 27.082918
65.590 27.575083
65.595 27.172529
65.600 26.588745
65.605 26.672127
65.610 27.321278
65.615 27.45624
65.620 27.419447
65.625 26.988209
65.630 27.547287
65.635 27.904831
65.640 28.289503
65.645 28.853539
65.650 28.783587
65.655 28.404966
65.660 28.355143
65.665 28.856783
65.670 28.919941
65.675 28.960403
65.680 29.212694
65.685 30.13599
65.690 31.41983
65.695 31.778162
65.700 31.902027
65.705 32.070282
65.710 32.071098
65.715 31.999289
65.720 31.506264
65.725 30.868252
65.730 31.166208
65.735 31.714827
65.740 32.286282
65.745 32.419491
65.750 32.432777
65.755 32.286812
65.760 32.638332
65.765 32.551975
65.770 31.963903
65.775 31.913958
65.780 31.749758
65.785 31.977629
65.790 33.124809
65.795 33.514431
65.800 33.887932
65.805 34.39769
65.810 34.206699
65.815 33.988197
65.820 33.033199
65.825 32.358177
65.830 32.707932
65.835 32.361828
65.840 32.175434
65.845 32.153332
65.850 32.452694
65.855 33.010586
65.860 33.002083
65.865 32.833504
65.870 33.630299
65.875 33.954853
65.880 34.494022
65.885 35.173096
65.890 35.426491
65.895 35.691948
65.900 35.987995
65.905 35.666626
65.910 35.595196
65.915 35.725765
65.920 35.718582
65.925 35.515388
65.930 35.806187
65.935 35.700424
65.940 35.764977
65.945 35.98193
65.950 35.076538
65.955 34.851795
65.960 34.661587
65.965 34.952068
65.970 35.357273
65.975 35.730923
65.980 35.29171
65.985 35.689053
65.990 36.422981
65.995 37.12397
66.000 36.481136
66.005 36.479374
66.010 36.355042
66.015 36.725632
66.020 36.91468
66.025 36.899815
66.030 37.16412
66.035 37.466904
66.040 37.618504
66.045 37.248104
66.050 37.629601
66.055 38.083515
66.060 37.745022
66.065 38.07653
66.070 37.666733
66.075 37.406487
66.080 38.385025
66.085 38.420788
66.090 38.229069
66.095 38.522804
66.100 38.112553
66.105 38.74448
66.110 39.141823
66.115 38.82412
66.120 38.621948
66.125 38.311485
66.130 38.592274
66.135 38.314445
66.140 37.422848
66.145 36.253845
66.150 35.94088
66.155 36.130196
66.160 35.862415
66.165 35.085461
66.170 35.169647
66.175 34.722382
66.180 35.428299
66.185 35.299202
66.190 35.562874
66.195 36.379646
66.200 36.923931
66.205 37.671589
66.210 38.558876
66.215 38.319431
66.220 37.984394
66.225 37.186272
66.230 36.654724
66.235 36.637478
66.240 36.62962
66.245 35.944386
66.250 35.445187
66.255 35.244621
66.260 35.457573
66.265 35.391037
66.270 34.263092
66.275 33.154865
66.280 33.099152
66.285 33.641403
66.290 34.11026
66.295 33.945267
66.300 34.424835
66.305 34.784088
66.310 35.240849
66.315 35.116241
66.320 35.152218
66.325 35.538361
66.330 35.604702
66.335 35.296059
66.340 35.077923
66.345 34.494965
66.350 33.862812
66.355 33.268185
66.360 33.185844
66.365 32.547134
66.370 32.21059
66.375 32.165016
66.380 32.628883
66.385 33.260986
66.390 32.611458
66.395 31.619663
66.400 31.80356
66.405 31.544056
66.410 31.596214
66.415 31.643545
66.420 31.518324
66.425 31.643623
66.430 31.80158
66.435 31.5397
66.440 30.6054
66.445 29.779518
66.450 29.543297
66.455 29.25918
66.460 28.578953
66.465 27.873774
66.470 28.095459
66.475 28.270733
66.480 28.235079
66.485 28.153767
66.490 28.315807
66.495 28.843979
66.500 29.577839
66.505 29.427488
66.510 29.700768
66.515 29.669764
66.520 28.841654
66.525 28.92173
66.530 28.588043
66.535 28.458113
66.540 28.198605
66.545 28.050079
66.550 27.814262
66.555 28.114399
66.560 27.63129
66.565 27.235811
66.570 27.043488
66.575 26.907022
66.580 26.531816
66.585 26.193523
66.590 26.359371
66.595 26.555098
66.600 26.652466
66.605 25.936407
66.610 25.78174
66.615 25.8974
66.620 25.572399
66.625 25.279606
66.630 25.130844
66.635 24.780733
66.640 24.750113
66.645 24.660147
66.650 24.21483
66.655 24.339128
66.660 24.077183
66.665 23.671659
66.670 24.35923
66.675 24.501442
66.680 24.451017
66.685 24.462732
66.690 23.889734
66.695 23.432137
66.700 22.849966
66.705 22.309774
66.710 22.54249
66.715 22.810665
66.720 22.177935
66.725 21.882957
66.730 21.646032
66.735 21.170296
66.740 20.959576
66.745 20.509481
66.750 20.393227
66.755 21.143305
66.760 21.729742
66.765 22.634254
66.770 23.48855
66.775 23.692602
66.780 23.741247
66.785 23.65328
66.790 23.069881
66.795 22.583637
66.800 21.720163
66.805 21.45764
66.810 21.431692
66.815 21.833982
66.820 21.964014
66.825 22.1903
66.830 22.354654
66.835 22.666782
66.840 22.321251
66.845 21.46419
66.850 20.932871
66.855 20.554022
66.860 20.971601
66.865 20.518669
66.870 20.987404
66.875 21.083481
66.880 21.500309
66.885 21.517855
66.890 21.826406
66.895 21.458254
66.900 21.373112
66.905 21.109221
66.910 21.544115
66.915 21.90888
66.920 22.088272
66.925 21.891026
66.930 22.106762
66.935 22.297182
66.940 21.963579
66.945 21.684874
66.950 21.411648
66.955 20.724674
66.960 20.835844
66.965 20.648262
66.970 20.842373
66.975 20.983143
66.980 21.291885
66.985 21.408529
66.990 22.100857
66.995 21.858755
67.000 21.938604
67.005 21.890825
67.010 22.301006
67.015 21.951061
67.020 21.574064
67.025 21.054958
67.030 21.336773
67.035 22.015066
67.040 21.908916
67.045 21.660618
67.050 22.250626
67.055 22.301653
67.060 22.527311
67.065 21.856573
67.070 21.143591
67.075 21.030344
67.080 20.670216
67.085 19.894352
67.090 20.438944
67.095 20.154573
67.100 20.629719
67.105 20.287138
67.110 20.283669
67.115 20.792852
67.120 21.372635
67.125 20.803331
67.130 21.278
67.135 20.857103
67.140 21.120667
67.145 21.214729
67.150 21.192051
67.155 21.116016
67.160 21.370667
67.165 21.477901
67.170 21.722311
67.175 22.121721
67.180 22.08643
67.185 21.80929
67.190 21.956739
67.195 21.913509
67.200 21.572031
67.205 21.704285
67.210 21.580606
67.215 21.936413
67.220 21.984205
67.225 21.310577
67.230 21.122099
67.235 21.14637
67.240 20.984362
67.245 20.561045
67.250 19.760061
67.255 19.455868
67.260 19.468367
67.265 19.391582
67.270 19.163286
67.275 18.765043
67.280 18.80349
67.285 18.524826
67.290 18.749607
67.295 18.953072
67.300 19.130041
67.305 19.049124
67.310 19.660912
67.315 19.35972
67.320 19.647741
67.325 19.736155
67.330 19.623766
67.335 19.612106
67.340 19.929422
67.345 19.853186
67.350 20.438324
67.355 20.645462
67.360 20.356947
67.365 20.400526
67.370 20.303659
67.375 20.070776
67.380 19.697441
67.385 19.332767
67.390 19.044403
67.395 19.384762
67.400 19.634047
67.405 19.569128
67.410 19.784765
67.415 20.368021
67.420 20.833511
67.425 21.030348
67.430 21.014046
67.435 20.915371
67.440 20.811741
67.445 21.027777
67.450 21.060949
67.455 20.556162
67.460 20.251764
67.465 20.139244
67.470 20.344849
67.475 20.253805
67.480 20.383558
67.485 20.519058
67.490 20.483223
67.495 20.983606
67.500 20.544333
67.505 20.079805
67.510 19.760344
67.515 19.398102
67.520 19.269558
67.525 19.74416
67.530 20.093485
67.535 20.482029
67.540 20.455725
67.545 20.553404
67.550 20.330851
67.555 20.604792
67.560 21.048664
67.565 20.467625
67.570 20.41758
67.575 20.614716
67.580 20.894827
67.585 20.734413
67.590 19.868557
67.595 19.302784
67.600 19.402199
67.605 19.275759
67.610 19.069033
67.615 18.756502
67.620 18.870916
67.625 18.950869
67.630 18.7533
67.635 18.667501
67.640 18.932934
67.645 19.295382
67.650 19.519468
67.655 20.057596
67.660 20.48102
67.665 20.827511
67.670 20.812904
67.675 21.230892
67.680 21.516569
67.685 21.687641
67.690 21.794735
67.695 21.766064
67.700 21.3421
67.705 21.463263
67.710 21.139381
67.715 20.919466
67.720 20.576288
67.725 20.376808
67.730 20.313484
67.735 20.603409
67.740 20.516197
67.745 20.328642
67.750 20.584875
67.755 20.508104
67.760 20.10413
67.765 20.696356
67.770 20.843021
67.775 20.466009
67.780 20.447582
67.785 20.413074
67.790 20.649376
67.795 20.817516
67.800 20.474777
67.805 20.375402
67.810 20.379063
67.815 19.899916
67.820 19.869186
67.825 19.506636
67.830 19.069433
67.835 18.852814
67.840 18.773567
67.845 18.706776
67.850 19.135445
67.855 19.122341
67.860 19.699953
67.865 19.82822
67.870 19.700529
67.875 19.985619
67.880 19.995775
67.885 19.724894
67.890 19.200594
67.895 18.808914
67.900 18.917137
67.905 19.08979
67.910 19.481245
67.915 20.186832
67.920 20.431852
67.925 20.437599
67.930 20.44759
67.935 20.426947
67.940 20.188999
67.945 19.86381
67.950 19.260403
67.955 18.851322
67.960 18.749952
67.965 19.466335
67.970 20.336866
67.975 21.334333
67.980 21.368
67.985 22.022173
67.990 22.68401
67.995 22.798777
68.000 22.252928
68.005 21.398821
68.010 20.815205
68.015 20.726315
68.020 20.386921
68.025 20.160553
68.030 19.968981
68.035 19.943914
68.040 19.69713
68.045 19.561831
68.050 19.761543
68.055 20.045385
68.060 19.977776
68.065 19.530489
68.070 19.181725
68.075 19.068653
68.080 19.914698
68.085 20.228968
68.090 19.918484
68.095 20.114473
68.100 20.990627
68.105 21.431431
68.110 21.978989
68.115 21.77635
68.120 20.960772
68.125 20.593737
68.130 20.482796
68.135 20.24514
68.140 20.117496
68.145 19.312927
68.150 18.887974
68.155 19.348631
68.160 19.835497
68.165 20.039513
68.170 20.19591
68.175 20.332949
68.180 20.180048
68.185 19.855167
68.190 19.990374
68.195 20.638018
68.200 20.391855
68.205 19.546112
68.210 19.169947
68.215 19.169415
68.220 18.849274
68.225 18.802586
68.230 18.273163
68.235 18.982025
68.240 19.754921
68.245 20.116432
68.250 20.590162
68.255 20.627834
68.260 20.549086
68.265 20.191626
68.270 19.445765
68.275 19.883844
68.280 20.55298
68.285 20.546366
68.290 20.520796
68.295 20.79068
68.300 21.04726
68.305 21.259954
68.310 20.532856
68.315 20.226271
68.320 20.366217
68.325 20.946507
68.330 20.762901
68.335 20.352032
68.340 20.247488
68.345 20.426268
68.350 20.306011
68.355 20.441196
68.360 20.049452
68.365 19.516342
68.370 19.795477
68.375 20.565979
68.380 20.627956
68.385 20.108658
68.390 19.752838
68.395 19.97554
68.400 20.468193
68.405 21.017862
68.410 20.653286
68.415 20.1453
68.420 20.006147
68.425 20.254692
68.430 20.087448
68.435 20.360415
68.440 19.763432
68.445 19.630186
68.450 20.50205
68.455 21.499544
68.460 21.532358
68.465 21.935484
68.470 21.911205
68.475 21.722891
68.480 21.260319
68.485 20.139009
68.490 19.876387
68.495 19.931568
68.500 20.001875
68.505 19.530317
68.510 19.583715
68.515 19.689938
68.520 19.874924
68.525 20.59148
68.530 20.355881
68.535 19.943054
68.540 20.132446
68.545 20.881281
68.550 21.488703
68.555 21.407763
68.560 20.736315
68.565 20.572403
68.570 20.297237
68.575 20.119183
68.580 20.144836
68.585 20.095058
68.590 20.040056
68.595 19.771038
68.600 20.169287
68.605 20.821379
68.610 21.210976
68.615 21.320848
68.620 21.247969
68.625 21.607071
68.630 21.653482
68.635 21.611155
68.640 21.65959
68.645 21.086035
68.650 20.363468
68.655 19.666222
68.660 19.610144
68.665 19.805449
68.670 19.437508
68.675 18.901167
68.680 19.199993
68.685 20.024488
68.690 20.82864
68.695 21.314701
68.700 21.515442
68.705 21.688757
68.710 22.284597
68.715 21.560698
68.720 21.481228
68.725 20.792439
68.730 20.592514
68.735 19.771189
68.740 19.640118
68.745 19.382893
68.750 19.731991
68.755 19.799158
68.760 19.862047
68.765 20.918537
68.770 21.890949
68.775 22.052805
68.780 22.081015
68.785 21.733723
68.790 21.591368
68.795 21.584604
68.800 21.08256
68.805 20.714138
68.810 20.359446
68.815 21.013111
68.820 21.581421
68.825 21.651478
68.830 21.837099
68.835 21.67539
68.840 21.679321
68.845 21.871572
68.850 21.888952
68.855 21.959171
68.860 22.323053
68.865 21.647724
68.870 21.965103
68.875 22.898394
68.880 23.149332
68.885 22.905212
68.890 23.004314
68.895 23.068874
68.900 23.089102
68.905 21.815411
68.910 21.003172
68.915 20.855398
68.920 21.217901
68.925 20.851192
68.930 20.715263
68.935 20.658278
68.940 21.808449
68.945 22.159397
68.950 21.701826
68.955 21.587309
68.960 21.596155
68.965 22.05509
68.970 22.536406
68.975 22.044405
68.980 22.345018
68.985 23.335295
68.990 23.523359
68.995 23.668865
69.000 23.49692
69.005 24.268223
69.010 24.962151
69.015 25.058519
69.020 24.764805
69.025 24.969021
69.030 24.944994
69.035 24.880396
69.040 23.843613
69.045 23.384756
69.050 23.155842
69.055 22.972456
69.060 22.970503
69.065 23.454998
69.070 24.010107
69.075 24.888691
69.080 24.934776
69.085 24.973289
69.090 24.873217
69.095 24.302172
69.100 24.019674
69.105 23.945944
69.110 24.454594
69.115 24.310009
69.120 24.898012
69.125 25.415987
69.130 25.64584
69.135 25.114002
69.140 25.013353
69.145 24.7388
69.150 24.875368
69.155 25.327038
69.160 24.860918
69.165 25.160997
69.170 25.701777
69.175 26.153273
69.180 26.19874
69.185 26.185514
69.190 26.125811
69.195 26.806183
69.200 26.643518
69.205 26.727526
69.210 26.690226
69.215 27.008276
69.220 26.632429
69.225 26.243616
69.230 26.329216
69.235 26.733713
69.240 26.51066
69.245 26.436003
69.250 26.324472
69.255 26.752768
69.260 26.340897
69.265 26.115801
69.270 25.964191
69.275 25.846148
69.280 25.370653
69.285 25.131233
69.290 25.517742
69.295 26.177258
69.300 26.740425
69.305 26.882437
69.310 27.681873
69.315 27.862099
69.320 28.044952
69.325 27.921013
69.330 27.637604
69.335 27.905865
69.340 28.105711
69.345 27.256128
69.350 28.232248
69.355 28.45937
69.360 28.071806
69.365 28.201534
69.370 28.148155
69.375 28.631392
69.380 29.699898
69.385 28.909006
69.390 29.196571
69.395 29.939877
69.400 30.246294
69.405 29.876497
69.410 29.694393
69.415 29.029415
69.420 29.443878
69.425 29.218693
69.430 29.456549
69.435 29.53985
69.440 29.722767
69.445 29.723185
69.450 30.667002
69.455 30.53334
69.460 30.079395
69.465 29.972666
69.470 30.332777
69.475 31.042072
69.480 30.868391
69.485 31.143791
69.490 31.648844
69.495 31.629288
69.500 31.741016
69.505 31.273138
69.510 30.897963
69.515 31.300823
69.520 31.347124
69.525 31.670858
69.530 31.668161
69.535 31.580193
69.540 31.698717
69.545 32.079006
69.550 31.449305
69.555 31.007635
69.560 30.963156
69.565 30.888809
69.570 31.091726
69.575 31.234034
69.580 31.148209
69.585 30.753765
69.590 31.468964
69.595 31.368902
69.600 31.133492
69.605 30.666498
69.610 30.377356
69.615 30.805672
69.620 32.080299
69.625 32.119389
69.630 32.129551
69.635 32.765846
69.640 33.375572
69.645 33.200226
69.650 32.121689
69.655 31.143171
69.660 31.129713
69.665 31.423323
69.670 31.198759
69.675 31.03516
69.680 31.210785
69.685 32.311131
69.690 31.900667
69.695 31.739363
69.700 30.785295
69.705 29.930063
69.710 29.537216
69.715 29.355701
69.720 28.713865
69.725 28.749275
69.730 28.240721
69.735 28.928743
69.740 29.420687
69.745 29.813267
69.750 29.605429
69.755 29.093025
69.760 29.096447
69.765 29.236612
69.770 29.019245
69.775 28.331457
69.780 28.013817
69.785 28.108475
69.790 27.834272
69.795 27.515715
69.800 27.106022
69.805 27.240286
69.810 27.114277
69.815 27.35784
69.820 27.237831
69.825 27.099659
69.830 27.513752
69.835 26.890242
69.840 26.231585
69.845 26.327604
69.850 25.427588
69.855 25.341972
69.860 24.556295
69.865 24.221926
69.870 24.439323
69.875 24.174713
69.880 24.228205
69.885 24.558624
69.890 24.702734
69.895 25.366463
69.900 25.639307
69.905 25.968637
69.910 25.941214
69.915 25.090506
69.920 24.968525
69.925 24.470806
69.930 23.836544
69.935 23.552389
69.940 22.877251
69.945 23.179916
69.950 23.681431
69.955 23.52924
69.960 23.997225
69.965 23.616236
69.970 23.576664
69.975 23.96056
69.980 23.772928
69.985 23.262531
69.990 23.122162
69.995 22.861877
70.000 22.636826
70.005 21.923637
70.010 22.298164
70.015 22.183439
70.020 22.380781
70.025 22.579262
70.030 21.950996
70.035 22.291382
70.040 22.550022
70.045 21.250696
70.050 20.956924
70.055 20.290943
70.060 20.18335
70.065 20.648233
70.070 20.579275
70.075 20.528238
70.080 21.067083
70.085 21.321175
70.090 21.900177
70.095 21.845552
70.100 22.016037
70.105 21.793325
70.110 21.65344
70.115 21.546898
70.120 21.614697
70.125 21.095413
70.130 21.052454
70.135 20.437418
70.140 21.193983
70.145 21.344828
70.150 21.053848
70.155 20.955645
70.160 20.829281
70.165 20.799374
70.170 20.490156
70.175 19.520666
70.180 19.503435
70.185 20.203224
70.190 20.036787
70.195 20.04686
70.200 19.388069
70.205 19.104435
70.210 19.394823
70.215 19.056746
70.220 18.80547
70.225 18.751909
70.230 18.910624
70.235 19.457275
70.240 19.844908
70.245 19.50737
70.250 19.214952
70.255 18.880255
70.260 18.944426
70.265 18.964211
70.270 19.198633
70.275 18.892372
70.280 18.904358
70.285 19.021502
70.290 19.245811
70.295 19.4293
70.300 19.137617
70.305 18.891502
70.310 19.063309
70.315 19.833466
70.320 19.654894
70.325 19.48855
70.330 18.890999
70.335 18.894535
70.340 19.273932
70.345 19.33276
70.350 19.123976
70.355 19.352007
70.360 19.45887
70.365 20.040913
70.370 20.315416
70.375 20.100569
70.380 20.080889
70.385 19.927761
70.390 19.975693
70.395 20.269625
70.400 20.078497
70.405 19.595688
70.410 18.87487
70.415 18.679188
70.420 18.87562
70.425 18.871391
70.430 18.453043
70.435 18.413948
70.440 19.236437
70.445 20.113766
70.450 19.995663
70.455 20.179617
70.460 20.58078
70.465 21.031853
70.470 20.428675
70.475 19.828321
70.480 19.344761
70.485 19.616663
70.490 19.449471
70.495 19.29343
70.500 20.018299
70.505 20.578701
70.510 20.535072
70.515 20.891768
70.520 20.907742
70.525 21.134663
70.530 21.246363
70.535 21.12429
70.540 21.400822
70.545 21.531654
70.550 21.641951
70.555 21.471655
70.560 21.658022
70.565 21.494446
70.570 20.988045
70.575 20.688799
70.580 20.724503
70.585 20.395451
70.590 20.070555
70.595 20.127298
70.600 19.898994
70.605 19.442572
70.610 19.304495
70.615 19.3414
70.620 19.166065
70.625 18.846659
70.630 18.206669
70.635 18.310955
70.640 18.934196
70.645 19.206995
70.650 19.270361
70.655 19.650846
70.660 19.59008
70.665 19.708757
70.670 19.87595
70.675 19.632809
70.680 19.667505
70.685 19.095591
70.690 19.043776
70.695 19.588097
70.700 19.20392
70.705 19.170694
70.710 19.132551
70.715 18.755274
70.720 18.922905
70.725 18.943748
70.730 18.559633
70.735 18.361715
70.740 18.026505
70.745 17.73348
70.750 17.664724
70.755 17.775291
70.760 17.557215
70.765 18.144493
70.770 18.635082
70.775 18.593359
70.780 18.842369
70.785 18.962193
70.790 19.062378
70.795 19.265808
70.800 18.965322
70.805 19.329615
70.810 19.546745
70.815 19.188805
70.820 19.179323
70.825 18.700129
70.830 18.313131
70.835 18.477123
70.840 18.252052
70.845 18.739429
70.850 18.615158
70.855 18.913034
70.860 18.691168
70.865 18.773758
70.870 18.594158
70.875 18.573826
70.880 18.712938
70.885 19.176605
70.890 19.727594
70.895 20.33387
70.900 20.262024
70.905 20.191998
70.910 20.309639
70.915 20.516659
70.920 19.812799
70.925 19.499035
70.930 19.620548
70.935 20.067781
70.940 19.914755
70.945 19.25701
70.950 19.258999
70.955 19.828222
70.960 19.57892
70.965 19.270697
70.970 19.404963
70.975 19.69915
70.980 19.433243
70.985 18.984064
70.990 19.205564
70.995 18.905617
71.000 18.889914
71.005 18.342896
71.010 18.091047
71.015 18.756186
71.020 18.655741
71.025 18.146265
71.030 18.342751
71.035 18.538698
71.040 18.465792
71.045 18.279932
71.050 18.440632
71.055 18.583422
71.060 18.343882
71.065 18.013041
71.070 18.434647
71.075 18.584799
71.080 18.720213
71.085 18.332113
71.090 18.372404
71.095 19.6691
71.100 19.640703
71.105 19.434599
71.110 19.956133
71.115 20.240856
71.120 20.484581
71.125 20.607092
71.130 20.444233
71.135 20.714193
71.140 20.673141
71.145 19.885572
71.150 19.60948
71.155 20.013481
71.160 20.002144
71.165 19.010925
71.170 18.916601
71.175 19.090925
71.180 18.85236
71.185 18.543833
71.190 17.77087
71.195 17.817423
71.200 17.896139
71.205 18.157244
71.210 18.377495
71.215 18.340197
71.220 18.479834
71.225 18.307926
71.230 18.412565
71.235 18.483814
71.240 17.564011
71.245 18.15045
71.250 18.173927
71.255 18.2731
71.260 18.200924
71.265 17.940535
71.270 17.732035
71.275 17.744703
71.280 16.899845
71.285 16.874105
71.290 16.951529
71.295 17.730125
71.300 17.787809
71.305 18.20446
71.310 18.146624
71.315 18.296865
71.320 17.989965
71.325 18.093916
71.330 17.771927
71.335 18.01428
71.340 18.221306
71.345 18.76347
71.350 19.160151
71.355 19.786413
71.360 19.705166
71.365 19.687382
71.370 19.273621
71.375 19.038406
71.380 18.586731
71.385 18.364517
71.390 17.783789
71.395 17.709412
71.400 17.449833
71.405 18.147886
71.410 18.782307
71.415 18.951273
71.420 18.573156
71.425 18.903254
71.430 19.347977
71.435 19.237558
71.440 18.821474
71.445 18.339516
71.450 18.210217
71.455 18.284634
71.460 17.922636
71.465 17.573017
71.470 16.884727
71.475 16.304602
71.480 16.618296
71.485 17.360418
71.490 17.451805
71.495 17.067503
71.500 17.149294
71.505 18.064732
71.510 18.929071
71.515 18.588627
71.520 18.377445
71.525 18.62439
71.530 18.893497
71.535 19.0112
71.540 19.083809
71.545 19.489182
71.550 20.058733
71.555 20.190414
71.560 20.363291
71.565 20.427828
71.570 20.163551
71.575 19.069208
71.580 18.994484
71.585 18.672075
71.590 18.550325
71.595 18.570774
71.600 18.444349
71.605 18.484924
71.610 18.449078
71.615 17.963556
71.620 18.151028
71.625 17.996904
71.630 17.900333
71.635 17.914032
71.640 17.6213
71.645 17.337244
71.650 17.509968
71.655 17.261307
71.660 17.075359
71.665 16.949226
71.670 17.677319
71.675 18.820551
71.680 18.952591
71.685 18.776711
71.690 18.876877
71.695 19.276249
71.700 19.66345
71.705 19.133698
71.710 18.87443
71.715 18.794409
71.720 19.379103
71.725 19.499462
71.730 19.230974
71.735 18.925711
71.740 18.823021
71.745 18.239239
71.750 18.05501
71.755 17.903645
71.760 18.121454
71.765 17.924887
71.770 18.20155
71.775 19.252129
71.780 19.837263
71.785 19.764071
71.790 19.95933
71.795 19.747723
71.800 20.148619
71.805 19.442591
71.810 19.603645
71.815 19.289577
71.820 19.01783
71.825 18.411392
71.830 17.806065
71.835 17.769188
71.840 17.569475
71.845 16.776783
71.850 16.817156
71.855 16.650579
71.860 16.8915
71.865 17.246336
71.870 17.155241
71.875 17.734243
71.880 17.414024
71.885 17.953856
71.890 18.009909
71.895 18.531118
71.900 18.882996
71.905 18.414019
71.910 18.136026
71.915 18.230545
71.920 17.545456
71.925 17.910585
71.930 17.540855
71.935 17.025063
71.940 17.123238
71.945 17.525816
71.950 18.264772
71.955 18.123362
71.960 17.553507
71.965 17.468952
71.970 17.538282
71.975 17.132225
71.980 17.056969
71.985 16.572256
71.990 16.875757
71.995 16.606699
72.000 16.813854
72.005 17.365
72.010 17.709694
72.015 17.215261
72.020 17.281507
72.025 17.649748
72.030 17.772676
72.035 17.722012
72.040 17.781103
72.045 17.318701
72.050 17.258284
72.055 16.721186
72.060 17.321955
72.065 17.851355
72.070 17.955357
72.075 17.798683
72.080 17.615982
72.085 18.412167
72.090 18.424244
72.095 17.378931
72.100 17.209002
72.105 17.038488
72.110 17.416468
72.115 17.615046
72.120 16.945354
72.125 16.924786
72.130 17.338423
72.135 17.506924
72.140 17.546944
72.145 17.78824
72.150 17.433222
72.155 17.866312
72.160 18.247873
72.165 17.959553
72.170 18.06801
72.175 18.12081
72.180 18.52363
72.185 18.648672
72.190 18.625696
72.195 18.916437
72.200 18.932474
72.205 18.720592
72.210 18.335365
72.215 17.216202
72.220 17.487755
72.225 17.415201
72.230 17.063858
72.235 16.758932
72.240 17.068041
72.245 17.641518
72.250 18.649519
72.255 18.655851
72.260 18.279528
72.265 18.428017
72.270 18.285934
72.275 18.084957
72.280 17.344839
72.285 17.249294
72.290 17.614208
72.295 17.707779
72.300 17.800211
72.305 18.632765
72.310 18.985771
72.315 19.375149
72.320 18.639555
72.325 18.687252
72.330 19.047028
72.335 18.696608
72.340 18.230112
72.345 17.648508
72.350 17.847773
72.355 18.27747
72.360 17.65169
72.365 17.211729
72.370 16.667854
72.375 16.237051
72.380 16.617205
72.385 17.277891
72.390 17.140261
72.395 17.183407
72.400 17.640142
72.405 18.362776
72.410 18.661777
72.415 18.338821
72.420 17.406584
72.425 17.848551
72.430 17.984806
72.435 18.24243
72.440 18.074352
72.445 17.834301
72.450 17.469614
72.455 17.431122
72.460 17.844656
72.465 17.291849
72.470 16.903046
72.475 17.230717
72.480 17.933811
72.485 18.336998
72.490 18.454451
72.495 17.909643
72.500 18.12505
72.505 18.066475
72.510 17.765266
72.515 17.284567
72.520 17.038961
72.525 17.11178
72.530 17.300156
72.535 17.70821
72.540 17.304527
72.545 17.104799
72.550 17.310333
72.555 17.627449
72.560 17.405315
72.565 16.886953
72.570 16.066463
72.575 16.375359
72.580 16.356977
72.585 16.179987
72.590 15.765345
72.595 16.205835
72.600 16.797678
72.605 17.512499
72.610 17.764938
72.615 18.135231
72.620 17.931948
72.625 18.103212
72.630 18.559101
72.635 18.383066
72.640 18.166872
72.645 17.728258
72.650 17.835167
72.655 18.362671
72.660 17.785751
72.665 17.390411
72.670 17.513464
72.675 17.136911
72.680 17.353943
72.685 17.287628
72.690 17.074608
72.695 17.416502
72.700 17.291697
72.705 17.426758
72.710 16.964697
72.715 16.623367
72.720 16.594622
72.725 16.228868
72.730 15.927659
72.735 15.478646
72.740 15.162536
72.745 15.518026
72.750 15.282131
72.755 15.388564
72.760 15.458878
72.765 15.897473
72.770 16.311764
72.775 16.86948
72.780 17.376692
72.785 17.471786
72.790 17.199194
72.795 16.75864
72.800 16.901564
72.805 16.936861
72.810 16.666567
72.815 16.257822
72.820 16.640707
72.825 17.388271
72.830 17.948755
72.835 17.577703
72.840 17.71195
72.845 17.945465
72.850 18.045698
72.855 17.766632
72.860 17.230434
72.865 16.77286
72.870 17.051617
72.875 17.429485
72.880 17.294638
72.885 16.964247
72.890 17.512789
72.895 18.909092
72.900 19.546614
72.905 19.297029
72.910 18.777767
72.915 18.640383
72.920 18.867847
72.925 18.669504
72.930 17.638639
72.935 17.306156
72.940 16.921309
72.945 17.22016
72.950 16.837072
72.955 16.576
72.960 16.291016
72.965 16.02537
72.970 16.371933
72.975 16.326574
72.980 16.404259
72.985 16.851177
72.990 16.833221
72.995 17.20661
73.000 17.84013
