!@!!GADDS PLOTSO FILE: Chi integration type
!@!!Title/SampleName: map-28
!@!!Comment: ?
!@!!User: Bruker Instrument Administrator
!@!!Site: University of Illinois Chicago
!@!!Frame: map-28_01_000.gfrm
!@!!Wavelengths    1.54184   1.54056   1.54439
!@!!Frame angles: 2Theta: 63.000 Omega: 50.000 Phi: 0.000 Chi: 90.000
!@!!Integration range: 2Theta: 53.000 to 73.000  Gamma: -105.000 to -75.000
!@!!Integration method: bin normalized
!@!N
!@!SS
!@!M
!@!L 0.0 0.0 0.0 0.0
!@!XDegrees
!@!YCounts
53.000 7.038546
53.005 6.653991
53.010 6.644907
53.015 6.550864
53.020 6.991397
53.025 7.427179
53.030 7.642552
53.035 7.834448
53.040 8.059441
53.045 8.291991
53.050 8.283475
53.055 7.48506
53.060 7.090619
53.065 7.229651
53.070 7.462501
53.075 7.720597
53.080 7.486789
53.085 7.577103
53.090 8.092323
53.095 8.367443
53.100 8.273252
53.105 8.095517
53.110 7.807428
53.115 8.290185
53.120 8.026258
53.125 7.877036
53.130 7.817355
53.135 7.820487
53.140 8.030186
53.145 8.294134
53.150 8.06086
53.155 8.095272
53.160 7.897568
53.165 7.9845
53.170 8.092907
53.175 7.831348
53.180 7.489291
53.185 7.528826
53.190 7.758298
53.195 8.166046
53.200 8.020111
53.205 8.028303
53.210 8.219584
53.215 8.176143
53.220 8.245531
53.225 8.059239
53.230 7.760536
53.235 7.746303
53.240 7.496018
53.245 6.598441
53.250 6.629582
53.255 6.608572
53.260 6.85054
53.265 6.971143
53.270 7.123201
53.275 7.489292
53.280 8.187003
53.285 8.564345
53.290 8.816453
53.295 9.201504
53.300 9.345968
53.305 9.244582
53.310 9.144226
53.315 8.80763
53.320 8.70395
53.325 8.649787
53.330 8.149035
53.335 7.923335
53.340 7.902528
53.345 7.730274
53.350 8.010333
53.355 8.234584
53.360 8.061527
53.365 8.025987
53.370 8.298865
53.375 8.489028
53.380 8.705151
53.385 8.073036
53.390 7.639206
53.395 7.758324
53.400 7.748085
53.405 7.784063
53.410 7.612091
53.415 7.772076
53.420 7.887577
53.425 7.914142
53.430 8.018682
53.435 8.564233
53.440 8.875651
53.445 8.922771
53.450 8.756915
53.455 8.772644
53.460 8.848431
53.465 8.665399
53.470 7.96636
53.475 7.365983
53.480 7.490535
53.485 7.510186
53.490 7.765934
53.495 7.658736
53.500 7.688853
53.505 7.969162
53.510 8.246861
53.515 8.216849
53.520 7.934518
53.525 7.854562
53.530 7.793054
53.535 7.551887
53.540 7.550556
53.545 7.484898
53.550 7.623843
53.555 7.675423
53.560 7.931914
53.565 7.606997
53.570 7.647398
53.575 7.827026
53.580 7.730806
53.585 7.518584
53.590 7.285151
53.595 7.391191
53.600 7.916159
53.605 7.812087
53.610 7.490552
53.615 7.344681
53.620 7.992849
53.625 8.115977
53.630 7.944959
53.635 7.819304
53.640 7.982138
53.645 8.901416
53.650 8.756627
53.655 8.011235
53.660 8.105073
53.665 8.041867
53.670 8.3119
53.675 8.358328
53.680 8.161036
53.685 8.855227
53.690 9.317676
53.695 9.038632
53.700 9.063049
53.705 8.724359
53.710 8.668198
53.715 8.594691
53.720 8.561887
53.725 9.190277
53.730 9.492537
53.735 9.545397
53.740 9.725444
53.745 9.930325
53.750 9.812052
53.755 9.610759
53.760 8.914875
53.765 8.608245
53.770 8.645384
53.775 8.167447
53.780 7.944222
53.785 7.949294
53.790 8.067746
53.795 8.281296
53.800 8.716149
53.805 8.717005
53.810 8.727787
53.815 8.717674
53.820 8.39907
53.825 7.934196
53.830 8.199387
53.835 8.107512
53.840 8.253714
53.845 8.568825
53.850 8.819929
53.855 8.838396
53.860 8.661152
53.865 8.33478
53.870 8.118091
53.875 7.653217
53.880 7.526227
53.885 7.929054
53.890 8.208967
53.895 8.209546
53.900 8.100871
53.905 8.66851
53.910 8.77702
53.915 8.417633
53.920 8.151409
53.925 8.152925
53.930 8.81956
53.935 8.7306
53.940 8.557936
53.945 8.512538
53.950 8.475121
53.955 8.26255
53.960 8.458528
53.965 8.510271
53.970 8.758538
53.975 8.68695
53.980 8.797877
53.985 8.909144
53.990 8.756994
53.995 8.403668
54.000 7.971239
54.005 7.868714
54.010 7.955751
54.015 7.86446
54.020 8.067724
54.025 8.363159
54.030 8.406489
54.035 8.575106
54.040 8.611372
54.045 8.839126
54.050 8.879954
54.055 8.571399
54.060 8.31939
54.065 8.558374
54.070 8.6146
54.075 8.751056
54.080 8.771998
54.085 8.765565
54.090 8.884726
54.095 9.366423
54.100 9.551063
54.105 9.460932
54.110 9.419821
54.115 9.527353
54.120 9.833849
54.125 9.888433
54.130 9.973983
54.135 9.980615
54.140 9.87088
54.145 9.765232
54.150 9.814415
54.155 9.710622
54.160 10.146865
54.165 9.774337
54.170 10.17872
54.175 10.419601
54.180 10.361807
54.185 10.674965
54.190 11.048691
54.195 10.745113
54.200 10.263925
54.205 9.303521
54.210 9.268577
54.215 9.087358
54.220 8.834393
54.225 8.705827
54.230 8.686597
54.235 9.521365
54.240 9.958969
54.245 10.027143
54.250 10.055546
54.255 9.80829
54.260 9.729693
54.265 9.812449
54.270 9.637527
54.275 9.909607
54.280 10.252481
54.285 10.381694
54.290 10.562524
54.295 10.339855
54.300 9.892525
54.305 9.614066
54.310 9.367818
54.315 8.963895
54.320 8.324667
54.325 8.004982
54.330 7.890976
54.335 8.062769
54.340 8.212431
54.345 8.131462
54.350 8.600884
54.355 8.934774
54.360 9.340651
54.365 9.523918
54.370 9.548878
54.375 9.330196
54.380 8.896334
54.385 8.951546
54.390 9.009801
54.395 8.847528
54.400 8.983908
54.405 9.079541
54.410 9.267102
54.415 9.422408
54.420 9.234213
54.425 9.248466
54.430 9.307473
54.435 9.379968
54.440 9.831723
54.445 10.065347
54.450 10.329656
54.455 10.225708
54.460 10.278314
54.465 10.378736
54.470 10.463489
54.475 10.019733
54.480 10.069147
54.485 9.686591
54.490 9.685893
54.495 9.366141
54.500 8.959702
54.505 9.092008
54.510 9.226694
54.515 9.586868
54.520 9.74931
54.525 9.913142
54.530 10.281347
54.535 10.403475
54.540 10.549304
54.545 10.541367
54.550 10.417459
54.555 10.415797
54.560 10.37373
54.565 10.495107
54.570 10.245678
54.575 10.205559
54.580 10.031825
54.585 9.882337
54.590 10.004333
54.595 9.97532
54.600 10.238858
54.605 10.40406
54.610 10.059749
54.615 9.799405
54.620 9.919272
54.625 10.150874
54.630 9.822579
54.635 9.632046
54.640 9.592286
54.645 9.639024
54.650 9.916343
54.655 9.774474
54.660 9.590416
54.665 9.637531
54.670 9.391213
54.675 9.183619
54.680 9.336263
54.685 9.043811
54.690 8.755454
54.695 8.806654
54.700 8.863526
54.705 9.005796
54.710 9.358755
54.715 9.356513
54.720 9.38383
54.725 9.285675
54.730 9.657557
54.735 9.690979
54.740 9.786754
54.745 9.797859
54.750 9.785892
54.755 10.038611
54.760 9.879946
54.765 9.41478
54.770 9.891236
54.775 10.332556
54.780 10.686272
54.785 10.719531
54.790 10.750535
54.795 11.104791
54.800 11.314341
54.805 11.181723
54.810 10.568511
54.815 10.153767
54.820 9.917719
54.825 9.936686
54.830 9.546711
54.835 9.004198
54.840 8.541799
54.845 8.601365
54.850 8.741562
54.855 8.920954
54.860 8.910027
54.865 8.816702
54.870 9.255357
54.875 9.553669
54.880 9.776883
54.885 9.386104
54.890 9.217965
54.895 9.535411
54.900 9.699871
54.905 9.419532
54.910 9.428654
54.915 10.075828
54.920 10.314796
54.925 10.256935
54.930 9.937791
54.935 10.013556
54.940 10.178627
54.945 10.035966
54.950 9.618839
54.955 10.133598
54.960 10.312628
54.965 10.5231
54.970 10.806637
54.975 10.648868
54.980 10.27114
54.985 10.496793
54.990 10.405243
54.995 10.1689
55.000 10.141354
55.005 10.23046
55.010 10.538198
55.015 10.554909
55.020 10.438659
55.025 10.832129
55.030 11.214504
55.035 11.011018
55.040 10.937004
55.045 11.148768
55.050 11.301971
55.055 10.78697
55.060 10.671862
55.065 10.414458
55.070 10.25703
55.075 9.933146
55.080 9.643658
55.085 9.317561
55.090 9.703707
55.095 9.403025
55.100 9.617445
55.105 9.77133
55.110 9.834115
55.115 10.2925
55.120 10.287436
55.125 9.87663
55.130 9.973008
55.135 10.026277
55.140 10.236008
55.145 10.524034
55.150 10.229418
55.155 10.316038
55.160 10.800184
55.165 10.871196
55.170 10.558326
55.175 10.283834
55.180 9.902518
55.185 10.101898
55.190 10.551235
55.195 10.360713
55.200 10.517956
55.205 10.780156
55.210 10.655398
55.215 10.862178
55.220 11.197507
55.225 11.008013
55.230 11.093288
55.235 10.811259
55.240 10.767854
55.245 10.692211
55.250 10.738481
55.255 10.602822
55.260 10.650699
55.265 10.798259
55.270 10.848586
55.275 10.855832
55.280 11.424641
55.285 11.280599
55.290 11.1203
55.295 10.864085
55.300 11.027531
55.305 11.056231
55.310 11.258927
55.315 11.09726
55.320 11.03189
55.325 11.164726
55.330 10.874004
55.335 10.729141
55.340 11.087818
55.345 10.967022
55.350 10.737034
55.355 10.549367
55.360 10.597158
55.365 10.89851
55.370 10.649065
55.375 10.220206
55.380 9.910642
55.385 10.200741
55.390 10.256873
55.395 9.720448
55.400 9.246792
55.405 9.389786
55.410 9.644872
55.415 9.695153
55.420 9.151621
55.425 9.038214
55.430 9.342536
55.435 9.428452
55.440 9.114305
55.445 9.132549
55.450 9.630259
55.455 9.748139
55.460 10.248393
55.465 10.471547
55.470 10.674876
55.475 10.808876
55.480 10.835987
55.485 10.889461
55.490 11.488571
55.495 11.67256
55.500 11.933376
55.505 12.298745
55.510 12.179118
55.515 12.310597
55.520 12.285431
55.525 11.701332
55.530 11.40363
55.535 11.327896
55.540 10.892062
55.545 11.163621
55.550 11.223455
55.555 11.342053
55.560 11.344991
55.565 11.331347
55.570 10.825088
55.575 10.885114
55.580 10.811037
55.585 10.913153
55.590 10.767203
55.595 10.599989
55.600 10.593359
55.605 10.584166
55.610 10.768672
55.615 10.448794
55.620 10.29445
55.625 10.252997
55.630 10.12164
55.635 10.316043
55.640 10.768649
55.645 10.897773
55.650 10.651109
55.655 10.152719
55.660 9.799892
55.665 10.107963
55.670 10.060675
55.675 9.831606
55.680 9.828065
55.685 10.123734
55.690 10.48094
55.695 10.626987
55.700 10.510984
55.705 10.564994
55.710 10.469119
55.715 10.661061
55.720 10.436844
55.725 10.517163
55.730 10.746975
55.735 10.734899
55.740 10.835709
55.745 10.857825
55.750 10.552813
55.755 10.989927
55.760 11.203985
55.765 11.642443
55.770 11.957892
55.775 12.272989
55.780 12.961143
55.785 12.926974
55.790 12.828209
55.795 12.643927
55.800 12.174426
55.805 11.679231
55.810 11.187966
55.815 10.78687
55.820 10.727619
55.825 10.995871
55.830 10.954582
55.835 11.272951
55.840 11.259851
55.845 11.375444
55.850 11.895169
55.855 12.170591
55.860 11.915225
55.865 12.22632
55.870 12.14317
55.875 12.699416
55.880 12.47069
55.885 11.848145
55.890 11.409442
55.895 10.887361
55.900 10.368937
55.905 10.085088
55.910 9.340584
55.915 9.440737
55.920 9.958401
55.925 10.54052
55.930 11.126922
55.935 11.325613
55.940 11.731267
55.945 11.886832
55.950 11.839371
55.955 11.448756
55.960 11.304898
55.965 11.149315
55.970 10.933669
55.975 10.484778
55.980 10.788734
55.985 11.070861
55.990 11.241529
55.995 11.669818
56.000 12.095171
56.005 12.725045
56.010 12.812911
56.015 12.650635
56.020 12.28746
56.025 12.389656
56.030 11.943282
56.035 11.455089
56.040 11.395703
56.045 11.626808
56.050 11.699472
56.055 11.392594
56.060 11.127859
56.065 11.298321
56.070 10.992062
56.075 10.095887
56.080 9.640478
56.085 10.037068
56.090 10.387282
56.095 10.561659
56.100 10.65781
56.105 11.042822
56.110 11.848816
56.115 12.269518
56.120 12.445861
56.125 12.627664
56.130 12.342977
56.135 12.097655
56.140 11.864993
56.145 11.886539
56.150 11.348304
56.155 10.578557
56.160 10.56165
56.165 10.341825
56.170 10.317844
56.175 10.142751
56.180 9.493773
56.185 9.539351
56.190 9.919813
56.195 10.023313
56.200 10.377919
56.205 10.34331
56.210 11.204739
56.215 12.045979
56.220 12.113385
56.225 11.530735
56.230 11.750419
56.235 11.935508
56.240 12.286904
56.245 12.08838
56.250 11.815968
56.255 12.119381
56.260 12.570656
56.265 12.321643
56.270 12.059757
56.275 11.944366
56.280 11.755101
56.285 11.650011
56.290 11.772777
56.295 12.078204
56.300 12.428966
56.305 12.773814
56.310 12.778246
56.315 12.644894
56.320 12.594564
56.325 11.976924
56.330 11.625415
56.335 11.813156
56.340 11.696643
56.345 11.943996
56.350 12.459266
56.355 12.381679
56.360 12.764376
56.365 12.387844
56.370 11.946115
56.375 11.802217
56.380 11.140486
56.385 10.928665
56.390 11.439439
56.395 11.092211
56.400 11.069437
56.405 10.712447
56.410 10.377179
56.415 10.57102
56.420 10.433526
56.425 9.903993
56.430 10.213542
56.435 10.507053
56.440 10.294033
56.445 10.793107
56.450 10.915537
56.455 10.175674
56.460 10.008282
56.465 10.11584
56.470 10.051892
56.475 10.746805
56.480 10.823789
56.485 10.93917
56.490 12.031862
56.495 12.33463
56.500 12.662755
56.505 12.970251
56.510 12.551187
56.515 12.451264
56.520 12.508209
56.525 12.33563
56.530 12.521955
56.535 12.066976
56.540 12.085416
56.545 12.213214
56.550 12.433267
56.555 12.382439
56.560 12.089036
56.565 11.844451
56.570 12.075266
56.575 11.656693
56.580 11.28694
56.585 11.24549
56.590 11.519168
56.595 11.221371
56.600 11.012368
56.605 11.086166
56.610 11.701852
56.615 12.264031
56.620 11.95042
56.625 11.794656
56.630 12.34005
56.635 12.539576
56.640 12.116525
56.645 12.053001
56.650 11.859771
56.655 11.916469
56.660 11.956216
56.665 11.572704
56.670 11.569318
56.675 11.60577
56.680 11.416881
56.685 11.74527
56.690 11.659459
56.695 11.326854
56.700 11.169304
56.705 11.061405
56.710 11.030872
56.715 10.805813
56.720 10.443165
56.725 10.857888
56.730 11.642941
56.735 12.103854
56.740 12.295398
56.745 12.991515
56.750 13.093629
56.755 13.543162
56.760 13.337452
56.765 12.866462
56.770 12.771287
56.775 12.88805
56.780 13.258653
56.785 13.282778
56.790 13.211207
56.795 13.120543
56.800 13.279214
56.805 13.204418
56.810 12.830113
56.815 12.028661
56.820 12.146658
56.825 12.317084
56.830 12.776542
56.835 12.726285
56.840 12.874521
56.845 12.811989
56.850 12.57186
56.855 12.037933
56.860 11.414595
56.865 11.178167
56.870 11.37742
56.875 11.186427
56.880 11.514668
56.885 12.494273
56.890 12.878838
56.895 13.171249
56.900 12.83696
56.905 12.925616
56.910 13.343311
56.915 13.158744
56.920 12.692916
56.925 12.868978
56.930 12.815277
56.935 12.906251
56.940 12.475142
56.945 12.278647
56.950 12.454198
56.955 12.510675
56.960 12.182405
56.965 12.228338
56.970 12.375836
56.975 12.454609
56.980 12.158335
56.985 12.071802
56.990 12.356156
56.995 12.62886
57.000 12.306057
57.005 12.324389
57.010 12.816375
57.015 12.958575
57.020 13.016109
57.025 13.134055
57.030 13.205338
57.035 13.471519
57.040 13.659872
57.045 13.349216
57.050 13.390046
57.055 13.14819
57.060 13.323462
57.065 13.643659
57.070 13.622849
57.075 13.697453
57.080 14.119052
57.085 13.962874
57.090 13.773958
57.095 13.130276
57.100 12.229775
57.105 12.118436
57.110 11.175666
57.115 10.964863
57.120 11.358493
57.125 11.673161
57.130 12.00498
57.135 12.818696
57.140 13.040154
57.145 13.28198
57.150 13.092762
57.155 13.204819
57.160 13.224916
57.165 12.686241
57.170 11.929128
57.175 11.880197
57.180 11.851052
57.185 11.929524
57.190 11.590579
57.195 11.496048
57.200 11.602406
57.205 11.471347
57.210 12.26623
57.215 12.225306
57.220 12.01404
57.225 12.045441
57.230 12.206655
57.235 12.601413
57.240 12.731731
57.245 11.621737
57.250 11.319323
57.255 10.969069
57.260 10.661735
57.265 10.320002
57.270 10.179963
57.275 10.462641
57.280 11.201574
57.285 11.576467
57.290 12.124601
57.295 12.606127
57.300 12.762353
57.305 13.24523
57.310 13.073881
57.315 12.989128
57.320 13.343737
57.325 13.72065
57.330 13.806029
57.335 13.816051
57.340 14.180172
57.345 14.407229
57.350 14.741016
57.355 14.553932
57.360 14.257511
57.365 14.171959
57.370 14.439208
57.375 13.940769
57.380 14.175065
57.385 14.280228
57.390 14.164224
57.395 14.032556
57.400 14.111094
57.405 13.947254
57.410 13.972337
57.415 13.84993
57.420 14.088293
57.425 14.579602
57.430 14.622119
57.435 14.830621
57.440 14.693862
57.445 14.103121
57.450 13.6885
57.455 12.897098
57.460 12.305181
57.465 11.948215
57.470 11.918239
57.475 12.229824
57.480 12.624342
57.485 13.192348
57.490 13.29968
57.495 13.567211
57.500 13.731451
57.505 13.039577
57.510 12.542601
57.515 12.80752
57.520 12.191409
57.525 12.283903
57.530 12.222958
57.535 12.367217
57.540 13.019541
57.545 13.158134
57.550 12.599331
57.555 12.494832
57.560 12.657974
57.565 12.655042
57.570 12.783343
57.575 12.595232
57.580 12.596747
57.585 12.583854
57.590 12.334783
57.595 12.28615
57.600 12.488663
57.605 12.816799
57.610 13.060635
57.615 13.500813
57.620 14.077858
57.625 14.654829
57.630 14.434104
57.635 14.20116
57.640 13.786255
57.645 13.747848
57.650 13.643681
57.655 13.234657
57.660 12.916999
57.665 13.125763
57.670 12.693608
57.675 12.401418
57.680 12.200325
57.685 12.02805
57.690 12.219571
57.695 12.102695
57.700 12.275519
57.705 12.701349
57.710 13.264259
57.715 14.018614
57.720 13.882257
57.725 13.779701
57.730 13.898241
57.735 13.951015
57.740 13.706133
57.745 13.678276
57.750 13.266228
57.755 13.80345
57.760 14.004766
57.765 14.242635
57.770 14.253925
57.775 14.658154
57.780 14.444626
57.785 14.326408
57.790 13.900385
57.795 13.815228
57.800 13.814158
57.805 14.230234
57.810 14.15216
57.815 13.989164
57.820 13.665697
57.825 13.625584
57.830 13.385722
57.835 12.806758
57.840 12.522079
57.845 12.672864
57.850 12.560094
57.855 13.15284
57.860 13.643432
57.865 14.041194
57.870 13.980318
57.875 13.948201
57.880 13.818505
57.885 14.209429
57.890 14.06273
57.895 13.578341
57.900 13.4869
57.905 13.382385
57.910 12.846907
57.915 12.744611
57.920 12.85761
57.925 12.740882
57.930 12.765553
57.935 12.876417
57.940 12.946568
57.945 13.038667
57.950 13.171052
57.955 12.677917
57.960 12.450984
57.965 12.241761
57.970 12.482419
57.975 12.663611
57.980 13.189644
57.985 13.633679
57.990 14.150962
57.995 14.033589
58.000 14.215211
58.005 13.953097
58.010 13.723454
58.015 13.219565
58.020 12.762287
58.025 12.958302
58.030 13.476766
58.035 12.944549
58.040 13.323623
58.045 13.362449
58.050 13.622244
58.055 13.044351
58.060 12.677849
58.065 12.616384
58.070 12.529184
58.075 12.624882
58.080 13.10954
58.085 13.322975
58.090 13.44137
58.095 13.108726
58.100 13.734785
58.105 14.065947
58.110 14.204047
58.115 13.900609
58.120 13.902675
58.125 14.518574
58.130 14.983274
58.135 14.7117
58.140 14.489686
58.145 14.284236
58.150 14.417761
58.155 14.410617
58.160 14.22312
58.165 14.45055
58.170 14.922605
58.175 15.412938
58.180 14.87039
58.185 14.452211
58.190 14.430534
58.195 14.413692
58.200 13.703923
58.205 13.279658
58.210 12.808297
58.215 13.175402
58.220 12.821744
58.225 13.223212
58.230 13.476235
58.235 13.356392
58.240 13.21638
58.245 12.916301
58.250 12.68311
58.255 13.677693
58.260 13.847936
58.265 14.123998
58.270 14.502453
58.275 15.075003
58.280 15.023365
58.285 14.930778
58.290 13.985365
58.295 13.305349
58.300 13.278401
58.305 13.231647
58.310 12.868713
58.315 13.194473
58.320 13.412708
58.325 13.639792
58.330 13.35335
58.335 12.433187
58.340 12.337042
58.345 13.03861
58.350 13.036703
58.355 12.878454
58.360 12.744196
58.365 13.121338
58.370 13.615291
58.375 13.515097
58.380 12.891372
58.385 13.160884
58.390 13.480056
58.395 13.585889
58.400 13.569438
58.405 14.180557
58.410 14.41506
58.415 14.490629
58.420 14.161285
58.425 14.038224
58.430 14.064161
58.435 13.850096
58.440 13.219138
58.445 12.884085
58.450 12.784203
58.455 13.3496
58.460 13.811215
58.465 14.031679
58.470 13.999161
58.475 14.306499
58.480 14.63889
58.485 14.778616
58.490 14.496524
58.495 15.032489
58.500 14.840013
58.505 15.096288
58.510 15.358557
58.515 15.532465
58.520 16.227377
58.525 15.915928
58.530 15.055779
58.535 15.126435
58.540 15.108882
58.545 14.916749
58.550 14.699898
58.555 14.008967
58.560 14.307319
58.565 14.479572
58.570 14.370521
58.575 14.12386
58.580 14.19683
58.585 14.239314
58.590 13.792899
58.595 13.425697
58.600 13.367558
58.605 13.675788
58.610 13.575769
58.615 13.167901
58.620 13.042477
58.625 14.190107
58.630 14.652347
58.635 14.343551
58.640 14.323863
58.645 14.488254
58.650 14.683421
58.655 14.746235
58.660 14.754374
58.665 14.83662
58.670 15.10036
58.675 15.342693
58.680 14.986132
58.685 15.062209
58.690 15.207697
58.695 14.722784
58.700 14.618835
58.705 14.399749
58.710 13.910048
58.715 14.063334
58.720 13.604696
58.725 13.683738
58.730 13.329927
58.735 13.684666
58.740 13.79483
58.745 14.047668
58.750 13.940079
58.755 14.285154
58.760 14.46012
58.765 14.379345
58.770 13.743626
58.775 14.04388
58.780 14.315989
58.785 14.724372
58.790 14.712937
58.795 14.708349
58.800 15.260069
58.805 16.025043
58.810 15.943678
58.815 16.007488
58.820 15.638296
58.825 15.554115
58.830 15.63115
58.835 15.599133
58.840 15.627179
58.845 15.461574
58.850 15.331996
58.855 15.430645
58.860 14.909636
58.865 14.865285
58.870 14.285364
58.875 13.817103
58.880 13.2188
58.885 12.834191
58.890 13.154526
58.895 13.219088
58.900 12.921663
58.905 13.410223
58.910 13.618484
58.915 14.177238
58.920 14.572363
58.925 14.47158
58.930 14.565205
58.935 14.529573
58.940 14.039115
58.945 13.708831
58.950 13.776156
58.955 13.549931
58.960 13.9175
58.965 13.801924
58.970 13.946575
58.975 14.272563
58.980 14.871502
58.985 14.936138
58.990 14.627888
58.995 14.603772
59.000 14.482213
59.005 14.126348
59.010 13.941236
59.015 13.828639
59.020 14.345384
59.025 15.059084
59.030 14.91413
59.035 14.919878
59.040 15.161545
59.045 15.627008
59.050 15.688119
59.055 15.579178
59.060 15.612458
59.065 16.182182
59.070 16.482334
59.075 16.515947
59.080 16.045649
59.085 15.590483
59.090 14.919296
59.095 14.446154
59.100 13.721406
59.105 13.243869
59.110 13.386424
59.115 13.571856
59.120 14.526916
59.125 15.169289
59.130 15.865749
59.135 16.559097
59.140 16.908617
59.145 17.386835
59.150 17.002689
59.155 16.427752
59.160 16.107821
59.165 15.745749
59.170 15.672846
59.175 15.997699
59.180 15.380615
59.185 15.417007
59.190 15.651911
59.195 16.073519
59.200 16.051176
59.205 15.648777
59.210 15.373306
59.215 14.922265
59.220 14.574912
59.225 13.967616
59.230 13.184695
59.235 12.928299
59.240 13.020363
59.245 13.227268
59.250 13.951969
59.255 14.314142
59.260 14.853971
59.265 15.304989
59.270 15.211079
59.275 15.392536
59.280 14.996724
59.285 15.022292
59.290 14.967376
59.295 14.591235
59.300 14.546678
59.305 14.869513
59.310 14.905898
59.315 15.151732
59.320 15.489255
59.325 16.40111
59.330 17.092806
59.335 17.365759
59.340 17.015579
59.345 17.388676
59.350 17.270769
59.355 17.244175
59.360 17.419773
59.365 17.053392
59.370 17.011015
59.375 17.339964
59.380 17.089911
59.385 16.762764
59.390 16.739897
59.395 16.083441
59.400 15.928858
59.405 15.541409
59.410 15.297389
59.415 15.376973
59.420 16.096087
59.425 16.057632
59.430 15.905937
59.435 16.295753
59.440 16.471149
59.445 16.519379
59.450 16.293047
59.455 15.747553
59.460 15.476365
59.465 15.310598
59.470 15.064976
59.475 14.773287
59.480 14.978275
59.485 14.931208
59.490 14.593222
59.495 14.400249
59.500 14.840878
59.505 15.054779
59.510 15.337971
59.515 15.326975
59.520 15.472713
59.525 15.760527
59.530 16.129921
59.535 16.026438
59.540 16.087513
59.545 16.211246
59.550 15.710578
59.555 16.061319
59.560 16.214514
59.565 16.028358
59.570 16.14435
59.575 15.723106
59.580 15.764944
59.585 16.223845
59.590 16.635017
59.595 16.855982
59.600 16.798704
59.605 16.866938
59.610 17.238224
59.615 17.176445
59.620 17.055935
59.625 16.565525
59.630 16.258877
59.635 16.591503
59.640 16.360937
59.645 16.486
59.650 16.753366
59.655 17.081436
59.660 17.108723
59.665 17.237949
59.670 17.145676
59.675 17.342028
59.680 17.327383
59.685 17.730392
59.690 17.392384
59.695 17.728565
59.700 18.307581
59.705 18.772251
59.710 19.058178
59.715 19.067453
59.720 19.13798
59.725 19.294352
59.730 19.010681
59.735 18.794401
59.740 18.68264
59.745 18.563663
59.750 18.202925
59.755 17.609852
59.760 17.758558
59.765 17.789558
59.770 17.94186
59.775 17.888424
59.780 18.592823
59.785 18.915209
59.790 18.843966
59.795 18.609419
59.800 18.474672
59.805 18.310183
59.810 18.558365
59.815 18.328615
59.820 18.643717
59.825 19.097868
59.830 19.131062
59.835 19.048428
59.840 19.856153
59.845 20.138412
59.850 19.921597
59.855 19.699322
59.860 19.643551
59.865 20.413033
59.870 20.686827
59.875 20.575989
59.880 20.290518
59.885 20.26342
59.890 20.307833
59.895 20.20437
59.900 20.157034
59.905 19.660131
59.910 19.123001
59.915 19.116129
59.920 19.396111
59.925 19.61001
59.930 19.76729
59.935 20.204063
59.940 20.801727
59.945 21.094093
59.950 20.808691
59.955 20.768429
59.960 20.473352
59.965 20.189714
59.970 19.678711
59.975 19.60895
59.980 18.819775
59.985 18.624506
59.990 19.477549
59.995 20.139336
60.000 19.737139
60.005 19.261209
60.010 19.851139
60.015 20.777399
60.020 20.468073
60.025 19.876307
60.030 19.53845
60.035 19.748734
60.040 20.12818
60.045 19.601448
60.050 20.275492
60.055 21.158993
60.060 21.18816
60.065 21.011744
60.070 21.366165
60.075 21.143259
60.080 20.729694
60.085 20.113985
60.090 20.154163
60.095 20.157976
60.100 20.86956
60.105 21.130756
60.110 20.919062
60.115 21.539276
60.120 21.24859
60.125 21.469303
60.130 20.89361
60.135 20.282785
60.140 19.991085
60.145 19.774118
60.150 19.453472
60.155 20.001358
60.160 19.98756
60.165 20.533003
60.170 20.933168
60.175 21.567223
60.180 22.00688
60.185 21.974977
60.190 21.376768
60.195 21.223259
60.200 21.009844
60.205 20.725077
60.210 20.506489
60.215 20.899696
60.220 20.511208
60.225 20.609018
60.230 20.788223
60.235 20.917242
60.240 21.071989
60.245 21.445686
60.250 21.365494
60.255 21.838148
60.260 22.343021
60.265 22.602924
60.270 22.438984
60.275 22.120298
60.280 21.826019
60.285 21.633791
60.290 21.707489
60.295 21.578106
60.300 21.316725
60.305 21.200781
60.310 20.861574
60.315 20.517395
60.320 20.454239
60.325 20.552931
60.330 20.729313
60.335 21.448666
60.340 21.943708
60.345 22.564409
60.350 23.230566
60.355 23.541578
60.360 23.817081
60.365 22.841162
60.370 22.12336
60.375 21.921759
60.380 21.526209
60.385 21.305002
60.390 20.514673
60.395 20.612507
60.400 21.260494
60.405 21.783371
60.410 22.312733
60.415 22.451841
60.420 22.494326
60.425 22.719418
60.430 22.534378
60.435 21.930967
60.440 21.397558
60.445 21.128958
60.450 20.844629
60.455 20.150993
60.460 20.532812
60.465 20.114723
60.470 20.600208
60.475 20.943962
60.480 20.534414
60.485 20.35387
60.490 21.039726
60.495 20.565071
60.500 21.008589
60.505 21.205091
60.510 20.746395
60.515 21.167604
60.520 21.174856
60.525 20.687525
60.530 20.562445
60.535 19.488726
60.540 18.76453
60.545 19.046627
60.550 18.747435
60.555 18.411798
60.560 18.02211
60.565 18.070515
60.570 18.685797
60.575 18.525055
60.580 18.485428
60.585 18.136122
60.590 18.674864
60.595 19.495171
60.600 19.713911
60.605 19.744019
60.610 20.27644
60.615 19.665548
60.620 19.894323
60.625 19.461714
60.630 18.792223
60.635 18.630119
60.640 17.908236
60.645 17.18956
60.650 17.193134
60.655 17.28047
60.660 17.483309
60.665 17.198439
60.670 17.288128
60.675 17.683258
60.680 17.82312
60.685 18.49761
60.690 18.352398
60.695 18.338823
60.700 18.520908
60.705 18.437098
60.710 18.885517
60.715 19.048428
60.720 19.08025
60.725 19.170511
60.730 19.409912
60.735 19.822374
60.740 19.461113
60.745 19.22706
60.750 19.02874
60.755 18.451237
60.760 18.33713
60.765 18.04014
60.770 17.843424
60.775 18.22677
60.780 18.044743
60.785 17.723728
60.790 17.902056
60.795 17.908306
60.800 17.400978
60.805 17.295486
60.810 16.997112
60.815 17.067389
60.820 17.510798
60.825 17.271708
60.830 17.200367
60.835 17.363241
60.840 16.770424
60.845 16.817493
60.850 16.505795
60.855 16.528454
60.860 16.697523
60.865 16.704109
60.870 16.870974
60.875 17.060202
60.880 17.002846
60.885 16.876886
60.890 16.386021
60.895 16.10141
60.900 16.246521
60.905 16.229239
60.910 16.057528
60.915 15.593279
60.920 15.738536
60.925 16.338068
60.930 17.027435
60.935 16.649858
60.940 16.939896
60.945 17.283958
60.950 17.423252
60.955 17.307381
60.960 16.97843
60.965 16.840431
60.970 17.156128
60.975 16.406742
60.980 16.411572
60.985 16.828075
60.990 17.284977
60.995 17.069113
61.000 16.910158
61.005 16.728542
61.010 17.13616
61.015 17.190327
61.020 16.880703
61.025 16.671795
61.030 16.770573
61.035 16.921824
61.040 17.215502
61.045 17.052809
61.050 17.124128
61.055 17.757612
61.060 17.811523
61.065 17.632132
61.070 17.596809
61.075 17.088144
61.080 16.697748
61.085 16.091209
61.090 15.636716
61.095 15.440033
61.100 16.087898
61.105 16.124249
61.110 16.190435
61.115 16.383259
61.120 16.30113
61.125 16.031452
61.130 15.899118
61.135 15.470264
61.140 15.258921
61.145 15.207893
61.150 15.332578
61.155 15.818514
61.160 15.856603
61.165 15.720546
61.170 15.38701
61.175 15.570689
61.180 16.589972
61.185 16.89599
61.190 16.555004
61.195 17.194576
61.200 17.679911
61.205 17.685078
61.210 17.937735
61.215 17.691631
61.220 18.010283
61.225 18.321621
61.230 19.208874
61.235 19.087351
61.240 18.402866
61.245 18.012489
61.250 17.74964
61.255 17.28129
61.260 16.411531
61.265 15.018065
61.270 15.240182
61.275 15.777436
61.280 15.739236
61.285 15.087053
61.290 15.077389
61.295 15.2731
61.300 14.92796
61.305 14.277241
61.310 14.314817
61.315 13.949754
61.320 14.060567
61.325 14.103423
61.330 14.279955
61.335 14.756428
61.340 14.493505
61.345 14.541015
61.350 15.215899
61.355 16.099394
61.360 16.618917
61.365 17.098118
61.370 17.277094
61.375 17.795073
61.380 17.80549
61.385 17.521519
61.390 16.975988
61.395 16.735647
61.400 16.09305
61.405 15.911582
61.410 16.002277
61.415 15.984436
61.420 16.008377
61.425 16.334349
61.430 16.23275
61.435 16.398172
61.440 16.537325
61.445 16.526026
61.450 17.042303
61.455 17.210747
61.460 16.793724
61.465 16.557369
61.470 16.010342
61.475 15.961097
61.480 16.21999
61.485 15.820095
61.490 15.592152
61.495 15.53066
61.500 15.59411
61.505 16.748278
61.510 17.052126
61.515 16.954065
61.520 16.716825
61.525 16.728697
61.530 16.877705
61.535 17.17227
61.540 16.603718
61.545 16.382933
61.550 16.376759
61.555 16.848612
61.560 17.197718
61.565 17.239117
61.570 17.175055
61.575 16.639166
61.580 16.576494
61.585 16.047255
61.590 15.590551
61.595 15.153199
61.600 14.507132
61.605 14.107292
61.610 14.107468
61.615 14.162575
61.620 14.814638
61.625 14.980189
61.630 15.036233
61.635 15.207705
61.640 15.502195
61.645 15.752935
61.650 16.197807
61.655 16.337275
61.660 16.475019
61.665 16.37982
61.670 16.673065
61.675 16.558525
61.680 16.349848
61.685 16.470062
61.690 16.39192
61.695 15.935436
61.700 16.098791
61.705 15.774639
61.710 16.031794
61.715 16.132982
61.720 15.087747
61.725 14.648381
61.730 15.061817
61.735 15.540232
61.740 15.248977
61.745 14.593796
61.750 14.635008
61.755 14.955653
61.760 15.062567
61.765 14.520941
61.770 14.14255
61.775 14.737127
61.780 15.366992
61.785 15.63649
61.790 15.689641
61.795 15.794483
61.800 16.150846
61.805 16.202402
61.810 16.394032
61.815 16.074869
61.820 15.771588
61.825 16.058901
61.830 15.809158
61.835 15.701704
61.840 16.001448
61.845 16.157606
61.850 16.51829
61.855 17.227087
61.860 17.305792
61.865 17.920107
61.870 18.34519
61.875 18.681726
61.880 18.521088
61.885 18.876286
61.890 18.462847
61.895 18.384409
61.900 18.178766
61.905 18.188622
61.910 18.223274
61.915 17.802498
61.920 17.43528
61.925 17.358156
61.930 17.094221
61.935 17.592045
61.940 17.657404
61.945 17.368721
61.950 17.232183
61.955 16.590588
61.960 16.605814
61.965 16.787813
61.970 16.381357
61.975 15.870645
61.980 15.66406
61.985 15.978316
61.990 15.659096
61.995 15.55159
62.000 15.487164
62.005 15.251337
62.010 15.324373
62.015 15.508407
62.020 15.58204
62.025 15.996235
62.030 15.761808
62.035 15.633355
62.040 15.409085
62.045 15.663185
62.050 15.758007
62.055 15.230857
62.060 15.126403
62.065 15.301467
62.070 14.77255
62.075 14.143303
62.080 13.694563
62.085 13.544923
62.090 13.79024
62.095 14.148415
62.100 14.705536
62.105 15.131008
62.110 15.71311
62.115 15.936585
62.120 16.217758
62.125 17.155602
62.130 17.176443
62.135 16.855303
62.140 16.950657
62.145 16.81473
62.150 16.656485
62.155 16.194796
62.160 15.392691
62.165 15.233134
62.170 15.569368
62.175 15.152449
62.180 15.117179
62.185 15.221736
62.190 15.507031
62.195 15.399452
62.200 15.010948
62.205 14.774584
62.210 15.084093
62.215 15.135933
62.220 14.626214
62.225 14.864666
62.230 15.218255
62.235 14.851618
62.240 14.692829
62.245 14.546275
62.250 14.589314
62.255 15.156593
62.260 14.891568
62.265 14.857965
62.270 15.589007
62.275 15.431808
62.280 15.700916
62.285 15.904076
62.290 15.727613
62.295 15.626281
62.300 15.487036
62.305 15.408814
62.310 15.573944
62.315 15.637556
62.320 16.177605
62.325 16.769835
62.330 17.364613
62.335 17.338274
62.340 17.116903
62.345 16.976942
62.350 16.964668
62.355 15.98217
62.360 15.691122
62.365 15.418801
62.370 15.68417
62.375 15.869314
62.380 15.95363
62.385 16.162453
62.390 16.006369
62.395 16.052404
62.400 16.585167
62.405 16.723146
62.410 17.518742
62.415 18.136028
62.420 18.070814
62.425 18.68684
62.430 18.236828
62.435 17.914074
62.440 17.946789
62.445 17.937748
62.450 17.95962
62.455 17.823837
62.460 18.157711
62.465 18.621546
62.470 18.633352
62.475 18.809902
62.480 18.478676
62.485 18.403837
62.490 18.347065
62.495 18.117241
62.500 18.064737
62.505 17.801292
62.510 16.93029
62.515 16.603699
62.520 16.450949
62.525 16.407959
62.530 15.957383
62.535 15.48481
62.540 15.561952
62.545 16.055096
62.550 15.813475
62.555 15.44513
62.560 15.352487
62.565 15.763261
62.570 15.497615
62.575 14.955348
62.580 14.699877
62.585 14.593526
62.590 14.772873
62.595 14.992139
62.600 14.993709
62.605 15.653999
62.610 16.29351
62.615 16.398703
62.620 16.211105
62.625 16.301052
62.630 16.369139
62.635 15.918225
62.640 15.136042
62.645 15.005404
62.650 15.030293
62.655 15.54731
62.660 15.499208
62.665 15.126922
62.670 15.183668
62.675 15.662563
62.680 15.172187
62.685 15.369822
62.690 15.727825
62.695 15.583518
62.700 15.586031
62.705 16.022654
62.710 16.400162
62.715 17.273739
62.720 17.11937
62.725 16.833513
62.730 16.599407
62.735 16.799011
62.740 16.587015
62.745 16.180878
62.750 15.894165
62.755 16.01614
62.760 15.903201
62.765 16.324516
62.770 15.937702
62.775 15.976536
62.780 16.07424
62.785 15.631349
62.790 15.530871
62.795 16.110376
62.800 16.253916
62.805 16.354574
62.810 16.395624
62.815 16.263668
62.820 16.545578
62.825 16.388231
62.830 15.90435
62.835 15.764091
62.840 15.914628
62.845 15.719704
62.850 15.923149
62.855 16.024853
62.860 16.131739
62.865 16.750364
62.870 16.969172
62.875 17.065643
62.880 17.445498
62.885 17.844271
62.890 17.847048
62.895 17.458281
62.900 16.635136
62.905 16.711935
62.910 16.386505
62.915 16.775341
62.920 16.764578
62.925 16.936054
62.930 17.241755
62.935 17.785387
62.940 17.324232
62.945 17.04488
62.950 16.4928
62.955 16.005861
62.960 15.795626
62.965 15.070099
62.970 14.642065
62.975 15.290302
62.980 15.532466
62.985 15.717006
62.990 16.275755
62.995 16.833538
63.000 17.428947
63.005 17.922882
63.010 17.794117
63.015 17.709875
63.020 17.495657
63.025 17.084974
63.030 17.019253
63.035 16.976372
63.040 16.989849
63.045 17.169277
63.050 17.374847
63.055 17.545385
63.060 17.722546
63.065 17.601625
63.070 17.692028
63.075 17.393635
63.080 17.539398
63.085 18.074598
63.090 18.090046
63.095 17.843658
63.100 17.930588
63.105 17.497721
63.110 17.212437
63.115 17.091236
63.120 16.663073
63.125 16.689409
63.130 16.7973
63.135 17.328049
63.140 17.687578
63.145 17.943752
63.150 18.117422
63.155 18.067364
63.160 17.839207
63.165 17.83757
63.170 17.857931
63.175 17.922083
63.180 17.635506
63.185 16.927839
63.190 16.570875
63.195 16.86949
63.200 16.724693
63.205 16.087526
63.210 15.769524
63.215 15.768699
63.220 15.873573
63.225 16.386635
63.230 16.550167
63.235 16.614676
63.240 16.894257
63.245 17.179014
63.250 17.239346
63.255 17.792698
63.260 17.37339
63.265 17.16066
63.270 17.075216
63.275 16.791719
63.280 16.734055
63.285 16.464703
63.290 16.259829
63.295 16.263838
63.300 16.179071
63.305 15.972728
63.310 16.042616
63.315 15.769327
63.320 16.452177
63.325 16.870745
63.330 16.724997
63.335 16.606108
63.340 16.561907
63.345 16.417461
63.350 16.494694
63.355 16.257055
63.360 16.081507
63.365 16.407639
63.370 16.349489
63.375 16.557495
63.380 16.779333
63.385 16.717463
63.390 16.294344
63.395 16.338743
63.400 16.307934
63.405 16.130171
63.410 16.637014
63.415 16.655312
63.420 17.616165
63.425 17.973471
63.430 17.464329
63.435 17.459488
63.440 17.301613
63.445 16.860403
63.450 17.085115
63.455 16.210009
63.460 16.185394
63.465 16.286058
63.470 16.410786
63.475 17.050995
63.480 17.431955
63.485 17.045797
63.490 17.150698
63.495 16.906088
63.500 17.024734
63.505 17.11805
63.510 16.99432
63.515 16.70446
63.520 17.232208
63.525 17.296041
63.530 17.494629
63.535 18.023272
63.540 17.527103
63.545 17.976568
63.550 17.704643
63.555 17.630905
63.560 17.991228
63.565 18.045279
63.570 17.665932
63.575 17.869896
63.580 17.282646
63.585 17.481649
63.590 17.279852
63.595 17.182894
63.600 16.846254
63.605 17.143099
63.610 17.058142
63.615 17.261452
63.620 17.484882
63.625 17.512232
63.630 17.747644
63.635 17.914
63.640 17.72003
63.645 17.636578
63.650 17.812647
63.655 17.443708
63.660 17.417185
63.665 16.966885
63.670 16.849461
63.675 17.106249
63.680 17.308245
63.685 17.281841
63.690 17.432156
63.695 17.581612
63.700 18.001348
63.705 18.347927
63.710 18.188631
63.715 17.795553
63.720 17.422548
63.725 17.101242
63.730 16.91284
63.735 16.490507
63.740 16.427011
63.745 16.609861
63.750 16.947777
63.755 17.497173
63.760 17.772963
63.765 17.649485
63.770 17.180859
63.775 17.056311
63.780 17.220072
63.785 16.96097
63.790 16.727264
63.795 17.274694
63.800 17.604404
63.805 18.467312
63.810 18.662838
63.815 18.607384
63.820 18.843529
63.825 18.418467
63.830 17.29311
63.835 17.179482
63.840 17.159481
63.845 17.338345
63.850 16.790018
63.855 16.523466
63.860 16.66193
63.865 16.654312
63.870 16.430096
63.875 15.675132
63.880 15.656805
63.885 16.653563
63.890 16.632654
63.895 16.82869
63.900 17.293472
63.905 17.296602
63.910 16.71946
63.915 16.221468
63.920 16.196629
63.925 16.187969
63.930 16.208029
63.935 16.142729
63.940 16.061459
63.945 16.948431
63.950 17.005581
63.955 16.738138
63.960 17.636705
63.965 17.631243
63.970 17.15906
63.975 17.644775
63.980 17.900227
63.985 18.483252
63.990 18.19454
63.995 17.745903
64.000 18.028475
64.005 18.263107
64.010 18.258938
64.015 18.114527
64.020 18.434134
64.025 19.198198
64.030 19.502092
64.035 19.724453
64.040 19.779385
64.045 19.507147
64.050 19.270239
64.055 18.290625
64.060 17.42948
64.065 17.014557
64.070 16.921841
64.075 17.096403
64.080 17.039932
64.085 17.236805
64.090 17.988766
64.095 18.063995
64.100 17.787432
64.105 17.79812
64.110 17.587351
64.115 17.731945
64.120 17.002565
64.125 16.297459
64.130 16.334747
64.135 15.956482
64.140 15.833901
64.145 16.271423
64.150 16.622265
64.155 17.113602
64.160 16.84255
64.165 16.517336
64.170 16.774611
64.175 16.443991
64.180 16.096018
64.185 16.467066
64.190 16.325331
64.195 16.372269
64.200 16.822527
64.205 17.03294
64.210 17.713491
64.215 17.811506
64.220 16.815331
64.225 17.095673
64.230 17.642267
64.235 17.427284
64.240 17.037653
64.245 16.74819
64.250 16.738394
64.255 17.302292
64.260 17.022087
64.265 17.016655
64.270 17.281652
64.275 17.728127
64.280 17.824984
64.285 17.711855
64.290 17.563326
64.295 17.538412
64.300 17.092178
64.305 17.3489
64.310 17.850056
64.315 18.341257
64.320 18.167463
64.325 17.962624
64.330 18.054665
64.335 18.516817
64.340 17.867159
64.345 17.141041
64.350 16.666739
64.355 17.095276
64.360 16.984505
64.365 16.902758
64.370 17.36989
64.375 17.73151
64.380 17.919136
64.385 17.726196
64.390 17.49198
64.395 18.015858
64.400 18.186583
64.405 18.197723
64.410 18.06678
64.415 18.448931
64.420 18.970673
64.425 19.21521
64.430 18.861944
64.435 18.398598
64.440 17.952415
64.445 18.755533
64.450 19.060743
64.455 18.700991
64.460 18.497433
64.465 18.414862
64.470 18.353067
64.475 18.733894
64.480 19.026363
64.485 19.313892
64.490 19.845482
64.495 20.095047
64.500 20.712671
64.505 20.788372
64.510 19.941734
64.515 18.468267
64.520 17.570873
64.525 17.039343
64.530 17.174387
64.535 17.292753
64.540 17.453945
64.545 17.80094
64.550 18.749443
64.555 18.797241
64.560 18.634268
64.565 18.324577
64.570 17.619562
64.575 17.856853
64.580 18.47817
64.585 18.074297
64.590 18.025414
64.595 18.475857
64.600 18.359171
64.605 18.97912
64.610 19.628962
64.615 19.726254
64.620 20.216236
64.625 20.541729
64.630 20.224115
64.635 20.780897
64.640 20.501219
64.645 19.673054
64.650 19.00964
64.655 18.35561
64.660 18.666372
64.665 18.987272
64.670 19.105898
64.675 19.514885
64.680 19.739525
64.685 19.640362
64.690 19.555973
64.695 19.16633
64.700 18.723907
64.705 18.409716
64.710 18.711449
64.715 18.599018
64.720 18.609999
64.725 19.024208
64.730 18.725218
64.735 18.443499
64.740 18.504457
64.745 17.999174
64.750 18.165964
64.755 18.660929
64.760 18.798212
64.765 19.100237
64.770 19.382599
64.775 19.089369
64.780 18.965012
64.785 18.977814
64.790 18.379829
64.795 18.304108
64.800 18.421801
64.805 18.855225
64.810 19.18288
64.815 19.479733
64.820 19.544294
64.825 19.897755
64.830 19.704922
64.835 19.887209
64.840 19.462715
64.845 18.588625
64.850 18.181631
64.855 18.300179
64.860 17.938595
64.865 18.195213
64.870 18.073658
64.875 18.457632
64.880 19.140392
64.885 19.36941
64.890 19.693253
64.895 20.447428
64.900 20.466812
64.905 20.276396
64.910 19.993233
64.915 20.288967
64.920 20.369581
64.925 19.915173
64.930 19.506937
64.935 19.819994
64.940 20.469645
64.945 20.60866
64.950 21.260509
64.955 20.894079
64.960 20.615284
64.965 20.893908
64.970 20.716654
64.975 20.975147
64.980 21.381065
64.985 20.8526
64.990 21.48143
64.995 21.736971
65.000 21.143848
65.005 21.406809
65.010 20.822323
65.015 20.109415
65.020 20.345493
65.025 20.772465
65.030 21.008488
65.035 21.114794
65.040 20.440453
65.045 20.7766
65.050 21.181643
65.055 20.66177
65.060 20.620352
65.065 20.557552
65.070 20.712118
65.075 21.17403
65.080 21.627928
65.085 21.838512
65.090 21.908457
65.095 22.126549
65.100 22.727261
65.105 23.280914
65.110 23.104519
65.115 22.599138
65.120 22.623703
65.125 23.742386
65.130 23.816694
65.135 23.418983
65.140 22.730766
65.145 22.659979
65.150 22.874592
65.155 22.482449
65.160 21.994707
65.165 22.002958
65.170 22.264505
65.175 22.473612
65.180 22.296604
65.185 22.070345
65.190 22.08744
65.195 21.525928
65.200 21.735624
65.205 22.060612
65.210 22.232378
65.215 22.476852
65.220 22.809998
65.225 22.971308
65.230 23.463589
65.235 22.798849
65.240 22.696621
65.245 22.752689
65.250 22.670712
65.255 22.162592
65.260 22.199507
65.265 22.075447
65.270 22.581238
65.275 22.621548
65.280 22.460249
65.285 22.862888
65.290 22.634497
65.295 22.65836
65.300 22.267391
65.305 21.990271
65.310 21.191694
65.315 21.06217
65.320 21.051443
65.325 21.245096
65.330 20.742939
65.335 21.213982
65.340 21.537571
65.345 21.990078
65.350 22.509985
65.355 22.74328
65.360 23.239353
65.365 23.461626
65.370 22.745317
65.375 22.380981
65.380 22.728779
65.385 22.551714
65.390 22.576052
65.395 22.655449
65.400 23.052475
65.405 23.440834
65.410 24.132771
65.415 24.003588
65.420 23.431767
65.425 23.267914
65.430 23.047945
65.435 22.978819
65.440 22.805222
65.445 22.346697
65.450 22.593422
65.455 23.402765
65.460 23.614647
65.465 23.40568
65.470 23.760262
65.475 23.736097
65.480 23.770613
65.485 23.542934
65.490 24.038353
65.495 24.756184
65.500 25.062817
65.505 24.439304
65.510 25.26849
65.515 25.478758
65.520 25.198492
65.525 24.536835
65.530 23.777739
65.535 23.927284
65.540 24.150164
65.545 23.511972
65.550 24.018368
65.555 24.734961
65.560 24.992292
65.565 25.396149
65.570 26.560493
65.575 27.178795
65.580 28.402372
65.585 28.739971
65.590 29.26372
65.595 29.947828
65.600 30.315065
65.605 30.882599
65.610 30.645674
65.615 30.419708
65.620 30.407694
65.625 30.17981
65.630 29.741545
65.635 28.797409
65.640 28.105694
65.645 28.763931
65.650 28.639318
65.655 28.595428
65.660 29.09708
65.665 30.438139
65.670 30.988935
65.675 30.992556
65.680 31.905371
65.685 31.77981
65.690 32.369282
65.695 32.37833
65.700 32.64669
65.705 32.748211
65.710 33.35347
65.715 33.544903
65.720 33.918201
65.725 34.384907
65.730 34.867825
65.735 34.472851
65.740 34.857147
65.745 34.576408
65.750 33.800526
65.755 33.872433
65.760 33.348713
65.765 33.021687
65.770 32.897598
65.775 33.513382
65.780 34.236694
65.785 35.392864
65.790 36.473522
65.795 36.619881
65.800 36.644913
65.805 37.020481
65.810 36.569141
65.815 36.343784
65.820 36.537781
65.825 36.217068
65.830 36.293289
65.835 35.99276
65.840 36.265617
65.845 35.851681
65.850 35.750782
65.855 36.111259
65.860 36.365856
65.865 37.197773
65.870 37.694057
65.875 37.300137
65.880 37.596188
65.885 37.610588
65.890 37.259598
65.895 36.651798
65.900 36.543694
65.905 37.223019
65.910 37.368439
65.915 37.91515
65.920 38.297817
65.925 38.478363
65.930 38.693661
65.935 38.877598
65.940 38.651653
65.945 38.695141
65.950 38.96159
65.955 38.974766
65.960 39.215794
65.965 39.810688
65.970 39.371479
65.975 38.893379
65.980 39.152882
65.985 38.370876
65.990 37.653179
65.995 38.021339
66.000 37.952179
66.005 37.593975
66.010 38.110577
66.015 37.792068
66.020 37.803646
66.025 37.52338
66.030 37.588364
66.035 38.110455
66.040 38.531788
66.045 38.867737
66.050 39.548107
66.055 40.057072
66.060 40.09341
66.065 39.760384
66.070 39.187756
66.075 38.520344
66.080 37.850903
66.085 37.718033
66.090 37.510498
66.095 37.869778
66.100 37.429256
66.105 37.324677
66.110 38.185745
66.115 38.442001
66.120 38.357296
66.125 38.423943
66.130 38.444962
66.135 38.02663
66.140 37.700947
66.145 36.639286
66.150 36.12067
66.155 35.988312
66.160 35.927818
66.165 35.667133
66.170 35.379616
66.175 35.753685
66.180 36.03363
66.185 35.941761
66.190 35.917747
66.195 36.185196
66.200 36.457848
66.205 36.229084
66.210 35.920551
66.215 35.878273
66.220 35.471779
66.225 35.191853
66.230 33.970814
66.235 33.296532
66.240 33.336853
66.245 33.105755
66.250 33.051022
66.255 32.744793
66.260 33.116852
66.265 33.779476
66.270 33.426151
66.275 32.834793
66.280 32.452839
66.285 31.951946
66.290 31.775517
66.295 31.273554
66.300 31.385616
66.305 31.487581
66.310 32.045746
66.315 32.270172
66.320 32.168915
66.325 32.120464
66.330 31.405586
66.335 31.039032
66.340 30.825134
66.345 30.308773
66.350 30.472395
66.355 30.55439
66.360 30.628168
66.365 30.609615
66.370 30.892019
66.375 30.727985
66.380 30.51441
66.385 30.396542
66.390 31.041468
66.395 30.711294
66.400 31.057108
66.405 30.737329
66.410 31.111576
66.415 31.201466
66.420 30.863482
66.425 30.995007
66.430 31.573957
66.435 31.572556
66.440 31.232893
66.445 30.574738
66.450 30.457836
66.455 29.953016
66.460 28.300348
66.465 27.653412
66.470 27.143055
66.475 26.641291
66.480 27.118019
66.485 26.727325
66.490 27.124434
66.495 27.573101
66.500 27.170109
66.505 27.430185
66.510 27.099419
66.515 25.977154
66.520 26.015825
66.525 25.370729
66.530 25.150661
66.535 24.875736
66.540 24.78775
66.545 25.12413
66.550 25.914148
66.555 26.087591
66.560 26.238503
66.565 26.633184
66.570 27.162201
66.575 26.638386
66.580 26.342964
66.585 25.620481
66.590 25.205191
66.595 25.587584
66.600 25.457258
66.605 25.387131
66.610 26.006924
66.615 25.818857
66.620 26.060617
66.625 26.28125
66.630 25.878609
66.635 25.319016
66.640 25.422394
66.645 25.383316
66.650 25.796844
66.655 26.136236
66.660 25.978584
66.665 25.705372
66.670 26.489136
66.675 26.197287
66.680 26.306269
66.685 26.423843
66.690 26.045341
66.695 25.799786
66.700 25.963465
66.705 25.479965
66.710 25.487829
66.715 24.837585
66.720 24.146084
66.725 23.530382
66.730 23.622307
66.735 24.007799
66.740 23.973938
66.745 24.170448
66.750 24.625519
66.755 24.858147
66.760 25.788534
66.765 25.573576
66.770 24.873743
66.775 24.422827
66.780 24.132217
66.785 24.010408
66.790 23.637716
66.795 23.112858
66.800 23.374088
66.805 23.670816
66.810 23.454792
66.815 22.924528
66.820 22.790623
66.825 23.106762
66.830 22.723673
66.835 22.347158
66.840 22.335897
66.845 22.17639
66.850 22.066782
66.855 21.87233
66.860 22.561268
66.865 22.642815
66.870 22.878729
66.875 22.93659
66.880 22.790819
66.885 22.770735
66.890 23.36269
66.895 23.10107
66.900 23.422762
66.905 23.176617
66.910 23.628349
66.915 24.583521
66.920 24.952471
66.925 24.422523
66.930 23.644941
66.935 23.707108
66.940 24.063543
66.945 23.558233
66.950 23.090248
66.955 22.865088
66.960 22.34795
66.965 21.784601
66.970 21.828812
66.975 21.693188
66.980 21.952051
66.985 22.157436
66.990 22.27437
66.995 22.553305
67.000 23.058052
67.005 22.822987
67.010 22.754433
67.015 22.490705
67.020 22.100174
67.025 21.55946
67.030 22.00506
67.035 22.358959
67.040 22.287846
67.045 21.74827
67.050 21.950062
67.055 22.620417
67.060 23.082161
67.065 22.532679
67.070 22.694376
67.075 22.924992
67.080 22.929762
67.085 22.63958
67.090 22.214016
67.095 21.968788
67.100 21.69405
67.105 21.097157
67.110 20.582478
67.115 20.4925
67.120 20.724669
67.125 20.846416
67.130 21.391443
67.135 21.498856
67.140 21.65131
67.145 22.166315
67.150 22.788
67.155 23.349997
67.160 22.90452
67.165 23.027714
67.170 23.102333
67.175 23.0396
67.180 22.822559
67.185 21.94076
67.190 21.638384
67.195 22.32609
67.200 22.326256
67.205 22.771639
67.210 22.87756
67.215 23.159576
67.220 23.388578
67.225 22.587082
67.230 21.958834
67.235 21.233414
67.240 20.913445
67.245 20.465672
67.250 20.388947
67.255 20.014427
67.260 20.248482
67.265 20.617769
67.270 21.369566
67.275 21.349155
67.280 21.566292
67.285 21.58857
67.290 22.084393
67.295 22.293486
67.300 22.31716
67.305 21.433506
67.310 20.888391
67.315 21.178734
67.320 21.240353
67.325 21.169275
67.330 20.69828
67.335 20.708771
67.340 21.044628
67.345 21.304726
67.350 21.509916
67.355 21.138554
67.360 21.215151
67.365 21.453703
67.370 20.982401
67.375 20.713167
67.380 20.910042
67.385 20.005585
67.390 20.262842
67.395 19.91324
67.400 19.926991
67.405 20.01438
67.410 19.865751
67.415 20.014795
67.420 20.335712
67.425 19.98234
67.430 20.207899
67.435 20.388271
67.440 20.472752
67.445 20.516262
67.450 20.385948
67.455 20.498865
67.460 20.608091
67.465 21.026367
67.470 21.111456
67.475 21.196966
67.480 21.326986
67.485 21.45496
67.490 21.865587
67.495 22.114059
67.500 21.916094
67.505 21.522064
67.510 21.546425
67.515 21.682068
67.520 21.463749
67.525 21.205482
67.530 20.873098
67.535 20.574858
67.540 20.800203
67.545 20.94142
67.550 20.892937
67.555 21.113956
67.560 21.451086
67.565 21.973438
67.570 22.25843
67.575 22.003201
67.580 21.911577
67.585 22.115507
67.590 21.938583
67.595 22.150936
67.600 22.135439
67.605 22.437681
67.610 22.600922
67.615 22.561157
67.620 22.291849
67.625 21.979282
67.630 21.25841
67.635 20.823668
67.640 20.243752
67.645 20.483948
67.650 21.147385
67.655 21.508404
67.660 21.993465
67.665 22.281466
67.670 22.031786
67.675 22.098824
67.680 22.094234
67.685 21.659866
67.690 21.404217
67.695 21.317127
67.700 21.059643
67.705 21.420364
67.710 21.791883
67.715 21.82284
67.720 21.532743
67.725 21.60803
67.730 21.513079
67.735 21.620455
67.740 21.120436
67.745 20.292107
67.750 20.335209
67.755 20.331699
67.760 19.94087
67.765 19.903303
67.770 20.325754
67.775 20.994816
67.780 21.419252
67.785 21.305332
67.790 21.215567
67.795 21.391094
67.800 21.4853
67.805 21.250673
67.810 20.798023
67.815 20.342171
67.820 20.283575
67.825 20.702847
67.830 20.328732
67.835 20.074686
67.840 20.24398
67.845 20.016119
67.850 19.832102
67.855 20.050346
67.860 19.57287
67.865 19.753923
67.870 19.341837
67.875 18.800398
67.880 19.142963
67.885 19.562174
67.890 19.725874
67.895 20.008099
67.900 20.217457
67.905 20.664112
67.910 20.581671
67.915 21.318827
67.920 21.400877
67.925 20.578634
67.930 20.635473
67.935 20.545559
67.940 20.551395
67.945 20.8123
67.950 19.936726
67.955 19.918032
67.960 19.956905
67.965 19.578955
67.970 19.479399
67.975 19.681282
67.980 19.983398
67.985 20.459444
67.990 20.643476
67.995 21.306967
68.000 21.312311
68.005 21.109724
68.010 20.836561
68.015 20.390352
68.020 19.718544
68.025 19.20809
68.030 19.229292
68.035 19.267294
68.040 19.390413
68.045 19.530479
68.050 20.200718
68.055 20.465416
68.060 20.518883
68.065 20.456612
68.070 20.976439
68.075 21.425579
68.080 21.638397
68.085 21.460344
68.090 21.053318
68.095 20.620583
68.100 20.156601
68.105 20.67737
68.110 21.195728
68.115 21.470491
68.120 21.591904
68.125 22.159136
68.130 22.869795
68.135 22.925798
68.140 22.092718
68.145 21.914667
68.150 22.170868
68.155 22.163303
68.160 22.192804
68.165 21.919151
68.170 21.872919
68.175 21.720907
68.180 21.271444
68.185 20.721802
68.190 20.571142
68.195 20.376225
68.200 20.434994
68.205 20.509451
68.210 20.761869
68.215 21.418888
68.220 21.680605
68.225 21.84234
68.230 21.552151
68.235 21.462038
68.240 21.732803
68.245 22.438765
68.250 21.906685
68.255 21.737331
68.260 21.967304
68.265 22.34902
68.270 22.75486
68.275 22.486761
68.280 21.542765
68.285 21.257586
68.290 21.112682
68.295 21.005033
68.300 20.735079
68.305 20.797194
68.310 20.166683
68.315 19.87454
68.320 19.645546
68.325 20.027933
68.330 20.256926
68.335 20.158525
68.340 20.185711
68.345 20.562666
68.350 20.878717
68.355 21.253185
68.360 20.739498
68.365 20.30912
68.370 20.213348
68.375 20.190289
68.380 20.386219
68.385 20.952974
68.390 20.925753
68.395 21.068062
68.400 21.052324
68.405 21.151964
68.410 21.534927
68.415 21.363552
68.420 20.969885
68.425 20.500511
68.430 20.215322
68.435 20.127993
68.440 20.154457
68.445 20.528267
68.450 20.402205
68.455 20.523684
68.460 20.737942
68.465 21.659685
68.470 21.728558
68.475 21.633987
68.480 21.418686
68.485 21.286772
68.490 21.751799
68.495 22.231007
68.500 21.520489
68.505 20.860703
68.510 20.485632
68.515 19.93959
68.520 19.480282
68.525 19.582582
68.530 18.944801
68.535 19.085958
68.540 19.296614
68.545 19.189472
68.550 18.946775
68.555 19.36685
68.560 19.220009
68.565 19.512121
68.570 19.865423
68.575 19.635397
68.580 19.666176
68.585 19.873207
68.590 19.714701
68.595 19.428835
68.600 19.167938
68.605 19.290297
68.610 19.499212
68.615 19.815639
68.620 20.222757
68.625 19.771578
68.630 19.807133
68.635 20.05039
68.640 20.148123
68.645 20.863611
68.650 20.559393
68.655 20.556011
68.660 20.92293
68.665 21.486349
68.670 21.389908
68.675 21.319395
68.680 21.169907
68.685 21.509466
68.690 21.405571
68.695 21.280823
68.700 20.979445
68.705 21.174082
68.710 21.179745
68.715 21.598621
68.720 21.473429
68.725 21.143671
68.730 21.312851
68.735 21.296965
68.740 21.324827
68.745 21.28829
68.750 20.737658
68.755 20.849241
68.760 21.549309
68.765 21.543894
68.770 22.257769
68.775 22.241863
68.780 22.292912
68.785 22.519217
68.790 22.699274
68.795 22.761335
68.800 22.421375
68.805 21.6395
68.810 22.052818
68.815 22.159399
68.820 21.816013
68.825 21.487782
68.830 20.890736
68.835 21.240583
68.840 21.270708
68.845 21.193855
68.850 21.506922
68.855 22.231817
68.860 22.576078
68.865 22.133965
68.870 22.039852
68.875 21.827047
68.880 21.473907
68.885 20.731335
68.890 20.579575
68.895 21.074289
68.900 21.489197
68.905 21.70229
68.910 22.545324
68.915 23.475096
68.920 23.994497
68.925 23.991777
68.930 23.756508
68.935 23.720377
68.940 23.841511
68.945 23.166445
68.950 23.027813
68.955 23.06218
68.960 23.328272
68.965 23.356197
68.970 23.251522
68.975 23.577759
68.980 23.907949
68.985 23.59236
68.990 23.337303
68.995 22.73399
69.000 22.853472
69.005 22.794313
69.010 22.423956
69.015 22.224434
69.020 21.879637
69.025 21.688274
69.030 21.603731
69.035 21.971212
69.040 22.385862
69.045 22.23164
69.050 22.359253
69.055 22.568867
69.060 23.247435
69.065 23.47064
69.070 23.763683
69.075 24.482105
69.080 24.72101
69.085 24.64155
69.090 25.160488
69.095 25.346527
69.100 25.906618
69.105 25.766569
69.110 25.354856
69.115 25.548655
69.120 26.432743
69.125 26.180298
69.130 25.457495
69.135 25.454622
69.140 26.239811
69.145 26.611618
69.150 26.913126
69.155 26.267551
69.160 25.999176
69.165 26.373156
69.170 25.959099
69.175 25.17058
69.180 25.226858
69.185 24.939337
69.190 24.737715
69.195 25.181885
69.200 25.375757
69.205 25.50382
69.210 26.218834
69.215 26.216316
69.220 26.750628
69.225 27.778465
69.230 28.418777
69.235 28.467215
69.240 28.423773
69.245 28.705275
69.250 28.477503
69.255 27.852972
69.260 27.518658
69.265 26.716053
69.270 27.266987
69.275 28.184189
69.280 28.092073
69.285 28.041027
69.290 28.063103
69.295 27.689514
69.300 27.968138
69.305 27.505663
69.310 26.929375
69.315 27.225832
69.320 27.855196
69.325 27.997829
69.330 28.334139
69.335 28.453636
69.340 28.319391
69.345 27.535782
69.350 27.420498
69.355 26.869759
69.360 26.519522
69.365 26.643097
69.370 26.751955
69.375 27.117615
69.380 27.247019
69.385 27.339828
69.390 28.581692
69.395 28.922722
69.400 28.674006
69.405 28.278488
69.410 28.074587
69.415 27.987965
69.420 27.164352
69.425 26.294113
69.430 27.221479
69.435 27.262577
69.440 27.737282
69.445 28.349598
69.450 28.386318
69.455 28.90905
69.460 29.016108
69.465 29.144302
69.470 29.576769
69.475 29.096447
69.480 29.108858
69.485 30.311472
69.490 30.310284
69.495 30.647408
69.500 29.873306
69.505 29.670538
69.510 29.676186
69.515 29.196402
69.520 28.275583
69.525 28.040619
69.530 27.918283
69.535 27.800354
69.540 27.936447
69.545 28.761766
69.550 28.553997
69.555 28.406715
69.560 28.377802
69.565 29.012262
69.570 29.575941
69.575 28.977945
69.580 28.765802
69.585 28.529289
69.590 28.615639
69.595 28.213253
69.600 27.674988
69.605 27.687441
69.610 27.978041
69.615 27.732555
69.620 28.821211
69.625 28.920496
69.630 29.145012
69.635 29.241962
69.640 29.22662
69.645 28.96454
69.650 28.475269
69.655 28.34248
69.660 28.415041
69.665 27.672514
69.670 27.186214
69.675 26.971926
69.680 27.039499
69.685 27.372187
69.690 26.700747
69.695 26.943958
69.700 27.864614
69.705 27.308466
69.710 26.436068
69.715 26.121649
69.720 26.049511
69.725 25.534389
69.730 24.704498
69.735 24.433687
69.740 25.08111
69.745 25.17992
69.750 24.999617
69.755 25.099052
69.760 25.511244
69.765 25.951008
69.770 25.674986
69.775 25.810715
69.780 26.640154
69.785 26.867704
69.790 26.874413
69.795 26.88188
69.800 26.761091
69.805 26.471346
69.810 26.48069
69.815 26.586298
69.820 27.084641
69.825 26.915998
69.830 26.730734
69.835 26.617504
69.840 26.606167
69.845 26.084482
69.850 25.696411
69.855 25.188869
69.860 25.441561
69.865 24.954172
69.870 24.612576
69.875 24.634027
69.880 25.204494
69.885 25.275127
69.890 25.356392
69.895 25.102627
69.900 25.057657
69.905 25.192354
69.910 25.10305
69.915 23.733168
69.920 23.376137
69.925 23.414108
69.930 23.808455
69.935 23.858095
69.940 23.604883
69.945 23.299736
69.950 23.777336
69.955 23.622362
69.960 22.580467
69.965 21.792698
69.970 21.795959
69.975 21.880239
69.980 21.517658
69.985 21.27824
69.990 21.065374
69.995 21.179544
70.000 21.640722
70.005 21.333012
70.010 21.75279
70.015 21.702654
70.020 21.742107
70.025 22.343145
70.030 22.421671
70.035 22.29285
70.040 22.185024
70.045 21.73509
70.050 22.009441
70.055 21.629416
70.060 21.254177
70.065 21.178986
70.070 21.207222
70.075 20.939825
70.080 20.426998
70.085 20.08968
70.090 20.469538
70.095 20.398497
70.100 19.674932
70.105 19.800486
70.110 20.294907
70.115 20.877424
70.120 20.941284
70.125 21.090744
70.130 21.524366
70.135 22.271269
70.140 22.263746
70.145 22.308764
70.150 22.104742
70.155 22.273479
70.160 22.165869
70.165 22.308098
70.170 21.813753
70.175 21.662901
70.180 21.689812
70.185 21.851048
70.190 21.58322
70.195 21.508631
70.200 20.985853
70.205 20.884972
70.210 19.985987
70.215 19.496462
70.220 19.598003
70.225 19.328329
70.230 18.649393
70.235 18.982349
70.240 19.098881
70.245 19.449774
70.250 19.562191
70.255 19.430395
70.260 19.620173
70.265 20.190641
70.270 19.931717
70.275 19.516014
70.280 19.993879
70.285 20.295916
70.290 20.552404
70.295 21.1991
70.300 20.895395
70.305 20.909285
70.310 21.691536
70.315 21.823164
70.320 21.423147
70.325 20.768032
70.330 20.177891
70.335 20.2505
70.340 20.541813
70.345 20.033028
70.350 19.90662
70.355 20.115894
70.360 20.237396
70.365 19.652933
70.370 19.446476
70.375 18.66876
70.380 18.082262
70.385 18.00329
70.390 18.117659
70.395 18.413572
70.400 19.148987
70.405 19.520626
70.410 20.161997
70.415 20.936811
70.420 20.957243
70.425 20.737274
70.430 20.775961
70.435 20.793961
70.440 20.592127
70.445 20.155273
70.450 19.865442
70.455 19.715944
70.460 20.260555
70.465 20.540955
70.470 20.590477
70.475 20.70812
70.480 20.87571
70.485 21.200928
70.490 21.449446
70.495 21.114378
70.500 20.574385
70.505 20.646954
70.510 20.780064
70.515 21.104475
70.520 20.848093
70.525 20.550182
70.530 20.387562
70.535 20.675289
70.540 20.655638
70.545 20.860302
70.550 20.382704
70.555 20.626661
70.560 20.437687
70.565 20.253725
70.570 20.600719
70.575 20.600737
70.580 20.417223
70.585 20.538849
70.590 20.62936
70.595 20.939915
70.600 20.805092
70.605 20.257366
70.610 20.147179
70.615 19.675989
70.620 19.299351
70.625 19.155451
70.630 18.830143
70.635 18.443634
70.640 18.299076
70.645 18.359085
70.650 18.612616
70.655 19.341259
70.660 19.510559
70.665 19.656523
70.670 20.010799
70.675 19.85041
70.680 19.492247
70.685 19.487326
70.690 19.35437
70.695 19.145231
70.700 18.929922
70.705 19.431055
70.710 19.892675
70.715 20.088667
70.720 19.73283
70.725 19.365345
70.730 18.740772
70.735 18.941372
70.740 18.132519
70.745 17.851318
70.750 18.286964
70.755 18.589199
70.760 18.300591
70.765 18.440113
70.770 18.192698
70.775 18.04439
70.780 17.667925
70.785 17.52132
70.790 17.727398
70.795 18.294683
70.800 18.989994
70.805 19.672363
70.810 20.407951
70.815 20.489567
70.820 20.136444
70.825 20.362719
70.830 20.537806
70.835 19.867826
70.840 19.57283
70.845 19.037117
70.850 19.552607
70.855 19.272512
70.860 18.657679
70.865 18.79344
70.870 18.751287
70.875 18.61339
70.880 19.047422
70.885 18.562239
70.890 18.87516
70.895 18.814772
70.900 19.23251
70.905 19.261572
70.910 20.046906
70.915 20.181366
70.920 20.844919
70.925 20.869268
70.930 20.630625
70.935 20.689503
70.940 20.669052
70.945 20.385412
70.950 20.428253
70.955 20.337214
70.960 20.134653
70.965 19.767548
70.970 19.076578
70.975 18.792471
70.980 18.295992
70.985 18.127012
70.990 17.511824
70.995 17.09086
71.000 17.640535
71.005 17.584528
71.010 17.501331
71.015 17.504276
71.020 17.386044
71.025 17.630854
71.030 17.307589
71.035 17.46958
71.040 17.71471
71.045 17.352118
71.050 17.288517
71.055 17.488787
71.060 18.015501
71.065 18.392712
71.070 18.466883
71.075 18.700012
71.080 19.131184
71.085 19.351521
71.090 19.446154
71.095 19.423452
71.100 19.116636
71.105 18.475805
71.110 18.026651
71.115 18.092657
71.120 17.920158
71.125 17.702299
71.130 17.914232
71.135 18.073263
71.140 18.250887
71.145 18.676294
71.150 18.84379
71.155 19.095427
71.160 19.089676
71.165 19.315577
71.170 19.404514
71.175 19.31287
71.180 19.498291
71.185 19.003853
71.190 18.455156
71.195 18.12645
71.200 17.778595
71.205 18.531336
71.210 18.610666
71.215 18.287769
71.220 18.197153
71.225 18.538004
71.230 18.514406
71.235 17.928009
71.240 17.184986
71.245 17.216879
71.250 17.586409
71.255 18.132183
71.260 18.511625
71.265 18.753792
71.270 19.17675
71.275 19.123919
71.280 19.160328
71.285 18.994009
71.290 18.434055
71.295 18.075457
71.300 17.488239
71.305 17.399134
71.310 17.578009
71.315 17.552414
71.320 17.593189
71.325 17.803398
71.330 18.46583
71.335 19.538282
71.340 19.585129
71.345 19.056826
71.350 19.568632
71.355 19.714052
71.360 20.060316
71.365 20.08078
71.370 19.946907
71.375 20.683306
71.380 20.880861
71.385 21.129372
71.390 20.699617
71.395 20.697689
71.400 20.187979
71.405 20.193949
71.410 19.601707
71.415 20.015036
71.420 20.018675
71.425 20.041597
71.430 19.283323
71.435 18.707979
71.440 18.56679
71.445 18.480846
71.450 17.760038
71.455 18.030951
71.460 18.656401
71.465 19.811462
71.470 20.168711
71.475 19.991419
71.480 20.248346
71.485 20.319317
71.490 19.704752
71.495 19.171412
71.500 18.996717
71.505 18.858974
71.510 19.057102
71.515 19.133457
71.520 18.935839
71.525 19.300951
71.530 19.255486
71.535 19.29405
71.540 19.836191
71.545 19.938868
71.550 20.278807
71.555 20.577261
71.560 19.867493
71.565 19.732794
71.570 19.364691
71.575 19.32028
71.580 19.266502
71.585 19.335114
71.590 18.991199
71.595 19.394873
71.600 19.211683
71.605 19.120224
71.610 19.298206
71.615 18.57345
71.620 18.589533
71.625 18.515036
71.630 18.410433
71.635 18.421522
71.640 18.467979
71.645 18.717459
71.650 18.86754
71.655 18.848549
71.660 18.747583
71.665 18.1597
71.670 18.453068
71.675 18.447556
71.680 18.076698
71.685 17.921436
71.690 18.064417
71.695 18.654463
71.700 19.460361
71.705 19.081606
71.710 18.693195
71.715 18.964182
71.720 18.913567
71.725 18.580404
71.730 18.902264
71.735 18.795336
71.740 18.824602
71.745 19.042114
71.750 19.073954
71.755 19.086653
71.760 19.017828
71.765 18.487335
71.770 18.185457
71.775 18.768194
71.780 19.024822
71.785 19.203741
71.790 19.175762
71.795 19.679747
71.800 19.910347
71.805 20.189379
71.810 19.740349
71.815 19.569052
71.820 19.811935
71.825 19.17926
71.830 18.539885
71.835 18.591066
71.840 17.855587
71.845 17.705135
71.850 17.599918
71.855 17.387951
71.860 18.014082
71.865 18.80381
71.870 19.048853
71.875 19.576033
71.880 18.826376
71.885 18.73926
71.890 18.743256
71.895 17.9778
71.900 17.142998
71.905 17.129276
71.910 17.649286
71.915 18.518724
71.920 18.821926
71.925 19.564627
71.930 19.580383
71.935 19.841501
71.940 19.546391
71.945 18.750223
71.950 18.329149
71.955 18.201193
71.960 18.29331
71.965 18.595716
71.970 18.924917
71.975 19.287182
71.980 20.452118
71.985 20.769169
71.990 20.589497
71.995 20.708241
72.000 20.510481
72.005 20.367603
72.010 19.589655
72.015 18.809576
72.020 18.456846
72.025 18.298159
72.030 18.116362
72.035 18.366497
72.040 18.72089
72.045 19.276052
72.050 18.774216
72.055 18.834839
72.060 18.659979
72.065 18.356846
72.070 17.936115
72.075 17.499521
72.080 16.993261
72.085 17.982294
72.090 18.227959
72.095 18.021788
72.100 18.162739
72.105 18.098492
72.110 18.368252
72.115 19.323177
72.120 18.064701
72.125 17.772343
72.130 18.170366
72.135 18.279242
72.140 18.659307
72.145 18.5506
72.150 18.166275
72.155 18.596012
72.160 18.559839
72.165 18.055532
72.170 17.864977
72.175 17.965748
72.180 18.439857
72.185 18.61458
72.190 18.913044
72.195 19.298344
72.200 19.67345
72.205 19.337242
72.210 19.003405
72.215 18.446285
72.220 18.089462
72.225 17.404776
72.230 17.485527
72.235 17.290314
72.240 17.505095
72.245 17.946598
72.250 18.028927
72.255 18.18894
72.260 18.066734
72.265 17.344488
72.270 17.309948
72.275 17.144741
72.280 16.457464
72.285 16.466045
72.290 17.043566
72.295 17.521141
72.300 17.957943
72.305 17.750729
72.310 17.587849
72.315 18.323805
72.320 18.089724
72.325 17.686104
72.330 18.041546
72.335 18.637438
72.340 19.283752
72.345 19.42111
72.350 18.929699
72.355 18.354902
72.360 18.688032
72.365 18.568216
72.370 17.782475
72.375 17.469938
72.380 17.625858
72.385 17.965796
72.390 19.043768
72.395 19.283777
72.400 19.287497
72.405 19.736414
72.410 19.750412
72.415 19.374496
72.420 19.336088
72.425 18.663919
72.430 18.380627
72.435 18.18273
72.440 17.950869
72.445 17.903193
72.450 18.520567
72.455 18.441917
72.460 18.556524
72.465 18.484491
72.470 18.647943
72.475 19.044083
72.480 19.091745
72.485 18.814365
72.490 19.231905
72.495 19.285826
72.500 18.725691
72.505 18.695978
72.510 18.221663
72.515 18.144424
72.520 17.754782
72.525 17.238255
72.530 16.959826
72.535 17.451073
72.540 17.579651
72.545 17.629715
72.550 18.1411
72.555 18.267281
72.560 17.592134
72.565 17.815903
72.570 17.634626
72.575 17.676704
72.580 17.868219
72.585 18.460909
72.590 19.076954
72.595 19.627888
72.600 19.551102
72.605 19.91008
72.610 20.195257
72.615 20.157879
72.620 19.973206
72.625 20.547987
72.630 20.697813
72.635 20.62742
72.640 19.534151
72.645 19.510658
72.650 19.117994
72.655 18.293552
72.660 18.321609
72.665 18.09936
72.670 18.181118
72.675 18.346939
72.680 17.293934
72.685 17.613646
72.690 17.571831
72.695 17.637363
72.700 18.165146
72.705 18.346239
72.710 18.54146
72.715 18.714544
72.720 18.350225
72.725 17.882973
72.730 17.449398
72.735 16.873857
72.740 16.749943
72.745 17.160112
72.750 16.67473
72.755 16.494286
72.760 16.631289
72.765 16.508457
72.770 16.91186
72.775 16.606264
72.780 16.37397
72.785 16.693295
72.790 16.807159
72.795 17.065813
72.800 17.719152
72.805 17.540277
72.810 17.778625
72.815 18.030653
72.820 18.007753
72.825 17.625063
72.830 16.959694
72.835 16.644514
72.840 16.719444
72.845 16.7342
72.850 16.4709
72.855 16.612152
72.860 17.294287
72.865 17.719294
72.870 17.109087
72.875 16.974163
72.880 16.668777
72.885 16.48978
72.890 16.531395
72.895 15.98515
72.900 16.432606
72.905 16.674107
72.910 16.472855
72.915 16.267912
72.920 16.054375
72.925 15.314044
72.930 15.21339
72.935 15.516734
72.940 15.675574
72.945 15.87862
72.950 16.171295
72.955 17.32243
72.960 17.431587
72.965 17.075911
72.970 16.957886
72.975 17.364594
72.980 17.790348
72.985 18.112801
72.990 18.18372
72.995 18.273779
73.000 17.881311
