!@!!GADDS PLOTSO FILE: Chi integration type
!@!!Title/SampleName: map-25
!@!!Comment: ?
!@!!User: Bruker Instrument Administrator
!@!!Site: University of Illinois Chicago
!@!!Frame: map-25_01_000.gfrm
!@!!Wavelengths    1.54184   1.54056   1.54439
!@!!Frame angles: 2Theta: 63.000 Omega: 50.000 Phi: 0.000 Chi: 90.000
!@!!Integration range: 2Theta: 53.000 to 73.000  Gamma: -105.000 to -75.000
!@!!Integration method: bin normalized
!@!N
!@!SS
!@!M
!@!L 0.0 0.0 0.0 0.0
!@!XDegrees
!@!YCounts
53.000 7.913118
53.005 7.975002
53.010 7.824074
53.015 7.46489
53.020 7.662122
53.025 7.4639
53.030 7.582808
53.035 7.334377
53.040 7.622862
53.045 7.944585
53.050 8.082945
53.055 8.029111
53.060 8.078055
53.065 7.99593
53.070 7.646576
53.075 7.415947
53.080 7.125702
53.085 7.129969
53.090 7.262532
53.095 7.350357
53.100 7.687934
53.105 8.224984
53.110 8.373178
53.115 7.972618
53.120 7.669584
53.125 7.273058
53.130 7.056774
53.135 6.667877
53.140 6.213583
53.145 6.32086
53.150 6.593271
53.155 6.581667
53.160 6.648522
53.165 6.861091
53.170 6.868003
53.175 7.141162
53.180 7.388748
53.185 7.512863
53.190 7.587171
53.195 7.457649
53.200 7.689939
53.205 7.623662
53.210 7.287097
53.215 6.925317
53.220 7.012085
53.225 7.152996
53.230 6.941515
53.235 6.954659
53.240 7.188899
53.245 7.263339
53.250 7.332886
53.255 7.518154
53.260 7.601717
53.265 7.689219
53.270 7.648846
53.275 7.581334
53.280 7.818318
53.285 8.210819
53.290 8.17804
53.295 8.304741
53.300 8.598741
53.305 8.29672
53.310 8.365781
53.315 8.71343
53.320 8.971488
53.325 8.802896
53.330 8.373169
53.335 8.443609
53.340 8.629138
53.345 8.356815
53.350 7.44632
53.355 6.912871
53.360 6.902511
53.365 7.193358
53.370 7.269
53.375 7.345638
53.380 7.540224
53.385 8.132242
53.390 8.533366
53.395 9.179864
53.400 9.111242
53.405 9.262456
53.410 9.696947
53.415 9.431154
53.420 8.890132
53.425 8.484443
53.430 8.163107
53.435 7.9502
53.440 7.656278
53.445 7.286799
53.450 7.4833
53.455 7.6791
53.460 7.992187
53.465 8.272757
53.470 8.253887
53.475 8.109754
53.480 8.069662
53.485 7.943502
53.490 8.184829
53.495 8.121872
53.500 7.780229
53.505 7.831004
53.510 8.041245
53.515 8.158381
53.520 8.328809
53.525 8.151362
53.530 8.229859
53.535 8.436849
53.540 8.376431
53.545 8.458469
53.550 8.616632
53.555 8.58186
53.560 8.674063
53.565 8.245554
53.570 8.26405
53.575 8.152798
53.580 8.219409
53.585 8.020408
53.590 8.134193
53.595 7.960741
53.600 7.750836
53.605 7.9374
53.610 8.123618
53.615 8.083791
53.620 7.988219
53.625 8.157328
53.630 8.495675
53.635 8.796551
53.640 8.896053
53.645 8.697253
53.650 8.582234
53.655 8.490873
53.660 8.220658
53.665 8.223597
53.670 8.04683
53.675 7.661309
53.680 7.973307
53.685 8.330317
53.690 8.370588
53.695 8.816881
53.700 8.931124
53.705 9.05596
53.710 8.869987
53.715 8.608939
53.720 9.020883
53.725 8.618742
53.730 8.145035
53.735 7.939701
53.740 8.099238
53.745 8.461636
53.750 8.445673
53.755 8.336801
53.760 8.758399
53.765 8.727096
53.770 8.724862
53.775 8.665812
53.780 8.372796
53.785 7.896237
53.790 7.854822
53.795 7.948849
53.800 7.913454
53.805 7.675241
53.810 7.594369
53.815 8.013741
53.820 8.28439
53.825 8.49663
53.830 8.395859
53.835 8.479725
53.840 8.421651
53.845 8.474179
53.850 8.527557
53.855 8.272132
53.860 7.822875
53.865 7.778666
53.870 8.003806
53.875 8.287461
53.880 8.190518
53.885 7.917772
53.890 8.15323
53.895 8.579821
53.900 8.383964
53.905 8.304551
53.910 8.595426
53.915 9.107088
53.920 9.55182
53.925 9.153473
53.930 9.13768
53.935 9.359672
53.940 9.385869
53.945 9.044261
53.950 8.894291
53.955 8.717535
53.960 8.770837
53.965 9.074804
53.970 9.378619
53.975 9.631602
53.980 9.916853
53.985 9.765743
53.990 9.634882
53.995 9.576907
54.000 9.027936
54.005 8.738062
54.010 8.266437
54.015 7.922301
54.020 7.975621
54.025 7.959023
54.030 8.11158
54.035 8.367199
54.040 8.765022
54.045 9.075523
54.050 9.432173
54.055 9.769592
54.060 9.883165
54.065 9.853426
54.070 10.08991
54.075 10.026563
54.080 9.917522
54.085 9.563378
54.090 9.553188
54.095 9.641276
54.100 9.578232
54.105 9.490657
54.110 9.296592
54.115 8.800282
54.120 8.814481
54.125 8.752554
54.130 8.317684
54.135 8.410127
54.140 8.461599
54.145 8.841875
54.150 9.279525
54.155 9.392883
54.160 9.398341
54.165 9.562409
54.170 9.093811
54.175 8.770737
54.180 8.889136
54.185 8.704562
54.190 8.786074
54.195 9.069878
54.200 9.509517
54.205 9.766759
54.210 9.945823
54.215 9.967626
54.220 10.112829
54.225 9.823676
54.230 9.321997
54.235 9.189318
54.240 8.984779
54.245 8.689197
54.250 8.518669
54.255 8.196686
54.260 8.428375
54.265 8.76594
54.270 8.918077
54.275 9.207531
54.280 9.737218
54.285 9.906231
54.290 10.260741
54.295 10.158164
54.300 9.967631
54.305 9.617095
54.310 9.09044
54.315 8.804159
54.320 8.742987
54.325 8.227164
54.330 8.124383
54.335 7.777872
54.340 8.579452
54.345 8.836668
54.350 8.798021
54.355 9.082623
54.360 9.632725
54.365 9.675337
54.370 9.679137
54.375 9.140965
54.380 9.691748
54.385 9.580413
54.390 9.44204
54.395 9.280436
54.400 9.303446
54.405 9.616942
54.410 9.600632
54.415 9.350129
54.420 9.549286
54.425 9.469772
54.430 9.531111
54.435 9.5222
54.440 9.367987
54.445 9.228774
54.450 8.945763
54.455 9.193464
54.460 8.972975
54.465 9.026844
54.470 8.826173
54.475 8.708817
54.480 8.514993
54.485 8.602853
54.490 8.588436
54.495 8.707442
54.500 8.838704
54.505 9.03251
54.510 9.295886
54.515 9.048413
54.520 9.137002
54.525 9.25082
54.530 9.415876
54.535 9.645125
54.540 10.129247
54.545 10.343452
54.550 10.676066
54.555 10.246956
54.560 10.360871
54.565 10.729604
54.570 10.304828
54.575 9.951921
54.580 10.233941
54.585 10.391945
54.590 10.532136
54.595 10.109081
54.600 9.603518
54.605 9.681076
54.610 9.404592
54.615 9.085088
54.620 9.640693
54.625 9.825009
54.630 9.503869
54.635 9.274933
54.640 9.975121
54.645 10.002091
54.650 9.374157
54.655 8.772576
54.660 9.124931
54.665 9.336333
54.670 9.703922
54.675 9.212687
54.680 9.448236
54.685 9.836009
54.690 9.986966
54.695 9.66527
54.700 9.522799
54.705 8.976766
54.710 8.548081
54.715 8.447834
54.720 8.338024
54.725 8.181449
54.730 8.381276
54.735 8.688247
54.740 8.85773
54.745 9.204106
54.750 9.298862
54.755 9.293503
54.760 9.186485
54.765 9.144273
54.770 9.29701
54.775 9.64846
54.780 9.922913
54.785 9.451481
54.790 9.227117
54.795 9.153076
54.800 9.100411
54.805 8.90156
54.810 8.530754
54.815 8.114069
54.820 8.682287
54.825 9.4355
54.830 9.619581
54.835 9.653214
54.840 9.882751
54.845 10.671986
54.850 10.709561
54.855 10.737108
54.860 10.299976
54.865 10.532583
54.870 10.787102
54.875 10.827983
54.880 10.844933
54.885 11.096089
54.890 11.187966
54.895 11.580873
54.900 11.562664
54.905 11.444906
54.910 11.376784
54.915 11.34842
54.920 11.820755
54.925 11.869343
54.930 11.603079
54.935 11.547953
54.940 11.295861
54.945 10.906475
54.950 10.428862
54.955 9.633459
54.960 9.259681
54.965 9.071173
54.970 9.489341
54.975 9.523832
54.980 9.76498
54.985 10.378206
54.990 10.651737
54.995 10.490737
55.000 10.545309
55.005 10.475227
55.010 10.690281
55.015 10.131413
55.020 9.979145
55.025 10.382431
55.030 10.945604
55.035 10.741329
55.040 10.290553
55.045 10.047998
55.050 10.203128
55.055 9.734037
55.060 9.576609
55.065 9.396123
55.070 9.720269
55.075 10.056258
55.080 10.617294
55.085 10.65723
55.090 10.540652
55.095 10.579838
55.100 10.670292
55.105 11.082392
55.110 10.888804
55.115 10.480193
55.120 10.610217
55.125 10.615036
55.130 10.621164
55.135 10.672976
55.140 10.258948
55.145 10.146361
55.150 10.03682
55.155 9.921659
55.160 9.820718
55.165 9.906845
55.170 9.449941
55.175 9.308066
55.180 9.437654
55.185 9.61473
55.190 10.290302
55.195 10.700706
55.200 10.101396
55.205 10.001657
55.210 10.067617
55.215 10.546807
55.220 10.43479
55.225 9.782623
55.230 9.989614
55.235 10.557628
55.240 10.976302
55.245 10.883603
55.250 10.094732
55.255 10.035066
55.260 10.222901
55.265 10.133597
55.270 9.628899
55.275 9.662155
55.280 10.19294
55.285 10.872131
55.290 11.027552
55.295 10.98917
55.300 10.862199
55.305 11.145309
55.310 10.915865
55.315 10.536873
55.320 10.624538
55.325 10.847419
55.330 10.755334
55.335 10.676803
55.340 10.667262
55.345 10.947636
55.350 10.849523
55.355 10.273124
55.360 10.056656
55.365 10.33443
55.370 10.472965
55.375 10.287742
55.380 9.986829
55.385 10.25156
55.390 10.462197
55.395 10.594813
55.400 10.255949
55.405 10.183824
55.410 10.60143
55.415 10.880932
55.420 10.777228
55.425 10.83196
55.430 10.543573
55.435 10.547598
55.440 10.336292
55.445 9.962
55.450 9.668585
55.455 9.676319
55.460 9.351512
55.465 9.897118
55.470 10.13763
55.475 10.125421
55.480 10.283779
55.485 10.938618
55.490 10.850328
55.495 10.969012
55.500 11.016374
55.505 10.913617
55.510 11.228128
55.515 10.995472
55.520 11.179647
55.525 11.567496
55.530 11.044382
55.535 11.243006
55.540 11.230193
55.545 11.177602
55.550 11.992586
55.555 12.055969
55.560 12.26168
55.565 12.794433
55.570 12.5162
55.575 12.955531
55.580 13.036171
55.585 12.552485
55.590 12.416221
55.595 12.190484
55.600 12.078819
55.605 12.517137
55.610 12.534472
55.615 12.549805
55.620 12.219701
55.625 12.201341
55.630 12.04217
55.635 11.863068
55.640 11.621857
55.645 11.207766
55.650 10.478012
55.655 10.587099
55.660 10.316375
55.665 9.97867
55.670 9.584928
55.675 9.336819
55.680 9.408799
55.685 9.637609
55.690 9.757872
55.695 10.195716
55.700 10.571188
55.705 10.769069
55.710 10.928371
55.715 10.654605
55.720 11.107809
55.725 11.122848
55.730 11.136192
55.735 11.433287
55.740 11.438737
55.745 11.227078
55.750 11.299679
55.755 11.150036
55.760 11.559477
55.765 11.621383
55.770 11.533985
55.775 11.95431
55.780 12.211435
55.785 11.965049
55.790 11.478091
55.795 11.154408
55.800 10.969269
55.805 11.21151
55.810 11.445539
55.815 11.381508
55.820 11.511914
55.825 11.502048
55.830 11.509985
55.835 11.774751
55.840 11.465569
55.845 11.026245
55.850 11.419183
55.855 11.691544
55.860 11.705624
55.865 11.819641
55.870 11.452178
55.875 11.163958
55.880 11.027145
55.885 10.885054
55.890 10.84667
55.895 10.540201
55.900 10.255306
55.905 10.231209
55.910 10.396867
55.915 10.786288
55.920 11.066089
55.925 11.024549
55.930 11.386206
55.935 11.177791
55.940 10.995234
55.945 11.458885
55.950 11.717071
55.955 11.056873
55.960 10.919695
55.965 10.926423
55.970 11.586454
55.975 12.031084
55.980 11.64149
55.985 11.709634
55.990 11.712933
55.995 11.842711
56.000 11.830338
56.005 11.483997
56.010 11.244329
56.015 10.970285
56.020 10.478188
56.025 10.932824
56.030 11.511553
56.035 12.083176
56.040 12.226768
56.045 12.339728
56.050 12.379629
56.055 12.491788
56.060 12.500225
56.065 11.559453
56.070 11.134757
56.075 11.379392
56.080 11.161336
56.085 11.326234
56.090 10.999355
56.095 10.774354
56.100 10.953407
56.105 10.908439
56.110 10.484737
56.115 10.323112
56.120 10.522339
56.125 10.430097
56.130 10.618881
56.135 10.871519
56.140 10.839559
56.145 11.213617
56.150 11.677002
56.155 11.797365
56.160 12.369226
56.165 12.371219
56.170 12.170807
56.175 12.308306
56.180 12.168605
56.185 12.19733
56.190 12.522516
56.195 12.4662
56.200 12.823478
56.205 13.021536
56.210 12.65595
56.215 12.90172
56.220 12.767303
56.225 12.54547
56.230 12.337196
56.235 11.946694
56.240 11.923664
56.245 11.954601
56.250 11.295794
56.255 11.090428
56.260 11.177027
56.265 11.142645
56.270 11.013151
56.275 11.339813
56.280 11.66853
56.285 11.637709
56.290 11.711845
56.295 11.681307
56.300 11.885895
56.305 12.111519
56.310 11.730692
56.315 11.455922
56.320 11.782338
56.325 11.566235
56.330 11.330924
56.335 11.428096
56.340 11.224092
56.345 11.268268
56.350 11.642177
56.355 11.149995
56.360 11.039416
56.365 10.877007
56.370 10.692465
56.375 10.725009
56.380 10.452183
56.385 9.900799
56.390 10.005854
56.395 10.337858
56.400 10.409851
56.405 10.761024
56.410 11.042191
56.415 11.403114
56.420 11.501438
56.425 12.213156
56.430 12.208645
56.435 12.071784
56.440 11.837888
56.445 11.699242
56.450 11.579588
56.455 11.845457
56.460 11.700334
56.465 12.308005
56.470 12.642785
56.475 12.328296
56.480 12.289637
56.485 12.303443
56.490 12.637851
56.495 12.569015
56.500 11.696211
56.505 11.251171
56.510 11.693477
56.515 12.296942
56.520 12.442312
56.525 12.204592
56.530 12.400954
56.535 12.309162
56.540 12.33482
56.545 11.91893
56.550 11.608755
56.555 11.451365
56.560 11.334054
56.565 10.817665
56.570 11.155463
56.575 11.550913
56.580 11.595876
56.585 11.466608
56.590 11.708358
56.595 11.993372
56.600 12.305731
56.605 12.454692
56.610 12.054336
56.615 12.20716
56.620 12.370853
56.625 12.326936
56.630 12.352505
56.635 11.974813
56.640 11.86909
56.645 12.297496
56.650 12.479922
56.655 12.668519
56.660 12.438287
56.665 12.64497
56.670 13.00104
56.675 12.912373
56.680 12.768521
56.685 12.712451
56.690 12.592223
56.695 12.328193
56.700 11.991606
56.705 12.096275
56.710 12.35445
56.715 12.064155
56.720 11.528918
56.725 11.781574
56.730 12.440655
56.735 12.864152
56.740 12.672508
56.745 12.958014
56.750 13.60154
56.755 14.006502
56.760 13.828061
56.765 13.370324
56.770 12.900896
56.775 13.01845
56.780 12.740088
56.785 12.516564
56.790 12.246065
56.795 12.141266
56.800 12.635571
56.805 13.150468
56.810 12.709607
56.815 12.852839
56.820 13.027063
56.825 13.830642
56.830 14.068116
56.835 13.717331
56.840 14.153941
56.845 14.096302
56.850 14.036397
56.855 13.661835
56.860 13.177435
56.865 13.224544
56.870 12.73777
56.875 12.268188
56.880 12.130091
56.885 12.130072
56.890 12.315156
56.895 12.020221
56.900 12.257867
56.905 12.300878
56.910 12.824627
56.915 13.238849
56.920 12.919976
56.925 13.198823
56.930 13.868485
56.935 13.806714
56.940 13.290087
56.945 12.973019
56.950 12.756966
56.955 12.587614
56.960 12.126522
56.965 11.590046
56.970 11.352822
56.975 11.848512
56.980 11.395558
56.985 11.405099
56.990 11.841221
56.995 12.100247
57.000 12.339439
57.005 12.399134
57.010 12.665393
57.015 13.214806
57.020 13.260815
57.025 13.296068
57.030 13.359518
57.035 13.034035
57.040 13.211723
57.045 12.687618
57.050 12.946801
57.055 13.302238
57.060 12.978993
57.065 12.797419
57.070 12.654972
57.075 12.516294
57.080 12.797088
57.085 12.298829
57.090 11.617651
57.095 11.620902
57.100 11.280917
57.105 11.331312
57.110 11.331815
57.115 11.274636
57.120 11.300417
57.125 11.466774
57.130 11.657876
57.135 12.234615
57.140 12.377492
57.145 12.31238
57.150 12.292494
57.155 12.433256
57.160 12.559404
57.165 12.367095
57.170 11.926343
57.175 11.750461
57.180 11.769071
57.185 11.981936
57.190 11.749496
57.195 11.82058
57.200 11.68714
57.205 11.978241
57.210 12.222942
57.215 12.674307
57.220 12.53661
57.225 12.651746
57.230 12.731529
57.235 12.747933
57.240 12.690259
57.245 13.303973
57.250 13.46417
57.255 13.533213
57.260 13.121808
57.265 13.403058
57.270 13.882558
57.275 13.739515
57.280 12.7503
57.285 12.676016
57.290 12.726237
57.295 13.068679
57.300 12.77661
57.305 12.268394
57.310 12.225124
57.315 12.61917
57.320 12.466969
57.325 12.821937
57.330 12.938461
57.335 13.164962
57.340 13.429499
57.345 13.190768
57.350 13.06986
57.355 12.593017
57.360 12.12167
57.365 11.396891
57.370 11.069745
57.375 11.53946
57.380 12.131115
57.385 12.255135
57.390 12.656819
57.395 13.008058
57.400 13.643574
57.405 13.52756
57.410 13.114044
57.415 12.710944
57.420 12.779703
57.425 13.355333
57.430 13.448681
57.435 13.509638
57.440 13.97925
57.445 14.192428
57.450 14.193899
57.455 14.764112
57.460 14.359869
57.465 14.352903
57.470 14.439082
57.475 14.621354
57.480 14.754576
57.485 14.350335
57.490 13.28517
57.495 13.271069
57.500 13.054912
57.505 12.622988
57.510 12.027694
57.515 11.580883
57.520 11.665252
57.525 12.17753
57.530 12.62429
57.535 12.626655
57.540 12.477272
57.545 12.747218
57.550 12.549148
57.555 12.989181
57.560 12.921025
57.565 12.6925
57.570 13.552686
57.575 13.884798
57.580 13.833774
57.585 14.258254
57.590 14.16152
57.595 13.881754
57.600 13.78417
57.605 13.608544
57.610 13.994256
57.615 14.68424
57.620 14.669244
57.625 14.971905
57.630 15.277192
57.635 14.895594
57.640 14.609197
57.645 13.909348
57.650 13.199212
57.655 13.147292
57.660 12.801776
57.665 12.663731
57.670 12.76822
57.675 12.627631
57.680 12.404876
57.685 12.375726
57.690 12.096745
57.695 11.822698
57.700 11.633744
57.705 11.315411
57.710 11.738214
57.715 12.57305
57.720 13.132877
57.725 13.56221
57.730 13.561884
57.735 13.748227
57.740 14.295411
57.745 13.942894
57.750 13.710525
57.755 13.218146
57.760 13.450616
57.765 13.918315
57.770 13.710243
57.775 13.396736
57.780 13.332482
57.785 13.246977
57.790 13.460531
57.795 13.192455
57.800 12.990234
57.805 12.740776
57.810 12.816803
57.815 12.903662
57.820 13.200181
57.825 13.32573
57.830 13.16121
57.835 13.462086
57.840 14.092702
57.845 13.853616
57.850 13.326954
57.855 13.152621
57.860 12.862033
57.865 12.151793
57.870 12.138614
57.875 12.311669
57.880 12.99343
57.885 13.194946
57.890 12.91637
57.895 13.410369
57.900 14.233093
57.905 14.306755
57.910 13.801361
57.915 13.476751
57.920 13.39314
57.925 13.214818
57.930 12.62863
57.935 12.222322
57.940 12.288212
57.945 12.228232
57.950 12.252235
57.955 12.517845
57.960 13.185946
57.965 13.302533
57.970 13.142843
57.975 12.932136
57.980 13.177091
57.985 13.194756
57.990 13.210488
57.995 12.807076
58.000 12.85705
58.005 12.629909
58.010 12.399048
58.015 12.475303
58.020 12.460975
58.025 12.913927
58.030 13.054489
58.035 13.298782
58.040 13.987321
58.045 14.00326
58.050 14.018776
58.055 13.833029
58.060 13.643788
58.065 13.441319
58.070 13.325112
58.075 12.966211
58.080 12.484244
58.085 12.749831
58.090 13.011896
58.095 12.874266
58.100 13.176526
58.105 13.432413
58.110 13.661616
58.115 14.102835
58.120 14.194908
58.125 13.758585
58.130 13.397225
58.135 12.943241
58.140 12.903416
58.145 13.187986
58.150 13.274662
58.155 13.368247
58.160 14.16196
58.165 14.523706
58.170 14.621169
58.175 14.343138
58.180 14.204041
58.185 13.889295
58.190 13.069467
58.195 12.438473
58.200 12.370519
58.205 12.171738
58.210 12.509405
58.215 12.904678
58.220 13.315619
58.225 13.556404
58.230 13.719416
58.235 14.184542
58.240 14.30951
58.245 13.894057
58.250 13.141566
58.255 12.96153
58.260 13.42311
58.265 13.276721
58.270 13.395864
58.275 13.844001
58.280 13.954684
58.285 14.451496
58.290 14.815428
58.295 14.970675
58.300 15.438487
58.305 15.559965
58.310 15.511164
58.315 15.208147
58.320 14.381433
58.325 13.949057
58.330 13.349431
58.335 13.435746
58.340 13.157048
58.345 12.688971
58.350 13.27603
58.355 13.777999
58.360 13.716492
58.365 14.178432
58.370 13.96302
58.375 13.646686
58.380 14.278509
58.385 14.148698
58.390 14.041025
58.395 14.109808
58.400 13.60199
58.405 13.420723
58.410 13.361444
58.415 12.925931
58.420 13.566738
58.425 14.001079
58.430 14.116042
58.435 14.033371
58.440 14.154913
58.445 14.481028
58.450 14.368693
58.455 13.868854
58.460 13.413286
58.465 13.138659
58.470 13.538387
58.475 13.460085
58.480 13.71314
58.485 13.730021
58.490 13.895122
58.495 14.370514
58.500 14.603934
58.505 14.655057
58.510 14.464498
58.515 14.389133
58.520 14.288312
58.525 14.193071
58.530 13.765484
58.535 13.787524
58.540 13.654055
58.545 13.586486
58.550 13.171748
58.555 13.213279
58.560 12.684173
58.565 13.193894
58.570 14.004992
58.575 14.568458
58.580 14.855618
58.585 15.153685
58.590 15.379444
58.595 16.003304
58.600 15.325061
58.605 14.374521
58.610 14.06122
58.615 14.435957
58.620 14.666723
58.625 14.642757
58.630 14.811774
58.635 15.016224
58.640 14.673523
58.645 14.31277
58.650 13.923514
58.655 13.81227
58.660 13.447473
58.665 12.752638
58.670 12.687122
58.675 12.957144
58.680 13.163564
58.685 12.965446
58.690 12.851525
58.695 13.565291
58.700 13.785968
58.705 14.192966
58.710 14.255497
58.715 14.038369
58.720 14.558189
58.725 14.707782
58.730 14.011594
58.735 14.336277
58.740 14.364473
58.745 14.375552
58.750 14.131792
58.755 13.455473
58.760 13.522278
58.765 13.747141
58.770 13.228619
58.775 13.098853
58.780 13.168044
58.785 13.784274
58.790 13.921227
58.795 14.061622
58.800 14.410069
58.805 14.560102
58.810 14.538979
58.815 14.645925
58.820 14.578546
58.825 14.612122
58.830 14.527783
58.835 14.247391
58.840 13.699895
58.845 13.929953
58.850 13.715567
58.855 13.518482
58.860 13.199914
58.865 12.789482
58.870 13.611123
58.875 14.501842
58.880 14.310599
58.885 14.292203
58.890 14.598449
58.895 14.796327
58.900 15.225555
58.905 15.01548
58.910 15.203662
58.915 15.416154
58.920 15.447469
58.925 15.388149
58.930 15.577743
58.935 15.529127
58.940 15.242984
58.945 14.603325
58.950 14.686944
58.955 14.416358
58.960 14.375014
58.965 14.435257
58.970 14.241891
58.975 14.762562
58.980 14.854364
58.985 14.762812
58.990 15.109032
58.995 15.354911
59.000 14.786767
59.005 14.979198
59.010 14.831947
59.015 14.548731
59.020 14.366395
59.025 13.860838
59.030 13.390541
59.035 14.113418
59.040 14.483443
59.045 14.16097
59.050 14.68658
59.055 15.629698
59.060 16.635088
59.065 16.68696
59.070 16.154705
59.075 16.01796
59.080 16.133997
59.085 15.62285
59.090 15.310083
59.095 14.732594
59.100 15.068398
59.105 15.127275
59.110 14.838259
59.115 15.184896
59.120 15.108134
59.125 15.127718
59.130 15.466082
59.135 15.667885
59.140 15.899879
59.145 15.616816
59.150 15.360354
59.155 15.094579
59.160 14.789683
59.165 14.58164
59.170 14.598588
59.175 14.707929
59.180 14.707409
59.185 14.649064
59.190 15.237889
59.195 15.149141
59.200 14.774262
59.205 14.435013
59.210 14.702466
59.215 15.401882
59.220 15.953663
59.225 15.806076
59.230 15.669447
59.235 15.785172
59.240 15.961985
59.245 15.526615
59.250 15.054742
59.255 14.768034
59.260 14.655568
59.265 14.808777
59.270 15.139275
59.275 15.09984
59.280 15.171568
59.285 14.778764
59.290 14.641764
59.295 14.874816
59.300 14.896181
59.305 14.756692
59.310 14.877347
59.315 15.480264
59.320 16.066578
59.325 16.517914
59.330 16.496067
59.335 16.846315
59.340 17.028082
59.345 17.015377
59.350 16.588329
59.355 16.600677
59.360 16.793833
59.365 16.653111
59.370 16.720823
59.375 16.131411
59.380 15.746593
59.385 15.615757
59.390 15.482655
59.395 15.240394
59.400 15.562723
59.405 15.293365
59.410 15.524851
59.415 16.038387
59.420 15.890616
59.425 15.947434
59.430 16.177631
59.435 15.557582
59.440 15.335653
59.445 15.136035
59.450 14.697879
59.455 14.480858
59.460 14.310639
59.465 14.296716
59.470 14.65666
59.475 15.524834
59.480 16.495647
59.485 17.082973
59.490 17.414839
59.495 17.649416
59.500 18.208387
59.505 18.329632
59.510 17.738205
59.515 16.972383
59.520 16.753126
59.525 16.723589
59.530 16.433876
59.535 15.779386
59.540 16.012493
59.545 16.338259
59.550 16.097397
59.555 16.218559
59.560 16.333351
59.565 16.580791
59.570 16.8274
59.575 16.758354
59.580 16.666769
59.585 16.682121
59.590 16.685741
59.595 16.440472
59.600 15.975104
59.605 15.476916
59.610 15.104625
59.615 15.524127
59.620 16.391859
59.625 16.599041
59.630 17.018669
59.635 17.246603
59.640 18.03731
59.645 18.534184
59.650 18.442436
59.655 17.93852
59.660 17.778618
59.665 17.025919
59.670 17.207537
59.675 17.065947
59.680 16.780682
59.685 17.368258
59.690 17.119015
59.695 17.201902
59.700 17.566765
59.705 17.058493
59.710 17.132986
59.715 17.149496
59.720 16.157248
59.725 16.269506
59.730 16.190598
59.735 15.914532
59.740 15.900046
59.745 15.892012
59.750 15.953224
59.755 16.374626
59.760 16.732805
59.765 16.822519
59.770 17.228321
59.775 17.531178
59.780 17.484501
59.785 17.979866
59.790 18.090557
59.795 18.152348
59.800 18.473511
59.805 18.962833
59.810 18.928619
59.815 18.957417
59.820 18.667448
59.825 18.218298
59.830 18.109755
59.835 18.206081
59.840 18.368341
59.845 18.096775
59.850 17.705414
59.855 17.998058
59.860 18.352974
59.865 18.325573
59.870 17.778448
59.875 17.729818
59.880 17.927258
59.885 17.913256
59.890 17.49596
59.895 17.873692
59.900 18.184361
59.905 18.027313
59.910 18.012356
59.915 18.285637
59.920 18.145554
59.925 18.429668
59.930 17.969326
59.935 18.073282
59.940 18.296265
59.945 18.066063
59.950 18.200371
59.955 18.585609
59.960 19.016363
59.965 19.065521
59.970 18.772739
59.975 18.993193
59.980 19.101934
59.985 19.478725
59.990 19.426565
59.995 19.179726
60.000 19.533602
60.005 20.129625
60.010 20.322498
60.015 20.394199
60.020 20.313471
60.025 20.666595
60.030 20.548082
60.035 20.628616
60.040 20.409214
60.045 20.152895
60.050 19.480795
60.055 19.378429
60.060 19.295599
60.065 19.077749
60.070 18.882772
60.075 18.668947
60.080 18.902241
60.085 19.097494
60.090 18.963463
60.095 18.987432
60.100 19.211138
60.105 19.182949
60.110 19.603128
60.115 20.171789
60.120 21.161417
60.125 21.394346
60.130 21.82892
60.135 22.383522
60.140 22.474195
60.145 22.270927
60.150 22.055733
60.155 21.675694
60.160 21.379904
60.165 20.79484
60.170 19.738714
60.175 19.473324
60.180 19.246874
60.185 19.420822
60.190 19.671707
60.195 19.528002
60.200 19.884798
60.205 20.660608
60.210 21.329777
60.215 21.7724
60.220 21.484978
60.225 20.964449
60.230 21.409441
60.235 21.434881
60.240 21.087463
60.245 20.593092
60.250 20.576141
60.255 20.578327
60.260 21.076153
60.265 21.483194
60.270 21.350245
60.275 21.352646
60.280 21.539257
60.285 21.547897
60.290 21.546139
60.295 20.753654
60.300 19.8647
60.305 20.110579
60.310 20.394779
60.315 20.174082
60.320 20.06201
60.325 20.705276
60.330 20.964527
60.335 20.720676
60.340 20.332426
60.345 20.349533
60.350 20.778414
60.355 20.625286
60.360 20.659157
60.365 20.654346
60.370 20.576468
60.375 20.684139
60.380 20.393202
60.385 20.147978
60.390 19.413752
60.395 19.112595
60.400 19.783245
60.405 20.381239
60.410 20.536102
60.415 20.389782
60.420 20.121136
60.425 20.566734
60.430 20.25202
60.435 19.91427
60.440 19.81378
60.445 19.596025
60.450 20.042973
60.455 20.246315
60.460 20.341505
60.465 20.449945
60.470 21.087589
60.475 21.370895
60.480 21.057734
60.485 20.642408
60.490 20.775835
60.495 21.170811
60.500 21.144073
60.505 20.620569
60.510 20.678581
60.515 21.203003
60.520 21.182648
60.525 20.885818
60.530 20.587282
60.535 20.668732
60.540 20.530329
60.545 20.679899
60.550 20.55172
60.555 20.63047
60.560 20.746445
60.565 20.283255
60.570 19.897591
60.575 19.66642
60.580 19.285234
60.585 19.477228
60.590 19.557947
60.595 19.725077
60.600 20.141857
60.605 20.614227
60.610 20.328484
60.615 20.614752
60.620 20.789606
60.625 20.606974
60.630 20.525272
60.635 20.449648
60.640 20.187742
60.645 20.140579
60.650 19.301172
60.655 18.388304
60.660 18.376961
60.665 17.824472
60.670 17.179199
60.675 16.656015
60.680 16.351709
60.685 16.169193
60.690 16.157604
60.695 16.036354
60.700 16.54295
60.705 16.964197
60.710 16.73852
60.715 17.070866
60.720 17.285107
60.725 17.755503
60.730 18.39521
60.735 18.097206
60.740 17.806526
60.745 17.558355
60.750 17.772245
60.755 18.299202
60.760 18.449036
60.765 18.266237
60.770 18.561127
60.775 19.198128
60.780 19.72316
60.785 19.761658
60.790 19.598991
60.795 19.554583
60.800 19.650867
60.805 19.57749
60.810 19.36002
60.815 19.521158
60.820 19.918816
60.825 20.469723
60.830 20.067854
60.835 19.322174
60.840 19.048653
60.845 19.163267
60.850 19.110432
60.855 18.912477
60.860 18.166634
60.865 17.925268
60.870 18.09911
60.875 18.131134
60.880 17.835674
60.885 17.132435
60.890 16.736315
60.895 16.987452
60.900 17.026598
60.905 16.442972
60.910 16.298115
60.915 16.39237
60.920 16.773474
60.925 16.67285
60.930 16.132931
60.935 16.670389
60.940 17.232311
60.945 17.563919
60.950 17.612095
60.955 17.17528
60.960 16.847889
60.965 17.247913
60.970 17.087107
60.975 16.803709
60.980 16.873064
60.985 16.83913
60.990 17.006153
60.995 16.777292
61.000 16.308496
61.005 16.474739
61.010 16.637777
61.015 16.246323
61.020 16.246899
61.025 16.244383
61.030 16.305864
61.035 16.54273
61.040 16.725878
61.045 17.167149
61.050 17.274387
61.055 17.584852
61.060 17.854176
61.065 17.89748
61.070 17.601818
61.075 16.941622
61.080 16.628061
61.085 16.418221
61.090 16.245697
61.095 16.392138
61.100 16.765142
61.105 16.808317
61.110 16.558456
61.115 16.324011
61.120 16.131008
61.125 16.186108
61.130 16.541384
61.135 16.49329
61.140 16.739286
61.145 16.699532
61.150 16.854923
61.155 16.761175
61.160 16.478586
61.165 16.623476
61.170 16.473372
61.175 16.208305
61.180 16.407614
61.185 16.760059
61.190 17.098797
61.195 17.389631
61.200 17.365429
61.205 17.380499
61.210 18.17955
61.215 18.654181
61.220 18.409931
61.225 18.721441
61.230 18.695854
61.235 18.042891
61.240 17.815659
61.245 17.443991
61.250 17.086912
61.255 17.498163
61.260 17.095783
61.265 16.468084
61.270 16.505394
61.275 16.390797
61.280 15.89099
61.285 15.670586
61.290 15.293885
61.295 15.597115
61.300 15.912572
61.305 16.030989
61.310 16.106703
61.315 16.704433
61.320 17.119202
61.325 16.905855
61.330 16.44315
61.335 16.181566
61.340 16.195316
61.345 16.069914
61.350 15.542946
61.355 15.524209
61.360 15.752348
61.365 15.745221
61.370 15.883065
61.375 15.888672
61.380 15.930894
61.385 16.443897
61.390 16.42054
61.395 16.533184
61.400 16.725754
61.405 17.046438
61.410 16.83157
61.415 17.367889
61.420 16.934633
61.425 16.496864
61.430 16.194252
61.435 16.157219
61.440 16.135761
61.445 16.335546
61.450 16.042042
61.455 16.094055
61.460 16.412176
61.465 16.701881
61.470 17.225557
61.475 17.098274
61.480 16.916948
61.485 16.978361
61.490 16.886259
61.495 17.0021
61.500 16.455202
61.505 15.534419
61.510 15.547688
61.515 15.668091
61.520 15.381594
61.525 15.215055
61.530 15.184617
61.535 15.743178
61.540 16.401506
61.545 17.249111
61.550 17.189842
61.555 17.876469
61.560 18.227987
61.565 18.303928
61.570 18.259348
61.575 17.688442
61.580 16.524557
61.585 16.284309
61.590 15.584857
61.595 15.246583
61.600 14.804333
61.605 14.378183
61.610 14.177458
61.615 14.375324
61.620 14.695614
61.625 14.842436
61.630 14.957207
61.635 14.991431
61.640 15.100484
61.645 15.462137
61.650 15.991417
61.655 16.035412
61.660 16.336544
61.665 16.388699
61.670 16.619287
61.675 16.594599
61.680 16.060911
61.685 15.663036
61.690 16.141336
61.695 16.645521
61.700 16.980824
61.705 16.878843
61.710 16.879581
61.715 17.384916
61.720 17.444143
61.725 16.602007
61.730 16.205719
61.735 16.253866
61.740 16.313122
61.745 16.562107
61.750 16.661316
61.755 16.606268
61.760 16.255665
61.765 15.332196
61.770 14.859622
61.775 14.59599
61.780 14.032625
61.785 13.89135
61.790 14.663201
61.795 15.085234
61.800 15.209901
61.805 15.383686
61.810 15.875697
61.815 16.874708
61.820 17.577211
61.825 17.718975
61.830 17.569704
61.835 18.106833
61.840 18.227869
61.845 18.381832
61.850 17.876234
61.855 17.596771
61.860 17.682411
61.865 18.210556
61.870 18.405138
61.875 18.651588
61.880 18.940161
61.885 18.996004
61.890 18.669075
61.895 18.170509
61.900 18.332453
61.905 18.192087
61.910 18.256304
61.915 18.296762
61.920 18.608427
61.925 17.90505
61.930 17.299509
61.935 16.962271
61.940 16.693682
61.945 16.830738
61.950 16.171309
61.955 15.581824
61.960 16.21188
61.965 16.178013
61.970 16.045156
61.975 16.129492
61.980 15.526047
61.985 15.653082
61.990 15.948544
61.995 15.551604
62.000 15.833952
62.005 16.150566
62.010 16.185993
62.015 16.119268
62.020 15.861641
62.025 15.769376
62.030 15.894596
62.035 15.624784
62.040 14.961607
62.045 14.682281
62.050 14.73671
62.055 14.785466
62.060 14.711005
62.065 14.772041
62.070 14.607344
62.075 14.697539
62.080 14.726528
62.085 15.042643
62.090 15.095976
62.095 15.169513
62.100 14.86795
62.105 14.916477
62.110 14.844456
62.115 14.944578
62.120 14.726229
62.125 14.797324
62.130 14.635584
62.135 15.014792
62.140 15.273892
62.145 15.552144
62.150 15.193364
62.155 15.496312
62.160 15.77869
62.165 16.118259
62.170 15.65806
62.175 15.478446
62.180 15.776515
62.185 16.176144
62.190 15.99625
62.195 15.736275
62.200 15.569402
62.205 15.703155
62.210 16.104317
62.215 15.905257
62.220 15.399126
62.225 15.487506
62.230 15.894071
62.235 16.58597
62.240 16.900858
62.245 17.017963
62.250 17.222569
62.255 17.733427
62.260 17.207451
62.265 16.832787
62.270 16.792202
62.275 16.943865
62.280 16.405849
62.285 16.316389
62.290 16.599409
62.295 16.824354
62.300 16.861006
62.305 16.989357
62.310 16.558168
62.315 16.610933
62.320 16.055113
62.325 15.953203
62.330 16.431686
62.335 16.4247
62.340 15.833907
62.345 15.639944
62.350 15.866055
62.355 15.885066
62.360 15.964136
62.365 15.536507
62.370 15.157098
62.375 15.281067
62.380 15.390254
62.385 15.353988
62.390 15.543741
62.395 14.913356
62.400 15.381059
62.405 15.897428
62.410 16.375528
62.415 16.849684
62.420 16.817093
62.425 16.581045
62.430 16.920689
62.435 17.312454
62.440 17.139719
62.445 16.615721
62.450 16.60166
62.455 16.889486
62.460 17.426167
62.465 17.14883
62.470 16.505537
62.475 16.506388
62.480 16.676064
62.485 16.607822
62.490 16.720896
62.495 16.324623
62.500 16.480057
62.505 16.397772
62.510 16.341341
62.515 16.282242
62.520 16.411604
62.525 16.262548
62.530 16.667004
62.535 16.734436
62.540 16.564014
62.545 16.657049
62.550 16.142353
62.555 15.996166
62.560 16.221451
62.565 15.498159
62.570 14.949577
62.575 14.934757
62.580 14.72699
62.585 15.006951
62.590 15.188004
62.595 15.323324
62.600 15.674933
62.605 15.895896
62.610 16.210789
62.615 15.996686
62.620 15.921272
62.625 15.452215
62.630 15.451157
62.635 15.900863
62.640 15.996821
62.645 15.827549
62.650 16.408636
62.655 16.474108
62.660 16.640884
62.665 16.4389
62.670 16.362827
62.675 16.268557
62.680 16.124472
62.685 15.911208
62.690 16.384972
62.695 16.721672
62.700 16.255087
62.705 16.157814
62.710 16.587402
62.715 17.113008
62.720 17.108953
62.725 17.289362
62.730 17.319738
62.735 17.755182
62.740 17.765894
62.745 17.655479
62.750 17.804016
62.755 18.250101
62.760 17.769146
62.765 17.619476
62.770 17.853054
62.775 17.403063
62.780 17.185091
62.785 17.080521
62.790 16.60853
62.795 15.961633
62.800 15.792007
62.805 15.762349
62.810 15.910899
62.815 15.84451
62.820 15.735661
62.825 16.181732
62.830 16.822838
62.835 16.486584
62.840 16.292063
62.845 16.343691
62.850 16.395939
62.855 16.619705
62.860 17.146793
62.865 17.844683
62.870 18.154308
62.875 18.279129
62.880 18.171225
62.885 18.070036
62.890 17.837877
62.895 17.247219
62.900 16.906853
62.905 17.034861
62.910 17.027462
62.915 17.16107
62.920 17.182299
62.925 17.056705
62.930 16.731598
62.935 16.379515
62.940 16.292976
62.945 16.522938
62.950 16.988226
62.955 17.057737
62.960 16.726063
62.965 16.78414
62.970 17.074118
62.975 17.677294
62.980 17.470873
62.985 17.012226
62.990 17.140572
62.995 17.756296
63.000 18.301304
63.005 17.859133
63.010 17.500231
63.015 17.879539
63.020 17.695929
63.025 18.054762
63.030 17.398575
63.035 16.719536
63.040 17.208931
63.045 17.488873
63.050 17.267382
63.055 17.111723
63.060 17.141792
63.065 17.545713
63.070 17.866917
63.075 17.314861
63.080 16.789236
63.085 16.402147
63.090 16.187965
63.095 15.755498
63.100 15.219904
63.105 14.925085
63.110 14.388705
63.115 14.543484
63.120 15.16878
63.125 15.131396
63.130 15.119509
63.135 15.53558
63.140 15.978225
63.145 16.318304
63.150 16.300856
63.155 16.076883
63.160 15.963604
63.165 15.985639
63.170 16.548443
63.175 16.712099
63.180 16.312996
63.185 16.110441
63.190 16.219351
63.195 16.095968
63.200 15.95971
63.205 15.461656
63.210 15.874801
63.215 16.325195
63.220 16.350363
63.225 16.518684
63.230 16.732185
63.235 16.459551
63.240 16.330999
63.245 15.640799
63.250 15.189297
63.255 15.485543
63.260 15.453931
63.265 16.020096
63.270 16.272665
63.275 16.11021
63.280 16.727797
63.285 17.761517
63.290 17.557854
63.295 17.551971
63.300 17.414505
63.305 17.44762
63.310 18.080654
63.315 18.042839
63.320 17.173223
63.325 16.924866
63.330 16.969812
63.335 16.963379
63.340 16.970997
63.345 15.873598
63.350 15.660813
63.355 15.720459
63.360 16.212471
63.365 16.178373
63.370 16.15382
63.375 16.131969
63.380 16.82976
63.385 16.800581
63.390 17.068638
63.395 17.146708
63.400 16.985384
63.405 16.794056
63.410 16.409075
63.415 15.874976
63.420 15.706587
63.425 15.550682
63.430 15.985307
63.435 16.597075
63.440 16.904144
63.445 17.659573
63.450 18.530533
63.455 18.963612
63.460 19.835543
63.465 19.635389
63.470 18.578091
63.475 17.903042
63.480 17.526379
63.485 17.277685
63.490 17.028587
63.495 16.172434
63.500 15.963755
63.505 16.67346
63.510 16.84799
63.515 17.025455
63.520 16.864058
63.525 17.179964
63.530 17.00222
63.535 16.631258
63.540 16.749252
63.545 17.173388
63.550 17.199654
63.555 17.128849
63.560 17.330002
63.565 18.010057
63.570 18.032248
63.575 18.173658
63.580 17.651882
63.585 17.439816
63.590 17.250248
63.595 17.124126
63.600 17.04002
63.605 16.851116
63.610 16.776564
63.615 17.256992
63.620 17.637388
63.625 17.334543
63.630 17.711969
63.635 18.020876
63.640 18.40839
63.645 18.046349
63.650 17.735889
63.655 17.91851
63.660 18.389402
63.665 17.657393
63.670 17.409945
63.675 17.659597
63.680 17.465004
63.685 17.854837
63.690 18.087038
63.695 18.130629
63.700 18.485899
63.705 18.709503
63.710 18.685213
63.715 19.234646
63.720 18.692238
63.725 18.203344
63.730 18.250811
63.735 18.054075
63.740 17.340246
63.745 16.928444
63.750 16.881271
63.755 16.637398
63.760 16.02804
63.765 15.711442
63.770 15.616701
63.775 16.080576
63.780 16.23032
63.785 16.22312
63.790 16.848391
63.795 17.331715
63.800 17.309202
63.805 16.827217
63.810 16.259279
63.815 16.059044
63.820 15.428905
63.825 14.968534
63.830 15.461247
63.835 15.633893
63.840 16.079813
63.845 16.926962
63.850 17.977453
63.855 18.701168
63.860 18.471594
63.865 18.240803
63.870 17.929449
63.875 17.951269
63.880 17.27725
63.885 16.695511
63.890 16.87694
63.895 17.25416
63.900 17.865791
63.905 18.499289
63.910 18.972233
63.915 18.838972
63.920 18.479151
63.925 18.055662
63.930 17.978951
63.935 17.694866
63.940 17.124901
63.945 17.206306
63.950 17.598341
63.955 17.731806
63.960 18.733961
63.965 18.709524
63.970 18.306513
63.975 18.586279
63.980 18.19294
63.985 18.102983
63.990 17.735561
63.995 17.148611
64.000 17.206898
64.005 17.867424
64.010 18.169901
64.015 18.396263
64.020 18.604746
64.025 18.794935
64.030 18.704721
64.035 18.524639
64.040 17.732395
64.045 17.350882
64.050 17.5238
64.055 17.575436
64.060 17.710222
64.065 18.281796
64.070 18.65624
64.075 18.687918
64.080 18.997339
64.085 19.167547
64.090 18.799337
64.095 18.657619
64.100 18.058594
64.105 17.852875
64.110 17.650015
64.115 17.26914
64.120 16.924501
64.125 16.913643
64.130 17.035721
64.135 16.991978
64.140 17.490458
64.145 17.86869
64.150 17.412315
64.155 17.217293
64.160 17.375654
64.165 17.183819
64.170 17.315052
64.175 17.396702
64.180 17.735456
64.185 18.566544
64.190 18.806116
64.195 18.600567
64.200 18.556841
64.205 18.121243
64.210 17.727486
64.215 17.47134
64.220 17.397959
64.225 17.260933
64.230 17.670929
64.235 18.078568
64.240 18.522774
64.245 18.435366
64.250 18.065598
64.255 17.847422
64.260 17.784233
64.265 17.209036
64.270 16.655499
64.275 16.710583
64.280 16.869209
64.285 17.258833
64.290 17.439125
64.295 17.828829
64.300 18.276155
64.305 19.073141
64.310 19.027758
64.315 18.96954
64.320 18.430307
64.325 18.13228
64.330 17.993647
64.335 17.271593
64.340 16.472855
64.345 16.458817
64.350 16.663841
64.355 17.004765
64.360 17.332409
64.365 17.756153
64.370 18.236439
64.375 18.291183
64.380 18.060583
64.385 17.75841
64.390 17.569183
64.395 17.719824
64.400 17.358074
64.405 17.354101
64.410 17.650274
64.415 17.869596
64.420 18.83744
64.425 18.892143
64.430 18.15855
64.435 17.987822
64.440 18.245321
64.445 18.435638
64.450 18.377308
64.455 17.997356
64.460 18.15801
64.465 18.521599
64.470 19.149462
64.475 18.310331
64.480 18.214493
64.485 18.233635
64.490 18.399487
64.495 18.484928
64.500 18.563017
64.505 18.542395
64.510 19.456049
64.515 19.82667
64.520 19.855907
64.525 19.465977
64.530 19.036018
64.535 19.105022
64.540 18.788654
64.545 18.946434
64.550 18.313238
64.555 18.165462
64.560 18.514864
64.565 19.249861
64.570 18.601885
64.575 18.271814
64.580 17.68162
64.585 17.5315
64.590 17.140877
64.595 16.860222
64.600 16.768711
64.605 17.23003
64.610 17.604374
64.615 17.813822
64.620 18.776699
64.625 19.324751
64.630 19.678625
64.635 19.627359
64.640 19.508682
64.645 19.208405
64.650 19.476366
64.655 19.122747
64.660 18.888969
64.665 18.511646
64.670 18.807751
64.675 19.381742
64.680 19.601103
64.685 19.801369
64.690 19.833565
64.695 19.632387
64.700 19.779337
64.705 19.504629
64.710 18.93899
64.715 18.516548
64.720 18.377201
64.725 17.829449
64.730 17.827854
64.735 17.390083
64.740 17.624445
64.745 17.870266
64.750 17.539352
64.755 17.434744
64.760 18.007771
64.765 18.537088
64.770 18.730553
64.775 18.877983
64.780 18.866789
64.785 19.148821
64.790 18.848572
64.795 18.996948
64.800 18.885771
64.805 18.893444
64.810 18.425995
64.815 18.53089
64.820 18.662209
64.825 18.669624
64.830 18.475733
64.835 18.454929
64.840 17.797827
64.845 18.321707
64.850 18.979725
64.855 19.105461
64.860 20.012869
64.865 20.194921
64.870 20.471098
64.875 20.968128
64.880 20.494953
64.885 19.758087
64.890 19.450905
64.895 18.596872
64.900 18.51869
64.905 18.126747
64.910 18.10424
64.915 18.032494
64.920 18.012346
64.925 18.399504
64.930 18.540436
64.935 18.704311
64.940 18.557117
64.945 18.248711
64.950 18.120388
64.955 18.234528
64.960 18.633598
64.965 18.824986
64.970 18.958332
64.975 19.63962
64.980 20.795778
64.985 21.302938
64.990 21.667517
64.995 21.392763
65.000 21.007885
65.005 20.812239
65.010 20.16144
65.015 19.541851
65.020 20.504923
65.025 20.444853
65.030 19.971733
65.035 19.937767
65.040 20.089882
65.045 20.6796
65.050 20.567492
65.055 20.015364
65.060 20.227495
65.065 20.496397
65.070 20.455505
65.075 20.852436
65.080 21.178335
65.085 21.771753
65.090 21.435513
65.095 21.714558
65.100 22.011337
65.105 22.441011
65.110 21.666828
65.115 20.953825
65.120 20.817444
65.125 20.868254
65.130 20.539824
65.135 20.503323
65.140 20.149622
65.145 20.120169
65.150 20.072182
65.155 19.591059
65.160 19.847967
65.165 20.190071
65.170 20.369844
65.175 20.99692
65.180 21.640188
65.185 21.712669
65.190 21.864088
65.195 21.843142
65.200 22.558746
65.205 22.593611
65.210 22.374954
65.215 22.161211
65.220 22.237001
65.225 22.222549
65.230 22.533026
65.235 21.79821
65.240 21.644203
65.245 20.89909
65.250 21.227171
65.255 21.597019
65.260 21.874775
65.265 21.243498
65.270 21.200537
65.275 20.858236
65.280 21.016882
65.285 20.349943
65.290 20.025015
65.295 20.216032
65.300 20.415909
65.305 20.802614
65.310 21.680483
65.315 21.93577
65.320 22.585138
65.325 23.27133
65.330 23.583202
65.335 23.939886
65.340 23.816866
65.345 24.285984
65.350 24.360203
65.355 24.049192
65.360 23.674965
65.365 22.847412
65.370 22.456495
65.375 22.340582
65.380 21.999855
65.385 21.8937
65.390 22.164303
65.395 22.443472
65.400 22.838936
65.405 22.66057
65.410 22.58308
65.415 22.487797
65.420 22.982958
65.425 23.968847
65.430 24.296141
65.435 24.420675
65.440 25.969236
65.445 26.431997
65.450 26.256504
65.455 25.606565
65.460 24.867598
65.465 24.226362
65.470 23.681877
65.475 22.468763
65.480 22.351969
65.485 23.106915
65.490 23.90336
65.495 24.100771
65.500 24.656956
65.505 25.341906
65.510 25.748369
65.515 25.817051
65.520 25.623814
65.525 25.473063
65.530 25.737556
65.535 25.823597
65.540 26.099894
65.545 26.527044
65.550 26.904919
65.555 27.024698
65.560 26.811296
65.565 26.594372
65.570 26.645618
65.575 26.26668
65.580 26.88373
65.585 26.920631
65.590 26.801968
65.595 26.609921
65.600 26.829493
65.605 27.210766
65.610 27.920164
65.615 28.529324
65.620 29.105022
65.625 29.567759
65.630 29.33416
65.635 29.572567
65.640 30.191263
65.645 30.213591
65.650 29.76543
65.655 29.686518
65.660 29.909945
65.665 30.664434
65.670 30.562323
65.675 30.170231
65.680 30.493568
65.685 30.551012
65.690 30.44149
65.695 30.329973
65.700 30.264194
65.705 30.969341
65.710 31.399878
65.715 30.899971
65.720 31.003723
65.725 31.999819
65.730 32.743145
65.735 32.837864
65.740 32.075497
65.745 30.880699
65.750 31.05324
65.755 31.434872
65.760 31.331066
65.765 31.386065
65.770 32.003704
65.775 32.593613
65.780 33.506329
65.785 34.440376
65.790 35.528042
65.795 35.943546
65.800 36.416256
65.805 36.829678
65.810 37.135662
65.815 37.659508
65.820 37.813534
65.825 37.35741
65.830 37.752895
65.835 37.439571
65.840 37.372101
65.845 37.543636
65.850 37.181301
65.855 37.369354
65.860 37.178707
65.865 36.9613
65.870 36.649624
65.875 36.015934
65.880 35.403385
65.885 35.393749
65.890 34.06073
65.895 34.643265
65.900 35.065891
65.905 35.742577
65.910 36.665329
65.915 37.248035
65.920 37.926647
65.925 39.543766
65.930 38.668179
65.935 37.858234
65.940 37.929291
65.945 37.883644
65.950 37.843483
65.955 37.378174
65.960 37.418915
65.965 37.74683
65.970 37.834545
65.975 37.787121
65.980 37.50285
65.985 38.206486
65.990 37.99704
65.995 37.919106
66.000 38.487724
66.005 38.445499
66.010 38.045918
66.015 37.78434
66.020 37.511772
66.025 37.525574
66.030 36.92495
66.035 36.627975
66.040 36.42326
66.045 36.776661
66.050 36.116375
66.055 35.639942
66.060 35.319637
66.065 34.302288
66.070 33.479942
66.075 33.729759
66.080 33.785381
66.085 34.131695
66.090 34.313137
66.095 34.271965
66.100 34.264912
66.105 34.6049
66.110 34.604782
66.115 34.986706
66.120 35.22068
66.125 35.611862
66.130 36.349628
66.135 36.546154
66.140 36.361214
66.145 35.633476
66.150 34.984505
66.155 34.824875
66.160 34.356216
66.165 34.210369
66.170 34.470276
66.175 34.648956
66.180 34.256031
66.185 33.81078
66.190 34.113949
66.195 33.749184
66.200 33.094318
66.205 32.841114
66.210 32.838806
66.215 33.142773
66.220 33.760281
66.225 33.461758
66.230 33.865444
66.235 34.223629
66.240 33.86021
66.245 33.562939
66.250 33.271622
66.255 33.078899
66.260 33.20961
66.265 33.361465
66.270 32.734932
66.275 33.031246
66.280 32.759365
66.285 32.301926
66.290 31.484224
66.295 30.92478
66.300 30.402273
66.305 30.16486
66.310 29.150646
66.315 30.011738
66.320 30.688932
66.325 31.002176
66.330 31.622185
66.335 31.327322
66.340 30.997921
66.345 31.125637
66.350 30.849508
66.355 30.600159
66.360 30.107031
66.365 29.264225
66.370 29.204119
66.375 29.153234
66.380 29.616444
66.385 29.644619
66.390 30.057501
66.395 30.220047
66.400 30.082655
66.405 30.256048
66.410 31.184437
66.415 30.665932
66.420 30.540035
66.425 30.532068
66.430 30.323698
66.435 29.969791
66.440 29.169533
66.445 28.377228
66.450 28.364601
66.455 27.754906
66.460 26.78915
66.465 26.747818
66.470 27.453686
66.475 27.679901
66.480 28.085951
66.485 27.572304
66.490 27.453796
66.495 27.456388
66.500 27.359364
66.505 27.313747
66.510 27.678242
66.515 27.57893
66.520 27.380886
66.525 27.171593
66.530 27.864473
66.535 28.315117
66.540 28.027702
66.545 27.636421
66.550 27.537739
66.555 27.939756
66.560 27.825891
66.565 27.845058
66.570 27.301867
66.575 27.431736
66.580 27.63566
66.585 27.174376
66.590 26.548555
66.595 26.40667
66.600 26.122766
66.605 26.430777
66.610 26.380388
66.615 25.748631
66.620 25.855516
66.625 26.438694
66.630 26.755875
66.635 26.609142
66.640 25.791285
66.645 25.52566
66.650 26.080027
66.655 26.639488
66.660 26.164026
66.665 26.159664
66.670 26.124168
66.675 26.349342
66.680 26.59244
66.685 26.367884
66.690 26.046169
66.695 25.567709
66.700 24.988836
66.705 25.379837
66.710 25.648249
66.715 25.253422
66.720 25.272676
66.725 25.561838
66.730 25.720953
66.735 25.15056
66.740 24.423746
66.745 23.864229
66.750 23.503517
66.755 22.142925
66.760 21.454412
66.765 21.641926
66.770 21.874619
66.775 22.107956
66.780 22.31073
66.785 22.267487
66.790 22.569956
66.795 22.869093
66.800 23.015388
66.805 23.10914
66.810 23.317055
66.815 23.73885
66.820 23.4431
66.825 24.278551
66.830 24.280756
66.835 24.238373
66.840 24.171951
66.845 24.157907
66.850 23.542755
66.855 23.633163
66.860 23.437006
66.865 23.317278
66.870 22.714638
66.875 22.124836
66.880 21.822227
66.885 21.666601
66.890 21.603756
66.895 21.47328
66.900 21.497662
66.905 21.714146
66.910 22.00602
66.915 21.76614
66.920 21.806843
66.925 21.520075
66.930 21.112875
66.935 20.91736
66.940 21.520651
66.945 21.925087
66.950 22.370682
66.955 22.415201
66.960 22.824286
66.965 23.154568
66.970 23.131926
66.975 22.480429
66.980 21.967789
66.985 21.708719
66.990 22.011116
66.995 21.94486
67.000 21.694109
67.005 22.314705
67.010 22.286425
67.015 22.143818
67.020 21.858198
67.025 21.442665
67.030 21.205837
67.035 21.684175
67.040 20.95727
67.045 21.807072
67.050 22.42717
67.055 22.814072
67.060 23.308764
67.065 22.928898
67.070 23.058399
67.075 22.995857
67.080 22.165148
67.085 21.603804
67.090 21.484121
67.095 21.522757
67.100 21.498131
67.105 21.320353
67.110 21.749119
67.115 21.753872
67.120 22.081631
67.125 21.888147
67.130 22.141256
67.135 22.161139
67.140 22.381773
67.145 22.3855
67.150 22.434778
67.155 22.550459
67.160 22.58816
67.165 22.567554
67.170 22.831867
67.175 22.780939
67.180 22.860872
67.185 22.423649
67.190 22.65521
67.195 22.691551
67.200 22.080149
67.205 20.959715
67.210 20.380701
67.215 20.330257
67.220 20.9681
67.225 21.028933
67.230 20.381723
67.235 19.91201
67.240 20.393303
67.245 20.460432
67.250 19.829311
67.255 19.329397
67.260 19.495214
67.265 20.444035
67.270 20.865309
67.275 20.561478
67.280 20.182713
67.285 20.128035
67.290 19.759481
67.295 18.735231
67.300 18.551023
67.305 18.554216
67.310 18.779276
67.315 18.584635
67.320 18.339262
67.325 18.556929
67.330 19.457558
67.335 19.92622
67.340 20.070013
67.345 20.155468
67.350 21.434574
67.355 22.248371
67.360 22.277496
67.365 21.760813
67.370 21.464058
67.375 21.45207
67.380 21.020239
67.385 20.601461
67.390 20.79187
67.395 20.623928
67.400 20.561876
67.405 20.806282
67.410 20.784428
67.415 21.071646
67.420 20.778156
67.425 20.751675
67.430 20.88184
67.435 21.092901
67.440 21.029295
67.445 21.319052
67.450 21.248423
67.455 21.399057
67.460 21.042717
67.465 20.585398
67.470 20.714745
67.475 20.801975
67.480 20.73431
67.485 20.855181
67.490 21.012581
67.495 21.700939
67.500 21.937454
67.505 22.152237
67.510 21.983793
67.515 22.085051
67.520 22.421204
67.525 21.91556
67.530 21.591431
67.535 21.546181
67.540 21.402245
67.545 21.359648
67.550 21.418913
67.555 21.36631
67.560 21.479906
67.565 21.651917
67.570 21.685659
67.575 20.728807
67.580 20.808926
67.585 20.762363
67.590 20.627592
67.595 20.934254
67.600 20.73163
67.605 20.399807
67.610 21.053841
67.615 21.15625
67.620 21.364439
67.625 21.296803
67.630 20.757832
67.635 20.524216
67.640 20.622318
67.645 20.243103
67.650 19.96722
67.655 19.647364
67.660 19.375948
67.665 19.69396
67.670 19.997942
67.675 20.155493
67.680 20.811466
67.685 21.015114
67.690 21.091877
67.695 20.898176
67.700 21.090178
67.705 21.409145
67.710 21.201601
67.715 20.971836
67.720 21.200027
67.725 20.879601
67.730 21.0508
67.735 21.057425
67.740 21.212072
67.745 21.217537
67.750 20.910261
67.755 21.242798
67.760 21.869959
67.765 22.147364
67.770 21.804335
67.775 21.198483
67.780 21.078499
67.785 21.103008
67.790 20.109035
67.795 19.286959
67.800 19.014721
67.805 18.953962
67.810 18.850779
67.815 18.716076
67.820 18.344917
67.825 18.556721
67.830 18.98546
67.835 18.864616
67.840 18.937078
67.845 19.443624
67.850 19.637068
67.855 19.834568
67.860 19.960709
67.865 20.451221
67.870 20.950306
67.875 21.128689
67.880 21.509777
67.885 21.361635
67.890 21.531857
67.895 21.825741
67.900 21.378801
67.905 21.023743
67.910 21.251347
67.915 21.186569
67.920 21.635635
67.925 21.998812
67.930 21.723358
67.935 22.509844
67.940 22.581591
67.945 22.188465
67.950 22.5145
67.955 22.358961
67.960 22.109394
67.965 22.194481
67.970 22.451244
67.975 22.509609
67.980 22.08322
67.985 21.942524
67.990 21.868355
67.995 21.838709
68.000 21.666245
68.005 20.547653
68.010 21.076138
68.015 21.074503
68.020 20.969299
68.025 21.133303
68.030 21.130539
68.035 20.802128
68.040 21.075605
68.045 20.846481
68.050 20.877762
68.055 20.425962
68.060 20.02397
68.065 19.860514
68.070 20.349575
68.075 20.440884
68.080 20.225061
68.085 20.752474
68.090 20.840912
68.095 21.225676
68.100 21.1056
68.105 20.773878
68.110 20.473133
68.115 20.678144
68.120 20.06181
68.125 19.931389
68.130 19.632193
68.135 20.392035
68.140 20.060659
68.145 19.70322
68.150 19.251566
68.155 19.719004
68.160 20.026241
68.165 20.028913
68.170 19.41276
68.175 19.558233
68.180 20.486435
68.185 21.023066
68.190 20.943899
68.195 20.271433
68.200 19.914881
68.205 19.794039
68.210 19.754797
68.215 19.328823
68.220 19.386471
68.225 19.216383
68.230 19.616611
68.235 20.054508
68.240 20.335789
68.245 20.497709
68.250 20.475077
68.255 20.099318
68.260 20.528572
68.265 20.411446
68.270 20.039848
68.275 20.072155
68.280 20.241169
68.285 20.365578
68.290 20.337269
68.295 19.847023
68.300 20.13496
68.305 20.448103
68.310 20.26911
68.315 20.095303
68.320 19.702908
68.325 19.655039
68.330 19.584646
68.335 19.29364
68.340 19.429752
68.345 19.231394
68.350 18.989397
68.355 19.289497
68.360 19.432516
68.365 19.805861
68.370 19.859747
68.375 19.64278
68.380 20.192015
68.385 21.029686
68.390 21.044044
68.395 20.804144
68.400 20.710438
68.405 20.773928
68.410 21.001892
68.415 21.356724
68.420 21.060217
68.425 21.500692
68.430 21.658434
68.435 21.526964
68.440 21.735415
68.445 21.390009
68.450 20.70195
68.455 20.843225
68.460 20.130512
68.465 20.1586
68.470 20.581875
68.475 20.580496
68.480 20.111994
68.485 20.125704
68.490 19.898115
68.495 20.459621
68.500 20.651201
68.505 21.340055
68.510 21.611609
68.515 21.569283
68.520 22.261786
68.525 22.777761
68.530 23.152292
68.535 23.580673
68.540 22.154917
68.545 21.599653
68.550 21.925816
68.555 21.038475
68.560 20.945555
68.565 20.518867
68.570 19.726429
68.575 20.139942
68.580 20.03487
68.585 20.393349
68.590 20.697571
68.595 20.76717
68.600 20.688774
68.605 20.82666
68.610 21.459368
68.615 22.046368
68.620 21.62117
68.625 21.542814
68.630 21.18119
68.635 21.562513
68.640 21.394785
68.645 20.631208
68.650 19.918947
68.655 19.600718
68.660 18.960999
68.665 18.815075
68.670 18.803667
68.675 18.778221
68.680 19.742653
68.685 20.52693
68.690 21.61132
68.695 21.565838
68.700 22.17729
68.705 22.482769
68.710 22.718449
68.715 22.258778
68.720 22.021303
68.725 21.648468
68.730 22.075008
68.735 21.361216
68.740 21.458788
68.745 21.726357
68.750 21.849892
68.755 21.867041
68.760 22.087343
68.765 21.861631
68.770 22.366356
68.775 22.170933
68.780 21.77597
68.785 21.479219
68.790 21.768978
68.795 22.38175
68.800 22.388353
68.805 22.345173
68.810 22.556229
68.815 23.069164
68.820 23.070984
68.825 22.421812
68.830 22.233
68.835 21.94088
68.840 21.849104
68.845 21.45805
68.850 20.865726
68.855 21.145908
68.860 21.207912
68.865 21.181679
68.870 21.467783
68.875 21.810642
68.880 21.993818
68.885 21.791035
68.890 21.812502
68.895 21.626101
68.900 21.252211
68.905 21.60009
68.910 21.457775
68.915 21.900192
68.920 22.558018
68.925 22.608915
68.930 23.384821
68.935 23.659809
68.940 23.144913
68.945 22.572256
68.950 22.319254
68.955 22.27339
68.960 21.297642
68.965 21.099434
68.970 20.833939
68.975 20.269241
68.980 20.396866
68.985 20.341921
68.990 20.890099
68.995 21.474426
69.000 21.979231
69.005 22.963598
69.010 23.997505
69.015 24.006271
69.020 23.930689
69.025 23.780716
69.030 23.618595
69.035 23.099531
69.040 22.608902
69.045 22.412716
69.050 22.519585
69.055 22.54369
69.060 23.179214
69.065 23.413286
69.070 23.990953
69.075 24.356899
69.080 24.593739
69.085 24.375195
69.090 24.090244
69.095 23.932732
69.100 24.464323
69.105 23.885996
69.110 24.263092
69.115 24.160664
69.120 24.291712
69.125 24.869648
69.130 25.062218
69.135 25.042757
69.140 24.802999
69.145 24.466204
69.150 24.646471
69.155 25.112988
69.160 24.538465
69.165 24.773083
69.170 25.09997
69.175 26.3123
69.180 26.756098
69.185 26.704536
69.190 27.098492
69.195 27.043278
69.200 26.377979
69.205 25.868151
69.210 25.375164
69.215 25.753098
69.220 25.53882
69.225 25.310797
69.230 25.65333
69.235 25.966862
69.240 26.603291
69.245 26.741379
69.250 26.809269
69.255 27.422136
69.260 27.091028
69.265 26.796043
69.270 27.270077
69.275 26.982111
69.280 26.596064
69.285 26.206409
69.290 26.457487
69.295 26.484251
69.300 26.645918
69.305 26.366138
69.310 27.015865
69.315 28.094357
69.320 28.234785
69.325 27.838444
69.330 28.117506
69.335 28.591854
69.340 28.365948
69.345 27.934055
69.350 28.106081
69.355 28.496521
69.360 28.326813
69.365 28.046524
69.370 27.107199
69.375 27.633501
69.380 28.056593
69.385 27.362665
69.390 27.397457
69.395 27.314573
69.400 27.199657
69.405 26.923315
69.410 26.297777
69.415 25.388826
69.420 25.302782
69.425 24.924595
69.430 25.33206
69.435 26.212898
69.440 27.076111
69.445 28.386917
69.450 29.883789
69.455 30.39349
69.460 30.784775
69.465 30.658928
69.470 30.8237
69.475 30.637804
69.480 30.763412
69.485 30.117283
69.490 29.923204
69.495 30.651823
69.500 30.750706
69.505 30.266243
69.510 30.023649
69.515 29.033659
69.520 28.884644
69.525 28.208803
69.530 27.638939
69.535 27.791161
69.540 28.380367
69.545 27.912233
69.550 27.7616
69.555 26.566494
69.560 26.915617
69.565 27.015694
69.570 27.400591
69.575 26.965322
69.580 26.856979
69.585 27.297239
69.590 28.313726
69.595 28.441378
69.600 27.995457
69.605 27.837452
69.610 27.730341
69.615 27.790251
69.620 27.871193
69.625 27.791224
69.630 27.906635
69.635 27.955591
69.640 27.127224
69.645 26.90967
69.650 26.619894
69.655 26.263746
69.660 26.430174
69.665 26.396702
69.670 26.832623
69.675 27.265675
69.680 27.425913
69.685 27.034752
69.690 26.512091
69.695 26.204716
69.700 26.425873
69.705 25.808556
69.710 25.474211
69.715 25.596413
69.720 26.020479
69.725 26.033464
69.730 26.110146
69.735 26.609953
69.740 26.500086
69.745 26.4559
69.750 26.659426
69.755 26.387091
69.760 26.459227
69.765 25.724182
69.770 24.64389
69.775 25.321108
69.780 25.420544
69.785 25.030348
69.790 24.363169
69.795 23.970478
69.800 24.136299
69.805 23.842051
69.810 23.403009
69.815 23.304752
69.820 24.373722
69.825 24.938877
69.830 24.680468
69.835 24.610664
69.840 24.289436
69.845 24.307917
69.850 24.236689
69.855 23.985193
69.860 23.926651
69.865 24.238541
69.870 24.257004
69.875 23.823195
69.880 23.22418
69.885 22.819733
69.890 22.251188
69.895 22.30044
69.900 21.960892
69.905 21.975527
69.910 22.01104
69.915 21.59333
69.920 21.668297
69.925 21.597795
69.930 20.969336
69.935 20.690554
69.940 21.242226
69.945 21.378386
69.950 21.182337
69.955 21.716513
69.960 21.643679
69.965 21.624933
69.970 21.737854
69.975 21.350487
69.980 21.450943
69.985 21.220623
69.990 20.474939
69.995 20.816195
70.000 21.188473
70.005 20.950836
70.010 20.792261
70.015 21.179794
70.020 21.424149
70.025 21.717762
70.030 21.634712
70.035 21.293245
70.040 21.138773
70.045 21.665951
70.050 21.714096
70.055 21.958025
70.060 21.658201
70.065 21.649961
70.070 21.250725
70.075 21.489862
70.080 21.164715
70.085 21.541189
70.090 20.786238
70.095 20.547085
70.100 20.783043
70.105 21.427475
70.110 21.135635
70.115 21.054928
70.120 20.721157
70.125 20.939447
70.130 21.430387
70.135 21.509901
70.140 21.371426
70.145 21.802406
70.150 21.51548
70.155 21.504908
70.160 21.41526
70.165 21.02717
70.170 19.916307
70.175 19.852873
70.180 19.490688
70.185 19.680185
70.190 19.894619
70.195 19.626936
70.200 19.634331
70.205 20.038946
70.210 19.995142
70.215 20.039131
70.220 19.745333
70.225 19.337551
70.230 19.344816
70.235 19.415436
70.240 19.655777
70.245 19.608614
70.250 19.419077
70.255 19.948235
70.260 20.727814
70.265 21.250877
70.270 20.913868
70.275 20.702587
70.280 20.223711
70.285 20.409904
70.290 19.642847
70.295 19.452559
70.300 19.134094
70.305 19.175329
70.310 19.316124
70.315 19.754622
70.320 19.711483
70.325 19.625134
70.330 19.49824
70.335 19.056351
70.340 19.091803
70.345 18.955639
70.350 18.47575
70.355 18.428276
70.360 18.404896
70.365 18.266769
70.370 18.996422
70.375 18.595608
70.380 18.590322
70.385 18.870115
70.390 19.662874
70.395 19.753901
70.400 19.626572
70.405 19.043482
70.410 18.789856
70.415 18.662321
70.420 18.63748
70.425 17.766636
70.430 17.471762
70.435 18.15609
70.440 18.936922
70.445 19.481569
70.450 19.223516
70.455 18.772566
70.460 18.977034
70.465 19.205095
70.470 18.365135
70.475 17.972912
70.480 18.626247
70.485 18.858301
70.490 19.061666
70.495 19.014618
70.500 19.122543
70.505 19.336872
70.510 19.511189
70.515 18.91832
70.520 19.280689
70.525 19.529581
70.530 19.60989
70.535 19.688536
70.540 19.717327
70.545 19.560095
70.550 19.814169
70.555 19.834867
70.560 20.016182
70.565 20.117304
70.570 19.988331
70.575 19.61039
70.580 19.739326
70.585 19.832449
70.590 20.093824
70.595 20.23283
70.600 20.371187
70.605 21.109741
70.610 21.443001
70.615 21.850086
70.620 21.550329
70.625 21.651783
70.630 21.555283
70.635 21.146387
70.640 20.849829
70.645 20.318598
70.650 19.445353
70.655 18.809824
70.660 18.38102
70.665 18.340118
70.670 18.366022
70.675 18.294357
70.680 18.786684
70.685 19.17532
70.690 19.603201
70.695 19.742046
70.700 19.725338
70.705 19.89192
70.710 19.6161
70.715 19.465046
70.720 19.518871
70.725 19.397226
70.730 19.261742
70.735 19.391085
70.740 19.171656
70.745 18.960947
70.750 18.872774
70.755 18.651167
70.760 18.390562
70.765 18.845842
70.770 18.725819
70.775 18.937733
70.780 19.139433
70.785 18.545713
70.790 19.050123
70.795 19.000223
70.800 18.534473
70.805 18.453159
70.810 18.125992
70.815 18.062483
70.820 18.975101
70.825 18.282063
70.830 18.192741
70.835 18.659575
70.840 18.978228
70.845 19.312281
70.850 18.63122
70.855 18.447245
70.860 19.248243
70.865 19.285501
70.870 19.214355
70.875 19.139879
70.880 18.83412
70.885 19.363766
70.890 18.970333
70.895 18.813944
70.900 18.885595
70.905 18.592077
70.910 18.499729
70.915 18.416536
70.920 18.242599
70.925 18.160995
70.930 17.390398
70.935 16.817057
70.940 16.965708
70.945 17.210674
70.950 18.104488
70.955 18.279715
70.960 18.585798
70.965 19.535305
70.970 20.062859
70.975 20.043655
70.980 19.833853
70.985 19.417841
70.990 19.220932
70.995 19.003441
71.000 18.784599
71.005 18.495966
71.010 18.452959
71.015 18.596006
71.020 18.21088
71.025 18.198223
71.030 17.434805
71.035 17.400291
71.040 17.739965
71.045 17.87657
71.050 18.035645
71.055 18.097504
71.060 18.274462
71.065 18.741972
71.070 18.613934
71.075 18.273199
71.080 18.229185
71.085 18.22871
71.090 18.077101
71.095 18.914053
71.100 18.49473
71.105 18.602848
71.110 18.932028
71.115 19.194445
71.120 19.16732
71.125 19.474859
71.130 19.121199
71.135 19.130606
71.140 18.811289
71.145 18.364082
71.150 17.601864
71.155 17.519066
71.160 17.206875
71.165 17.632059
71.170 17.947975
71.175 18.491652
71.180 19.160408
71.185 19.796963
71.190 19.668774
71.195 19.532927
71.200 19.428825
71.205 19.481184
71.210 19.127075
71.215 18.533762
71.220 18.277822
71.225 18.692331
71.230 18.185772
71.235 17.761351
71.240 17.973242
71.245 17.894091
71.250 17.940353
71.255 17.858732
71.260 18.187653
71.265 19.107058
71.270 18.964138
71.275 19.022453
71.280 19.113792
71.285 19.573503
71.290 20.237385
71.295 19.932589
71.300 18.872232
71.305 18.756479
71.310 18.888073
71.315 18.664417
71.320 18.041134
71.325 17.59866
71.330 17.734615
71.335 18.836403
71.340 18.924015
71.345 18.876369
71.350 18.722622
71.355 19.374943
71.360 19.77895
71.365 19.804752
71.370 19.086308
71.375 18.35796
71.380 18.538151
71.385 18.72669
71.390 18.105316
71.395 17.536327
71.400 17.935108
71.405 18.657461
71.410 19.0473
71.415 18.957289
71.420 19.179438
71.425 19.378193
71.430 19.322836
71.435 19.543934
71.440 19.143679
71.445 18.640368
71.450 18.782253
71.455 18.524687
71.460 18.409979
71.465 18.069504
71.470 17.363548
71.475 17.723866
71.480 18.048683
71.485 17.966856
71.490 18.122263
71.495 18.451141
71.500 18.535694
71.505 18.857719
71.510 18.7115
71.515 18.827377
71.520 18.473957
71.525 18.190174
71.530 17.823858
71.535 18.216463
71.540 18.474371
71.545 18.495211
71.550 17.991594
71.555 18.162415
71.560 18.109552
71.565 18.218245
71.570 17.693201
71.575 17.402716
71.580 17.493788
71.585 17.692801
71.590 17.578827
71.595 17.525438
71.600 17.516541
71.605 17.672592
71.610 18.065781
71.615 17.561485
71.620 17.289381
71.625 17.12763
71.630 17.04241
71.635 17.19973
71.640 16.747372
71.645 16.385786
71.650 16.62907
71.655 16.710392
71.660 16.929502
71.665 17.374058
71.670 17.702551
71.675 18.472977
71.680 18.690714
71.685 19.231606
71.690 19.589512
71.695 19.766085
71.700 19.016691
71.705 18.290775
71.710 17.961306
71.715 17.996607
71.720 17.987402
71.725 18.240822
71.730 17.823105
71.735 18.037909
71.740 18.055788
71.745 18.043673
71.750 18.299444
71.755 17.928717
71.760 17.824068
71.765 18.15604
71.770 18.548756
71.775 18.521753
71.780 18.071583
71.785 17.816227
71.790 18.086195
71.795 18.350771
71.800 18.035213
71.805 18.147974
71.810 18.747303
71.815 18.530825
71.820 18.444319
71.825 18.297791
71.830 18.353931
71.835 18.330538
71.840 18.531723
71.845 19.054453
71.850 19.996433
71.855 20.322828
71.860 20.394449
71.865 20.13847
71.870 19.555571
71.875 19.15992
71.880 17.83234
71.885 17.725164
71.890 16.897896
71.895 16.27305
71.900 16.025326
71.905 16.465218
71.910 16.942005
71.915 17.408413
71.920 17.510244
71.925 17.92569
71.930 18.176945
71.935 18.644901
71.940 18.529245
71.945 18.292404
71.950 17.973249
71.955 17.274054
71.960 17.149979
71.965 17.024458
71.970 17.08876
71.975 17.24608
71.980 17.639666
71.985 17.68437
71.990 17.836479
71.995 17.937296
72.000 18.017017
72.005 18.578272
72.010 17.70863
72.015 17.063375
72.020 17.478035
72.025 17.764786
72.030 17.840208
72.035 18.224081
72.040 18.242382
72.045 19.481075
72.050 19.755102
72.055 19.29648
72.060 19.304445
72.065 18.903372
72.070 18.722155
72.075 18.098576
72.080 17.694313
72.085 17.748089
72.090 17.374498
72.095 17.649782
72.100 17.809862
72.105 17.498755
72.110 17.967922
72.115 18.125057
72.120 18.695385
72.125 19.222332
72.130 19.093643
72.135 18.9867
72.140 19.23374
72.145 19.238239
72.150 19.314468
72.155 19.055143
72.160 18.875233
72.165 18.930191
72.170 19.193655
72.175 18.756575
72.180 18.265646
72.185 17.564024
72.190 17.879665
72.195 17.681868
72.200 18.033073
72.205 18.2269
72.210 18.373741
72.215 18.145882
72.220 18.271862
72.225 18.544609
72.230 19.01552
72.235 18.30175
72.240 17.934147
72.245 18.397556
72.250 18.960724
72.255 19.406801
72.260 19.520857
72.265 18.871708
72.270 18.618261
72.275 18.235262
72.280 18.180033
72.285 17.589966
72.290 16.916401
72.295 16.401691
72.300 17.116236
72.305 17.117748
72.310 17.308384
72.315 17.32411
72.320 17.198133
72.325 17.285
72.330 17.551434
72.335 17.591316
72.340 18.034225
72.345 17.978168
72.350 17.80599
72.355 17.999111
72.360 18.01708
72.365 17.695826
72.370 17.459787
72.375 17.423777
72.380 17.509287
72.385 17.528105
72.390 17.692024
72.395 17.956425
72.400 18.754972
72.405 18.398149
72.410 18.225563
72.415 17.760221
72.420 17.539286
72.425 17.22608
72.430 16.400393
72.435 16.362097
72.440 16.487532
72.445 16.826172
72.450 17.035563
72.455 16.921593
72.460 17.781376
72.465 18.214705
72.470 18.033459
72.475 18.052261
72.480 18.293718
72.485 18.506006
72.490 18.300314
72.495 17.573694
72.500 17.44833
72.505 17.692726
72.510 17.492685
72.515 17.614351
72.520 17.383316
72.525 17.218431
72.530 17.202322
72.535 16.77013
72.540 16.347164
72.545 16.530989
72.550 16.629736
72.555 17.269983
72.560 17.485935
72.565 17.548122
72.570 17.689217
72.575 18.077904
72.580 17.686672
72.585 17.134525
72.590 16.572048
72.595 16.442968
72.600 16.55121
72.605 16.542273
72.610 16.597477
72.615 16.946568
72.620 16.912128
72.625 17.127638
72.630 16.659182
72.635 16.54369
72.640 16.458708
72.645 16.027487
72.650 16.079876
72.655 16.740345
72.660 17.087271
72.665 17.675497
72.670 17.5702
72.675 17.477686
72.680 17.759878
72.685 17.365257
72.690 17.165314
72.695 17.084694
72.700 16.876848
72.705 16.657393
72.710 16.606174
72.715 16.521551
72.720 16.587378
72.725 16.856037
72.730 16.963091
72.735 17.287619
72.740 17.16317
72.745 16.612835
72.750 16.469284
72.755 16.647812
72.760 16.14201
72.765 16.035288
72.770 16.356775
72.775 16.580946
72.780 17.124199
72.785 17.260847
72.790 17.184393
72.795 16.998636
72.800 17.420235
72.805 17.161806
72.810 17.757189
72.815 17.643349
72.820 17.602196
72.825 17.758123
72.830 17.695587
72.835 17.472679
72.840 17.114281
72.845 16.984745
72.850 16.625507
72.855 17.130594
72.860 17.567806
72.865 18.025738
72.870 18.199816
72.875 18.18536
72.880 18.340897
72.885 18.540188
72.890 18.081051
72.895 17.405806
72.900 16.850313
72.905 17.004553
72.910 16.694962
72.915 16.664295
72.920 16.536486
72.925 16.36367
72.930 16.545532
72.935 16.613022
72.940 16.624086
72.945 16.516308
72.950 17.179012
72.955 17.447979
72.960 17.286232
72.965 17.276983
72.970 16.97183
72.975 17.118385
72.980 17.293118
72.985 16.616999
72.990 16.154268
72.995 16.302481
73.000 16.628483
