!@!!GADDS PLOTSO FILE: Chi integration type
!@!!Title/SampleName: map-58
!@!!Comment: ?
!@!!User: Bruker Instrument Administrator
!@!!Site: University of Illinois Chicago
!@!!Frame: map-58_01_000.gfrm
!@!!Wavelengths    1.54184   1.54056   1.54439
!@!!Frame angles: 2Theta: 63.000 Omega: 50.000 Phi: 0.000 Chi: 90.000
!@!!Integration range: 2Theta: 53.000 to 73.000  Gamma: -105.000 to -75.000
!@!!Integration method: bin normalized
!@!N
!@!SS
!@!M
!@!L 0.0 0.0 0.0 0.0
!@!XDegrees
!@!YCounts
53.000 8.373329
53.005 8.243816
53.010 8.034001
53.015 8.147094
53.020 8.054494
53.025 8.301251
53.030 8.642498
53.035 8.885676
53.040 8.944694
53.045 8.817678
53.050 8.322922
53.055 8.1801
53.060 8.241623
53.065 8.468434
53.070 8.297624
53.075 8.090674
53.080 8.587317
53.085 8.942321
53.090 8.571673
53.095 8.1327
53.100 7.932189
53.105 8.143856
53.110 8.251802
53.115 7.904568
53.120 7.816597
53.125 7.951147
53.130 7.778475
53.135 7.442617
53.140 7.305389
53.145 7.099165
53.150 7.19825
53.155 7.612834
53.160 7.667552
53.165 7.841139
53.170 7.901438
53.175 8.143666
53.180 8.219014
53.185 8.009503
53.190 7.930313
53.195 8.234864
53.200 8.316515
53.205 8.611316
53.210 8.988213
53.215 8.832021
53.220 8.84163
53.225 9.003475
53.230 9.188375
53.235 9.353967
53.240 8.848756
53.245 8.496282
53.250 8.57446
53.255 8.492702
53.260 8.179768
53.265 7.814607
53.270 7.348766
53.275 7.247577
53.280 7.162385
53.285 7.342206
53.290 7.717161
53.295 7.558198
53.300 7.671934
53.305 8.001117
53.310 8.400386
53.315 8.553782
53.320 8.191685
53.325 7.855745
53.330 7.933665
53.335 7.769059
53.340 7.616325
53.345 7.89976
53.350 8.436531
53.355 8.5068
53.360 8.655284
53.365 8.748905
53.370 8.761477
53.375 8.660886
53.380 8.36927
53.385 8.219352
53.390 8.311268
53.395 8.304729
53.400 8.561432
53.405 8.387122
53.410 8.41073
53.415 8.31687
53.420 8.454215
53.425 8.251351
53.430 8.213827
53.435 8.526956
53.440 9.169464
53.445 9.409637
53.450 9.485835
53.455 9.479774
53.460 9.980723
53.465 9.934985
53.470 9.414744
53.475 9.028388
53.480 8.625587
53.485 8.316458
53.490 8.031414
53.495 7.951527
53.500 8.605865
53.505 8.923254
53.510 8.848321
53.515 9.176884
53.520 9.075432
53.525 8.653057
53.530 8.365882
53.535 8.086012
53.540 8.134305
53.545 8.147187
53.550 8.148279
53.555 8.86975
53.560 9.425373
53.565 9.409693
53.570 9.152773
53.575 9.045361
53.580 9.374459
53.585 9.704502
53.590 9.562284
53.595 9.560515
53.600 9.787045
53.605 9.953068
53.610 9.905573
53.615 9.56312
53.620 8.816305
53.625 8.657983
53.630 8.569057
53.635 8.365891
53.640 7.98278
53.645 8.069643
53.650 8.163157
53.655 8.028523
53.660 8.067735
53.665 8.076241
53.670 8.302567
53.675 8.907804
53.680 8.793364
53.685 9.030363
53.690 9.754972
53.695 10.087165
53.700 10.011626
53.705 9.883531
53.710 9.582875
53.715 9.917471
53.720 9.999752
53.725 9.684381
53.730 9.311089
53.735 9.274156
53.740 9.46253
53.745 9.738994
53.750 9.480692
53.755 9.296905
53.760 9.590482
53.765 9.87686
53.770 9.556337
53.775 9.142385
53.780 8.882723
53.785 9.139656
53.790 8.602665
53.795 8.481748
53.800 8.895635
53.805 9.306973
53.810 9.320032
53.815 9.584565
53.820 9.485221
53.825 9.697003
53.830 9.497634
53.835 8.825478
53.840 8.821174
53.845 9.089368
53.850 9.235557
53.855 9.705008
53.860 10.151059
53.865 9.806376
53.870 9.730762
53.875 9.603031
53.880 9.362159
53.885 9.316963
53.890 8.958512
53.895 8.9694
53.900 9.006021
53.905 9.014796
53.910 8.990326
53.915 8.602695
53.920 8.539902
53.925 8.305219
53.930 7.928966
53.935 8.431028
53.940 9.254417
53.945 9.56296
53.950 9.620633
53.955 10.023855
53.960 10.084394
53.965 9.9822
53.970 9.549123
53.975 8.821291
53.980 8.622976
53.985 8.522215
53.990 8.259841
53.995 8.499978
54.000 8.346874
54.005 8.335564
54.010 8.422763
54.015 8.620605
54.020 8.670073
54.025 8.879965
54.030 9.088765
54.035 9.84974
54.040 10.269762
54.045 10.408659
54.050 10.328898
54.055 10.06461
54.060 10.122818
54.065 9.826818
54.070 9.217253
54.075 8.745261
54.080 8.906401
54.085 9.010476
54.090 9.094438
54.095 8.939501
54.100 9.136491
54.105 9.363839
54.110 9.483886
54.115 9.311178
54.120 9.29306
54.125 9.32151
54.130 9.327755
54.135 9.472247
54.140 10.008282
54.145 10.247911
54.150 10.562263
54.155 10.507895
54.160 10.497502
54.165 10.829967
54.170 10.687237
54.175 10.120114
54.180 10.0956
54.185 10.115161
54.190 10.164204
54.195 9.920218
54.200 9.801213
54.205 9.904845
54.210 9.752936
54.215 9.471754
54.220 9.472895
54.225 10.053152
54.230 10.162808
54.235 10.006179
54.240 9.904071
54.245 9.962031
54.250 9.281847
54.255 8.887947
54.260 9.143772
54.265 9.199246
54.270 9.279798
54.275 9.258185
54.280 9.394407
54.285 9.968802
54.290 9.505163
54.295 8.617995
54.300 8.158079
54.305 8.162505
54.310 8.308861
54.315 8.163356
54.320 8.093955
54.325 8.560096
54.330 9.082194
54.335 9.572021
54.340 9.454915
54.345 9.650103
54.350 9.865898
54.355 9.861551
54.360 9.60673
54.365 9.285131
54.370 9.209426
54.375 9.325215
54.380 9.641412
54.385 9.778555
54.390 9.73597
54.395 9.548186
54.400 9.404165
54.405 9.354332
54.410 9.61289
54.415 8.904646
54.420 9.077535
54.425 8.914821
54.430 9.31034
54.435 9.717683
54.440 9.474226
54.445 9.222653
54.450 9.317649
54.455 9.057095
54.460 9.426889
54.465 9.212831
54.470 8.790712
54.475 8.287305
54.480 7.993154
54.485 7.710751
54.490 7.946688
54.495 8.273155
54.500 8.331914
54.505 8.848127
54.510 9.503764
54.515 10.2602
54.520 10.358624
54.525 9.989639
54.530 9.783735
54.535 10.077241
54.540 10.284571
54.545 10.096817
54.550 9.909747
54.555 10.043205
54.560 9.779908
54.565 9.921829
54.570 9.879323
54.575 9.86091
54.580 9.73069
54.585 9.502796
54.590 10.191753
54.595 10.103719
54.600 9.471
54.605 8.917503
54.610 8.787526
54.615 9.413672
54.620 9.554006
54.625 9.219294
54.630 9.785444
54.635 10.466721
54.640 10.848157
54.645 11.403636
54.650 11.181965
54.655 11.649523
54.660 12.091337
54.665 11.745306
54.670 11.459359
54.675 11.715686
54.680 11.048258
54.685 11.028288
54.690 11.292744
54.695 11.482715
54.700 11.81157
54.705 11.567005
54.710 10.974629
54.715 11.289622
54.720 11.146624
54.725 10.280978
54.730 9.475307
54.735 9.026011
54.740 9.035172
54.745 8.824458
54.750 8.260953
54.755 8.41993
54.760 8.610045
54.765 9.191955
54.770 10.211784
54.775 9.993986
54.780 10.086431
54.785 10.406309
54.790 10.445315
54.795 10.755819
54.800 10.684226
54.805 10.421432
54.810 10.935593
54.815 10.786166
54.820 10.937591
54.825 10.807254
54.830 10.569264
54.835 10.548661
54.840 10.685725
54.845 10.865007
54.850 11.164275
54.855 10.772814
54.860 10.678226
54.865 10.552211
54.870 10.615693
54.875 10.712118
54.880 10.67787
54.885 10.58453
54.890 10.597317
54.895 10.792175
54.900 10.67851
54.905 10.447415
54.910 10.584594
54.915 10.757026
54.920 10.879646
54.925 11.190578
54.930 11.649227
54.935 12.094646
54.940 12.425508
54.945 12.013672
54.950 11.850171
54.955 11.445405
54.960 10.886035
54.965 10.083749
54.970 9.395723
54.975 9.19455
54.980 9.475203
54.985 9.914727
54.990 10.138064
54.995 10.059376
55.000 10.396884
55.005 10.935163
55.010 10.805942
55.015 10.373308
55.020 10.157003
55.025 10.336862
55.030 10.50974
55.035 10.300315
55.040 10.266233
55.045 10.724737
55.050 11.144841
55.055 11.329277
55.060 11.552533
55.065 11.597029
55.070 11.328015
55.075 11.043695
55.080 10.95397
55.085 10.837149
55.090 10.728665
55.095 10.593989
55.100 10.45826
55.105 10.630116
55.110 10.720592
55.115 10.683885
55.120 10.122329
55.125 9.821068
55.130 9.814921
55.135 10.269292
55.140 10.381732
55.145 10.336004
55.150 10.499556
55.155 11.095097
55.160 11.172379
55.165 10.822761
55.170 10.764791
55.175 10.678826
55.180 10.588336
55.185 10.650064
55.190 10.87456
55.195 10.648576
55.200 10.900658
55.205 11.156568
55.210 11.64564
55.215 11.70684
55.220 11.373204
55.225 11.542792
55.230 11.98717
55.235 11.837014
55.240 11.571607
55.245 11.557826
55.250 11.352254
55.255 11.270825
55.260 11.317865
55.265 11.020885
55.270 10.921657
55.275 10.454129
55.280 10.165855
55.285 9.885742
55.290 9.508533
55.295 9.370464
55.300 9.378151
55.305 9.482982
55.310 9.309283
55.315 9.56517
55.320 10.314401
55.325 10.677613
55.330 10.739096
55.335 10.972324
55.340 11.387724
55.345 11.585602
55.350 11.63039
55.355 11.49639
55.360 11.550342
55.365 11.42697
55.370 11.493011
55.375 11.486933
55.380 11.775653
55.385 12.162651
55.390 12.203237
55.395 12.27051
55.400 12.618194
55.405 12.597006
55.410 12.627391
55.415 12.788567
55.420 12.440401
55.425 12.298773
55.430 12.141846
55.435 11.917333
55.440 11.7644
55.445 11.426338
55.450 10.946975
55.455 10.776913
55.460 10.539958
55.465 10.669776
55.470 10.915781
55.475 11.150544
55.480 11.189206
55.485 11.454473
55.490 11.328884
55.495 11.006414
55.500 11.087694
55.505 10.6175
55.510 10.541877
55.515 10.519646
55.520 10.443838
55.525 10.68213
55.530 10.660572
55.535 10.495829
55.540 10.673626
55.545 10.650106
55.550 10.912512
55.555 11.316355
55.560 11.623786
55.565 12.24173
55.570 12.664331
55.575 12.795927
55.580 12.563325
55.585 11.94379
55.590 11.48442
55.595 11.210748
55.600 11.003181
55.605 10.551702
55.610 10.787292
55.615 10.833689
55.620 10.814401
55.625 10.795835
55.630 11.108969
55.635 11.074698
55.640 10.935168
55.645 10.802859
55.650 11.205925
55.655 11.434671
55.660 11.096242
55.665 11.028246
55.670 10.502906
55.675 10.146049
55.680 9.559764
55.685 9.093511
55.690 8.870534
55.695 9.534275
55.700 9.591022
55.705 10.020961
55.710 10.380619
55.715 10.774573
55.720 11.332585
55.725 11.205873
55.730 10.724394
55.735 10.707296
55.740 10.778471
55.745 11.086538
55.750 11.171254
55.755 11.398648
55.760 11.53282
55.765 11.831452
55.770 12.070444
55.775 11.736377
55.780 11.568043
55.785 11.494784
55.790 11.254068
55.795 11.150479
55.800 11.01825
55.805 10.773709
55.810 11.440801
55.815 11.843528
55.820 12.317464
55.825 12.170918
55.830 12.16463
55.835 12.462245
55.840 12.283056
55.845 11.71786
55.850 11.369172
55.855 11.228776
55.860 11.666529
55.865 11.85743
55.870 11.979522
55.875 12.301204
55.880 12.47212
55.885 12.53025
55.890 12.440222
55.895 11.912207
55.900 11.561802
55.905 11.703296
55.910 11.672445
55.915 11.340102
55.920 11.405251
55.925 11.530735
55.930 12.401519
55.935 12.449153
55.940 12.032326
55.945 11.903416
55.950 11.798402
55.955 11.533792
55.960 11.473476
55.965 11.172698
55.970 10.93771
55.975 11.170637
55.980 11.505123
55.985 11.897517
55.990 11.864254
55.995 11.753859
56.000 12.161056
56.005 12.141238
56.010 11.873118
56.015 11.792258
56.020 12.017217
56.025 12.207956
56.030 12.403246
56.035 12.353822
56.040 12.192023
56.045 12.154913
56.050 12.090474
56.055 11.747963
56.060 10.964452
56.065 10.057914
56.070 9.969165
56.075 10.131021
56.080 10.087067
56.085 10.218207
56.090 10.477306
56.095 10.971585
56.100 11.011217
56.105 11.049593
56.110 10.971162
56.115 11.181109
56.120 11.729125
56.125 11.898156
56.130 11.995534
56.135 12.058162
56.140 12.123878
56.145 12.060894
56.150 11.702559
56.155 11.758669
56.160 11.752732
56.165 12.276331
56.170 12.735003
56.175 12.593143
56.180 12.410528
56.185 12.412309
56.190 11.944201
56.195 11.987811
56.200 11.773184
56.205 12.216972
56.210 12.486691
56.215 13.50545
56.220 13.34344
56.225 12.931583
56.230 13.042538
56.235 12.926839
56.240 12.58592
56.245 12.549788
56.250 11.89734
56.255 12.450429
56.260 13.003396
56.265 13.378001
56.270 13.1766
56.275 13.040385
56.280 12.91372
56.285 12.775565
56.290 12.845244
56.295 12.130476
56.300 11.083104
56.305 10.777838
56.310 10.881471
56.315 11.042512
56.320 10.916548
56.325 10.646189
56.330 11.378115
56.335 12.071558
56.340 12.318229
56.345 12.324104
56.350 12.199158
56.355 11.598463
56.360 11.260504
56.365 10.91431
56.370 10.882912
56.375 11.073712
56.380 10.783606
56.385 11.077755
56.390 11.537029
56.395 11.871859
56.400 12.129025
56.405 12.03842
56.410 11.768765
56.415 11.931744
56.420 11.971086
56.425 12.275185
56.430 12.34204
56.435 12.097985
56.440 12.268805
56.445 12.314843
56.450 12.412357
56.455 12.315819
56.460 12.491537
56.465 12.437412
56.470 12.288313
56.475 12.225825
56.480 12.430607
56.485 12.48063
56.490 12.59243
56.495 12.909777
56.500 13.009535
56.505 12.939548
56.510 12.412602
56.515 12.107513
56.520 12.202815
56.525 11.854021
56.530 11.323434
56.535 11.293709
56.540 11.538571
56.545 11.633919
56.550 11.629694
56.555 11.480419
56.560 11.44493
56.565 11.373072
56.570 11.996711
56.575 12.230369
56.580 12.234038
56.585 12.448745
56.590 12.564813
56.595 12.44339
56.600 12.635539
56.605 11.96965
56.610 11.813122
56.615 12.026793
56.620 11.847836
56.625 12.407125
56.630 12.218949
56.635 12.350651
56.640 12.207303
56.645 12.429557
56.650 12.085073
56.655 11.72175
56.660 11.621398
56.665 11.870197
56.670 12.037533
56.675 12.732873
56.680 12.705344
56.685 12.817902
56.690 12.885932
56.695 13.042028
56.700 12.892011
56.705 12.629164
56.710 12.302806
56.715 12.17309
56.720 12.601726
56.725 12.917322
56.730 13.03148
56.735 13.10986
56.740 13.003688
56.745 13.087703
56.750 13.691128
56.755 13.709301
56.760 13.712556
56.765 13.551531
56.770 13.827119
56.775 13.609073
56.780 13.608876
56.785 13.300184
56.790 13.846344
56.795 14.194174
56.800 14.179382
56.805 14.320545
56.810 14.761752
56.815 14.582433
56.820 14.776155
56.825 13.88762
56.830 13.56462
56.835 13.595072
56.840 13.211512
56.845 13.029312
56.850 13.077733
56.855 12.633138
56.860 12.399053
56.865 12.335083
56.870 12.685051
56.875 12.702596
56.880 12.872592
56.885 13.061395
56.890 13.560034
56.895 13.770381
56.900 13.777783
56.905 13.524732
56.910 13.819544
56.915 13.571674
56.920 13.453105
56.925 13.023035
56.930 12.725507
56.935 12.65466
56.940 12.951708
56.945 12.95335
56.950 12.589251
56.955 12.367372
56.960 12.476639
56.965 12.813588
56.970 12.350183
56.975 12.0328
56.980 12.256186
56.985 12.375417
56.990 12.910242
56.995 12.920676
57.000 12.987432
57.005 12.818009
57.010 12.784471
57.015 12.435119
57.020 12.41715
57.025 12.268359
57.030 12.226741
57.035 12.075291
57.040 12.499881
57.045 12.523051
57.050 12.239308
57.055 11.95196
57.060 11.76258
57.065 11.807384
57.070 11.887404
57.075 11.760464
57.080 11.696161
57.085 12.287025
57.090 12.649219
57.095 12.952804
57.100 13.321665
57.105 13.275728
57.110 13.381598
57.115 13.114985
57.120 12.513288
57.125 12.407761
57.130 12.364722
57.135 12.232923
57.140 12.736007
57.145 12.862765
57.150 13.323803
57.155 13.834875
57.160 13.535363
57.165 13.394861
57.170 13.379024
57.175 13.076413
57.180 12.984345
57.185 13.283347
57.190 13.490137
57.195 13.990562
57.200 14.072155
57.205 13.875885
57.210 13.680602
57.215 13.338936
57.220 12.98569
57.225 12.811135
57.230 12.549471
57.235 12.333968
57.240 12.809805
57.245 13.500751
57.250 13.367338
57.255 13.684219
57.260 13.855298
57.265 13.969037
57.270 14.241277
57.275 13.804848
57.280 13.757569
57.285 14.538245
57.290 14.067651
57.295 14.035989
57.300 14.186399
57.305 14.209337
57.310 14.555334
57.315 14.836697
57.320 14.733465
57.325 14.931928
57.330 14.910315
57.335 15.183406
57.340 15.156688
57.345 15.224514
57.350 14.672322
57.355 14.397577
57.360 14.316607
57.365 14.21251
57.370 14.178472
57.375 14.228868
57.380 14.072803
57.385 14.735981
57.390 14.88797
57.395 14.6009
57.400 13.982663
57.405 13.93812
57.410 14.1369
57.415 13.871137
57.420 12.922327
57.425 12.944623
57.430 13.267554
57.435 13.584061
57.440 13.524382
57.445 13.256178
57.450 13.293059
57.455 13.469325
57.460 13.626922
57.465 13.516582
57.470 13.835175
57.475 13.363454
57.480 13.271087
57.485 13.166046
57.490 13.066028
57.495 12.729304
57.500 12.386858
57.505 12.111649
57.510 12.303815
57.515 12.316808
57.520 12.464762
57.525 12.281865
57.530 12.348687
57.535 12.928295
57.540 12.874423
57.545 12.627241
57.550 12.599754
57.555 12.664342
57.560 12.822871
57.565 12.728032
57.570 12.56251
57.575 12.00692
57.580 12.222331
57.585 12.512603
57.590 12.266791
57.595 12.29636
57.600 12.345114
57.605 12.383303
57.610 13.014199
57.615 13.052305
57.620 12.752167
57.625 13.387228
57.630 14.196291
57.635 14.434819
57.640 14.293229
57.645 13.881119
57.650 13.67949
57.655 14.065644
57.660 14.009384
57.665 13.069804
57.670 12.88311
57.675 13.138551
57.680 13.444128
57.685 13.814311
57.690 13.069508
57.695 12.960881
57.700 13.549651
57.705 13.946969
57.710 14.141727
57.715 14.046188
57.720 13.86589
57.725 14.225605
57.730 14.14733
57.735 13.69708
57.740 13.243512
57.745 12.731637
57.750 12.830094
57.755 12.742809
57.760 12.949512
57.765 13.145415
57.770 12.995004
57.775 13.141103
57.780 13.083528
57.785 12.793509
57.790 12.611812
57.795 12.199644
57.800 12.048392
57.805 12.793972
57.810 13.195251
57.815 13.952614
57.820 14.014575
57.825 13.580235
57.830 13.311414
57.835 13.281869
57.840 12.90211
57.845 12.416266
57.850 12.178677
57.855 12.616219
57.860 13.434755
57.865 14.173189
57.870 14.303389
57.875 14.082917
57.880 13.736256
57.885 13.504822
57.890 13.350418
57.895 13.271882
57.900 13.075865
57.905 12.572819
57.910 12.885706
57.915 13.144681
57.920 13.521307
57.925 13.438013
57.930 13.35642
57.935 13.721015
57.940 14.265939
57.945 14.142809
57.950 14.163139
57.955 13.610573
57.960 13.504824
57.965 13.412643
57.970 13.012329
57.975 12.782434
57.980 13.119995
57.985 13.319367
57.990 13.78802
57.995 14.118261
58.000 14.24937
58.005 14.282331
58.010 14.125275
58.015 13.907815
58.020 13.377649
58.025 12.715714
58.030 12.656473
58.035 12.671463
58.040 12.63571
58.045 13.070132
58.050 13.23453
58.055 13.919577
58.060 14.86549
58.065 14.974361
58.070 14.81919
58.075 15.232033
58.080 15.814234
58.085 15.740254
58.090 15.415407
58.095 15.002875
58.100 15.072802
58.105 15.476468
58.110 15.091046
58.115 14.081794
58.120 14.037416
58.125 14.024805
58.130 13.981296
58.135 14.054932
58.140 13.966157
58.145 14.272008
58.150 14.180474
58.155 14.101598
58.160 13.867703
58.165 13.958655
58.170 14.191148
58.175 14.372076
58.180 14.524165
58.185 14.477299
58.190 14.43319
58.195 14.077137
58.200 13.884624
58.205 13.629297
58.210 13.06451
58.215 12.795488
58.220 13.616966
58.225 14.003652
58.230 14.365891
58.235 14.307973
58.240 14.650352
58.245 14.564268
58.250 14.54579
58.255 14.702088
58.260 14.912406
58.265 14.785274
58.270 14.332889
58.275 14.369346
58.280 15.245198
58.285 15.526538
58.290 15.318666
58.295 15.871044
58.300 16.047405
58.305 16.189106
58.310 15.75438
58.315 15.225041
58.320 15.221984
58.325 14.791559
58.330 14.31319
58.335 14.671954
58.340 14.133103
58.345 14.148005
58.350 14.069804
58.355 13.93692
58.360 13.975843
58.365 13.647133
58.370 13.163017
58.375 13.633735
58.380 13.435274
58.385 13.011911
58.390 13.176715
58.395 13.055895
58.400 13.169972
58.405 13.481691
58.410 13.015971
58.415 13.300788
58.420 14.194641
58.425 14.536136
58.430 14.693119
58.435 14.702408
58.440 15.120877
58.445 15.915813
58.450 15.631805
58.455 15.320448
58.460 15.329408
58.465 15.502376
58.470 15.739888
58.475 15.080016
58.480 15.343232
58.485 15.867596
58.490 16.655317
58.495 16.721537
58.500 16.678715
58.505 16.851671
58.510 17.548071
58.515 17.002247
58.520 16.83951
58.525 15.615636
58.530 15.363794
58.535 15.10889
58.540 14.719281
58.545 14.742255
58.550 15.152833
58.555 15.528552
58.560 16.24744
58.565 16.586908
58.570 16.927467
58.575 17.271427
58.580 17.084782
58.585 16.632521
58.590 16.22151
58.595 15.973692
58.600 15.488015
58.605 15.364194
58.610 14.95362
58.615 14.965539
58.620 15.332083
58.625 14.958648
58.630 15.117377
58.635 15.230682
58.640 15.38343
58.645 15.196128
58.650 14.871822
58.655 14.33773
58.660 14.097666
58.665 14.294862
58.670 14.328638
58.675 14.454967
58.680 14.97883
58.685 15.519655
58.690 15.772552
58.695 16.408276
58.700 15.696014
58.705 15.357833
58.710 14.951296
58.715 14.802995
58.720 14.635135
58.725 14.87191
58.730 15.117075
58.735 15.480164
58.740 15.937985
58.745 16.809637
58.750 16.598
58.755 16.196039
58.760 15.778636
58.765 15.453738
58.770 15.475784
58.775 14.490645
58.780 13.5856
58.785 13.613338
58.790 14.095968
58.795 14.216923
58.800 14.360156
58.805 14.321694
58.810 15.492755
58.815 15.909828
58.820 15.579942
58.825 15.280508
58.830 15.115665
58.835 14.980324
58.840 14.576045
58.845 13.74785
58.850 13.725697
58.855 14.316531
58.860 14.655467
58.865 15.100735
58.870 15.31379
58.875 15.660295
58.880 15.90024
58.885 15.745917
58.890 15.296623
58.895 14.962389
58.900 14.625165
58.905 15.032336
58.910 15.41336
58.915 15.940353
58.920 16.005039
58.925 16.294712
58.930 16.320078
58.935 16.224222
58.940 16.067575
58.945 16.462383
58.950 15.549196
58.955 15.600377
58.960 15.442254
58.965 15.845998
58.970 15.880418
58.975 15.95217
58.980 15.951035
58.985 16.450996
58.990 16.699343
58.995 16.887228
59.000 16.919977
59.005 17.115732
59.010 16.615561
59.015 16.380245
59.020 16.406942
59.025 16.372835
59.030 16.507931
59.035 16.680815
59.040 17.052441
59.045 17.307123
59.050 17.126425
59.055 17.328833
59.060 16.83526
59.065 16.40312
59.070 15.460238
59.075 14.699961
59.080 14.273596
59.085 13.853281
59.090 13.947626
59.095 14.111012
59.100 14.512
59.105 14.958193
59.110 14.799276
59.115 14.869334
59.120 15.384711
59.125 15.203256
59.130 15.761262
59.135 15.737247
59.140 15.642012
59.145 15.86018
59.150 16.541418
59.155 16.48176
59.160 15.848767
59.165 15.419649
59.170 15.322421
59.175 15.648422
59.180 15.961515
59.185 15.423457
59.190 15.658913
59.195 16.329178
59.200 15.713017
59.205 15.644063
59.210 15.629143
59.215 15.833332
59.220 15.51055
59.225 15.18124
59.230 15.311107
59.235 15.84519
59.240 15.766095
59.245 15.892076
59.250 15.891472
59.255 15.837186
59.260 15.855685
59.265 15.539829
59.270 15.568606
59.275 15.5807
59.280 15.578376
59.285 16.328955
59.290 17.218164
59.295 17.655361
59.300 17.815643
59.305 18.019217
59.310 18.146429
59.315 17.923182
59.320 17.17827
59.325 17.33489
59.330 17.707758
59.335 17.789698
59.340 17.824047
59.345 17.731756
59.350 17.65971
59.355 17.546259
59.360 17.281303
59.365 16.239206
59.370 15.88048
59.375 15.751048
59.380 15.796863
59.385 15.771494
59.390 16.123621
59.395 16.5317
59.400 17.409199
59.405 18.295828
59.410 18.473324
59.415 18.563013
59.420 18.702726
59.425 17.916504
59.430 16.75601
59.435 16.49358
59.440 15.470872
59.445 15.196489
59.450 15.602297
59.455 15.227783
59.460 15.485225
59.465 15.630724
59.470 15.362313
59.475 16.358479
59.480 15.849078
59.485 15.694304
59.490 16.635389
59.495 16.963152
59.500 17.024443
59.505 16.890059
59.510 16.5098
59.515 17.202976
59.520 17.45808
59.525 17.016504
59.530 16.809584
59.535 17.167761
59.540 17.534357
59.545 17.653753
59.550 17.627245
59.555 16.994165
59.560 17.501524
59.565 17.424198
59.570 17.237957
59.575 17.307098
59.580 16.744093
59.585 16.327856
59.590 16.396566
59.595 15.459695
59.600 15.512908
59.605 15.318852
59.610 15.323428
59.615 15.520617
59.620 15.625713
59.625 15.657743
59.630 16.49161
59.635 16.603443
59.640 16.828264
59.645 17.153767
59.650 17.575148
59.655 18.220505
59.660 18.414263
59.665 18.306763
59.670 18.764153
59.675 18.324118
59.680 17.50177
59.685 16.831625
59.690 16.735065
59.695 16.653376
59.700 16.132387
59.705 15.519608
59.710 15.934891
59.715 16.561579
59.720 16.79204
59.725 16.85763
59.730 17.120836
59.735 17.319332
59.740 17.778379
59.745 17.773752
59.750 18.141399
59.755 18.092241
59.760 18.1346
59.765 18.83213
59.770 19.142221
59.775 19.160587
59.780 19.253809
59.785 19.719213
59.790 19.850407
59.795 19.62841
59.800 19.169222
59.805 18.859266
59.810 18.821215
59.815 18.08754
59.820 17.038279
59.825 16.903223
59.830 16.737261
59.835 16.068974
59.840 15.629018
59.845 15.640966
59.850 15.99948
59.855 16.325228
59.860 16.139818
59.865 16.365265
59.870 16.924503
59.875 17.530565
59.880 17.492994
59.885 17.813318
59.890 18.541656
59.895 18.76405
59.900 18.865755
59.905 19.06975
59.910 19.643618
59.915 19.802689
59.920 19.185909
59.925 18.713808
59.930 19.596024
59.935 20.051317
59.940 20.324324
59.945 20.087029
59.950 20.151144
59.955 20.209654
59.960 20.150883
59.965 19.998917
59.970 19.810728
59.975 19.487511
59.980 18.845968
59.985 18.677597
59.990 19.371572
59.995 19.408585
60.000 18.899408
60.005 18.780388
60.010 18.249573
60.015 18.145666
60.020 18.455561
60.025 18.340151
60.030 18.447083
60.035 18.437983
60.040 18.48498
60.045 18.722157
60.050 19.446939
60.055 19.2367
60.060 18.961645
60.065 18.815231
60.070 19.013525
60.075 19.331491
60.080 19.112072
60.085 19.289835
60.090 19.592346
60.095 20.00017
60.100 20.452305
60.105 20.221918
60.110 20.204884
60.115 20.500788
60.120 19.967482
60.125 19.878569
60.130 19.502209
60.135 19.727589
60.140 20.054422
60.145 20.203512
60.150 20.836971
60.155 21.188829
60.160 21.193192
60.165 21.550283
60.170 20.891594
60.175 20.497232
60.180 19.750427
60.185 18.755194
60.190 18.580124
60.195 18.984352
60.200 18.87039
60.205 18.839844
60.210 19.405563
60.215 19.626209
60.220 20.66048
60.225 21.195652
60.230 20.734152
60.235 20.969458
60.240 21.231388
60.245 21.352112
60.250 21.999012
60.255 21.589102
60.260 20.625402
60.265 20.066315
60.270 19.890467
60.275 19.576511
60.280 19.287287
60.285 18.800781
60.290 18.661922
60.295 19.087259
60.300 19.510759
60.305 19.391397
60.310 19.5679
60.315 19.565855
60.320 19.509558
60.325 19.159632
60.330 18.810467
60.335 18.282297
60.340 18.723
60.345 18.550573
60.350 18.151711
60.355 18.988998
60.360 19.840914
60.365 20.53125
60.370 21.164305
60.375 20.954395
60.380 21.064123
60.385 21.272707
60.390 20.732218
60.395 20.626131
60.400 20.031845
60.405 19.791014
60.410 19.65596
60.415 19.75453
60.420 19.417854
60.425 18.921923
60.430 18.968954
60.435 19.142015
60.440 18.856144
60.445 18.946428
60.450 18.372993
60.455 18.358009
60.460 18.520113
60.465 18.486067
60.470 18.789227
60.475 19.369276
60.480 19.347679
60.485 19.906687
60.490 19.946497
60.495 19.825937
60.500 19.683321
60.505 19.768293
60.510 19.331949
60.515 19.590796
60.520 19.45821
60.525 19.392344
60.530 19.572395
60.535 19.756712
60.540 19.257919
60.545 18.90122
60.550 18.406921
60.555 18.322643
60.560 18.116919
60.565 17.469618
60.570 17.098646
60.575 17.0151
60.580 17.029305
60.585 17.48954
60.590 18.314444
60.595 19.123199
60.600 19.439793
60.605 19.453106
60.610 19.99581
60.615 19.896725
60.620 19.333458
60.625 18.478256
60.630 18.630945
60.635 18.93664
60.640 19.351511
60.645 18.866964
60.650 19.133272
60.655 19.682037
60.660 19.950518
60.665 19.614065
60.670 19.130957
60.675 18.66058
60.680 18.850449
60.685 19.102888
60.690 19.207218
60.695 19.082266
60.700 19.198954
60.705 19.291946
60.710 19.458174
60.715 19.483778
60.720 19.254164
60.725 18.704689
60.730 18.419968
60.735 18.42664
60.740 18.091681
60.745 17.924641
60.750 17.971569
60.755 17.801676
60.760 18.026701
60.765 18.552591
60.770 18.797926
60.775 18.934967
60.780 18.332335
60.785 18.208452
60.790 18.227278
60.795 18.138344
60.800 17.317636
60.805 16.816628
60.810 16.666491
60.815 16.819937
60.820 16.854786
60.825 17.179966
60.830 17.484058
60.835 17.572329
60.840 17.644634
60.845 17.27173
60.850 17.88225
60.855 18.028917
60.860 18.034084
60.865 18.406399
60.870 19.009157
60.875 18.870344
60.880 19.308773
60.885 19.376024
60.890 18.88151
60.895 18.675438
60.900 18.341999
60.905 17.963161
60.910 18.682302
60.915 18.855654
60.920 18.701771
60.925 19.072052
60.930 18.95116
60.935 18.925589
60.940 18.740116
60.945 18.010258
60.950 17.584242
60.955 17.523136
60.960 17.498882
60.965 16.932533
60.970 16.075813
60.975 16.018597
60.980 16.022202
60.985 16.818903
60.990 16.538834
60.995 16.11484
61.000 16.302805
61.005 17.000959
61.010 17.819107
61.015 17.980257
61.020 17.377518
61.025 17.438349
61.030 17.1106
61.035 17.190863
61.040 17.11137
61.045 16.896589
61.050 17.477268
61.055 18.017502
61.060 18.139212
61.065 18.630821
61.070 18.498407
61.075 18.239565
61.080 17.859192
61.085 16.83086
61.090 16.329151
61.095 16.285603
61.100 16.098049
61.105 16.167597
61.110 16.31546
61.115 16.596596
61.120 17.300148
61.125 17.276367
61.130 17.636122
61.135 17.961205
61.140 18.319881
61.145 18.880119
61.150 18.824398
61.155 18.626701
61.160 18.53462
61.165 18.092934
61.170 18.194029
61.175 18.14407
61.180 17.613859
61.185 17.519419
61.190 17.181801
61.195 17.54076
61.200 17.44104
61.205 17.103491
61.210 17.013443
61.215 17.521671
61.220 17.782394
61.225 17.942589
61.230 18.348452
61.235 18.609734
61.240 18.781553
61.245 18.836916
61.250 18.175489
61.255 18.161409
61.260 18.031229
61.265 17.780846
61.270 17.386925
61.275 16.984875
61.280 16.990339
61.285 17.176559
61.290 17.372231
61.295 17.788479
61.300 17.575676
61.305 17.721659
61.310 17.700804
61.315 17.242079
61.320 17.142385
61.325 17.214111
61.330 16.985825
61.335 17.132889
61.340 18.129494
61.345 18.835545
61.350 19.111635
61.355 19.055311
61.360 18.766083
61.365 18.469568
61.370 17.76915
61.375 16.628698
61.380 16.651554
61.385 16.666945
61.390 16.492529
61.395 16.175501
61.400 16.736515
61.405 17.429953
61.410 17.887924
61.415 17.136105
61.420 16.794271
61.425 16.532831
61.430 16.464672
61.435 15.948728
61.440 15.392015
61.445 15.312372
61.450 15.813156
61.455 15.838286
61.460 16.087194
61.465 16.298098
61.470 16.295588
61.475 16.619282
61.480 16.686289
61.485 16.569454
61.490 16.554316
61.495 16.953255
61.500 17.368475
61.505 17.741056
61.510 17.415512
61.515 17.278376
61.520 17.175707
61.525 17.558367
61.530 18.14329
61.535 18.046663
61.540 17.998667
61.545 18.256996
61.550 19.2111
61.555 19.383968
61.560 19.0837
61.565 18.33375
61.570 18.280521
61.575 18.117636
61.580 17.984922
61.585 17.28261
61.590 17.315077
61.595 17.209091
61.600 16.775017
61.605 16.766533
61.610 16.822865
61.615 17.098043
61.620 17.067009
61.625 16.758127
61.630 16.357752
61.635 16.893942
61.640 17.119425
61.645 16.957857
61.650 16.815451
61.655 16.70871
61.660 17.353773
61.665 17.496981
61.670 17.005949
61.675 16.610386
61.680 16.726715
61.685 16.372786
61.690 16.184864
61.695 15.945834
61.700 15.849186
61.705 16.158932
61.710 16.0865
61.715 16.557606
61.720 16.680122
61.725 16.286348
61.730 16.232075
61.735 16.280832
61.740 15.848704
61.745 15.661767
61.750 14.907818
61.755 14.799479
61.760 15.348993
61.765 15.802989
61.770 16.26984
61.775 16.304472
61.780 16.086349
61.785 16.241104
61.790 16.386984
61.795 16.308537
61.800 15.687893
61.805 15.398466
61.810 15.625659
61.815 16.214579
61.820 16.153393
61.825 16.07081
61.830 16.01203
61.835 16.416447
61.840 16.701441
61.845 16.409714
61.850 16.134596
61.855 16.471415
61.860 16.751558
61.865 16.739407
61.870 16.740643
61.875 16.863916
61.880 17.207907
61.885 17.660692
61.890 17.167902
61.895 16.756733
61.900 16.922798
61.905 16.931427
61.910 17.327345
61.915 17.342396
61.920 17.133879
61.925 17.413763
61.930 17.520397
61.935 17.175274
61.940 16.713547
61.945 16.652533
61.950 16.423569
61.955 16.618189
61.960 16.760433
61.965 16.590984
61.970 16.849276
61.975 16.78005
61.980 16.42478
61.985 16.245584
61.990 15.856527
61.995 15.598527
62.000 15.972121
62.005 16.068998
62.010 16.045296
62.015 16.075539
62.020 16.309671
62.025 16.629555
62.030 16.84712
62.035 17.612436
62.040 18.371748
62.045 18.142862
62.050 17.894447
62.055 17.254318
62.060 16.990486
62.065 17.386967
62.070 16.490736
62.075 16.119631
62.080 16.049973
62.085 15.923114
62.090 16.702641
62.095 16.806526
62.100 16.37146
62.105 16.70363
62.110 16.448137
62.115 16.71151
62.120 17.372517
62.125 17.320393
62.130 17.599566
62.135 17.886539
62.140 17.966732
62.145 17.950188
62.150 17.712431
62.155 17.64328
62.160 17.320313
62.165 17.448305
62.170 17.808983
62.175 17.784435
62.180 18.194857
62.185 18.638718
62.190 18.295761
62.195 17.923153
62.200 17.611719
62.205 16.805134
62.210 16.729137
62.215 16.370226
62.220 16.079466
62.225 16.738041
62.230 16.62957
62.235 16.360426
62.240 16.296921
62.245 16.164225
62.250 16.361061
62.255 16.235977
62.260 15.712787
62.265 15.924113
62.270 15.8406
62.275 15.65507
62.280 15.301825
62.285 14.827722
62.290 15.021837
62.295 15.190615
62.300 15.284232
62.305 15.173403
62.310 14.74796
62.315 14.758216
62.320 15.00723
62.325 14.500357
62.330 14.381487
62.335 14.565534
62.340 15.130754
62.345 15.849507
62.350 16.047382
62.355 16.388781
62.360 17.046846
62.365 16.925005
62.370 16.756388
62.375 16.938065
62.380 17.007023
62.385 16.992569
62.390 16.679661
62.395 16.158117
62.400 16.258804
62.405 16.062346
62.410 16.476595
62.415 16.828493
62.420 16.836802
62.425 16.817392
62.430 16.844831
62.435 16.89996
62.440 17.26823
62.445 17.093767
62.450 17.28591
62.455 17.536926
62.460 17.544073
62.465 17.987507
62.470 18.44776
62.475 18.765692
62.480 18.847094
62.485 18.608883
62.490 19.130623
62.495 19.380276
62.500 19.395397
62.505 18.859468
62.510 17.954662
62.515 17.765173
62.520 17.747705
62.525 17.17592
62.530 17.243702
62.535 17.233143
62.540 17.300886
62.545 17.731037
62.550 17.098064
62.555 16.911617
62.560 16.850689
62.565 17.079313
62.570 17.133949
62.575 17.340046
62.580 17.100546
62.585 17.093979
62.590 17.121601
62.595 17.247503
62.600 17.100744
62.605 17.160173
62.610 17.011845
62.615 17.203806
62.620 17.518167
62.625 17.438343
62.630 17.349678
62.635 16.999794
62.640 16.750862
62.645 16.18705
62.650 15.941131
62.655 15.655549
62.660 15.773562
62.665 15.746324
62.670 15.925254
62.675 15.982868
62.680 16.419991
62.685 17.015755
62.690 16.892979
62.695 16.408533
62.700 16.056429
62.705 15.979099
62.710 16.132965
62.715 15.974306
62.720 15.489882
62.725 15.51919
62.730 15.882153
62.735 16.012096
62.740 15.704706
62.745 15.593337
62.750 15.766055
62.755 15.867737
62.760 16.012209
62.765 16.233721
62.770 16.795837
62.775 16.504322
62.780 16.235411
62.785 16.197699
62.790 16.099064
62.795 16.261162
62.800 16.384304
62.805 16.567673
62.810 16.899233
62.815 16.740955
62.820 16.505869
62.825 16.710121
62.830 16.802282
62.835 17.213093
62.840 17.597355
62.845 18.417006
62.850 19.175726
62.855 19.808105
62.860 19.372948
62.865 18.745638
62.870 17.79924
62.875 17.061899
62.880 16.630861
62.885 15.872351
62.890 15.522141
62.895 15.69202
62.900 16.555378
62.905 17.188282
62.910 17.323582
62.915 17.030134
62.920 17.208832
62.925 17.975798
62.930 17.871336
62.935 17.930351
62.940 17.650833
62.945 17.086782
62.950 16.679726
62.955 16.656296
62.960 17.160271
62.965 17.479464
62.970 17.96533
62.975 18.170122
62.980 18.399235
62.985 19.15954
62.990 19.16474
62.995 18.641657
63.000 18.149
63.005 16.79476
63.010 16.722115
63.015 16.952927
63.020 17.339491
63.025 17.444862
63.030 17.396223
63.035 17.690825
63.040 17.894564
63.045 17.74284
63.050 17.932646
63.055 17.599476
63.060 17.016066
63.065 16.628653
63.070 16.66576
63.075 17.196697
63.080 17.44232
63.085 17.102093
63.090 17.10022
63.095 17.731709
63.100 18.021524
63.105 18.67071
63.110 18.838894
63.115 18.462324
63.120 18.384632
63.125 18.84062
63.130 18.94565
63.135 18.728312
63.140 17.864223
63.145 17.119072
63.150 17.052608
63.155 17.050365
63.160 16.504932
63.165 16.477819
63.170 16.383146
63.175 16.683819
63.180 17.03792
63.185 17.185881
63.190 17.113262
63.195 16.894812
63.200 16.403332
63.205 16.558647
63.210 16.468056
63.215 16.22003
63.220 15.867503
63.225 16.1675
63.230 16.385735
63.235 16.586473
63.240 16.826628
63.245 16.916765
63.250 17.065468
63.255 17.024891
63.260 17.023453
63.265 17.598982
63.270 17.568846
63.275 17.671886
63.280 17.920488
63.285 18.310249
63.290 18.986179
63.295 18.625223
63.300 17.983263
63.305 17.985367
63.310 17.404982
63.315 17.464361
63.320 17.008348
63.325 16.817205
63.330 16.873545
63.335 17.16477
63.340 17.497917
63.345 17.935724
63.350 17.514198
63.355 17.580095
63.360 17.133217
63.365 17.253695
63.370 17.168146
63.375 16.982439
63.380 16.930864
63.385 17.164333
63.390 17.223866
63.395 17.689728
63.400 17.623808
63.405 17.053173
63.410 16.713181
63.415 16.40464
63.420 16.313704
63.425 16.48493
63.430 16.559418
63.435 16.62079
63.440 17.385462
63.445 18.191185
63.450 18.547075
63.455 18.828146
63.460 18.541861
63.465 18.460127
63.470 18.178333
63.475 17.842964
63.480 17.304779
63.485 16.856989
63.490 16.439291
63.495 16.159822
63.500 16.239929
63.505 16.622828
63.510 16.949614
63.515 17.062218
63.520 17.360277
63.525 17.487427
63.530 17.770924
63.535 18.139362
63.540 18.187265
63.545 17.653435
63.550 17.493235
63.555 17.411669
63.560 17.084345
63.565 16.873659
63.570 16.603052
63.575 16.83515
63.580 16.803474
63.585 16.897905
63.590 17.212124
63.595 17.607372
63.600 18.055624
63.605 17.863422
63.610 17.953442
63.615 18.245001
63.620 18.232872
63.625 18.429779
63.630 18.681444
63.635 18.112961
63.640 18.079212
63.645 17.94784
63.650 18.103727
63.655 18.099009
63.660 17.694227
63.665 17.515131
63.670 17.852766
63.675 18.067598
63.680 18.264479
63.685 17.959021
63.690 17.623871
63.695 17.276846
63.700 16.599277
63.705 16.327496
63.710 15.655805
63.715 14.996598
63.720 15.247289
63.725 15.40062
63.730 15.565559
63.735 16.479296
63.740 17.263861
63.745 17.883776
63.750 17.709694
63.755 17.836708
63.760 17.939827
63.765 18.073294
63.770 17.986246
63.775 17.659357
63.780 17.824602
63.785 17.912462
63.790 18.026669
63.795 17.988188
63.800 17.727522
63.805 17.564547
63.810 17.709641
63.815 17.600168
63.820 18.250998
63.825 18.03723
63.830 17.730947
63.835 17.587379
63.840 17.028801
63.845 16.115557
63.850 16.007524
63.855 15.66855
63.860 15.869175
63.865 16.28195
63.870 16.510124
63.875 17.069279
63.880 17.297165
63.885 17.227489
63.890 17.199102
63.895 17.046679
63.900 17.203754
63.905 17.505632
63.910 17.889809
63.915 18.010271
63.920 17.993959
63.925 17.937723
63.930 18.04118
63.935 17.774521
63.940 17.649767
63.945 17.732521
63.950 17.555042
63.955 18.139509
63.960 19.268845
63.965 19.67942
63.970 19.592649
63.975 19.274847
63.980 18.731253
63.985 18.827816
63.990 17.808596
63.995 16.591757
64.000 16.928961
64.005 17.37628
64.010 17.549372
64.015 17.797237
64.020 18.604137
64.025 19.378592
64.030 19.579924
64.035 18.975361
64.040 18.838947
64.045 18.8263
64.050 19.133598
64.055 18.84771
64.060 18.636694
64.065 18.882122
64.070 19.295515
64.075 19.720835
64.080 19.386978
64.085 18.720106
64.090 18.536968
64.095 18.746326
64.100 18.642458
64.105 18.459597
64.110 18.189579
64.115 18.415552
64.120 18.82959
64.125 18.806993
64.130 18.453756
64.135 18.078117
64.140 17.841009
64.145 18.027412
64.150 17.813324
64.155 17.654047
64.160 17.996609
64.165 18.116539
64.170 18.219234
64.175 18.249565
64.180 17.7416
64.185 18.327314
64.190 18.333122
64.195 17.909975
64.200 18.079985
64.205 18.620327
64.210 19.498745
64.215 19.975666
64.220 19.782082
64.225 19.948542
64.230 19.84314
64.235 19.529987
64.240 18.994841
64.245 19.045544
64.250 19.113831
64.255 19.105272
64.260 19.160267
64.265 19.048601
64.270 19.123363
64.275 19.342571
64.280 18.681557
64.285 18.485813
64.290 18.499651
64.295 18.411892
64.300 18.676573
64.305 17.86714
64.310 17.580883
64.315 17.983732
64.320 18.398602
64.325 17.986116
64.330 17.927464
64.335 18.227438
64.340 18.976173
64.345 18.696369
64.350 18.309521
64.355 18.184145
64.360 18.229429
64.365 18.255083
64.370 18.280106
64.375 18.37141
64.380 18.601786
64.385 18.603861
64.390 18.650923
64.395 18.934435
64.400 19.244129
64.405 19.128469
64.410 19.061502
64.415 19.217314
64.420 18.698616
64.425 18.38991
64.430 18.345024
64.435 17.961472
64.440 18.563602
64.445 18.72751
64.450 18.789886
64.455 19.59726
64.460 20.052532
64.465 20.042019
64.470 19.989969
64.475 19.816553
64.480 20.149872
64.485 20.358643
64.490 20.289549
64.495 20.398586
64.500 20.730215
64.505 20.552126
64.510 20.495834
64.515 20.379641
64.520 20.150999
64.525 20.185789
64.530 19.593401
64.535 19.437784
64.540 19.421303
64.545 18.604708
64.550 18.335056
64.555 18.501133
64.560 18.462452
64.565 18.698378
64.570 18.707478
64.575 18.993317
64.580 18.930502
64.585 19.600679
64.590 19.746181
64.595 19.925871
64.600 20.290504
64.605 20.491379
64.610 19.879553
64.615 20.222622
64.620 19.571266
64.625 19.36799
64.630 19.171959
64.635 18.937443
64.640 19.171135
64.645 20.030886
64.650 20.569967
64.655 20.50222
64.660 20.416271
64.665 20.354677
64.670 20.362164
64.675 19.561697
64.680 19.072338
64.685 18.681427
64.690 18.562021
64.695 18.800945
64.700 18.823198
64.705 18.886961
64.710 19.710938
64.715 20.633286
64.720 20.948341
64.725 21.022488
64.730 21.181877
64.735 21.280516
64.740 21.103315
64.745 20.365702
64.750 19.834921
64.755 19.784805
64.760 19.8011
64.765 20.062323
64.770 20.037579
64.775 19.953144
64.780 20.675602
64.785 20.63529
64.790 20.813805
64.795 20.64765
64.800 20.282055
64.805 20.380854
64.810 20.686117
64.815 19.902086
64.820 19.959433
64.825 20.077351
64.830 20.164566
64.835 20.221191
64.840 20.196796
64.845 20.760698
64.850 20.986038
64.855 20.568928
64.860 20.092196
64.865 19.995155
64.870 20.082277
64.875 19.594912
64.880 19.037531
64.885 19.092382
64.890 19.076229
64.895 19.286665
64.900 19.343336
64.905 19.022198
64.910 19.348583
64.915 19.151152
64.920 19.028782
64.925 19.317837
64.930 20.134253
64.935 20.289368
64.940 20.634529
64.945 21.0499
64.950 20.86644
64.955 21.043297
64.960 21.437077
64.965 21.508484
64.970 22.009695
64.975 21.569565
64.980 21.341347
64.985 21.940769
64.990 22.187565
64.995 21.790497
65.000 21.240538
65.005 21.057697
65.010 21.708305
65.015 22.249348
65.020 22.997562
65.025 22.989777
65.030 23.214006
65.035 23.552761
65.040 23.132793
65.045 22.794992
65.050 22.375029
65.055 22.241373
65.060 22.234892
65.065 21.81645
65.070 21.287926
65.075 21.316217
65.080 21.163961
65.085 21.433567
65.090 21.220165
65.095 21.11202
65.100 21.293224
65.105 21.88455
65.110 22.85026
65.115 23.439013
65.120 23.374783
65.125 23.316912
65.130 23.347822
65.135 23.109688
65.140 22.346092
65.145 21.564159
65.150 21.206095
65.155 21.150183
65.160 21.185724
65.165 21.68713
65.170 22.060619
65.175 22.664562
65.180 23.363407
65.185 23.559614
65.190 23.954666
65.195 24.118246
65.200 23.720778
65.205 23.372017
65.210 22.673519
65.215 22.170294
65.220 21.497705
65.225 21.105003
65.230 20.689236
65.235 20.08132
65.240 20.125727
65.245 20.183229
65.250 20.319096
65.255 20.815857
65.260 20.877897
65.265 21.635017
65.270 22.154758
65.275 22.052917
65.280 22.255245
65.285 22.054203
65.290 22.704756
65.295 23.316921
65.300 23.1166
65.305 23.019518
65.310 23.369665
65.315 23.584827
65.320 24.401234
65.325 23.530497
65.330 22.698225
65.335 22.080267
65.340 22.449453
65.345 22.372194
65.350 22.27869
65.355 21.920601
65.360 21.909424
65.365 22.371504
65.370 22.640419
65.375 22.32151
65.380 22.575357
65.385 22.876751
65.390 22.985706
65.395 23.153597
65.400 22.778067
65.405 23.10854
65.410 23.729036
65.415 23.496565
65.420 23.557962
65.425 23.230387
65.430 23.494226
65.435 24.436798
65.440 24.726591
65.445 24.19908
65.450 24.68045
65.455 24.698975
65.460 25.077011
65.465 25.163691
65.470 24.889297
65.475 24.9701
65.480 25.118198
65.485 24.544266
65.490 23.954302
65.495 24.071507
65.500 23.740757
65.505 23.239388
65.510 24.079258
65.515 24.646465
65.520 25.892689
65.525 26.374975
65.530 26.996502
65.535 27.769533
65.540 28.68708
65.545 28.441833
65.550 28.739243
65.555 29.037828
65.560 29.52202
65.565 29.063753
65.570 28.540102
65.575 28.383545
65.580 28.290533
65.585 28.496668
65.590 27.905886
65.595 28.115108
65.600 28.856646
65.605 29.121803
65.610 29.165194
65.615 29.400791
65.620 29.268929
65.625 29.867626
65.630 30.111069
65.635 29.648367
65.640 29.827063
65.645 30.255545
65.650 30.649813
65.655 30.423504
65.660 30.625898
65.665 30.475851
65.670 30.829233
65.675 30.913311
65.680 30.645214
65.685 30.605883
65.690 30.701553
65.695 30.306999
65.700 30.537239
65.705 30.871962
65.710 31.635954
65.715 32.402966
65.720 32.661263
65.725 32.983585
65.730 32.891422
65.735 33.069008
65.740 33.074821
65.745 32.158409
65.750 31.717991
65.755 31.780193
65.760 32.211712
65.765 33.165802
65.770 33.738686
65.775 33.799393
65.780 34.980724
65.785 35.685402
65.790 35.779694
65.795 35.0728
65.800 34.194366
65.805 33.613899
65.810 33.715031
65.815 33.114006
65.820 32.464439
65.825 32.74107
65.830 34.24929
65.835 35.020187
65.840 35.355091
65.845 35.57851
65.850 35.934254
65.855 36.983486
65.860 37.046806
65.865 36.856411
65.870 36.980499
65.875 37.263466
65.880 37.317032
65.885 37.548092
65.890 37.483643
65.895 37.073647
65.900 36.741989
65.905 37.399319
65.910 37.439354
65.915 37.572094
65.920 37.805843
65.925 37.813251
65.930 37.956818
65.935 37.978779
65.940 37.34301
65.945 36.849823
65.950 36.88306
65.955 36.054604
65.960 35.986851
65.965 35.457977
65.970 34.376621
65.975 34.118572
65.980 34.502228
65.985 34.573227
65.990 34.796127
65.995 35.418224
66.000 36.264339
66.005 36.657883
66.010 36.594177
66.015 36.158688
66.020 35.960781
66.025 36.26329
66.030 35.764214
66.035 35.973705
66.040 36.325848
66.045 36.833462
66.050 37.094971
66.055 36.865044
66.060 36.87817
66.065 37.058666
66.070 37.328026
66.075 37.893368
66.080 38.135254
66.085 38.662502
66.090 38.526222
66.095 38.047756
66.100 37.834541
66.105 37.313072
66.110 37.195816
66.115 36.652557
66.120 36.473072
66.125 36.850731
66.130 36.410305
66.135 35.760723
66.140 35.760273
66.145 35.446541
66.150 35.804493
66.155 35.115238
66.160 34.600418
66.165 34.755489
66.170 34.779778
66.175 34.508732
66.180 34.144329
66.185 33.450859
66.190 33.500648
66.195 33.676174
66.200 33.599705
66.205 33.21117
66.210 33.397732
66.215 33.839775
66.220 34.011997
66.225 34.088776
66.230 33.609871
66.235 33.797401
66.240 33.844994
66.245 33.796253
66.250 33.148945
66.255 32.47551
66.260 32.370922
66.265 32.584122
66.270 32.535328
66.275 31.943865
66.280 30.996935
66.285 30.569431
66.290 31.067556
66.295 30.976107
66.300 31.333803
66.305 31.280018
66.310 31.659046
66.315 32.098091
66.320 32.24955
66.325 32.437595
66.330 31.965706
66.335 31.556524
66.340 31.446173
66.345 30.84848
66.350 30.395458
66.355 30.356033
66.360 30.108597
66.365 29.995029
66.370 29.912195
66.375 29.803196
66.380 30.374563
66.385 30.828611
66.390 30.207035
66.395 30.255009
66.400 30.564375
66.405 31.050613
66.410 31.178644
66.415 30.768539
66.420 30.740995
66.425 30.659744
66.430 30.413954
66.435 29.868038
66.440 28.539125
66.445 28.018034
66.450 27.217495
66.455 26.928682
66.460 26.575035
66.465 26.733934
66.470 27.303659
66.475 28.006269
66.480 28.32139
66.485 29.296906
66.490 29.883663
66.495 30.221304
66.500 30.228014
66.505 29.84709
66.510 29.449026
66.515 29.551071
66.520 28.602158
66.525 27.534424
66.530 27.312868
66.535 27.096451
66.540 27.084085
66.545 26.66012
66.550 26.023331
66.555 26.314306
66.560 26.720686
66.565 26.511726
66.570 26.223019
66.575 26.031143
66.580 26.148001
66.585 26.199518
66.590 26.248449
66.595 26.245859
66.600 26.182287
66.605 25.805532
66.610 26.385828
66.615 26.106354
66.620 25.790115
66.625 26.036018
66.630 25.85314
66.635 25.67342
66.640 25.903654
66.645 25.299248
66.650 24.8309
66.655 25.124031
66.660 24.132896
66.665 24.348057
66.670 24.728205
66.675 24.683081
66.680 24.946316
66.685 25.672514
66.690 26.072966
66.695 26.411932
66.700 25.779255
66.705 25.274857
66.710 24.966782
66.715 25.457968
66.720 25.137285
66.725 24.058701
66.730 24.03187
66.735 24.178984
66.740 24.487127
66.745 24.56436
66.750 23.753813
66.755 23.678461
66.760 24.288502
66.765 24.216345
66.770 24.243294
66.775 24.307581
66.780 24.297489
66.785 23.787306
66.790 23.554964
66.795 23.343925
66.800 23.44248
66.805 23.656057
66.810 23.452166
66.815 23.193611
66.820 23.747417
66.825 23.387577
66.830 22.948631
66.835 22.766838
66.840 22.371616
66.845 22.829477
66.850 22.660206
66.855 22.471088
66.860 23.202757
66.865 23.580746
66.870 23.468733
66.875 23.370611
66.880 23.125639
66.885 23.720289
66.890 23.580631
66.895 22.927874
66.900 22.336021
66.905 22.74176
66.910 23.137386
66.915 22.874718
66.920 22.662357
66.925 22.823992
66.930 23.272356
66.935 23.969891
66.940 24.044153
66.945 24.029341
66.950 23.649326
66.955 22.524609
66.960 21.978092
66.965 21.635466
66.970 20.736027
66.975 19.683277
66.980 19.442835
66.985 19.990561
66.990 20.9877
66.995 21.227537
67.000 21.322479
67.005 22.269936
67.010 22.592953
67.015 21.685627
67.020 21.694252
67.025 21.661327
67.030 21.953794
67.035 22.28421
67.040 21.673811
67.045 21.44739
67.050 22.335581
67.055 22.176168
67.060 21.587786
67.065 21.501072
67.070 21.059088
67.075 21.643808
67.080 22.074245
67.085 21.576956
67.090 22.00388
67.095 22.411583
67.100 22.802843
67.105 22.859407
67.110 23.047949
67.115 23.384689
67.120 24.092342
67.125 24.058401
67.130 24.14436
67.135 23.776913
67.140 24.191267
67.145 24.305548
67.150 24.378254
67.155 24.202839
67.160 23.995264
67.165 23.679653
67.170 23.134035
67.175 22.474665
67.180 21.684786
67.185 20.963606
67.190 20.150955
67.195 19.684809
67.200 19.877245
67.205 19.970934
67.210 20.384142
67.215 20.701874
67.220 21.146889
67.225 21.796539
67.230 22.080341
67.235 21.946527
67.240 22.35549
67.245 22.397896
67.250 22.120935
67.255 22.016024
67.260 21.153502
67.265 21.128815
67.270 21.548777
67.275 21.139395
67.280 21.061106
67.285 21.069736
67.290 21.176163
67.295 21.528294
67.300 21.356409
67.305 20.574423
67.310 20.902689
67.315 21.330849
67.320 20.99831
67.325 21.462307
67.330 21.711454
67.335 21.810484
67.340 21.850752
67.345 21.023813
67.350 20.763393
67.355 21.16362
67.360 20.815838
67.365 21.4214
67.370 21.59477
67.375 21.568043
67.380 22.021736
67.385 21.900372
67.390 21.717514
67.395 21.49896
67.400 20.963806
67.405 21.342556
67.410 21.416412
67.415 21.203321
67.420 20.929731
67.425 20.572853
67.430 20.876038
67.435 21.311655
67.440 21.192707
67.445 21.947142
67.450 22.470085
67.455 22.811512
67.460 22.482491
67.465 21.437315
67.470 20.918192
67.475 20.838081
67.480 20.592543
67.485 20.569298
67.490 20.759428
67.495 21.362047
67.500 21.889696
67.505 21.790178
67.510 21.639624
67.515 21.761993
67.520 21.877502
67.525 21.950096
67.530 21.72068
67.535 21.284307
67.540 21.088249
67.545 20.694324
67.550 20.151628
67.555 19.286106
67.560 19.818859
67.565 20.361061
67.570 20.671938
67.575 20.891867
67.580 21.182686
67.585 21.469826
67.590 21.917891
67.595 21.651806
67.600 22.016861
67.605 22.196087
67.610 22.092863
67.615 21.88072
67.620 22.169827
67.625 22.262268
67.630 21.862328
67.635 21.605198
67.640 21.933743
67.645 21.849581
67.650 21.714928
67.655 21.027021
67.660 20.350639
67.665 20.432272
67.670 20.107819
67.675 20.032875
67.680 20.321302
67.685 20.41091
67.690 20.836933
67.695 21.072714
67.700 21.291784
67.705 20.865417
67.710 20.414282
67.715 20.656275
67.720 20.976038
67.725 20.685266
67.730 21.02199
67.735 20.730749
67.740 21.067003
67.745 21.069035
67.750 20.766888
67.755 20.540451
67.760 21.128092
67.765 20.91176
67.770 20.451736
67.775 20.123896
67.780 20.08997
67.785 19.878223
67.790 20.145126
67.795 19.624941
67.800 19.896296
67.805 20.438772
67.810 20.395195
67.815 20.311665
67.820 20.882082
67.825 21.207916
67.830 21.27026
67.835 20.442671
67.840 19.98576
67.845 20.251278
67.850 20.28064
67.855 19.769266
67.860 18.872551
67.865 19.252569
67.870 19.284975
67.875 19.464287
67.880 18.707462
67.885 18.815001
67.890 18.914011
67.895 19.285521
67.900 19.66083
67.905 20.500639
67.910 20.435604
67.915 21.339592
67.920 20.804411
67.925 21.260294
67.930 21.32196
67.935 20.959015
67.940 20.522787
67.945 21.252665
67.950 21.412352
67.955 21.569704
67.960 20.54586
67.965 20.08816
67.970 20.138731
67.975 21.080276
67.980 20.733145
67.985 20.662268
67.990 20.8069
67.995 21.239031
68.000 21.15279
68.005 21.183311
68.010 20.559553
68.015 20.217628
68.020 20.175711
68.025 20.114622
68.030 19.951773
68.035 19.862579
68.040 19.280212
68.045 19.426094
68.050 19.432497
68.055 20.001333
68.060 20.774364
68.065 21.082874
68.070 21.585291
68.075 21.868582
68.080 21.889467
68.085 21.862915
68.090 21.554529
68.095 21.362871
68.100 21.265003
68.105 21.276245
68.110 21.570665
68.115 21.620796
68.120 21.910637
68.125 22.17308
68.130 22.15659
68.135 22.288219
68.140 22.168915
68.145 21.473192
68.150 21.116001
68.155 20.634132
68.160 20.170191
68.165 20.064749
68.170 19.55336
68.175 19.726791
68.180 20.25543
68.185 20.338865
68.190 20.698931
68.195 20.414879
68.200 19.932892
68.205 20.182302
68.210 20.561987
68.215 20.586414
68.220 20.644457
68.225 20.650431
68.230 21.096958
68.235 21.431305
68.240 21.398781
68.245 20.841078
68.250 20.585482
68.255 20.123316
68.260 20.154068
68.265 20.308407
68.270 20.526014
68.275 20.716152
68.280 20.785156
68.285 20.835758
68.290 21.122627
68.295 21.270914
68.300 20.747334
68.305 20.589161
68.310 20.744087
68.315 20.814661
68.320 20.943842
68.325 20.759161
68.330 20.190922
68.335 19.685286
68.340 19.728346
68.345 19.570223
68.350 19.395449
68.355 19.583393
68.360 19.127724
68.365 19.309172
68.370 19.853735
68.375 19.736748
68.380 20.058937
68.385 19.815422
68.390 19.823055
68.395 20.405638
68.400 20.660999
68.405 20.872173
68.410 21.324459
68.415 21.394516
68.420 21.87039
68.425 22.121664
68.430 22.442312
68.435 22.253157
68.440 21.518549
68.445 20.80162
68.450 20.444096
68.455 20.010521
68.460 20.103392
68.465 19.87454
68.470 20.340839
68.475 20.830078
68.480 20.812796
68.485 20.782557
68.490 21.453598
68.495 21.714052
68.500 21.99868
68.505 21.510395
68.510 20.945665
68.515 21.087088
68.520 20.73827
68.525 19.954643
68.530 19.81612
68.535 19.712753
68.540 19.786293
68.545 19.774597
68.550 20.040344
68.555 20.682549
68.560 20.947817
68.565 21.06204
68.570 21.069283
68.575 21.573244
68.580 21.481768
68.585 21.060873
68.590 20.812151
68.595 20.295584
68.600 19.612783
68.605 20.266783
68.610 20.92976
68.615 21.542234
68.620 22.256296
68.625 22.282993
68.630 22.894394
68.635 22.946423
68.640 22.416231
68.645 22.200542
68.650 21.932926
68.655 21.999701
68.660 21.348463
68.665 21.044027
68.670 20.598598
68.675 19.920361
68.680 19.795963
68.685 20.291174
68.690 19.929131
68.695 20.359741
68.700 20.566565
68.705 21.539539
68.710 22.398069
68.715 22.07255
68.720 22.056894
68.725 22.984541
68.730 23.36323
68.735 23.226786
68.740 22.842079
68.745 22.443031
68.750 22.523193
68.755 22.020853
68.760 21.695383
68.765 21.972385
68.770 21.844185
68.775 21.94433
68.780 22.533438
68.785 22.528374
68.790 22.805847
68.795 22.462791
68.800 22.105577
68.805 22.69939
68.810 21.825678
68.815 21.00351
68.820 21.487295
68.825 21.441324
68.830 21.908712
68.835 21.893414
68.840 22.107203
68.845 22.996717
68.850 22.874418
68.855 22.481615
68.860 22.518538
68.865 21.980246
68.870 22.835451
68.875 22.584845
68.880 22.72073
68.885 22.902962
68.890 22.59663
68.895 22.815908
68.900 23.39518
68.905 22.737196
68.910 22.897377
68.915 22.709909
68.920 23.287281
68.925 23.195459
68.930 22.95363
68.935 22.305185
68.940 22.736555
68.945 22.476902
68.950 22.400623
68.955 22.641401
68.960 22.643274
68.965 22.761332
68.970 22.87319
68.975 22.742147
68.980 22.936548
68.985 22.657
68.990 22.387804
68.995 22.40682
69.000 23.013374
69.005 23.317329
69.010 22.777737
69.015 23.096436
69.020 23.495928
69.025 23.992514
69.030 23.775181
69.035 23.430601
69.040 23.804964
69.045 24.337643
69.050 24.35149
69.055 24.880096
69.060 24.843517
69.065 24.650393
69.070 24.34614
69.075 24.131027
69.080 24.037846
69.085 23.888578
69.090 24.0779
69.095 24.320827
69.100 24.922859
69.105 25.099525
69.110 25.139872
69.115 25.709368
69.120 26.834694
69.125 26.900105
69.130 27.234385
69.135 27.82852
69.140 28.475491
69.145 27.84716
69.150 26.992289
69.155 25.947809
69.160 25.894079
69.165 26.038445
69.170 25.449091
69.175 25.627296
69.180 27.110485
69.185 28.146002
69.190 28.279415
69.195 28.07872
69.200 27.618343
69.205 27.641418
69.210 26.761395
69.215 26.259697
69.220 25.970259
69.225 26.019106
69.230 26.142458
69.235 26.505819
69.240 26.672796
69.245 27.081005
69.250 27.191631
69.255 27.20455
69.260 27.936787
69.265 28.323462
69.270 27.95775
69.275 28.241322
69.280 28.673761
69.285 28.652
69.290 29.052074
69.295 28.19132
69.300 28.095871
69.305 29.012383
69.310 29.318924
69.315 29.231768
69.320 29.535524
69.325 29.415091
69.330 29.502222
69.335 29.29224
69.340 28.622385
69.345 28.162834
69.350 28.077509
69.355 27.693726
69.360 27.390965
69.365 27.633837
69.370 27.80687
69.375 27.893885
69.380 27.646055
69.385 28.039141
69.390 28.627645
69.395 28.536461
69.400 28.51536
69.405 28.597164
69.410 28.534636
69.415 28.828075
69.420 28.554745
69.425 28.103443
69.430 28.461554
69.435 28.84725
69.440 29.148411
69.445 29.858301
69.450 30.094194
69.455 29.938477
69.460 29.839239
69.465 29.738153
69.470 29.398491
69.475 29.430506
69.480 29.222242
69.485 29.398428
69.490 29.538473
69.495 29.837009
69.500 29.212027
69.505 29.528976
69.510 29.251133
69.515 29.354055
69.520 28.846546
69.525 28.796341
69.530 28.669819
69.535 29.253143
69.540 29.110252
69.545 29.027355
69.550 28.582006
69.555 27.842518
69.560 27.707016
69.565 27.864073
69.570 28.258821
69.575 28.079716
69.580 27.948124
69.585 28.182777
69.590 29.177946
69.595 28.60033
69.600 27.334501
69.605 26.727257
69.610 27.261044
69.615 27.602303
69.620 28.458797
69.625 28.016277
69.630 28.853079
69.635 29.919003
69.640 30.262339
69.645 29.542011
69.650 29.026539
69.655 28.348888
69.660 28.588377
69.665 28.026909
69.670 27.731216
69.675 28.047209
69.680 28.392443
69.685 28.630041
69.690 28.045807
69.695 27.865925
69.700 28.221584
69.705 28.007935
69.710 26.539537
69.715 26.602289
69.720 26.715336
69.725 26.994808
69.730 26.770313
69.735 26.572912
69.740 27.114473
69.745 27.361391
69.750 27.16394
69.755 27.129511
69.760 28.186167
69.765 28.719591
69.770 28.766655
69.775 28.005833
69.780 27.749405
69.785 27.816395
69.790 27.115314
69.795 26.166187
69.800 25.687586
69.805 25.443607
69.810 25.387098
69.815 25.829065
69.820 25.661608
69.825 25.392267
69.830 25.802814
69.835 26.50881
69.840 27.094727
69.845 26.813757
69.850 26.208048
69.855 26.004827
69.860 25.558401
69.865 24.817945
69.870 23.892029
69.875 23.47368
69.880 24.164513
69.885 24.818529
69.890 25.309595
69.895 25.133301
69.900 24.711418
69.905 24.628986
69.910 24.362711
69.915 23.518669
69.920 23.360435
69.925 23.459124
69.930 23.467651
69.935 23.023111
69.940 22.757603
69.945 22.615656
69.950 22.8097
69.955 22.296808
69.960 22.310036
69.965 23.102001
69.970 23.404791
69.975 23.520861
69.980 22.931633
69.985 22.603342
69.990 21.977398
69.995 21.20899
70.000 20.388582
70.005 20.087412
70.010 20.162506
70.015 20.610807
70.020 20.939999
70.025 21.251747
70.030 21.206755
70.035 21.24437
70.040 21.113634
70.045 20.480928
70.050 20.134081
70.055 19.548584
70.060 19.690233
70.065 20.063744
70.070 20.294943
70.075 20.869278
70.080 21.177658
70.085 21.209232
70.090 21.670887
70.095 21.822088
70.100 21.701658
70.105 21.445269
70.110 20.256393
70.115 20.665342
70.120 20.907408
70.125 20.725567
70.130 20.87619
70.135 20.781244
70.140 21.035858
70.145 22.107166
70.150 21.533873
70.155 21.110641
70.160 21.236017
70.165 21.15933
70.170 20.789288
70.175 20.302999
70.180 19.857653
70.185 19.898859
70.190 20.02207
70.195 20.048971
70.200 19.7237
70.205 20.209335
70.210 20.539745
70.215 20.566978
70.220 20.654705
70.225 21.003756
70.230 20.778534
70.235 21.060049
70.240 20.899328
70.245 20.626051
70.250 20.577387
70.255 20.29933
70.260 19.821255
70.265 20.397486
70.270 20.290514
70.275 20.958838
70.280 21.591331
70.285 21.38644
70.290 21.430662
70.295 21.271484
70.300 20.625242
70.305 20.995136
70.310 21.05378
70.315 20.879587
70.320 21.865644
70.325 21.79586
70.330 21.696768
70.335 21.521351
70.340 20.669516
70.345 20.247267
70.350 19.781557
70.355 19.21911
70.360 19.610489
70.365 19.486097
70.370 19.292383
70.375 18.699881
70.380 18.524244
70.385 18.326241
70.390 17.738649
70.395 17.541563
70.400 17.472849
70.405 17.765867
70.410 17.785397
70.415 17.697866
70.420 17.922728
70.425 17.81328
70.430 17.889086
70.435 17.865168
70.440 18.16411
70.445 17.689119
70.450 17.200769
70.455 16.724142
70.460 16.853575
70.465 17.537649
70.470 17.814447
70.475 17.949631
70.480 18.698751
70.485 19.590015
70.490 19.841963
70.495 19.608032
70.500 19.406101
70.505 19.714193
70.510 19.799829
70.515 20.194862
70.520 20.526739
70.525 20.685045
70.530 20.813778
70.535 20.6933
70.540 20.687855
70.545 20.765814
70.550 20.402718
70.555 20.58359
70.560 20.711939
70.565 21.025099
70.570 20.588938
70.575 20.245913
70.580 20.41284
70.585 20.194546
70.590 20.779331
70.595 20.727579
70.600 19.966366
70.605 19.867889
70.610 20.399235
70.615 20.399057
70.620 20.315563
70.625 19.774355
70.630 19.892431
70.635 20.198402
70.640 20.540445
70.645 20.180603
70.650 20.334753
70.655 20.803366
70.660 21.237139
70.665 21.350225
70.670 21.329405
70.675 20.948208
70.680 21.125673
70.685 20.275404
70.690 19.679932
70.695 19.255888
70.700 19.398581
70.705 19.47377
70.710 19.593607
70.715 19.58712
70.720 20.001165
70.725 19.923025
70.730 20.16132
70.735 20.103006
70.740 19.644634
70.745 18.775368
70.750 18.920235
70.755 18.782911
70.760 18.441467
70.765 17.923937
70.770 17.973019
70.775 18.476799
70.780 18.761559
70.785 18.644979
70.790 18.548162
70.795 18.754742
70.800 18.977531
70.805 18.638081
70.810 18.394777
70.815 18.548424
70.820 19.457157
70.825 19.506645
70.830 19.347876
70.835 19.228504
70.840 18.871729
70.845 18.768368
70.850 18.537165
70.855 17.415913
70.860 17.278336
70.865 16.924089
70.870 17.077682
70.875 17.533836
70.880 17.594374
70.885 17.899174
70.890 18.071594
70.895 18.525654
70.900 19.213871
70.905 19.418388
70.910 19.874229
70.915 19.218019
70.920 18.517948
70.925 18.627623
70.930 18.309267
70.935 18.522234
70.940 18.289989
70.945 18.225071
70.950 19.16769
70.955 19.797028
70.960 19.720537
70.965 19.67569
70.970 19.095594
70.975 19.31613
70.980 19.234575
70.985 18.705105
70.990 18.373821
70.995 18.381199
71.000 18.838451
71.005 18.921059
71.010 18.624582
71.015 19.012348
71.020 19.299494
71.025 19.871984
71.030 19.550945
71.035 18.883711
71.040 18.763811
71.045 18.070538
71.050 17.668255
71.055 17.603647
71.060 17.567467
71.065 17.52112
71.070 17.803284
71.075 17.940269
71.080 18.51741
71.085 18.830482
71.090 18.688368
71.095 18.838924
71.100 19.181929
71.105 18.868336
71.110 19.084763
71.115 18.899206
71.120 18.859673
71.125 18.927731
71.130 18.89819
71.135 18.768034
71.140 19.306417
71.145 19.371382
71.150 19.4174
71.155 19.55501
71.160 20.355328
71.165 20.331535
71.170 19.983461
71.175 19.511841
71.180 19.855938
71.185 20.297697
71.190 19.928185
71.195 18.98712
71.200 19.381546
71.205 19.404778
71.210 19.549423
71.215 18.922951
71.220 18.313391
71.225 18.348858
71.230 18.61005
71.235 18.649282
71.240 19.048941
71.245 19.167089
71.250 19.504768
71.255 19.485947
71.260 19.630836
71.265 19.428377
71.270 19.11426
71.275 18.907415
71.280 18.545092
71.285 18.282648
71.290 18.12746
71.295 18.02424
71.300 17.629595
71.305 17.752707
71.310 17.604849
71.315 18.01215
71.320 17.885204
71.325 17.648775
71.330 17.702105
71.335 18.123386
71.340 18.271738
71.345 18.500887
71.350 18.59519
71.355 18.875408
71.360 19.545347
71.365 20.14859
71.370 20.079863
71.375 20.45433
71.380 20.344795
71.385 20.864128
71.390 21.369036
71.395 20.884789
71.400 20.263113
71.405 20.501108
71.410 20.195122
71.415 20.384254
71.420 19.90048
71.425 19.201324
71.430 19.019184
71.435 18.807238
71.440 18.382317
71.445 18.024134
71.450 17.019558
71.455 17.148666
71.460 17.933069
71.465 18.363659
71.470 18.771069
71.475 18.685902
71.480 19.79929
71.485 20.062275
71.490 19.581856
71.495 18.85939
71.500 18.627104
71.505 18.559113
71.510 18.298933
71.515 17.800245
71.520 18.18782
71.525 18.377769
71.530 19.113478
71.535 19.767527
71.540 20.033777
71.545 20.170029
71.550 20.323906
71.555 20.389431
71.560 20.220594
71.565 19.548115
71.570 18.088547
71.575 17.646732
71.580 17.077475
71.585 16.333609
71.590 16.311527
71.595 17.038998
71.600 17.903402
71.605 19.189045
71.610 19.775703
71.615 20.354029
71.620 20.84831
71.625 20.673151
71.630 20.557953
71.635 20.160364
71.640 19.883984
71.645 20.002439
71.650 19.633833
71.655 19.201591
71.660 18.37886
71.665 17.702227
71.670 17.68894
71.675 18.106997
71.680 18.358011
71.685 18.629999
71.690 18.674931
71.695 19.444044
71.700 19.649387
71.705 19.956675
71.710 19.471304
71.715 19.869379
71.720 20.482143
71.725 20.293226
71.730 19.540506
71.735 19.135906
71.740 18.614136
71.745 18.539145
71.750 17.711128
71.755 17.550762
71.760 18.289951
71.765 18.708616
71.770 19.199345
71.775 19.261087
71.780 19.105202
71.785 19.433737
71.790 19.082411
71.795 18.853285
71.800 18.687634
71.805 18.525055
71.810 18.526415
71.815 18.266151
71.820 18.280088
71.825 18.341137
71.830 18.747942
71.835 19.334795
71.840 19.577761
71.845 19.808138
71.850 20.329149
71.855 20.175686
71.860 19.945959
71.865 19.121805
71.870 18.285166
71.875 17.720589
71.880 17.651459
71.885 17.254593
71.890 17.01391
71.895 17.031015
71.900 17.385
71.905 17.737375
71.910 17.883244
71.915 18.089689
71.920 17.955153
71.925 18.067083
71.930 18.222416
71.935 18.341898
71.940 18.285879
71.945 17.835157
71.950 17.31415
71.955 17.437374
71.960 17.497005
71.965 17.142513
71.970 16.904055
71.975 15.940703
71.980 16.264851
71.985 16.843447
71.990 16.652531
71.995 16.899796
72.000 17.327206
72.005 17.349783
72.010 18.133747
72.015 18.263649
72.020 18.033916
72.025 18.148891
72.030 17.984848
72.035 17.985863
72.040 18.234573
72.045 17.798807
72.050 18.572311
72.055 18.77281
72.060 18.559513
72.065 18.438272
72.070 18.850592
72.075 18.830343
72.080 18.427795
72.085 18.161589
72.090 18.592112
72.095 18.953377
72.100 18.739851
72.105 18.8337
72.110 19.195578
72.115 19.484383
72.120 19.029814
72.125 18.899027
72.130 18.85293
72.135 18.625711
72.140 18.673368
72.145 18.229307
72.150 18.177717
72.155 18.06428
72.160 17.693394
72.165 17.234812
72.170 17.268557
72.175 16.981359
72.180 16.373837
72.185 15.756363
72.190 16.401741
72.195 16.928278
72.200 17.449549
72.205 17.317167
72.210 17.438562
72.215 17.975626
72.220 17.870121
72.225 17.174547
72.230 16.791693
72.235 17.209341
72.240 17.888496
72.245 17.962008
72.250 17.632824
72.255 18.021622
72.260 18.151638
72.265 18.055449
72.270 17.655849
72.275 17.436502
72.280 17.776772
72.285 18.272318
72.290 18.326656
72.295 18.062828
72.300 17.748297
72.305 17.426384
72.310 17.363592
72.315 17.35387
72.320 17.545462
72.325 17.630548
72.330 18.126602
72.335 18.26017
72.340 18.343681
72.345 18.636181
72.350 18.903906
72.355 18.598267
72.360 18.210711
72.365 18.075531
72.370 18.409428
72.375 18.392262
72.380 18.369383
72.385 18.474176
72.390 18.778017
72.395 19.249601
72.400 19.860336
72.405 19.342789
72.410 19.56329
72.415 19.348721
72.420 19.120115
72.425 18.902832
72.430 18.259937
72.435 17.269316
72.440 17.596489
72.445 17.108763
72.450 17.29468
72.455 17.740871
72.460 17.718458
72.465 18.423321
72.470 18.624569
72.475 18.223774
72.480 18.618612
72.485 18.596289
72.490 17.990314
72.495 17.351639
72.500 17.03548
72.505 17.335554
72.510 17.396519
72.515 17.204556
72.520 16.957491
72.525 17.428228
72.530 18.008535
72.535 18.059378
72.540 18.196383
72.545 18.03027
72.550 17.72897
72.555 17.705269
72.560 17.747726
72.565 17.333752
72.570 16.931866
72.575 17.1071
72.580 17.788279
72.585 17.984333
72.590 18.640091
72.595 18.591139
72.600 19.177944
72.605 19.101414
72.610 18.817091
72.615 17.925711
72.620 17.604013
72.625 17.077084
72.630 17.033707
72.635 16.712975
72.640 16.615633
72.645 16.395134
72.650 16.682276
72.655 16.852192
72.660 16.602226
72.665 16.382967
72.670 16.854418
72.675 17.085457
72.680 17.260633
72.685 17.259331
72.690 17.675476
72.695 18.721043
72.700 18.894522
72.705 18.618231
72.710 18.73749
72.715 19.175863
72.720 19.519234
72.725 19.003397
72.730 18.542906
72.735 17.941273
72.740 17.983854
72.745 17.92679
72.750 17.532957
72.755 17.612564
72.760 17.73329
72.765 18.26325
72.770 18.408386
72.775 18.018013
72.780 18.471222
72.785 18.66003
72.790 18.412504
72.795 18.352739
72.800 18.155403
72.805 18.346371
72.810 18.086058
72.815 17.608456
72.820 16.516909
72.825 16.533848
72.830 16.856735
72.835 16.846607
72.840 17.058994
72.845 17.048063
72.850 17.368959
72.855 17.944874
72.860 18.196211
72.865 18.363111
72.870 18.764004
72.875 18.655193
72.880 18.515924
72.885 18.2908
72.890 17.646257
72.895 16.786858
72.900 16.523642
72.905 16.541912
72.910 16.920778
72.915 16.769133
72.920 16.787472
72.925 16.846413
72.930 17.933544
72.935 17.960756
72.940 17.58638
72.945 17.123711
72.950 16.762058
72.955 16.868338
72.960 17.186626
72.965 16.648649
72.970 16.202541
72.975 16.382925
72.980 16.93438
72.985 17.443615
72.990 17.389503
72.995 16.981718
73.000 16.949663
