!@!!GADDS PLOTSO FILE: Chi integration type
!@!!Title/SampleName: map-db
!@!!Comment: ?
!@!!User: Bruker Instrument Administrator
!@!!Site: University of Illinois Chicago
!@!!Frame: map-db_01_000.gfrm
!@!!Wavelengths    1.54184   1.54056   1.54439
!@!!Frame angles: 2Theta: 63.000 Omega: 50.000 Phi: 0.000 Chi: 90.000
!@!!Integration range: 2Theta: 53.000 to 73.000  Gamma: -105.000 to -75.000
!@!!Integration method: bin normalized
!@!N
!@!SS
!@!M
!@!L 0.0 0.0 0.0 0.0
!@!XDegrees
!@!YCounts
53.000 9.472101
53.005 9.567671
53.010 9.56923
53.015 9.736458
53.020 9.354973
53.025 8.880858
53.030 8.615376
53.035 8.383756
53.040 8.173731
53.045 8.149968
53.050 8.153745
53.055 8.004293
53.060 7.617286
53.065 7.426575
53.070 7.559786
53.075 7.903426
53.080 7.798818
53.085 7.683553
53.090 8.574913
53.095 9.332484
53.100 9.663434
53.105 9.973281
53.110 9.878397
53.115 10.050346
53.120 10.558663
53.125 10.147321
53.130 9.68209
53.135 9.971241
53.140 9.836455
53.145 9.629227
53.150 9.634629
53.155 9.134548
53.160 9.360134
53.165 9.390764
53.170 8.93831
53.175 8.998452
53.180 8.84411
53.185 8.724504
53.190 9.08611
53.195 9.574075
53.200 9.929338
53.205 9.961468
53.210 9.969388
53.215 9.986427
53.220 9.587176
53.225 9.324136
53.230 8.882076
53.235 8.834398
53.240 8.779933
53.245 8.931284
53.250 9.180935
53.255 9.521258
53.260 9.125586
53.265 8.964507
53.270 8.879574
53.275 8.713736
53.280 8.464401
53.285 8.663503
53.290 8.725801
53.295 8.839911
53.300 8.568225
53.305 8.197172
53.310 8.136035
53.315 7.943337
53.320 7.471537
53.325 7.600879
53.330 8.110561
53.335 8.546314
53.340 9.172447
53.345 9.997803
53.350 10.542521
53.355 10.575639
53.360 10.591653
53.365 10.428115
53.370 10.654545
53.375 10.205168
53.380 9.617267
53.385 9.490305
53.390 9.626498
53.395 9.621692
53.400 9.329844
53.405 8.886512
53.410 8.820719
53.415 8.829746
53.420 8.615681
53.425 8.67162
53.430 8.865792
53.435 9.135812
53.440 9.515196
53.445 9.766574
53.450 9.438073
53.455 8.882113
53.460 8.516056
53.465 8.648014
53.470 8.490435
53.475 8.317008
53.480 8.414184
53.485 9.379217
53.490 9.95804
53.495 9.773409
53.500 9.834655
53.505 9.856983
53.510 9.878942
53.515 9.942702
53.520 9.847795
53.525 9.881592
53.530 9.876565
53.535 9.881187
53.540 10.038202
53.545 10.124205
53.550 9.678914
53.555 9.142361
53.560 9.580206
53.565 9.568313
53.570 9.21858
53.575 9.245147
53.580 9.198284
53.585 9.324378
53.590 9.597099
53.595 9.514401
53.600 9.630338
53.605 9.961972
53.610 10.13798
53.615 10.266744
53.620 10.168133
53.625 9.913988
53.630 9.543762
53.635 9.550005
53.640 9.407663
53.645 9.045029
53.650 9.516072
53.655 9.980818
53.660 10.413168
53.665 10.625175
53.670 10.524937
53.675 10.449054
53.680 10.444188
53.685 10.012745
53.690 9.6502
53.695 9.540544
53.700 9.424962
53.705 9.266194
53.710 9.125545
53.715 8.882318
53.720 9.051501
53.725 8.670918
53.730 8.387321
53.735 8.343783
53.740 8.889351
53.745 8.77286
53.750 8.675453
53.755 8.692476
53.760 9.418548
53.765 9.868388
53.770 10.283283
53.775 10.312556
53.780 10.385738
53.785 10.497158
53.790 10.814802
53.795 10.641027
53.800 10.264671
53.805 9.979666
53.810 9.750751
53.815 9.577175
53.820 9.355765
53.825 9.047976
53.830 9.411146
53.835 9.246072
53.840 9.118155
53.845 9.9532
53.850 10.745056
53.855 10.763272
53.860 10.590304
53.865 10.166257
53.870 10.692739
53.875 11.328674
53.880 10.570503
53.885 10.20077
53.890 10.183066
53.895 10.312932
53.900 10.360641
53.905 10.49631
53.910 10.413815
53.915 10.770909
53.920 10.823137
53.925 10.618595
53.930 10.830103
53.935 10.798697
53.940 10.21841
53.945 10.01654
53.950 10.082773
53.955 10.093601
53.960 10.099248
53.965 10.231906
53.970 10.659162
53.975 10.99488
53.980 11.150745
53.985 11.013961
53.990 11.148832
53.995 11.009322
54.000 10.72713
54.005 10.133173
54.010 9.699883
54.015 9.323004
54.020 9.403183
54.025 9.428046
54.030 9.791178
54.035 9.962564
54.040 10.195149
54.045 10.229424
54.050 10.323956
54.055 10.19387
54.060 10.30895
54.065 10.039389
54.070 9.941669
54.075 9.819664
54.080 10.384992
54.085 10.903784
54.090 11.04185
54.095 11.199979
54.100 11.181884
54.105 11.50464
54.110 11.289247
54.115 10.872259
54.120 10.662162
54.125 10.373228
54.130 10.107509
54.135 9.961149
54.140 9.800651
54.145 10.231427
54.150 10.448831
54.155 10.238806
54.160 10.105106
54.165 10.148978
54.170 10.334447
54.175 10.460087
54.180 10.317671
54.185 10.280021
54.190 11.138203
54.195 11.498509
54.200 11.497918
54.205 11.147495
54.210 10.778438
54.215 10.826974
54.220 10.436219
54.225 9.649002
54.230 9.576829
54.235 10.229598
54.240 10.739826
54.245 10.941242
54.250 11.43033
54.255 11.664019
54.260 11.982569
54.265 11.772981
54.270 11.490537
54.275 11.642811
54.280 11.627341
54.285 11.142222
54.290 10.92233
54.295 11.279897
54.300 11.285907
54.305 11.405782
54.310 11.243072
54.315 10.854788
54.320 11.411218
54.325 11.849285
54.330 12.006618
54.335 12.326499
54.340 12.397556
54.345 12.102402
54.350 11.941657
54.355 11.50357
54.360 11.315331
54.365 10.995917
54.370 10.662
54.375 10.418734
54.380 10.704241
54.385 11.084646
54.390 10.813358
54.395 10.892941
54.400 10.678969
54.405 10.451482
54.410 10.944292
54.415 11.214095
54.420 11.30307
54.425 11.297349
54.430 11.19608
54.435 11.861515
54.440 11.795788
54.445 11.647079
54.450 11.266664
54.455 11.354955
54.460 11.49791
54.465 11.292381
54.470 11.134771
54.475 11.166351
54.480 11.392479
54.485 11.734279
54.490 11.691784
54.495 11.404741
54.500 11.185426
54.505 11.141181
54.510 11.032207
54.515 10.437543
54.520 9.842569
54.525 9.735075
54.530 10.229607
54.535 10.329397
54.540 10.370766
54.545 10.121922
54.550 10.488137
54.555 10.981081
54.560 11.201679
54.565 11.098974
54.570 11.267934
54.575 11.606014
54.580 12.03008
54.585 11.461981
54.590 11.106201
54.595 10.923244
54.600 10.578773
54.605 10.446195
54.610 10.453131
54.615 10.876292
54.620 11.643535
54.625 11.92894
54.630 12.242533
54.635 12.771785
54.640 12.848651
54.645 12.671647
54.650 12.29404
54.655 12.216986
54.660 11.658195
54.665 11.855048
54.670 11.716685
54.675 11.737991
54.680 11.805992
54.685 11.837435
54.690 12.205809
54.695 12.524688
54.700 12.610542
54.705 12.032528
54.710 11.905923
54.715 11.56528
54.720 11.089892
54.725 10.926046
54.730 10.528049
54.735 10.448822
54.740 10.589398
54.745 10.928002
54.750 11.063586
54.755 10.798313
54.760 10.821246
54.765 11.199229
54.770 11.400818
54.775 11.43514
54.780 11.439825
54.785 11.941836
54.790 12.85696
54.795 12.528869
54.800 12.148481
54.805 12.451078
54.810 13.092478
54.815 13.616966
54.820 13.429075
54.825 13.274655
54.830 13.412227
54.835 13.519475
54.840 13.127697
54.845 12.575485
54.850 12.033051
54.855 11.777386
54.860 11.351897
54.865 11.431674
54.870 11.459354
54.875 11.563119
54.880 11.410594
54.885 11.381696
54.890 11.4839
54.895 11.53226
54.900 11.256693
54.905 10.971904
54.910 10.850914
54.915 11.247022
54.920 11.636651
54.925 12.303414
54.930 12.899263
54.935 13.169544
54.940 13.595903
54.945 13.956038
54.950 13.964455
54.955 13.411922
54.960 13.050492
54.965 12.948495
54.970 12.837972
54.975 12.443053
54.980 11.762941
54.985 11.595754
54.990 11.304591
54.995 10.538385
55.000 10.264741
55.005 9.845654
55.010 9.491475
55.015 9.994666
55.020 10.764334
55.025 11.397968
55.030 11.700721
55.035 12.058376
55.040 12.52468
55.045 13.250689
55.050 13.185971
55.055 12.839914
55.060 12.697519
55.065 12.792705
55.070 12.51529
55.075 12.833945
55.080 13.0892
55.085 12.759617
55.090 12.679616
55.095 12.623054
55.100 12.35889
55.105 11.986558
55.110 11.574594
55.115 10.859748
55.120 10.845229
55.125 10.785581
55.130 11.223166
55.135 11.74253
55.140 11.941876
55.145 11.779109
55.150 11.946045
55.155 12.094435
55.160 11.970006
55.165 11.524499
55.170 11.413582
55.175 11.488081
55.180 11.450827
55.185 11.581789
55.190 11.831917
55.195 11.764936
55.200 11.863474
55.205 12.066643
55.210 12.324876
55.215 12.435971
55.220 12.235496
55.225 12.163847
55.230 12.287056
55.235 12.159214
55.240 11.679523
55.245 11.622103
55.250 11.539881
55.255 12.265376
55.260 12.648562
55.265 13.128926
55.270 13.191785
55.275 13.112531
55.280 13.432735
55.285 13.144555
55.290 12.109931
55.295 11.322153
55.300 10.886731
55.305 11.194287
55.310 11.162222
55.315 10.461244
55.320 10.379067
55.325 11.017833
55.330 11.725002
55.335 11.833081
55.340 11.633197
55.345 11.785911
55.350 11.931992
55.355 11.664493
55.360 11.418484
55.365 11.438714
55.370 11.471664
55.375 11.204458
55.380 11.574897
55.385 11.949646
55.390 12.268251
55.395 11.942879
55.400 11.846917
55.405 11.991318
55.410 12.477656
55.415 12.429955
55.420 12.419591
55.425 12.49187
55.430 12.596856
55.435 12.436853
55.440 12.238014
55.445 12.323389
55.450 12.431002
55.455 12.658361
55.460 12.578732
55.465 12.797824
55.470 12.850041
55.475 13.109441
55.480 12.725133
55.485 12.939708
55.490 13.054787
55.495 13.362961
55.500 13.508129
55.505 13.81116
55.510 13.292146
55.515 12.814898
55.520 12.303639
55.525 12.195947
55.530 11.678861
55.535 11.428483
55.540 11.588841
55.545 12.106773
55.550 12.845066
55.555 13.073204
55.560 13.229485
55.565 13.557585
55.570 13.082784
55.575 13.21225
55.580 13.089672
55.585 12.935002
55.590 13.082257
55.595 13.149864
55.600 13.143796
55.605 12.891149
55.610 12.436575
55.615 12.102776
55.620 11.629666
55.625 11.4137
55.630 11.58721
55.635 11.486764
55.640 11.900887
55.645 12.782453
55.650 13.275155
55.655 13.354198
55.660 12.918875
55.665 13.033847
55.670 12.715503
55.675 11.939536
55.680 11.215573
55.685 11.470318
55.690 11.425618
55.695 11.724969
55.700 11.427536
55.705 11.836899
55.710 12.375333
55.715 12.589089
55.720 12.825838
55.725 13.062842
55.730 12.571563
55.735 12.563308
55.740 12.556396
55.745 13.010092
55.750 12.717355
55.755 12.564545
55.760 12.504446
55.765 12.490384
55.770 12.601997
55.775 12.236147
55.780 11.735755
55.785 11.583513
55.790 11.17874
55.795 11.470553
55.800 11.756856
55.805 11.837098
55.810 11.877059
55.815 12.472945
55.820 13.099139
55.825 13.255617
55.830 13.115088
55.835 13.567628
55.840 14.079358
55.845 14.246909
55.850 13.90163
55.855 13.753103
55.860 13.190943
55.865 12.970071
55.870 12.214495
55.875 12.210098
55.880 11.975975
55.885 11.352542
55.890 11.108683
55.895 11.769867
55.900 12.090788
55.905 12.355775
55.910 12.432059
55.915 12.729562
55.920 13.359169
55.925 13.768327
55.930 13.453571
55.935 13.583008
55.940 13.819276
55.945 14.309337
55.950 14.07727
55.955 13.893727
55.960 13.76935
55.965 13.581545
55.970 13.283487
55.975 12.504309
55.980 11.681874
55.985 11.995051
55.990 11.822268
55.995 12.056987
56.000 11.971214
56.005 11.803325
56.010 12.346752
56.015 12.630515
56.020 12.426454
56.025 12.371635
56.030 12.348721
56.035 12.640321
56.040 12.81986
56.045 12.932213
56.050 13.277587
56.055 13.402337
56.060 13.472812
56.065 13.924
56.070 13.696627
56.075 13.359674
56.080 12.777156
56.085 12.641896
56.090 13.04208
56.095 12.897109
56.100 12.735447
56.105 12.80198
56.110 12.886379
56.115 12.982577
56.120 12.373741
56.125 12.228292
56.130 11.983602
56.135 12.086447
56.140 12.294941
56.145 12.175272
56.150 12.123996
56.155 12.179576
56.160 12.005272
56.165 12.233208
56.170 12.258322
56.175 12.380553
56.180 12.269157
56.185 12.723353
56.190 13.105833
56.195 13.383788
56.200 13.145122
56.205 12.933047
56.210 13.38924
56.215 13.647625
56.220 13.993933
56.225 14.20059
56.230 14.466688
56.235 14.5166
56.240 14.580898
56.245 14.651807
56.250 14.606045
56.255 14.107303
56.260 13.895526
56.265 13.463352
56.270 13.324488
56.275 13.443767
56.280 13.319048
56.285 13.028872
56.290 12.828064
56.295 12.917759
56.300 13.587286
56.305 14.244516
56.310 14.057516
56.315 13.580124
56.320 14.037996
56.325 14.104688
56.330 13.697232
56.335 13.119966
56.340 12.803387
56.345 13.158616
56.350 13.531447
56.355 13.18631
56.360 13.713229
56.365 13.763113
56.370 14.106672
56.375 14.20648
56.380 13.808227
56.385 13.889572
56.390 13.734074
56.395 13.335255
56.400 13.565166
56.405 12.711131
56.410 12.29454
56.415 12.069333
56.420 12.142296
56.425 12.749043
56.430 12.822579
56.435 12.94412
56.440 13.874806
56.445 14.63206
56.450 14.835569
56.455 15.564928
56.460 15.453362
56.465 15.379618
56.470 15.335707
56.475 14.905327
56.480 14.613856
56.485 14.24994
56.490 13.868322
56.495 13.660284
56.500 13.66691
56.505 13.780766
56.510 13.898707
56.515 13.891422
56.520 14.058804
56.525 13.238922
56.530 12.84395
56.535 12.699877
56.540 13.044131
56.545 12.868546
56.550 13.157909
56.555 13.144697
56.560 13.324435
56.565 13.733422
56.570 13.167583
56.575 12.61919
56.580 12.61575
56.585 12.475957
56.590 12.986377
56.595 13.856784
56.600 13.74919
56.605 13.579927
56.610 13.55234
56.615 13.389548
56.620 13.300464
56.625 13.105651
56.630 12.885561
56.635 12.909363
56.640 13.048864
56.645 12.902486
56.650 12.956096
56.655 13.517089
56.660 13.496513
56.665 13.389224
56.670 14.038412
56.675 14.514234
56.680 14.472379
56.685 14.484157
56.690 13.878482
56.695 13.576488
56.700 13.610152
56.705 13.57731
56.710 14.208265
56.715 14.363805
56.720 13.930157
56.725 14.080837
56.730 14.174422
56.735 14.585778
56.740 14.767859
56.745 14.173091
56.750 14.629725
56.755 15.064488
56.760 15.597278
56.765 15.742027
56.770 15.24991
56.775 14.827121
56.780 14.893287
56.785 14.999582
56.790 14.678659
56.795 14.685122
56.800 14.346186
56.805 14.88843
56.810 15.317646
56.815 14.745082
56.820 14.408952
56.825 14.627981
56.830 14.693171
56.835 14.818689
56.840 14.537527
56.845 14.217433
56.850 14.464678
56.855 14.394145
56.860 14.099205
56.865 13.519905
56.870 13.747283
56.875 13.395751
56.880 13.309216
56.885 13.33285
56.890 13.104691
56.895 13.368428
56.900 13.555807
56.905 13.229942
56.910 13.712966
56.915 13.412344
56.920 13.465653
56.925 13.764585
56.930 13.532196
56.935 13.010052
56.940 12.505883
56.945 12.214025
56.950 12.418366
56.955 12.915789
56.960 13.13763
56.965 13.474182
56.970 13.644626
56.975 13.974813
56.980 14.097474
56.985 14.065943
56.990 13.666046
56.995 13.938498
57.000 14.059701
57.005 14.338105
57.010 14.801056
57.015 15.212494
57.020 15.160007
57.025 15.28618
57.030 14.704021
57.035 14.426867
57.040 14.319284
57.045 13.779197
57.050 13.507436
57.055 13.301374
57.060 13.020187
57.065 13.199338
57.070 13.284286
57.075 13.706378
57.080 14.28061
57.085 14.558187
57.090 14.745384
57.095 14.720239
57.100 14.4635
57.105 14.069315
57.110 14.000373
57.115 13.491422
57.120 13.788547
57.125 13.972116
57.130 13.910903
57.135 13.810888
57.140 14.050576
57.145 14.094558
57.150 14.231151
57.155 13.453209
57.160 13.011015
57.165 13.054645
57.170 13.533754
57.175 13.956356
57.180 12.990763
57.185 13.217507
57.190 13.84484
57.195 14.525263
57.200 14.612414
57.205 14.482221
57.210 14.046259
57.215 14.361283
57.220 14.263496
57.225 14.346475
57.230 14.154598
57.235 14.454791
57.240 14.38894
57.245 14.602999
57.250 14.758643
57.255 14.641141
57.260 14.65796
57.265 14.528841
57.270 14.137024
57.275 13.646678
57.280 12.89395
57.285 12.487682
57.290 12.122468
57.295 12.511226
57.300 12.690466
57.305 12.859282
57.310 13.595673
57.315 14.806292
57.320 15.104498
57.325 15.046215
57.330 14.203856
57.335 14.600423
57.340 15.292767
57.345 14.690634
57.350 13.954592
57.355 14.18368
57.360 14.458261
57.365 14.535014
57.370 13.838552
57.375 13.562093
57.380 14.044643
57.385 14.127751
57.390 13.913783
57.395 13.661825
57.400 13.867226
57.405 14.156663
57.410 14.457115
57.415 14.148164
57.420 14.510672
57.425 15.066615
57.430 15.113067
57.435 15.123652
57.440 14.664551
57.445 14.301192
57.450 14.078613
57.455 13.770199
57.460 13.540383
57.465 13.617209
57.470 13.540185
57.475 13.43632
57.480 13.528812
57.485 13.975691
57.490 14.219896
57.495 14.309119
57.500 14.265926
57.505 14.410534
57.510 14.696742
57.515 14.658648
57.520 14.808399
57.525 14.329413
57.530 14.522777
57.535 14.887863
57.540 14.499793
57.545 14.781937
57.550 14.681933
57.555 14.348613
57.560 14.363111
57.565 13.876624
57.570 14.034429
57.575 14.403214
57.580 14.168964
57.585 14.129149
57.590 13.833862
57.595 14.183333
57.600 14.113953
57.605 14.47873
57.610 14.588381
57.615 14.504051
57.620 14.709358
57.625 15.615192
57.630 15.562118
57.635 15.550545
57.640 15.277957
57.645 15.035065
57.650 14.658542
57.655 14.540532
57.660 13.801776
57.665 14.015967
57.670 14.292082
57.675 14.16722
57.680 14.464926
57.685 15.054784
57.690 15.169209
57.695 14.714169
57.700 14.108179
57.705 14.217359
57.710 14.454203
57.715 14.906381
57.720 14.911969
57.725 14.942925
57.730 15.811406
57.735 15.770197
57.740 15.755036
57.745 15.661629
57.750 15.123598
57.755 15.077703
57.760 15.137582
57.765 15.63273
57.770 15.660926
57.775 15.429801
57.780 15.578465
57.785 15.720366
57.790 15.960589
57.795 15.619306
57.800 15.373149
57.805 15.58297
57.810 15.708662
57.815 15.618263
57.820 15.516655
57.825 15.372309
57.830 15.457582
57.835 15.354174
57.840 15.100348
57.845 14.639791
57.850 14.747031
57.855 14.638723
57.860 14.647405
57.865 14.882475
57.870 14.417336
57.875 14.606256
57.880 14.537808
57.885 14.444051
57.890 14.343439
57.895 13.873845
57.900 13.40976
57.905 13.915224
57.910 14.023891
57.915 13.610686
57.920 13.97386
57.925 14.390571
57.930 14.173146
57.935 14.149993
57.940 14.115786
57.945 14.173117
57.950 14.559915
57.955 13.978075
57.960 13.42403
57.965 13.901985
57.970 14.150397
57.975 13.77182
57.980 13.914248
57.985 13.73272
57.990 13.512916
57.995 14.028371
58.000 14.676258
58.005 14.914431
58.010 15.324228
58.015 15.255532
58.020 16.100227
58.025 16.578941
58.030 16.829079
58.035 16.653002
58.040 16.384161
58.045 16.230574
58.050 16.265284
58.055 16.174648
58.060 16.791866
58.065 16.259398
58.070 15.839002
58.075 16.236
58.080 16.224001
58.085 16.175699
58.090 16.209511
58.095 15.681004
58.100 16.089724
58.105 16.04051
58.110 15.780023
58.115 15.658244
58.120 14.998018
58.125 13.793212
58.130 13.754085
58.135 13.76863
58.140 14.197352
58.145 13.793085
58.150 14.002724
58.155 14.948693
58.160 15.435973
58.165 15.178127
58.170 15.003678
58.175 14.620461
58.180 14.400932
58.185 14.092184
58.190 13.870367
58.195 13.621692
58.200 13.390903
58.205 12.93872
58.210 13.018943
58.215 13.646183
58.220 13.817192
58.225 14.134674
58.230 15.178902
58.235 16.074047
58.240 16.449654
58.245 16.736235
58.250 16.922306
58.255 17.145123
58.260 16.924297
58.265 16.638506
58.270 16.147928
58.275 16.507841
58.280 16.604334
58.285 16.28126
58.290 16.357756
58.295 16.677608
58.300 16.527342
58.305 16.665625
58.310 16.597319
58.315 16.543417
58.320 16.421989
58.325 16.184345
58.330 15.494836
58.335 15.188338
58.340 14.674514
58.345 14.659682
58.350 14.893076
58.355 15.097701
58.360 15.314249
58.365 15.703469
58.370 16.237696
58.375 16.636425
58.380 16.42963
58.385 16.253183
58.390 16.057245
58.395 15.657371
58.400 15.671088
58.405 14.993955
58.410 15.077952
58.415 15.214087
58.420 15.207913
58.425 15.139842
58.430 15.25925
58.435 15.051516
58.440 15.519767
58.445 15.309667
58.450 15.092376
58.455 15.309227
58.460 15.317177
58.465 15.393289
58.470 16.143715
58.475 16.390848
58.480 16.672464
58.485 17.185844
58.490 17.176748
58.495 17.152555
58.500 17.185795
58.505 16.653021
58.510 16.237362
58.515 15.963775
58.520 15.663491
58.525 16.007784
58.530 16.053333
58.535 15.174188
58.540 15.157115
58.545 15.185868
58.550 14.845622
58.555 14.122881
58.560 14.061984
58.565 14.272633
58.570 15.401922
58.575 15.823819
58.580 15.934514
58.585 15.905827
58.590 16.411108
58.595 16.629782
58.600 17.14329
58.605 16.699251
58.610 15.975162
58.615 15.738916
58.620 16.41431
58.625 16.323935
58.630 16.0151
58.635 15.135131
58.640 15.175361
58.645 15.762513
58.650 15.758416
58.655 15.422021
58.660 15.571131
58.665 15.374002
58.670 15.566919
58.675 15.6092
58.680 14.748146
58.685 14.963912
58.690 14.61784
58.695 14.650296
58.700 15.370402
58.705 15.829535
58.710 15.278771
58.715 15.544148
58.720 15.548552
58.725 15.76998
58.730 14.715458
58.735 14.519531
58.740 14.686983
58.745 15.799642
58.750 16.48185
58.755 16.328161
58.760 16.148991
58.765 16.370712
58.770 15.131901
58.775 14.659918
58.780 14.973135
58.785 14.527227
58.790 14.378636
58.795 14.484597
58.800 15.010402
58.805 16.331388
58.810 16.336618
58.815 16.049967
58.820 16.449236
58.825 17.224915
58.830 17.814632
58.835 17.811516
58.840 17.253208
58.845 16.494787
58.850 16.036797
58.855 15.953475
58.860 15.564754
58.865 15.15976
58.870 15.000209
58.875 15.113221
58.880 15.981166
58.885 16.138865
58.890 16.088169
58.895 16.009567
58.900 16.22648
58.905 16.567884
58.910 17.051632
58.915 17.022524
58.920 16.846415
58.925 16.790474
58.930 16.734108
58.935 16.591543
58.940 16.230913
58.945 15.73313
58.950 15.260832
58.955 15.749677
58.960 16.172003
58.965 16.553133
58.970 16.521658
58.975 17.057604
58.980 16.945301
58.985 17.306189
58.990 16.933624
58.995 16.63096
59.000 16.610838
59.005 16.692793
59.010 16.890669
59.015 17.344585
59.020 17.661682
59.025 17.509275
59.030 17.574266
59.035 17.327936
59.040 17.23498
59.045 16.932444
59.050 17.053621
59.055 17.281111
59.060 17.647293
59.065 18.112309
59.070 18.245481
59.075 18.18243
59.080 18.350121
59.085 17.890423
59.090 17.511265
59.095 17.302811
59.100 17.237312
59.105 17.444572
59.110 17.524529
59.115 17.992964
59.120 18.322718
59.125 18.572084
59.130 18.462616
59.135 18.386881
59.140 18.080444
59.145 17.64798
59.150 17.113832
59.155 17.155302
59.160 16.639977
59.165 16.517344
59.170 16.352022
59.175 16.661581
59.180 16.758034
59.185 16.887552
59.190 16.795712
59.195 16.879181
59.200 17.136909
59.205 17.163048
59.210 17.246746
59.215 17.352619
59.220 16.761705
59.225 16.077721
59.230 16.350775
59.235 16.098454
59.240 15.560577
59.245 15.531647
59.250 15.322465
59.255 15.643051
59.260 16.191944
59.265 16.042997
59.270 15.627392
59.275 15.819888
59.280 15.741804
59.285 15.955506
59.290 15.737062
59.295 15.339723
59.300 15.532084
59.305 15.888762
59.310 15.765397
59.315 15.777187
59.320 16.400719
59.325 16.668652
59.330 17.382782
59.335 17.780317
59.340 18.150412
59.345 18.257225
59.350 17.984646
59.355 17.784857
59.360 18.300508
59.365 18.06415
59.370 17.660036
59.375 17.533564
59.380 17.602232
59.385 17.7054
59.390 18.197256
59.395 17.721045
59.400 17.588387
59.405 17.336727
59.410 17.136532
59.415 17.165203
59.420 17.202223
59.425 16.441809
59.430 16.226665
59.435 16.260609
59.440 16.64086
59.445 16.586838
59.450 16.973198
59.455 17.075727
59.460 16.829712
59.465 17.210621
59.470 16.821217
59.475 17.01668
59.480 17.540863
59.485 17.601538
59.490 17.581573
59.495 17.818022
59.500 17.253523
59.505 17.558636
59.510 17.097651
59.515 17.207817
59.520 17.374603
59.525 17.734789
59.530 17.943014
59.535 18.00836
59.540 18.286434
59.545 18.366047
59.550 18.372231
59.555 18.706331
59.560 19.297943
59.565 19.700956
59.570 20.359465
59.575 20.716682
59.580 20.941006
59.585 20.89835
59.590 20.804167
59.595 20.707319
59.600 20.194332
59.605 19.854233
59.610 19.609346
59.615 19.126051
59.620 19.073523
59.625 19.425711
59.630 19.784193
59.635 21.364029
59.640 21.476133
59.645 21.629454
59.650 22.318884
59.655 21.78927
59.660 21.461159
59.665 21.674915
59.670 21.371059
59.675 21.640022
59.680 21.674826
59.685 21.629753
59.690 21.82568
59.695 21.372316
59.700 20.291452
59.705 19.349419
59.710 19.089355
59.715 18.82439
59.720 18.550158
59.725 18.585382
59.730 18.722229
59.735 19.287361
59.740 20.216394
59.745 20.688265
59.750 20.789259
59.755 20.89632
59.760 21.039427
59.765 21.425783
59.770 20.891321
59.775 20.911337
59.780 21.320362
59.785 21.592176
59.790 21.871471
59.795 21.867804
59.800 22.007168
59.805 22.247269
59.810 22.31155
59.815 22.678692
59.820 23.559639
59.825 23.915697
59.830 24.080523
59.835 23.845535
59.840 23.851597
59.845 23.942038
59.850 23.303774
59.855 22.696232
59.860 22.133747
59.865 22.016548
59.870 22.110701
59.875 21.578684
59.880 21.397818
59.885 21.326824
59.890 21.458349
59.895 21.830618
59.900 21.914461
59.905 22.490208
59.910 22.74279
59.915 22.479359
59.920 22.538496
59.925 21.589548
59.930 21.107666
59.935 20.572954
59.940 20.521452
59.945 20.868567
59.950 21.18866
59.955 21.178589
59.960 21.908415
59.965 22.371767
59.970 22.940876
59.975 23.322311
59.980 22.968407
59.985 22.721399
59.990 23.350157
59.995 23.169363
60.000 22.987576
60.005 22.566126
60.010 22.560091
60.015 22.963963
60.020 22.782059
60.025 22.784407
60.030 22.788979
60.035 22.810242
60.040 22.727844
60.045 22.553308
60.050 22.667505
60.055 22.295065
60.060 22.037226
60.065 22.715508
60.070 22.424206
60.075 22.310263
60.080 21.733549
60.085 21.69087
60.090 22.350187
60.095 22.978483
60.100 23.311302
60.105 24.025574
60.110 24.337643
60.115 25.18741
60.120 25.818493
60.125 25.85812
60.130 25.675446
60.135 25.862803
60.140 25.658995
60.145 25.478722
60.150 24.860516
60.155 24.702745
60.160 23.59556
60.165 22.791395
60.170 22.676048
60.175 22.26099
60.180 22.345175
60.185 22.550831
60.190 22.630564
60.195 23.085169
60.200 22.453238
60.205 21.780725
60.210 21.800589
60.215 22.234232
60.220 22.31291
60.225 22.338354
60.230 22.576447
60.235 23.512016
60.240 24.128532
60.245 24.817469
60.250 24.940472
60.255 24.550531
60.260 24.944059
60.265 24.961224
60.270 24.632635
60.275 24.053314
60.280 23.479036
60.285 22.355217
60.290 21.715839
60.295 20.598066
60.300 20.447205
60.305 20.016138
60.310 20.387117
60.315 19.801983
60.320 20.156929
60.325 20.150982
60.330 20.718943
60.335 21.102882
60.340 21.195555
60.345 21.398901
60.350 22.526234
60.355 23.093071
60.360 24.105665
60.365 24.332579
60.370 23.792196
60.375 23.449549
60.380 22.989033
60.385 22.255695
60.390 21.794464
60.395 21.863951
60.400 21.728878
60.405 22.261744
60.410 22.908131
60.415 23.207226
60.420 23.619295
60.425 23.871826
60.430 23.019951
60.435 22.473625
60.440 22.408915
60.445 21.980423
60.450 21.136627
60.455 20.232191
60.460 19.593002
60.465 19.822874
60.470 20.440945
60.475 20.429131
60.480 20.67185
60.485 21.282606
60.490 21.975725
60.495 22.054699
60.500 21.222088
60.505 21.128954
60.510 21.019457
60.515 21.170815
60.520 20.637932
60.525 20.454552
60.530 20.45602
60.535 20.931524
60.540 20.907057
60.545 21.174892
60.550 20.787743
60.555 21.104774
60.560 21.205084
60.565 21.151281
60.570 20.825497
60.575 20.223328
60.580 19.571909
60.585 19.4182
60.590 19.39953
60.595 19.795309
60.600 19.788029
60.605 19.493065
60.610 19.643406
60.615 19.683325
60.620 20.006872
60.625 19.716732
60.630 19.327477
60.635 19.503809
60.640 19.540709
60.645 19.863995
60.650 20.015381
60.655 19.810099
60.660 19.874743
60.665 19.690828
60.670 19.678598
60.675 19.612476
60.680 19.781101
60.685 19.773497
60.690 19.779535
60.695 19.943958
60.700 19.956831
60.705 20.124035
60.710 19.933182
60.715 19.5198
60.720 19.40769
60.725 19.288502
60.730 19.318209
60.735 19.186226
60.740 19.711906
60.745 19.831076
60.750 19.562218
60.755 19.952944
60.760 19.968262
60.765 20.347467
60.770 20.625504
60.775 20.11009
60.780 20.401617
60.785 20.793777
60.790 20.166637
60.795 19.857916
60.800 19.280037
60.805 18.967657
60.810 18.634422
60.815 17.742393
60.820 17.28211
60.825 17.627508
60.830 18.124344
60.835 17.890936
60.840 17.781019
60.845 18.184769
60.850 18.685318
60.855 18.254778
60.860 17.864325
60.865 17.290949
60.870 17.160887
60.875 17.283274
60.880 17.383154
60.885 17.609905
60.890 17.797171
60.895 18.033285
60.900 18.027922
60.905 18.004755
60.910 17.87458
60.915 17.428535
60.920 17.714235
60.925 18.73785
60.930 19.180088
60.935 20.000149
60.940 20.38134
60.945 20.460579
60.950 20.297159
60.955 19.980679
60.960 19.560375
60.965 19.816252
60.970 19.392838
60.975 18.935423
60.980 18.383396
60.985 18.459461
60.990 18.141827
60.995 17.870457
61.000 17.428097
61.005 17.215168
61.010 17.409424
61.015 17.378914
61.020 17.901941
61.025 18.533531
61.030 18.22068
61.035 18.061199
61.040 18.343935
61.045 18.704775
61.050 18.709623
61.055 18.037996
61.060 17.3778
61.065 17.381025
61.070 17.268545
61.075 17.119162
61.080 17.141592
61.085 17.856709
61.090 18.023224
61.095 18.461555
61.100 18.834709
61.105 18.727858
61.110 18.747997
61.115 18.967787
61.120 18.729137
61.125 18.923973
61.130 18.994297
61.135 19.284529
61.140 19.101431
61.145 18.810745
61.150 18.267033
61.155 18.483604
61.160 17.600567
61.165 16.888315
61.170 16.212988
61.175 16.308405
61.180 16.388235
61.185 16.31044
61.190 15.946759
61.195 16.328447
61.200 16.827971
61.205 17.382917
61.210 17.675117
61.215 17.791273
61.220 18.307274
61.225 18.939201
61.230 19.646034
61.235 19.231115
61.240 18.501633
61.245 18.219906
61.250 18.517399
61.255 18.112741
61.260 18.12339
61.265 17.805161
61.270 17.451572
61.275 17.515963
61.280 17.469841
61.285 16.956125
61.290 17.373304
61.295 16.99725
61.300 16.594507
61.305 17.392366
61.310 18.204205
61.315 18.14814
61.320 18.220751
61.325 18.150404
61.330 18.269341
61.335 18.865116
61.340 18.704943
61.345 18.072079
61.350 18.220184
61.355 18.233139
61.360 17.657745
61.365 17.930923
61.370 17.466274
61.375 17.437002
61.380 17.578438
61.385 17.698374
61.390 18.184389
61.395 17.94087
61.400 17.524712
61.405 17.372612
61.410 17.622499
61.415 17.343895
61.420 17.198603
61.425 16.814611
61.430 17.154675
61.435 16.972572
61.440 17.085159
61.445 17.234278
61.450 17.790308
61.455 17.698742
61.460 17.606037
61.465 18.0021
61.470 18.18475
61.475 18.316088
61.480 17.888992
61.485 17.515585
61.490 17.990971
61.495 17.760094
61.500 17.188757
61.505 17.202656
61.510 16.806646
61.515 17.277662
61.520 17.440966
61.525 16.887007
61.530 17.023899
61.535 17.213078
61.540 17.389128
61.545 17.927267
61.550 17.886017
61.555 18.05517
61.560 17.993797
61.565 18.03685
61.570 17.741007
61.575 17.457136
61.580 17.143864
61.585 16.670418
61.590 16.653379
61.595 17.252804
61.600 17.198246
61.605 17.656189
61.610 18.074091
61.615 18.080582
61.620 18.465385
61.625 18.2188
61.630 17.933981
61.635 18.178606
61.640 17.671417
61.645 16.914957
61.650 16.603447
61.655 16.264782
61.660 16.060579
61.665 16.148972
61.670 15.897103
61.675 16.44763
61.680 16.960644
61.685 16.898718
61.690 17.159298
61.695 17.032824
61.700 16.862976
61.705 17.119696
61.710 16.863852
61.715 16.532356
61.720 16.451696
61.725 16.333303
61.730 16.397137
61.735 16.712164
61.740 16.618248
61.745 16.44449
61.750 17.096958
61.755 17.499466
61.760 17.444513
61.765 17.312332
61.770 17.447687
61.775 18.063015
61.780 18.243744
61.785 17.51786
61.790 17.169033
61.795 17.434814
61.800 17.629551
61.805 17.248854
61.810 17.052525
61.815 17.361946
61.820 17.92878
61.825 17.992113
61.830 18.417912
61.835 18.273376
61.840 18.582998
61.845 18.272903
61.850 18.229273
61.855 17.603392
61.860 17.31485
61.865 16.972296
61.870 17.122622
61.875 16.992607
61.880 16.739996
61.885 16.907093
61.890 17.693655
61.895 17.891178
61.900 18.034792
61.905 17.825611
61.910 17.695459
61.915 17.692741
61.920 17.218838
61.925 16.601883
61.930 16.497824
61.935 16.629133
61.940 17.102619
61.945 17.153975
61.950 17.172863
61.955 17.60066
61.960 18.405649
61.965 18.263697
61.970 18.594477
61.975 18.65337
61.980 18.454647
61.985 18.354034
61.990 18.15267
61.995 17.683661
62.000 17.652685
62.005 16.981951
62.010 16.734118
62.015 17.050951
62.020 16.99864
62.025 16.701624
62.030 16.442736
62.035 16.177326
62.040 16.542768
62.045 16.753309
62.050 16.781281
62.055 16.80274
62.060 17.272045
62.065 17.739815
62.070 17.592735
62.075 17.455139
62.080 17.411161
62.085 17.41312
62.090 17.562031
62.095 17.30615
62.100 17.116339
62.105 17.279573
62.110 16.913931
62.115 16.756283
62.120 17.170456
62.125 17.639082
62.130 17.626656
62.135 18.123861
62.140 18.448685
62.145 19.009171
62.150 19.279537
62.155 18.419319
62.160 18.218548
62.165 18.179729
62.170 17.923895
62.175 17.771568
62.180 17.163895
62.185 16.753309
62.190 17.005016
62.195 16.720058
62.200 16.251009
62.205 15.676128
62.210 15.585692
62.215 15.53924
62.220 15.536759
62.225 15.539412
62.230 15.73666
62.235 16.188494
62.240 16.647818
62.245 16.449347
62.250 16.433348
62.255 16.635672
62.260 15.973136
62.265 15.874877
62.270 15.803706
62.275 16.063936
62.280 16.685228
62.285 16.675537
62.290 16.537889
62.295 17.115349
62.300 17.042654
62.305 16.689402
62.310 16.350887
62.315 15.85526
62.320 15.955397
62.325 16.630308
62.330 16.901646
62.335 16.954149
62.340 17.145607
62.345 17.397247
62.350 17.994946
62.355 18.089745
62.360 17.619272
62.365 17.518557
62.370 17.603226
62.375 17.986675
62.380 17.932261
62.385 17.87953
62.390 17.60899
62.395 17.762564
62.400 18.231375
62.405 18.552776
62.410 18.694166
62.415 18.656738
62.420 18.630651
62.425 19.051561
62.430 19.300228
62.435 19.136883
62.440 19.191427
62.445 19.907505
62.450 20.313009
62.455 20.354052
62.460 20.651451
62.465 20.396698
62.470 20.032883
62.475 19.327269
62.480 18.283211
62.485 17.836758
62.490 17.558149
62.495 17.347952
62.500 17.68535
62.505 17.76565
62.510 17.78508
62.515 17.799894
62.520 17.947208
62.525 18.020542
62.530 17.83029
62.535 17.193125
62.540 17.274752
62.545 17.571144
62.550 16.868296
62.555 16.404562
62.560 16.182337
62.565 15.871613
62.570 15.723827
62.575 15.673538
62.580 15.474689
62.585 16.344839
62.590 17.053549
62.595 17.209511
62.600 17.490452
62.605 17.491693
62.610 17.432232
62.615 17.45788
62.620 17.72847
62.625 17.835693
62.630 18.093227
62.635 18.13479
62.640 18.326443
62.645 18.389277
62.650 18.754145
62.655 17.877295
62.660 17.840315
62.665 17.603962
62.670 17.791092
62.675 17.728861
62.680 17.932852
62.685 17.864759
62.690 18.681749
62.695 18.647966
62.700 18.134098
62.705 18.357544
62.710 18.556906
62.715 18.105499
62.720 18.102276
62.725 17.868263
62.730 18.210962
62.735 18.65188
62.740 18.959785
62.745 18.504265
62.750 18.280737
62.755 18.024235
62.760 18.084373
62.765 18.23543
62.770 18.516266
62.775 18.095697
62.780 18.171776
62.785 18.522865
62.790 19.10129
62.795 19.437471
62.800 19.549389
62.805 19.63032
62.810 20.175953
62.815 20.451458
62.820 20.671616
62.825 20.264462
62.830 19.329453
62.835 18.345074
62.840 18.054119
62.845 17.981585
62.850 17.994278
62.855 17.753111
62.860 17.509365
62.865 17.595201
62.870 18.313545
62.875 18.264669
62.880 18.239552
62.885 18.451712
62.890 18.518503
62.895 18.105124
62.900 18.37492
62.905 18.181877
62.910 17.269363
62.915 16.848017
62.920 16.656929
62.925 16.760687
62.930 17.048679
62.935 16.788521
62.940 17.004326
62.945 17.435608
62.950 17.046978
62.955 17.464556
62.960 17.941481
62.965 17.950979
62.970 17.885645
62.975 17.64616
62.980 18.221416
62.985 18.852079
62.990 18.25021
62.995 17.766062
63.000 18.217991
63.005 18.311565
63.010 18.560873
63.015 18.273333
63.020 18.059856
63.025 18.421453
63.030 18.517586
63.035 18.645477
63.040 19.017393
63.045 19.217405
63.050 19.423912
63.055 19.781229
63.060 20.01092
63.065 19.756445
63.070 19.603148
63.075 19.720856
63.080 19.761148
63.085 19.436155
63.090 18.862669
63.095 18.608322
63.100 19.334463
63.105 20.173256
63.110 19.381041
63.115 19.307495
63.120 19.282612
63.125 19.783363
63.130 19.86203
63.135 19.102139
63.140 18.153381
63.145 18.540155
63.150 18.20051
63.155 18.576975
63.160 18.884027
63.165 18.667393
63.170 18.961378
63.175 19.177954
63.180 19.113556
63.185 18.735441
63.190 18.542734
63.195 18.283749
63.200 18.371954
63.205 18.473808
63.210 18.275322
63.215 18.468575
63.220 18.706537
63.225 18.675632
63.230 18.616657
63.235 18.956873
63.240 19.198923
63.245 19.213312
63.250 19.049263
63.255 18.761831
63.260 18.918968
63.265 18.861355
63.270 18.645229
63.275 18.534071
63.280 18.695774
63.285 18.753984
63.290 19.04426
63.295 18.975403
63.300 18.341366
63.305 17.985043
63.310 18.282248
63.315 17.944027
63.320 17.310999
63.325 16.881742
63.330 16.841024
63.335 17.618725
63.340 17.258204
63.345 16.588316
63.350 17.262259
63.355 18.156086
63.360 18.668905
63.365 17.915627
63.370 17.458954
63.375 18.477362
63.380 18.963869
63.385 18.484877
63.390 18.472118
63.395 18.810995
63.400 18.989956
63.405 18.875587
63.410 18.653536
63.415 18.06432
63.420 18.048019
63.425 18.202354
63.430 18.302046
63.435 18.529871
63.440 18.740871
63.445 18.227657
63.450 18.117392
63.455 18.222633
63.460 18.076212
63.465 18.073416
63.470 18.282076
63.475 18.283033
63.480 18.904007
63.485 19.925564
63.490 20.63464
63.495 20.581034
63.500 21.366026
63.505 21.427296
63.510 21.229849
63.515 20.840994
63.520 20.564123
63.525 20.180029
63.530 19.642263
63.535 18.764915
63.540 18.252769
63.545 18.111561
63.550 18.149584
63.555 17.52103
63.560 16.906994
63.565 17.677546
63.570 18.050772
63.575 18.626484
63.580 18.929482
63.585 18.533813
63.590 18.653542
63.595 18.716299
63.600 18.327175
63.605 17.760969
63.610 17.832186
63.615 17.710026
63.620 18.109358
63.625 18.137251
63.630 18.697048
63.635 18.407932
63.640 18.870903
63.645 18.617115
63.650 18.842434
63.655 18.843273
63.660 18.864599
63.665 18.36861
63.670 18.244265
63.675 18.078287
63.680 18.199841
63.685 18.339655
63.690 18.517128
63.695 18.331326
63.700 18.256992
63.705 18.300966
63.710 17.915607
63.715 17.970798
63.720 17.910122
63.725 17.760654
63.730 18.40803
63.735 19.356956
63.740 19.716518
63.745 19.92371
63.750 19.946333
63.755 19.67557
63.760 19.894365
63.765 19.836967
63.770 18.980207
63.775 19.114071
63.780 19.557211
63.785 19.48172
63.790 19.772207
63.795 19.508129
63.800 19.200148
63.805 19.141127
63.810 18.404924
63.815 17.798817
63.820 17.49378
63.825 16.791275
63.830 16.563639
63.835 16.282494
63.840 17.17713
63.845 18.032925
63.850 17.53351
63.855 17.522707
63.860 17.914537
63.865 18.019535
63.870 17.787035
63.875 17.302757
63.880 17.48958
63.885 18.13026
63.890 18.624098
63.895 18.402723
63.900 18.276819
63.905 18.682779
63.910 18.102962
63.915 17.329557
63.920 17.240337
63.925 17.083624
63.930 17.336342
63.935 17.62805
63.940 17.80522
63.945 18.271263
63.950 18.764055
63.955 18.672272
63.960 18.61792
63.965 18.807804
63.970 19.687517
63.975 19.959862
63.980 20.303598
63.985 19.784113
63.990 19.269402
63.995 18.955292
64.000 18.608749
64.005 18.119095
64.010 17.963179
64.015 17.493805
64.020 17.912428
64.025 18.595266
64.030 19.159081
64.035 19.344074
64.040 19.428513
64.045 19.865839
64.050 19.913322
64.055 20.132353
64.060 20.050474
64.065 19.633387
64.070 19.733543
64.075 19.249931
64.080 18.385796
64.085 18.040545
64.090 18.061356
64.095 18.229618
64.100 18.228014
64.105 17.782284
64.110 17.923037
64.115 18.116884
64.120 18.275734
64.125 18.071142
64.130 18.052433
64.135 18.423544
64.140 18.693989
64.145 19.059593
64.150 19.602306
64.155 19.350821
64.160 19.380617
64.165 19.06546
64.170 19.084707
64.175 19.553663
64.180 19.027964
64.185 19.017332
64.190 19.470474
64.195 19.538433
64.200 20.22715
64.205 20.656084
64.210 20.420765
64.215 20.283039
64.220 20.099705
64.225 19.77195
64.230 19.493172
64.235 18.623743
64.240 18.11886
64.245 18.473412
64.250 18.814608
64.255 19.638844
64.260 19.577456
64.265 19.393831
64.270 19.315037
64.275 19.271124
64.280 18.561277
64.285 18.48851
64.290 17.576284
64.295 17.936388
64.300 18.126598
64.305 18.37763
64.310 18.21957
64.315 18.569908
64.320 18.671249
64.325 18.517958
64.330 18.567621
64.335 18.440069
64.340 18.106722
64.345 17.685696
64.350 17.537159
64.355 17.676605
64.360 17.877626
64.365 17.971207
64.370 18.655027
64.375 18.889385
64.380 19.349901
64.385 19.223679
64.390 19.29874
64.395 19.835253
64.400 19.757578
64.405 18.929703
64.410 19.046654
64.415 18.665421
64.420 19.189354
64.425 18.979509
64.430 18.392519
64.435 18.745419
64.440 19.45322
64.445 19.393522
64.450 19.250425
64.455 18.899767
64.460 18.94928
64.465 19.323217
64.470 19.137421
64.475 18.877729
64.480 19.392338
64.485 19.482672
64.490 19.016293
64.495 19.250261
64.500 19.243134
64.505 19.370409
64.510 19.639551
64.515 20.037275
64.520 20.438135
64.525 20.441116
64.530 20.031248
64.535 20.566568
64.540 20.374086
64.545 19.913704
64.550 19.213688
64.555 18.861824
64.560 18.874815
64.565 18.372082
64.570 17.571262
64.575 17.61021
64.580 17.864906
64.585 17.769226
64.590 18.062124
64.595 18.66395
64.600 19.116547
64.605 19.4347
64.610 19.331329
64.615 19.299173
64.620 19.717718
64.625 19.982012
64.630 20.658255
64.635 21.033455
64.640 21.22838
64.645 21.79978
64.650 22.360773
64.655 22.65243
64.660 22.634115
64.665 21.830715
64.670 21.828007
64.675 21.180141
64.680 20.447725
64.685 20.005913
64.690 19.813606
64.695 19.27039
64.700 19.107759
64.705 18.983883
64.710 19.50897
64.715 19.94013
64.720 20.19873
64.725 19.606779
64.730 19.598167
64.735 19.655357
64.740 19.189411
64.745 19.006826
64.750 18.56632
64.755 18.560135
64.760 19.584028
64.765 20.121096
64.770 20.582281
64.775 20.982925
64.780 21.131641
64.785 21.436598
64.790 21.305437
64.795 21.322845
64.800 21.334436
64.805 21.050201
64.810 20.899897
64.815 20.801491
64.820 20.36165
64.825 20.125889
64.830 20.228514
64.835 20.356024
64.840 20.72928
64.845 20.952845
64.850 21.110285
64.855 21.780268
64.860 22.003372
64.865 21.279264
64.870 21.144091
64.875 21.027403
64.880 21.139629
64.885 21.401457
64.890 21.832363
64.895 21.615349
64.900 21.676849
64.905 21.425377
64.910 21.622936
64.915 22.024546
64.920 21.89023
64.925 22.100534
64.930 22.679829
64.935 22.659466
64.940 22.915794
64.945 22.921843
64.950 23.088299
64.955 23.81131
64.960 23.733158
64.965 24.025818
64.970 24.48444
64.975 24.465799
64.980 24.408655
64.985 23.970551
64.990 23.057768
64.995 22.554457
65.000 22.302795
65.005 22.367386
65.010 23.009817
65.015 23.356913
65.020 23.547523
65.025 24.22365
65.030 24.71583
65.035 25.405571
65.040 25.538404
65.045 25.306011
65.050 25.247679
65.055 25.224266
65.060 24.808737
65.065 24.979361
65.070 25.089668
65.075 25.160189
65.080 25.085205
65.085 25.689205
65.090 25.728539
65.095 25.613424
65.100 25.138388
65.105 24.4321
65.110 24.532942
65.115 23.911362
65.120 23.940548
65.125 24.1215
65.130 24.508764
65.135 24.278275
65.140 24.261843
65.145 23.227409
65.150 23.963251
65.155 23.851355
65.160 24.300236
65.165 24.623362
65.170 24.88497
65.175 25.246504
65.180 26.022837
65.185 25.963173
65.190 25.619175
65.195 25.503275
65.200 26.264919
65.205 26.508114
65.210 26.431122
65.215 25.675749
65.220 25.109749
65.225 25.209358
65.230 24.765656
65.235 24.068136
65.240 23.661007
65.245 23.682531
65.250 23.759026
65.255 23.63623
65.260 23.494759
65.265 23.532185
65.270 22.550951
65.275 22.51207
65.280 22.780251
65.285 23.16864
65.290 23.49679
65.295 23.294733
65.300 23.270695
65.305 23.855587
65.310 23.56415
65.315 23.547832
65.320 23.714783
65.325 22.960165
65.330 23.181885
65.335 24.08662
65.340 24.393829
65.345 24.652145
65.350 24.197531
65.355 24.224083
65.360 24.926149
65.365 25.307713
65.370 24.706427
65.375 25.06493
65.380 25.341591
65.385 25.915295
65.390 26.141483
65.395 25.93782
65.400 25.665201
65.405 25.815252
65.410 25.595264
65.415 25.517609
65.420 25.495543
65.425 25.524748
65.430 26.412189
65.435 26.318411
65.440 25.751276
65.445 25.72254
65.450 26.042356
65.455 26.034473
65.460 26.218487
65.465 25.571026
65.470 24.806231
65.475 24.709845
65.480 24.637163
65.485 24.22723
65.490 24.245953
65.495 23.989765
65.500 23.891912
65.505 24.400816
65.510 25.036861
65.515 25.403534
65.520 26.125164
65.525 26.426291
65.530 26.383476
65.535 26.737307
65.540 27.624866
65.545 27.932331
65.550 27.276148
65.555 27.409193
65.560 27.426077
65.565 27.866188
65.570 28.119757
65.575 27.843616
65.580 28.868109
65.585 30.255388
65.590 30.16375
65.595 30.327398
65.600 30.981455
65.605 31.386456
65.610 31.480362
65.615 30.28336
65.620 29.649494
65.625 29.630362
65.630 29.253252
65.635 28.970821
65.640 29.475679
65.645 30.294205
65.650 31.282471
65.655 31.639961
65.660 32.227814
65.665 32.336685
65.670 32.713245
65.675 32.74297
65.680 32.682373
65.685 32.212311
65.690 32.767891
65.695 33.173607
65.700 34.089584
65.705 34.702309
65.710 35.497818
65.715 35.703358
65.720 35.517357
65.725 35.692734
65.730 36.000111
65.735 35.875435
65.740 35.014374
65.745 34.668819
65.750 35.381699
65.755 36.365185
65.760 36.352505
65.765 36.785473
65.770 37.02034
65.775 36.794426
65.780 37.215267
65.785 37.418812
65.790 37.297195
65.795 36.578072
65.800 36.262569
65.805 36.833214
65.810 37.574146
65.815 37.550945
65.820 38.03878
65.825 38.8269
65.830 39.844719
65.835 39.538536
65.840 39.841354
65.845 39.409554
65.850 38.36837
65.855 38.193832
65.860 38.200512
65.865 38.14521
65.870 37.579788
65.875 36.92207
65.880 37.39724
65.885 38.090736
65.890 37.717304
65.895 38.21175
65.900 38.964314
65.905 39.544693
65.910 39.571983
65.915 39.838264
65.920 39.519901
65.925 39.470432
65.930 39.272091
65.935 39.934082
65.940 40.565678
65.945 40.625511
65.950 40.478497
65.955 41.190735
65.960 41.11388
65.965 40.003845
65.970 38.806461
65.975 38.391834
65.980 38.04953
65.985 37.707767
65.990 37.600384
65.995 37.630791
66.000 37.825531
66.005 38.123219
66.010 38.52594
66.015 39.210442
66.020 39.207954
66.025 39.128922
66.030 38.983524
66.035 39.225887
66.040 39.346054
66.045 38.723179
66.050 38.662575
66.055 39.219883
66.060 39.453793
66.065 39.845406
66.070 39.31221
66.075 39.095333
66.080 39.196613
66.085 39.134789
66.090 39.104809
66.095 39.431496
66.100 40.463326
66.105 41.008511
66.110 40.618225
66.115 41.026455
66.120 41.154266
66.125 40.906425
66.130 40.367096
66.135 39.857552
66.140 39.998901
66.145 40.217339
66.150 40.207211
66.155 39.268833
66.160 38.65176
66.165 38.780991
66.170 39.113022
66.175 38.97369
66.180 38.702911
66.185 38.014206
66.190 38.45668
66.195 38.847374
66.200 38.238476
66.205 37.321533
66.210 37.071167
66.215 36.905907
66.220 37.281784
66.225 37.226456
66.230 37.306366
66.235 36.994171
66.240 36.137238
66.245 35.774857
66.250 36.264149
66.255 36.307121
66.260 36.02792
66.265 35.827255
66.270 36.020592
66.275 36.825394
66.280 37.326054
66.285 36.433357
66.290 35.831066
66.295 35.862141
66.300 36.00959
66.305 36.205753
66.310 36.101685
66.315 35.827633
66.320 36.347424
66.325 36.136639
66.330 36.441139
66.335 36.489933
66.340 35.505283
66.345 34.383778
66.350 34.254841
66.355 33.566216
66.360 33.414398
66.365 32.01355
66.370 31.301483
66.375 30.977419
66.380 31.065908
66.385 30.717258
66.390 31.25177
66.395 31.926325
66.400 31.794462
66.405 31.204378
66.410 31.251472
66.415 31.065199
66.420 31.147516
66.425 30.930933
66.430 29.892372
66.435 30.817554
66.440 30.700907
66.445 30.112309
66.450 30.330576
66.455 29.918348
66.460 29.826
66.465 29.7257
66.470 29.479855
66.475 30.279583
66.480 30.795801
66.485 30.943764
66.490 30.67565
66.495 30.395287
66.500 30.11034
66.505 29.065641
66.510 28.981461
66.515 28.954479
66.520 28.776007
66.525 27.88932
66.530 27.836597
66.535 28.533482
66.540 28.921392
66.545 28.721506
66.550 27.652313
66.555 27.021597
66.560 27.800442
66.565 27.664793
66.570 27.132309
66.575 26.780228
66.580 26.000256
66.585 25.88287
66.590 26.074978
66.595 25.171648
66.600 24.405602
66.605 23.860697
66.610 23.840164
66.615 24.541365
66.620 24.270309
66.625 23.683697
66.630 24.307346
66.635 25.03454
66.640 25.87812
66.645 25.730778
66.650 24.798447
66.655 25.316301
66.660 24.996845
66.665 24.767235
66.670 24.299116
66.675 23.391888
66.680 23.227388
66.685 23.014067
66.690 22.528551
66.695 22.495075
66.700 22.445318
66.705 23.09878
66.710 23.514389
66.715 24.185881
66.720 24.98654
66.725 25.280226
66.730 25.484234
66.735 25.333439
66.740 24.919819
66.745 25.250689
66.750 24.734257
66.755 24.487083
66.760 24.251425
66.765 24.277241
66.770 24.564217
66.775 24.144526
66.780 23.727137
66.785 23.715466
66.790 22.980051
66.795 23.091923
66.800 22.692583
66.805 22.295483
66.810 22.794666
66.815 23.230907
66.820 23.781345
66.825 24.538143
66.830 24.693056
66.835 24.573963
66.840 24.690346
66.845 24.872679
66.850 24.41012
66.855 24.093281
66.860 24.442095
66.865 24.433619
66.870 23.837963
66.875 23.857939
66.880 23.754871
66.885 23.832439
66.890 23.66086
66.895 23.058987
66.900 23.46924
66.905 24.46158
66.910 24.387186
66.915 23.740627
66.920 23.502338
66.925 23.746284
66.930 23.875937
66.935 23.640825
66.940 23.05982
66.945 23.119247
66.950 23.304298
66.955 23.078657
66.960 22.618805
66.965 22.358955
66.970 22.161011
66.975 22.136171
66.980 22.237133
66.985 22.249239
66.990 22.931911
66.995 22.981504
67.000 22.907459
67.005 23.161882
67.010 23.41041
67.015 22.609793
67.020 22.545624
67.025 21.927193
67.030 21.981766
67.035 22.450373
67.040 21.798008
67.045 22.015909
67.050 22.541737
67.055 22.619612
67.060 23.058767
67.065 22.82782
67.070 23.20817
67.075 24.650089
67.080 24.488031
67.085 24.195133
67.090 23.742418
67.095 23.764442
67.100 24.169937
67.105 23.863194
67.110 23.42889
67.115 23.129469
67.120 22.771263
67.125 22.897799
67.130 22.64399
67.135 22.301245
67.140 22.316587
67.145 21.660772
67.150 21.817936
67.155 22.482943
67.160 22.380783
67.165 22.806942
67.170 22.995152
67.175 22.486931
67.180 22.910435
67.185 23.270571
67.190 23.67382
67.195 23.896429
67.200 23.768036
67.205 23.50481
67.210 23.398872
67.215 22.855614
67.220 22.363392
67.225 21.779802
67.230 21.744263
67.235 21.89069
67.240 21.218084
67.245 21.442003
67.250 21.415718
67.255 21.492268
67.260 21.476974
67.265 21.584091
67.270 22.004145
67.275 22.379114
67.280 22.139406
67.285 22.672342
67.290 22.990269
67.295 23.235626
67.300 22.714933
67.305 21.973402
67.310 21.630754
67.315 21.821472
67.320 21.415239
67.325 20.703609
67.330 20.597692
67.335 20.850056
67.340 21.260695
67.345 21.928854
67.350 21.825958
67.355 21.708113
67.360 22.044722
67.365 22.298119
67.370 22.393732
67.375 22.352924
67.380 22.235928
67.385 22.139963
67.390 22.271902
67.395 22.311308
67.400 22.085175
67.405 21.691061
67.410 21.3277
67.415 21.355925
67.420 21.776669
67.425 21.854536
67.430 21.644785
67.435 21.14669
67.440 20.837925
67.445 21.039804
67.450 21.010323
67.455 20.56427
67.460 20.338814
67.465 20.519054
67.470 20.895699
67.475 20.999327
67.480 21.201292
67.485 21.439644
67.490 21.877861
67.495 22.359432
67.500 22.525537
67.505 22.970667
67.510 23.103411
67.515 23.11001
67.520 22.683764
67.525 22.042139
67.530 21.382032
67.535 20.895388
67.540 21.406582
67.545 21.367121
67.550 20.925928
67.555 20.838442
67.560 21.246248
67.565 21.569706
67.570 21.151428
67.575 20.342604
67.580 20.812885
67.585 21.053898
67.590 20.803133
67.595 21.118486
67.600 21.483883
67.605 22.085199
67.610 22.58563
67.615 22.532106
67.620 22.666328
67.625 22.87282
67.630 22.442957
67.635 22.041327
67.640 21.662304
67.645 21.186255
67.650 20.902977
67.655 21.39537
67.660 21.384499
67.665 21.65584
67.670 21.851189
67.675 22.371885
67.680 22.268011
67.685 22.282537
67.690 21.518824
67.695 21.434479
67.700 21.269251
67.705 21.123615
67.710 20.898043
67.715 20.714783
67.720 20.936079
67.725 21.211327
67.730 21.533491
67.735 21.390175
67.740 21.637487
67.745 21.414829
67.750 21.271351
67.755 20.683874
67.760 20.351685
67.765 20.13592
67.770 20.329662
67.775 20.129158
67.780 20.770046
67.785 20.86315
67.790 20.8381
67.795 21.262201
67.800 21.375509
67.805 20.705244
67.810 20.27231
67.815 19.936489
67.820 20.765774
67.825 21.017992
67.830 20.526737
67.835 20.387102
67.840 20.944929
67.845 21.454847
67.850 21.367542
67.855 21.014915
67.860 20.871571
67.865 21.567871
67.870 21.541245
67.875 21.530087
67.880 21.639196
67.885 20.647919
67.890 20.377226
67.895 20.74571
67.900 20.823114
67.905 20.917494
67.910 20.590033
67.915 20.603403
67.920 21.432493
67.925 21.723028
67.930 21.700089
67.935 22.092726
67.940 21.946196
67.945 22.025589
67.950 22.128675
67.955 22.002529
67.960 22.241476
67.965 21.986898
67.970 21.597258
67.975 22.174381
67.980 22.3426
67.985 22.275888
67.990 22.779202
67.995 22.214979
68.000 22.297409
68.005 22.548071
68.010 22.540325
68.015 22.624731
68.020 23.075325
68.025 23.028614
68.030 23.734766
68.035 24.029659
68.040 23.933004
68.045 24.090986
68.050 23.212746
68.055 22.168365
68.060 21.583906
68.065 20.817999
68.070 20.703718
68.075 20.139433
68.080 19.732477
68.085 20.328024
68.090 20.294193
68.095 20.604521
68.100 20.559811
68.105 20.417803
68.110 21.241009
68.115 21.528309
68.120 21.559097
68.125 21.244442
68.130 21.481857
68.135 22.085268
68.140 22.378714
68.145 22.874273
68.150 22.806126
68.155 23.351559
68.160 24.090443
68.165 23.583645
68.170 23.638218
68.175 22.883421
68.180 21.967886
68.185 21.686916
68.190 21.059546
68.195 20.720343
68.200 20.774971
68.205 20.42894
68.210 20.594051
68.215 20.090666
68.220 20.43738
68.225 20.908344
68.230 22.023815
68.235 22.17347
68.240 22.151638
68.245 22.698326
68.250 22.486103
68.255 22.213995
68.260 21.885679
68.265 21.310543
68.270 21.604374
68.275 21.499407
68.280 20.906645
68.285 21.78628
68.290 22.752836
68.295 23.019722
68.300 22.817522
68.305 22.623428
68.310 23.562929
68.315 24.229506
68.320 23.775984
68.325 23.001011
68.330 22.881388
68.335 23.334192
68.340 23.191401
68.345 21.765913
68.350 21.509312
68.355 21.355436
68.360 21.248144
68.365 20.911934
68.370 20.448542
68.375 20.342125
68.380 20.686888
68.385 21.198038
68.390 21.336143
68.395 21.35804
68.400 21.165407
68.405 21.717762
68.410 21.065521
68.415 21.161144
68.420 21.223547
68.425 21.27446
68.430 21.320087
68.435 21.394735
68.440 21.083588
68.445 22.117716
68.450 21.514462
68.455 20.987722
68.460 20.699106
68.465 20.962957
68.470 21.067957
68.475 21.081011
68.480 20.766897
68.485 21.061285
68.490 21.198633
68.495 21.672916
68.500 21.91048
68.505 22.021631
68.510 21.567152
68.515 21.528124
68.520 22.527411
68.525 22.351297
68.530 22.32258
68.535 22.26923
68.540 22.438881
68.545 22.902252
68.550 23.178625
68.555 23.517641
68.560 24.281809
68.565 23.684307
68.570 23.066492
68.575 23.178448
68.580 23.45945
68.585 22.863375
68.590 21.882471
68.595 22.271465
68.600 23.053789
68.605 23.424446
68.610 23.11203
68.615 23.144714
68.620 23.689753
68.625 23.955238
68.630 23.68659
68.635 23.692434
68.640 24.301716
68.645 24.6222
68.650 24.627007
68.655 24.280022
68.660 23.478165
68.665 22.972845
68.670 22.990824
68.675 22.679211
68.680 22.433018
68.685 22.48526
68.690 22.411257
68.695 22.791964
68.700 22.7139
68.705 22.995235
68.710 23.439789
68.715 23.012236
68.720 22.97612
68.725 23.612951
68.730 23.673443
68.735 23.288044
68.740 22.193298
68.745 21.361635
68.750 21.044327
68.755 20.973982
68.760 20.473513
68.765 20.078167
68.770 20.683872
68.775 20.932934
68.780 21.113682
68.785 21.822775
68.790 21.704807
68.795 21.495354
68.800 21.92481
68.805 22.023933
68.810 22.64464
68.815 23.154051
68.820 23.232582
68.825 23.434048
68.830 23.652983
68.835 24.306379
68.840 23.812183
68.845 23.933153
68.850 23.869032
68.855 23.503151
68.860 23.501167
68.865 23.287626
68.870 22.701881
68.875 22.84173
68.880 21.765078
68.885 21.067362
68.890 21.499458
68.895 21.556362
68.900 22.101267
68.905 22.694544
68.910 22.32107
68.915 22.812153
68.920 23.334419
68.925 23.422985
68.930 23.518869
68.935 22.960693
68.940 22.45513
68.945 22.966112
68.950 23.337015
68.955 22.794741
68.960 22.580139
68.965 23.221273
68.970 22.990345
68.975 23.339005
68.980 23.0268
68.985 23.005287
68.990 23.779892
68.995 23.525305
69.000 23.554152
69.005 24.109777
69.010 24.038597
69.015 24.147009
69.020 23.746065
69.025 23.238813
69.030 23.622196
69.035 23.766157
69.040 24.162312
69.045 24.318275
69.050 24.780041
69.055 25.697796
69.060 26.280573
69.065 26.353203
69.070 26.306782
69.075 27.078148
69.080 27.190556
69.085 26.66169
69.090 26.127865
69.095 26.408707
69.100 26.166565
69.105 26.487154
69.110 26.054033
69.115 25.78532
69.120 25.811237
69.125 26.34519
69.130 26.136511
69.135 25.514994
69.140 24.790249
69.145 24.675583
69.150 24.778111
69.155 25.447948
69.160 25.750307
69.165 25.907362
69.170 26.420773
69.175 27.202164
69.180 27.070351
69.185 27.984249
69.190 28.344521
69.195 28.094959
69.200 27.704435
69.205 28.206278
69.210 27.72924
69.215 27.209511
69.220 26.516211
69.225 26.105722
69.230 25.569643
69.235 26.386847
69.240 26.436239
69.245 26.982468
69.250 27.48966
69.255 27.615654
69.260 27.712372
69.265 28.016411
69.270 27.896168
69.275 26.826408
69.280 27.170172
69.285 27.881454
69.290 28.294102
69.295 28.025169
69.300 27.986822
69.305 28.140821
69.310 28.546356
69.315 28.262966
69.320 27.699587
69.325 27.536888
69.330 28.029062
69.335 28.36941
69.340 28.581327
69.345 29.191343
69.350 29.555023
69.355 29.595457
69.360 30.169235
69.365 30.680223
69.370 30.533283
69.375 30.258099
69.380 30.855129
69.385 30.803486
69.390 31.133204
69.395 30.964436
69.400 30.744873
69.405 31.386978
69.410 31.33626
69.415 30.278326
69.420 30.009848
69.425 29.651281
69.430 29.070223
69.435 29.50527
69.440 29.088387
69.445 28.997293
69.450 29.720215
69.455 29.661184
69.460 28.945539
69.465 28.36162
69.470 27.781509
69.475 28.050261
69.480 28.227753
69.485 27.599737
69.490 27.700174
69.495 28.832899
69.500 29.419971
69.505 29.655094
69.510 29.638849
69.515 30.055937
69.520 31.03577
69.525 30.806374
69.530 30.359663
69.535 30.642523
69.540 29.992146
69.545 29.916037
69.550 29.387623
69.555 29.394157
69.560 29.519306
69.565 29.334822
69.570 29.110601
69.575 28.820168
69.580 29.141426
69.585 30.078068
69.590 29.728712
69.595 29.761356
69.600 29.563805
69.605 29.875134
69.610 30.560556
69.615 30.319345
69.620 29.399828
69.625 30.185375
69.630 31.113729
69.635 31.535593
69.640 31.917982
69.645 31.748142
69.650 31.611561
69.655 31.673559
69.660 30.689873
69.665 29.918291
69.670 29.407911
69.675 28.722416
69.680 27.936607
69.685 27.869616
69.690 28.156763
69.695 28.181631
69.700 27.974558
69.705 27.969561
69.710 27.84775
69.715 28.275002
69.720 27.634777
69.725 26.79303
69.730 26.675606
69.735 27.185591
69.740 27.741528
69.745 27.477821
69.750 27.880033
69.755 28.183886
69.760 28.700859
69.765 28.623955
69.770 28.314568
69.775 27.94389
69.780 27.495218
69.785 27.310987
69.790 26.983438
69.795 26.517977
69.800 26.205202
69.805 25.817926
69.810 25.547134
69.815 25.777962
69.820 24.816322
69.825 25.045937
69.830 25.759645
69.835 26.331247
69.840 26.702288
69.845 27.248161
69.850 27.477495
69.855 27.485136
69.860 26.236654
69.865 25.421648
69.870 25.119123
69.875 25.013271
69.880 23.673645
69.885 23.195957
69.890 23.337019
69.895 23.479574
69.900 23.01634
69.905 22.576626
69.910 22.480488
69.915 22.812433
69.920 22.790794
69.925 22.945129
69.930 22.93103
69.935 23.439749
69.940 23.273252
69.945 23.282003
69.950 24.036196
69.955 24.736874
69.960 24.952719
69.965 25.480629
69.970 25.13088
69.975 24.412376
69.980 23.794085
69.985 23.344807
69.990 22.745529
69.995 22.312948
70.000 22.209
70.005 22.680355
70.010 23.244831
70.015 23.62925
70.020 23.526646
70.025 23.27264
70.030 23.558386
70.035 23.234777
70.040 22.879118
70.045 22.748501
70.050 22.874786
70.055 22.714655
70.060 22.882551
70.065 22.812143
70.070 23.160845
70.075 23.540134
70.080 23.589485
70.085 23.406654
70.090 23.152113
70.095 23.536423
70.100 23.516916
70.105 22.955456
70.110 22.530273
70.115 22.31883
70.120 22.377209
70.125 22.638647
70.130 22.639357
70.135 21.983446
70.140 22.008968
70.145 22.427229
70.150 22.688251
70.155 22.925474
70.160 22.330101
70.165 21.579853
70.170 21.575722
70.175 21.859806
70.180 21.372307
70.185 20.525618
70.190 20.659952
70.195 20.637665
70.200 20.728117
70.205 20.977041
70.210 21.245783
70.215 21.227673
70.220 21.32089
70.225 20.893248
70.230 21.532297
70.235 21.966162
70.240 21.918919
70.245 21.997957
70.250 22.618505
70.255 23.242926
70.260 23.266987
70.265 22.841127
70.270 21.936674
70.275 21.225252
70.280 20.81921
70.285 20.441853
70.290 19.812105
70.295 19.810047
70.300 19.969824
70.305 20.273245
70.310 20.083307
70.315 20.118921
70.320 20.099983
70.325 20.373564
70.330 20.369886
70.335 20.394655
70.340 20.26438
70.345 19.440836
70.350 18.674452
70.355 18.323429
70.360 18.313698
70.365 18.318378
70.370 18.625565
70.375 19.545103
70.380 20.486086
70.385 21.21447
70.390 21.551239
70.395 21.24962
70.400 20.850494
70.405 20.655474
70.410 20.663116
70.415 20.095837
70.420 19.289566
70.425 18.944904
70.430 19.852718
70.435 20.264223
70.440 20.111309
70.445 20.178822
70.450 20.961048
70.455 21.064013
70.460 21.091082
70.465 20.450462
70.470 20.670135
70.475 20.663361
70.480 19.904173
70.485 19.726509
70.490 19.76409
70.495 19.904455
70.500 19.87178
70.505 19.642658
70.510 19.183985
70.515 19.671144
70.520 19.92992
70.525 19.614388
70.530 19.448727
70.535 18.974644
70.540 18.968851
70.545 19.545296
70.550 19.277052
70.555 19.008066
70.560 18.942459
70.565 18.913664
70.570 19.343082
70.575 19.45195
70.580 18.707844
70.585 18.403564
70.590 18.703783
70.595 18.878618
70.600 18.595312
70.605 18.563293
70.610 18.542929
70.615 18.822271
70.620 18.729294
70.625 18.412685
70.630 18.408627
70.635 18.422167
70.640 18.204443
70.645 17.342131
70.650 17.07917
70.655 18.046091
70.660 18.717033
70.665 18.464083
70.670 18.800331
70.675 19.312115
70.680 20.507738
70.685 21.582039
70.690 21.746494
70.695 22.032394
70.700 22.622677
70.705 22.460794
70.710 22.392694
70.715 21.976572
70.720 21.775599
70.725 21.505508
70.730 21.104357
70.735 20.426121
70.740 20.358316
70.745 19.907682
70.750 19.620438
70.755 19.459253
70.760 19.299496
70.765 19.49921
70.770 19.844248
70.775 19.465311
70.780 19.529303
70.785 19.288378
70.790 19.123764
70.795 19.29611
70.800 19.656708
70.805 19.613272
70.810 19.738268
70.815 20.202776
70.820 20.681377
70.825 20.513332
70.830 20.653149
70.835 20.353882
70.840 19.940689
70.845 19.871395
70.850 20.144503
70.855 19.938526
70.860 19.57897
70.865 19.730753
70.870 20.121782
70.875 20.781553
70.880 20.507463
70.885 19.536146
70.890 19.917465
70.895 19.988079
70.900 19.368021
70.905 19.106556
70.910 18.92992
70.915 19.1556
70.920 19.723585
70.925 19.459864
70.930 19.293951
70.935 19.082415
70.940 18.972296
70.945 18.81669
70.950 18.778328
70.955 18.93755
70.960 18.803518
70.965 19.322477
70.970 19.838799
70.975 20.131834
70.980 19.730715
70.985 19.462036
70.990 18.58032
70.995 18.410501
71.000 17.846186
71.005 17.270735
71.010 17.79191
71.015 17.946453
71.020 17.989279
71.025 18.267282
71.030 18.685467
71.035 19.296862
71.040 19.502687
71.045 19.008068
71.050 19.138113
71.055 19.205893
71.060 19.218819
71.065 19.786777
71.070 19.943333
71.075 19.350456
71.080 19.878794
71.085 20.170811
71.090 19.869278
71.095 20.3617
71.100 19.89374
71.105 20.000183
71.110 19.934841
71.115 19.708042
71.120 19.503281
71.125 19.50263
71.130 19.376648
71.135 19.121767
71.140 19.223631
71.145 19.288778
71.150 19.096491
71.155 19.211372
71.160 18.947556
71.165 18.187891
71.170 17.966738
71.175 18.054085
71.180 18.50106
71.185 18.587654
71.190 18.697092
71.195 18.734064
71.200 19.262432
71.205 19.356665
71.210 19.184454
71.215 18.831532
71.220 18.610352
71.225 18.588127
71.230 19.114254
71.235 19.037495
71.240 18.725616
71.245 19.095526
71.250 19.094347
71.255 19.561903
71.260 19.551743
71.265 19.575426
71.270 19.033283
71.275 19.307432
71.280 19.259794
71.285 19.548407
71.290 19.81951
71.295 20.181503
71.300 20.760063
71.305 20.967772
71.310 20.984982
71.315 20.761169
71.320 20.370689
71.325 19.844893
71.330 19.170034
71.335 18.782627
71.340 18.894066
71.345 18.347307
71.350 18.344978
71.355 18.548275
71.360 18.681044
71.365 18.519968
71.370 18.336021
71.375 18.164991
71.380 18.317049
71.385 18.685471
71.390 18.068138
71.395 17.974501
71.400 18.533758
71.405 18.816076
71.410 18.931862
71.415 18.842537
71.420 18.629904
71.425 18.698202
71.430 17.880468
71.435 17.694519
71.440 17.878946
71.445 18.036417
71.450 18.613831
71.455 18.743069
71.460 19.165232
71.465 19.698797
71.470 19.216724
71.475 19.428946
71.480 19.230871
71.485 18.903088
71.490 19.117004
71.495 19.663391
71.500 20.072226
71.505 20.514393
71.510 20.119623
71.515 20.257423
71.520 20.265762
71.525 20.110506
71.530 19.721001
71.535 19.578884
71.540 19.44862
71.545 20.055548
71.550 19.594519
71.555 19.185724
71.560 19.473137
71.565 19.403095
71.570 18.930105
71.575 18.802797
71.580 18.255527
71.585 18.6
71.590 18.848049
71.595 18.602539
71.600 18.920837
71.605 18.690979
71.610 18.389318
71.615 18.74605
71.620 19.139227
71.625 19.401855
71.630 19.798878
71.635 19.385744
71.640 19.537569
71.645 19.21979
71.650 18.923124
71.655 18.579103
71.660 18.305044
71.665 18.609558
71.670 19.190722
71.675 19.623314
71.680 19.445591
71.685 19.164497
71.690 18.988344
71.695 18.651236
71.700 18.534592
71.705 18.922192
71.710 19.590822
71.715 20.247711
71.720 20.627918
71.725 20.775097
71.730 20.885782
71.735 20.680035
71.740 20.340233
71.745 19.956615
71.750 20.550854
71.755 20.840834
71.760 20.760826
71.765 20.797258
71.770 20.530334
71.775 20.609797
71.780 21.08806
71.785 20.446844
71.790 20.239719
71.795 20.611191
71.800 20.500391
71.805 20.51115
71.810 20.228682
71.815 19.644648
71.820 20.221901
71.825 20.417191
71.830 20.162769
71.835 20.261435
71.840 20.63641
71.845 20.535936
71.850 20.3633
71.855 19.872562
71.860 18.859812
71.865 18.879499
71.870 19.098717
71.875 18.741686
71.880 18.769358
71.885 18.716455
71.890 18.697493
71.895 18.617752
71.900 18.05094
71.905 17.686586
71.910 17.969906
71.915 18.231131
71.920 18.262096
71.925 18.515728
71.930 18.656635
71.935 19.116835
71.940 19.106688
71.945 18.39986
71.950 18.350235
71.955 18.543884
71.960 19.024187
71.965 19.181194
71.970 19.106747
71.975 18.65077
71.980 19.127956
71.985 18.882835
71.990 18.885153
71.995 18.965219
72.000 18.797531
72.005 18.740685
72.010 19.097208
72.015 18.561611
72.020 18.123434
72.025 17.606873
72.030 17.489304
72.035 17.607576
72.040 17.826942
72.045 17.526594
72.050 17.506701
72.055 17.92658
72.060 17.994848
72.065 17.951363
72.070 17.59157
72.075 17.454121
72.080 17.478912
72.085 18.399956
72.090 18.980511
72.095 18.674084
72.100 18.413137
72.105 18.518641
72.110 18.213997
72.115 18.532043
72.120 17.36478
72.125 17.075638
72.130 17.396168
72.135 17.570686
72.140 17.413563
72.145 17.460333
72.150 17.322662
72.155 17.636833
72.160 17.442659
72.165 17.606022
72.170 18.242409
72.175 18.344414
72.180 18.649761
72.185 18.891777
72.190 19.128519
72.195 19.951233
72.200 19.724291
72.205 19.29332
72.210 19.208393
72.215 19.649729
72.220 19.216503
72.225 18.696436
72.230 18.403885
72.235 18.341288
72.240 18.507814
72.245 18.893747
72.250 18.112885
72.255 18.31105
72.260 17.751989
72.265 17.227291
72.270 17.500408
72.275 18.021532
72.280 18.046497
72.285 18.628313
72.290 18.853214
72.295 19.254795
72.300 19.96785
72.305 20.178261
72.310 19.78389
72.315 19.412123
72.320 18.9512
72.325 19.012569
72.330 19.014771
72.335 18.204031
72.340 17.484905
72.345 17.47682
72.350 17.801794
72.355 18.504944
72.360 18.721067
72.365 18.808744
72.370 18.858376
72.375 19.127064
72.380 18.634068
72.385 17.982477
72.390 17.393909
72.395 16.92429
72.400 16.931816
72.405 17.212219
72.410 17.346272
72.415 17.48159
72.420 17.315565
72.425 17.400093
72.430 17.228931
72.435 17.409605
72.440 17.121855
72.445 16.734713
72.450 17.269148
72.455 18.053999
72.460 18.382154
72.465 18.542156
72.470 18.292904
72.475 18.854158
72.480 19.067406
72.485 19.422449
72.490 19.51737
72.495 19.248251
72.500 19.547972
72.505 19.778896
72.510 19.701626
72.515 19.524355
72.520 18.52737
72.525 18.368229
72.530 18.419155
72.535 18.435535
72.540 18.724442
72.545 18.859142
72.550 19.318789
72.555 19.364859
72.560 19.501551
72.565 19.652582
72.570 19.154133
72.575 18.773508
72.580 18.868267
72.585 18.740225
72.590 18.918591
72.595 18.560307
72.600 18.191
72.605 18.358816
72.610 17.689253
72.615 17.207701
72.620 17.336218
72.625 17.492973
72.630 17.886326
72.635 17.61142
72.640 17.343143
72.645 17.476774
72.650 17.532448
72.655 16.574856
72.660 16.704411
72.665 16.240158
72.670 16.507946
72.675 16.348623
72.680 16.205475
72.685 16.436384
72.690 17.043739
72.695 17.225117
72.700 17.407043
72.705 17.793863
72.710 18.142906
72.715 18.186953
72.720 17.910416
72.725 17.799253
72.730 17.741882
72.735 17.75189
72.740 18.213089
72.745 17.966612
72.750 17.93635
72.755 18.197939
72.760 17.925661
72.765 17.74564
72.770 16.997555
72.775 16.883226
72.780 17.304142
72.785 17.381842
72.790 17.896152
72.795 17.678701
72.800 17.738054
72.805 17.815714
72.810 17.693726
72.815 17.521942
72.820 16.958998
72.825 17.225904
72.830 18.101046
72.835 18.48674
72.840 18.486025
72.845 18.380981
72.850 17.976429
72.855 17.715855
72.860 17.232836
72.865 16.584381
72.870 16.284935
72.875 15.799295
72.880 15.92869
72.885 16.599564
72.890 16.189861
72.895 16.089291
72.900 16.277412
72.905 16.711168
72.910 16.901508
72.915 16.98514
72.920 16.915768
72.925 17.109781
72.930 16.99229
72.935 16.764082
72.940 16.788567
72.945 17.077776
72.950 17.165356
72.955 17.078913
72.960 16.95348
72.965 17.034275
72.970 17.089537
72.975 17.285608
72.980 16.776566
72.985 16.846943
72.990 17.640808
72.995 17.803581
73.000 18.134527
