!@!!GADDS PLOTSO FILE: Chi integration type
!@!!Title/SampleName: map-a3
!@!!Comment: ?
!@!!User: Bruker Instrument Administrator
!@!!Site: University of Illinois Chicago
!@!!Frame: map-a3_01_000.gfrm
!@!!Wavelengths    1.54184   1.54056   1.54439
!@!!Frame angles: 2Theta: 63.000 Omega: 50.000 Phi: 0.000 Chi: 90.000
!@!!Integration range: 2Theta: 53.000 to 73.000  Gamma: -105.000 to -75.000
!@!!Integration method: bin normalized
!@!N
!@!SS
!@!M
!@!L 0.0 0.0 0.0 0.0
!@!XDegrees
!@!YCounts
53.000 8.302844
53.005 8.175711
53.010 8.210717
53.015 7.608149
53.020 7.559768
53.025 7.842923
53.030 7.747623
53.035 7.781807
53.040 7.440531
53.045 6.856467
53.050 7.001135
53.055 7.401976
53.060 7.954983
53.065 8.218263
53.070 8.433182
53.075 8.613169
53.080 9.184085
53.085 9.372624
53.090 9.217196
53.095 9.273641
53.100 9.455491
53.105 8.945454
53.110 8.92028
53.115 9.066916
53.120 9.041491
53.125 9.22409
53.130 8.894755
53.135 8.872105
53.140 9.011165
53.145 8.700962
53.150 8.800028
53.155 9.04688
53.160 9.113476
53.165 9.214543
53.170 9.153755
53.175 9.382394
53.180 9.281385
53.185 8.876052
53.190 8.660259
53.195 8.463449
53.200 8.312056
53.205 8.092325
53.210 8.299048
53.215 8.323345
53.220 8.182234
53.225 7.659523
53.230 7.514206
53.235 8.187584
53.240 8.903973
53.245 8.694292
53.250 8.55867
53.255 8.902762
53.260 8.871234
53.265 8.845155
53.270 8.510979
53.275 7.948301
53.280 8.077804
53.285 8.059176
53.290 7.765178
53.295 8.401127
53.300 8.248731
53.305 8.076284
53.310 8.038624
53.315 7.732142
53.320 7.628477
53.325 7.847954
53.330 7.864729
53.335 8.153252
53.340 8.095014
53.345 8.381932
53.350 8.480359
53.355 8.632622
53.360 8.258727
53.365 8.073648
53.370 7.68418
53.375 7.785719
53.380 7.82637
53.385 7.838623
53.390 7.962581
53.395 8.238459
53.400 8.328401
53.405 8.249184
53.410 8.182475
53.415 8.624845
53.420 8.886126
53.425 8.902825
53.430 8.907847
53.435 9.419371
53.440 9.595582
53.445 9.616359
53.450 9.474447
53.455 9.461459
53.460 9.605131
53.465 9.515829
53.470 9.501907
53.475 9.661716
53.480 9.4899
53.485 9.306095
53.490 9.087776
53.495 9.186455
53.500 8.951795
53.505 8.892052
53.510 8.751042
53.515 8.838256
53.520 8.770006
53.525 8.551074
53.530 8.292291
53.535 8.183372
53.540 7.932065
53.545 7.965283
53.550 7.994833
53.555 8.463152
53.560 8.870806
53.565 9.034554
53.570 9.07901
53.575 9.323973
53.580 9.166521
53.585 8.995328
53.590 9.008697
53.595 9.042552
53.600 9.145083
53.605 9.718825
53.610 10.031488
53.615 10.264604
53.620 10.136714
53.625 10.112366
53.630 9.896773
53.635 9.732584
53.640 9.290394
53.645 8.877743
53.650 8.750318
53.655 8.905367
53.660 8.724536
53.665 9.158439
53.670 9.521345
53.675 9.467928
53.680 9.868208
53.685 10.016131
53.690 9.858414
53.695 9.747248
53.700 9.619737
53.705 9.613834
53.710 9.715945
53.715 9.557612
53.720 9.320232
53.725 9.203188
53.730 8.965963
53.735 8.708939
53.740 8.545285
53.745 8.67459
53.750 8.993619
53.755 9.108969
53.760 9.496017
53.765 9.922552
53.770 10.441678
53.775 10.635047
53.780 9.995432
53.785 9.878502
53.790 10.315324
53.795 10.510874
53.800 10.06869
53.805 9.224723
53.810 9.468605
53.815 9.926352
53.820 9.63341
53.825 9.563621
53.830 9.526078
53.835 9.815234
53.840 9.821815
53.845 9.483532
53.850 9.450175
53.855 9.556693
53.860 9.499402
53.865 9.340432
53.870 9.601047
53.875 9.930169
53.880 10.358666
53.885 10.000097
53.890 9.772915
53.895 9.88906
53.900 9.686363
53.905 9.335371
53.910 9.591468
53.915 9.478551
53.920 9.676549
53.925 9.940469
53.930 10.125919
53.935 10.039603
53.940 9.919009
53.945 9.50281
53.950 9.629732
53.955 9.923882
53.960 9.83398
53.965 9.706246
53.970 10.298247
53.975 10.542192
53.980 10.478157
53.985 9.972904
53.990 9.682725
53.995 9.833787
54.000 9.572845
54.005 9.27997
54.010 8.667099
54.015 8.852509
54.020 9.065007
54.025 9.107526
54.030 9.157207
54.035 9.387671
54.040 9.638282
54.045 9.930617
54.050 10.310722
54.055 10.365695
54.060 10.168905
54.065 9.562582
54.070 9.690579
54.075 9.601255
54.080 9.935612
54.085 9.94361
54.090 10.535085
54.095 10.839859
54.100 11.34032
54.105 11.746367
54.110 12.107914
54.115 12.08146
54.120 11.775889
54.125 11.521873
54.130 11.748865
54.135 11.380035
54.140 11.071643
54.145 10.683884
54.150 10.661208
54.155 10.712037
54.160 10.341158
54.165 10.147274
54.170 9.998528
54.175 10.176384
54.180 10.144917
54.185 10.069891
54.190 10.25264
54.195 10.200217
54.200 9.941038
54.205 9.98473
54.210 9.667503
54.215 9.416721
54.220 9.328017
54.225 9.225154
54.230 9.719912
54.235 10.246699
54.240 9.929644
54.245 10.010491
54.250 10.371206
54.255 10.506395
54.260 10.31454
54.265 10.085754
54.270 10.140831
54.275 11.17099
54.280 11.504407
54.285 11.195222
54.290 11.182639
54.295 11.12569
54.300 10.902382
54.305 10.215482
54.310 9.803465
54.315 9.718589
54.320 9.980824
54.325 10.126563
54.330 10.428761
54.335 10.730437
54.340 10.873249
54.345 10.892301
54.350 10.542624
54.355 10.440883
54.360 10.626583
54.365 10.446056
54.370 10.49576
54.375 10.280912
54.380 10.111779
54.385 9.996529
54.390 9.500865
54.395 9.299094
54.400 9.09031
54.405 9.337439
54.410 10.037713
54.415 10.26683
54.420 10.593948
54.425 10.993011
54.430 11.1031
54.435 10.946469
54.440 10.350198
54.445 9.733529
54.450 9.532179
54.455 9.509605
54.460 9.361135
54.465 9.010785
54.470 9.024497
54.475 9.092475
54.480 9.530614
54.485 9.744477
54.490 9.133946
54.495 9.103694
54.500 9.033227
54.505 9.31418
54.510 9.251871
54.515 8.984987
54.520 9.331326
54.525 9.727559
54.530 9.844562
54.535 10.026818
54.540 10.345264
54.545 10.288172
54.550 10.261215
54.555 10.166509
54.560 10.157935
54.565 10.275518
54.570 10.384481
54.575 10.106188
54.580 10.179495
54.585 10.069139
54.590 10.754794
54.595 11.300941
54.600 11.240165
54.605 11.673668
54.610 11.939398
54.615 12.439081
54.620 12.356334
54.625 11.186046
54.630 10.98857
54.635 10.951791
54.640 10.940206
54.645 10.608556
54.650 10.486276
54.655 10.72132
54.660 10.789276
54.665 10.660091
54.670 10.866508
54.675 10.020902
54.680 10.030421
54.685 9.988382
54.690 10.364635
54.695 10.59235
54.700 10.501108
54.705 10.501374
54.710 10.847901
54.715 10.791761
54.720 10.411105
54.725 10.383038
54.730 10.640933
54.735 10.669322
54.740 10.863772
54.745 11.301627
54.750 11.149171
54.755 10.924007
54.760 10.778424
54.765 10.718444
54.770 10.717352
54.775 10.595929
54.780 10.057508
54.785 10.32118
54.790 10.33018
54.795 10.428725
54.800 10.854604
54.805 10.687827
54.810 10.948289
54.815 11.38435
54.820 11.370109
54.825 11.325341
54.830 11.202259
54.835 11.170485
54.840 11.253279
54.845 10.983775
54.850 10.828791
54.855 11.321983
54.860 11.682853
54.865 11.405398
54.870 11.135066
54.875 11.054078
54.880 11.3189
54.885 10.994274
54.890 10.392478
54.895 10.412731
54.900 10.616633
54.905 10.710543
54.910 10.685961
54.915 10.744606
54.920 11.237985
54.925 11.048161
54.930 10.461013
54.935 10.341425
54.940 10.200497
54.945 10.154023
54.950 10.341221
54.955 10.321516
54.960 10.758627
54.965 11.039939
54.970 10.57077
54.975 10.336697
54.980 10.014696
54.985 9.859222
54.990 9.79935
54.995 9.843324
55.000 10.126424
55.005 10.704574
55.010 10.9506
55.015 10.680178
55.020 10.412999
55.025 10.758333
55.030 10.190721
55.035 10.0089
55.040 9.974543
55.045 10.233483
55.050 10.415511
55.055 10.306947
55.060 10.160351
55.065 10.225775
55.070 10.110201
55.075 10.661442
55.080 10.780747
55.085 10.897366
55.090 10.849114
55.095 10.80601
55.100 10.886762
55.105 11.130964
55.110 10.696459
55.115 10.475626
55.120 10.514976
55.125 10.386795
55.130 10.383918
55.135 10.769906
55.140 10.566322
55.145 10.293817
55.150 10.149034
55.155 10.102041
55.160 10.565152
55.165 10.367471
55.170 9.876501
55.175 9.778769
55.180 10.0698
55.185 10.739323
55.190 10.633731
55.195 10.204777
55.200 10.019219
55.205 10.266328
55.210 10.592298
55.215 10.735736
55.220 9.809489
55.225 9.674568
55.230 9.766083
55.235 10.205503
55.240 10.250722
55.245 9.936178
55.250 10.136844
55.255 10.727959
55.260 10.945034
55.265 11.22979
55.270 10.870861
55.275 10.936379
55.280 11.364778
55.285 11.092198
55.290 10.774488
55.295 10.888556
55.300 10.790842
55.305 11.044288
55.310 10.913264
55.315 10.515248
55.320 10.725053
55.325 11.170792
55.330 11.176464
55.335 11.188585
55.340 11.041699
55.345 10.750534
55.350 10.654769
55.355 10.668909
55.360 10.18694
55.365 9.87814
55.370 10.019942
55.375 9.876979
55.380 10.067206
55.385 10.011596
55.390 10.071665
55.395 10.344575
55.400 10.360617
55.405 10.514503
55.410 10.884655
55.415 11.234578
55.420 11.224447
55.425 11.482351
55.430 11.772406
55.435 11.666744
55.440 11.542365
55.445 11.147646
55.450 10.556943
55.455 10.287643
55.460 9.680258
55.465 9.213991
55.470 9.214021
55.475 9.130949
55.480 9.335638
55.485 9.855297
55.490 9.993999
55.495 10.683271
55.500 10.688522
55.505 10.586436
55.510 10.455787
55.515 10.552439
55.520 10.727935
55.525 10.338722
55.530 10.036623
55.535 10.617548
55.540 11.029098
55.545 11.605726
55.550 11.911227
55.555 12.09552
55.560 12.446544
55.565 12.426044
55.570 11.877481
55.575 11.534956
55.580 10.989461
55.585 10.638544
55.590 10.2475
55.595 10.418283
55.600 10.791341
55.605 11.45183
55.610 11.662963
55.615 11.825001
55.620 11.575733
55.625 11.673626
55.630 11.554068
55.635 11.099565
55.640 10.786851
55.645 11.029333
55.650 11.149514
55.655 11.339861
55.660 11.248411
55.665 10.850304
55.670 11.045583
55.675 11.223085
55.680 11.177862
55.685 11.742515
55.690 11.92582
55.695 12.036774
55.700 12.479122
55.705 11.936146
55.710 11.767561
55.715 11.386449
55.720 10.810033
55.725 10.594341
55.730 10.637466
55.735 11.006469
55.740 11.264701
55.745 11.21175
55.750 11.175912
55.755 11.679092
55.760 11.897608
55.765 11.747584
55.770 11.497611
55.775 11.594064
55.780 11.847301
55.785 12.152644
55.790 11.986737
55.795 11.944206
55.800 11.745488
55.805 12.000399
55.810 11.945323
55.815 11.65242
55.820 11.737838
55.825 11.744665
55.830 11.840714
55.835 11.901525
55.840 11.964994
55.845 12.141876
55.850 12.339432
55.855 11.783644
55.860 11.75003
55.865 11.539534
55.870 11.727232
55.875 11.628364
55.880 11.704859
55.885 12.010613
55.890 12.423362
55.895 12.247965
55.900 12.722411
55.905 12.796428
55.910 12.806742
55.915 12.189401
55.920 11.695695
55.925 11.86701
55.930 11.631028
55.935 11.430242
55.940 11.126298
55.945 12.10634
55.950 12.405785
55.955 12.102246
55.960 11.708838
55.965 11.585965
55.970 11.333375
55.975 10.815226
55.980 10.072786
55.985 10.586816
55.990 10.988302
55.995 11.192979
56.000 11.085012
56.005 11.431157
56.010 11.601847
56.015 11.961488
56.020 11.612716
56.025 11.906845
56.030 12.375851
56.035 12.80885
56.040 12.611117
56.045 12.713375
56.050 12.675179
56.055 12.240813
56.060 11.678737
56.065 11.367369
56.070 10.752859
56.075 10.494346
56.080 9.705922
56.085 9.300474
56.090 9.348047
56.095 9.492773
56.100 9.836547
56.105 10.214063
56.110 10.82364
56.115 11.81843
56.120 12.425234
56.125 12.831659
56.130 13.364632
56.135 13.425714
56.140 13.675039
56.145 13.311783
56.150 12.801194
56.155 12.770347
56.160 12.473152
56.165 12.302916
56.170 12.348635
56.175 12.194757
56.180 11.953383
56.185 11.669355
56.190 11.560785
56.195 11.270385
56.200 11.165431
56.205 11.24646
56.210 11.46386
56.215 12.152308
56.220 12.243225
56.225 12.346545
56.230 12.660043
56.235 12.870888
56.240 12.567856
56.245 12.443441
56.250 12.252766
56.255 12.368546
56.260 12.423922
56.265 12.428741
56.270 12.357462
56.275 12.645777
56.280 13.013357
56.285 13.046762
56.290 12.961086
56.295 13.6092
56.300 13.622874
56.305 13.979868
56.310 13.796535
56.315 13.548611
56.320 13.25865
56.325 12.612857
56.330 11.472704
56.335 11.362419
56.340 11.25038
56.345 10.907842
56.350 11.011417
56.355 11.581456
56.360 11.986568
56.365 12.496208
56.370 12.460752
56.375 12.728582
56.380 12.944984
56.385 12.770178
56.390 12.789089
56.395 12.737788
56.400 12.805161
56.405 12.821803
56.410 12.77735
56.415 12.368697
56.420 12.475891
56.425 12.436041
56.430 12.128946
56.435 11.852412
56.440 11.599568
56.445 11.616146
56.450 11.603643
56.455 11.619432
56.460 11.655746
56.465 11.738956
56.470 12.092068
56.475 11.550105
56.480 11.837235
56.485 12.052573
56.490 11.738475
56.495 11.759068
56.500 11.889604
56.505 12.02032
56.510 12.395406
56.515 12.338252
56.520 12.711062
56.525 13.136083
56.530 13.497993
56.535 13.488033
56.540 13.199373
56.545 12.63463
56.550 12.611646
56.555 12.488807
56.560 11.934739
56.565 12.024213
56.570 12.224792
56.575 12.727857
56.580 13.19444
56.585 12.739115
56.590 12.931067
56.595 13.529258
56.600 13.477131
56.605 13.330774
56.610 12.974881
56.615 13.085183
56.620 13.700955
56.625 13.651427
56.630 13.127926
56.635 13.013853
56.640 13.008413
56.645 12.998825
56.650 12.885437
56.655 12.769538
56.660 12.589899
56.665 12.797072
56.670 12.761406
56.675 12.588131
56.680 12.992672
56.685 12.828305
56.690 12.487131
56.695 12.402736
56.700 12.16318
56.705 12.271155
56.710 12.612706
56.715 12.241808
56.720 12.30376
56.725 12.608541
56.730 12.443427
56.735 12.602339
56.740 12.236678
56.745 11.851476
56.750 12.113027
56.755 12.087816
56.760 12.326465
56.765 13.155452
56.770 13.168987
56.775 13.469718
56.780 13.876876
56.785 14.187697
56.790 14.53229
56.795 14.547919
56.800 14.007106
56.805 14.399098
56.810 14.695342
56.815 14.505403
56.820 13.797736
56.825 13.482512
56.830 13.781807
56.835 14.374709
56.840 13.884337
56.845 13.833638
56.850 14.259889
56.855 14.523111
56.860 14.106859
56.865 13.561543
56.870 13.165484
56.875 13.717127
56.880 14.068268
56.885 13.89978
56.890 14.231238
56.895 14.327469
56.900 14.09095
56.905 14.232479
56.910 13.721202
56.915 13.328792
56.920 13.223128
56.925 13.105162
56.930 13.165217
56.935 13.351834
56.940 13.297431
56.945 13.056847
56.950 13.022037
56.955 13.076563
56.960 12.982821
56.965 12.917766
56.970 12.429315
56.975 12.558125
56.980 12.478601
56.985 12.073702
56.990 11.798345
56.995 11.957785
57.000 12.519724
57.005 13.414142
57.010 13.199489
57.015 13.63756
57.020 14.232471
57.025 14.393321
57.030 14.34946
57.035 14.074533
57.040 13.499645
57.045 13.437025
57.050 13.254475
57.055 13.405106
57.060 13.228977
57.065 13.007037
57.070 12.942782
57.075 13.76295
57.080 13.382971
57.085 12.891606
57.090 12.486119
57.095 12.492305
57.100 13.225097
57.105 13.092102
57.110 12.415959
57.115 13.338364
57.120 13.781169
57.125 14.142144
57.130 14.080292
57.135 13.488115
57.140 13.496288
57.145 13.644134
57.150 13.102154
57.155 12.988615
57.160 12.594422
57.165 13.039847
57.170 13.025776
57.175 13.658794
57.180 13.902073
57.185 13.452422
57.190 13.260197
57.195 13.580322
57.200 13.477433
57.205 13.397022
57.210 13.339287
57.215 13.762236
57.220 14.261683
57.225 14.463957
57.230 14.310342
57.235 13.721151
57.240 13.668757
57.245 13.58398
57.250 13.358868
57.255 13.535167
57.260 13.470908
57.265 13.883824
57.270 14.306462
57.275 14.612184
57.280 14.756152
57.285 14.459585
57.290 14.461684
57.295 14.536763
57.300 14.200301
57.305 14.6421
57.310 14.565384
57.315 14.068234
57.320 13.892459
57.325 13.546922
57.330 13.499911
57.335 13.578343
57.340 13.370141
57.345 12.997758
57.350 13.51612
57.355 13.659666
57.360 13.778268
57.365 13.75029
57.370 14.088945
57.375 13.690784
57.380 13.478488
57.385 13.149687
57.390 13.324392
57.395 13.360269
57.400 12.931232
57.405 12.264438
57.410 12.418591
57.415 12.391161
57.420 12.597338
57.425 12.533975
57.430 12.614558
57.435 13.284939
57.440 13.59199
57.445 13.675371
57.450 13.993723
57.455 14.044276
57.460 14.328332
57.465 14.557548
57.470 13.930421
57.475 13.996232
57.480 14.046421
57.485 14.158278
57.490 14.017307
57.495 13.937666
57.500 14.224456
57.505 14.387158
57.510 14.014998
57.515 13.47808
57.520 12.887009
57.525 12.924232
57.530 13.008485
57.535 13.454576
57.540 13.809747
57.545 14.176385
57.550 14.972564
57.555 14.899734
57.560 15.007942
57.565 15.105014
57.570 14.569445
57.575 14.509341
57.580 14.692314
57.585 14.438932
57.590 14.612988
57.595 14.304756
57.600 14.270091
57.605 13.90592
57.610 13.674261
57.615 13.098411
57.620 12.976108
57.625 13.194069
57.630 13.453009
57.635 13.483075
57.640 13.627702
57.645 13.612836
57.650 13.813824
57.655 14.013994
57.660 13.420296
57.665 12.347706
57.670 12.302629
57.675 12.319747
57.680 12.208184
57.685 12.259929
57.690 12.653869
57.695 12.68971
57.700 12.891706
57.705 12.688439
57.710 12.765641
57.715 13.070741
57.720 13.254564
57.725 13.250077
57.730 14.636993
57.735 15.526754
57.740 15.416933
57.745 14.944048
57.750 14.662395
57.755 14.673437
57.760 14.090763
57.765 13.470634
57.770 13.046942
57.775 13.581373
57.780 14.270376
57.785 14.133604
57.790 14.211493
57.795 14.256615
57.800 14.087371
57.805 13.570889
57.810 13.100142
57.815 12.967976
57.820 13.107432
57.825 12.707908
57.830 13.274479
57.835 13.749285
57.840 14.235145
57.845 14.298894
57.850 14.462513
57.855 14.789188
57.860 14.666609
57.865 14.133785
57.870 13.957854
57.875 13.948269
57.880 13.75979
57.885 13.100448
57.890 13.030707
57.895 13.397034
57.900 13.162937
57.905 13.624872
57.910 13.642486
57.915 14.444857
57.920 15.08497
57.925 15.200068
57.930 15.477956
57.935 15.488008
57.940 14.921556
57.945 15.106801
57.950 14.709247
57.955 14.038934
57.960 13.833936
57.965 13.240799
57.970 12.849323
57.975 12.778264
57.980 12.773422
57.985 12.896531
57.990 13.281373
57.995 13.731612
58.000 14.619652
58.005 15.628632
58.010 15.848022
58.015 15.543151
58.020 15.424843
58.025 15.285542
58.030 14.690675
58.035 13.949512
58.040 13.533731
58.045 13.562676
58.050 14.141166
58.055 14.155008
58.060 14.295238
58.065 14.772738
58.070 15.027725
58.075 14.522446
58.080 14.457361
58.085 14.197192
58.090 13.864848
58.095 13.479965
58.100 13.097099
58.105 13.562313
58.110 14.688115
58.115 14.416505
58.120 14.633532
58.125 15.115068
58.130 15.492271
58.135 15.460435
58.140 15.095957
58.145 14.790116
58.150 14.814862
58.155 14.872624
58.160 14.547081
58.165 15.05011
58.170 15.015239
58.175 15.033853
58.180 14.956079
58.185 15.015392
58.190 14.381143
58.195 13.929892
58.200 13.490692
58.205 13.668831
58.210 13.477077
58.215 13.500512
58.220 13.657949
58.225 14.38218
58.230 14.781391
58.235 14.857585
58.240 14.5195
58.245 14.418752
58.250 14.318582
58.255 14.230994
58.260 14.018716
58.265 14.09598
58.270 14.222869
58.275 14.485792
58.280 14.561204
58.285 14.307586
58.290 14.086325
58.295 14.33123
58.300 14.54024
58.305 15.227397
58.310 15.366464
58.315 15.339502
58.320 15.778069
58.325 16.196814
58.330 15.999802
58.335 15.861384
58.340 15.155903
58.345 14.968452
58.350 14.990376
58.355 14.78044
58.360 15.000352
58.365 15.220585
58.370 15.154818
58.375 15.539261
58.380 15.510403
58.385 15.60967
58.390 15.91103
58.395 15.897667
58.400 16.112389
58.405 16.300087
58.410 16.616632
58.415 16.861494
58.420 16.856625
58.425 16.749939
58.430 16.353989
58.435 15.98085
58.440 15.113301
58.445 14.328649
58.450 14.126069
58.455 13.958002
58.460 14.235506
58.465 14.457876
58.470 14.84969
58.475 15.359636
58.480 15.831819
58.485 15.775491
58.490 15.972117
58.495 15.520201
58.500 15.80579
58.505 15.819152
58.510 15.488245
58.515 15.383693
58.520 15.693728
58.525 15.727931
58.530 16.006985
58.535 15.645539
58.540 15.497119
58.545 15.615154
58.550 15.443672
58.555 15.170638
58.560 15.255424
58.565 14.708288
58.570 14.387093
58.575 14.25512
58.580 14.272879
58.585 14.511977
58.590 14.466998
58.595 14.647149
58.600 14.997753
58.605 15.488106
58.610 15.951488
58.615 16.3127
58.620 16.61586
58.625 16.997915
58.630 16.882824
58.635 17.440405
58.640 17.310768
58.645 16.977518
58.650 16.034784
58.655 15.328553
58.660 15.075671
58.665 14.818389
58.670 14.387329
58.675 14.039449
58.680 14.263784
58.685 14.756604
58.690 14.755565
58.695 14.812998
58.700 14.452029
58.705 14.393259
58.710 15.084148
58.715 15.491853
58.720 15.835109
58.725 15.752553
58.730 15.377678
58.735 15.386151
58.740 15.118316
58.745 15.214995
58.750 14.851368
58.755 14.766333
58.760 15.175417
58.765 15.364247
58.770 15.464999
58.775 15.576202
58.780 15.401219
58.785 14.973043
58.790 14.877543
58.795 14.766737
58.800 14.782276
58.805 15.148732
58.810 15.2253
58.815 14.978269
58.820 15.196862
58.825 15.702017
58.830 15.722888
58.835 15.587932
58.840 15.768771
58.845 15.141611
58.850 15.28868
58.855 15.321812
58.860 15.153673
58.865 15.447481
58.870 15.391323
58.875 14.788008
58.880 14.774372
58.885 14.725784
58.890 14.827765
58.895 14.240602
58.900 13.875294
58.905 13.943568
58.910 14.072354
58.915 14.3293
58.920 14.324318
58.925 14.066857
58.930 13.855309
58.935 13.587647
58.940 13.914411
58.945 14.378744
58.950 14.658147
58.955 15.01437
58.960 15.125677
58.965 15.440028
58.970 15.749863
58.975 15.892148
58.980 15.217869
58.985 14.586906
58.990 14.210528
58.995 14.230051
59.000 14.413282
59.005 14.635938
59.010 14.964875
59.015 15.99099
59.020 16.642504
59.025 17.15081
59.030 17.482906
59.035 17.395134
59.040 17.129692
59.045 16.466736
59.050 16.191431
59.055 16.069555
59.060 15.855589
59.065 15.598654
59.070 15.525984
59.075 15.364762
59.080 15.377492
59.085 14.931016
59.090 14.661634
59.095 14.046002
59.100 14.025606
59.105 14.086674
59.110 14.322365
59.115 14.297935
59.120 14.235282
59.125 14.582494
59.130 15.171148
59.135 15.418406
59.140 15.626368
59.145 15.866108
59.150 16.146093
59.155 16.311024
59.160 16.058929
59.165 15.922051
59.170 16.146519
59.175 15.739522
59.180 15.813725
59.185 15.727471
59.190 15.646012
59.195 15.831154
59.200 15.649158
59.205 15.358683
59.210 15.659473
59.215 15.471347
59.220 15.930084
59.225 16.192657
59.230 15.848039
59.235 15.797591
59.240 16.377789
59.245 16.40917
59.250 15.872621
59.255 15.419288
59.260 15.364129
59.265 15.657062
59.270 15.348679
59.275 15.35239
59.280 14.935215
59.285 15.538644
59.290 15.775731
59.295 16.244909
59.300 16.31662
59.305 16.074961
59.310 15.588027
59.315 15.731434
59.320 15.76033
59.325 15.409141
59.330 15.365388
59.335 16.039209
59.340 16.618547
59.345 16.928183
59.350 17.103233
59.355 17.211937
59.360 17.385355
59.365 17.260994
59.370 16.775986
59.375 16.613132
59.380 16.704626
59.385 16.474577
59.390 16.752901
59.395 16.576078
59.400 16.430435
59.405 16.570883
59.410 16.496899
59.415 16.594263
59.420 16.708221
59.425 16.700159
59.430 17.045063
59.435 17.178568
59.440 16.949738
59.445 16.962082
59.450 17.455006
59.455 17.492331
59.460 17.300312
59.465 17.214752
59.470 17.499836
59.475 17.87203
59.480 18.088896
59.485 17.902174
59.490 18.348318
59.495 18.107252
59.500 17.225193
59.505 16.680569
59.510 16.548878
59.515 15.922007
59.520 15.534759
59.525 14.682034
59.530 15.03496
59.535 15.361693
59.540 15.37314
59.545 15.295237
59.550 16.020184
59.555 16.024269
59.560 15.984251
59.565 15.451509
59.570 15.253173
59.575 15.223099
59.580 15.319817
59.585 15.07467
59.590 15.479357
59.595 16.053986
59.600 16.882528
59.605 17.446707
59.610 18.018942
59.615 17.820093
59.620 17.565632
59.625 17.790012
59.630 17.848949
59.635 17.327972
59.640 17.405628
59.645 17.329298
59.650 17.062565
59.655 16.5035
59.660 16.141356
59.665 16.474701
59.670 16.516844
59.675 16.57007
59.680 16.931633
59.685 17.44895
59.690 18.247456
59.695 18.11026
59.700 18.371073
59.705 18.489813
59.710 18.427513
59.715 17.96051
59.720 17.925064
59.725 17.680729
59.730 18.013718
59.735 17.623083
59.740 18.060598
59.745 18.032795
59.750 18.359917
59.755 18.69577
59.760 18.540045
59.765 18.775818
59.770 18.816408
59.775 18.79236
59.780 19.170692
59.785 19.501766
59.790 19.823978
59.795 19.757164
59.800 18.724119
59.805 18.681396
59.810 18.773664
59.815 18.841259
59.820 18.74382
59.825 18.589226
59.830 18.790258
59.835 19.499691
59.840 19.295361
59.845 19.290279
59.850 18.607601
59.855 18.250971
59.860 18.38521
59.865 18.609438
59.870 18.486555
59.875 18.989126
59.880 18.518139
59.885 18.893858
59.890 19.633493
59.895 20.110842
59.900 20.474277
59.905 20.47644
59.910 19.859909
59.915 20.085873
59.920 20.23834
59.925 19.626415
59.930 18.871689
59.935 18.920725
59.940 18.935545
59.945 18.829062
59.950 19.086456
59.955 18.860943
59.960 18.970882
59.965 18.537497
59.970 18.107302
59.975 18.303074
59.980 19.407696
59.985 19.508232
59.990 19.858229
59.995 19.889051
60.000 20.502552
60.005 20.570433
60.010 20.502537
60.015 20.088226
60.020 19.926319
60.025 20.157722
60.030 20.461084
60.035 20.332115
60.040 20.652588
60.045 21.397877
60.050 22.052744
60.055 21.966679
60.060 21.37174
60.065 21.478355
60.070 20.906839
60.075 20.813894
60.080 19.851852
60.085 19.192675
60.090 19.248943
60.095 19.5243
60.100 19.650763
60.105 20.49518
60.110 20.657341
60.115 21.000511
60.120 20.525536
60.125 20.489714
60.130 19.824043
60.135 20.479052
60.140 20.67333
60.145 20.949669
60.150 21.291206
60.155 21.720945
60.160 21.750687
60.165 21.884001
60.170 21.886145
60.175 21.99683
60.180 21.417456
60.185 21.2981
60.190 21.36278
60.195 21.539722
60.200 21.65258
60.205 20.914192
60.210 20.336838
60.215 20.823709
60.220 20.889315
60.225 21.076664
60.230 21.213249
60.235 21.951937
60.240 22.449741
60.245 23.026674
60.250 22.721258
60.255 22.617283
60.260 22.582109
60.265 22.911221
60.270 22.584457
60.275 22.112434
60.280 21.975054
60.285 22.083031
60.290 22.123123
60.295 22.000942
60.300 21.201956
60.305 21.081175
60.310 21.008619
60.315 21.099388
60.320 21.396847
60.325 20.954288
60.330 21.569002
60.335 22.047571
60.340 21.913855
60.345 22.583473
60.350 22.44574
60.355 22.145491
60.360 21.926548
60.365 21.782764
60.370 21.391352
60.375 21.183861
60.380 20.784185
60.385 21.017172
60.390 20.599773
60.395 20.55308
60.400 20.348957
60.405 20.405315
60.410 20.591919
60.415 20.255547
60.420 19.923609
60.425 19.978886
60.430 19.884218
60.435 19.626902
60.440 19.862625
60.445 19.900808
60.450 20.345129
60.455 20.906673
60.460 21.184589
60.465 21.060236
60.470 21.622103
60.475 21.928019
60.480 21.856577
60.485 21.363262
60.490 21.07266
60.495 21.31142
60.500 21.192823
60.505 20.937801
60.510 20.462627
60.515 20.228514
60.520 19.838455
60.525 19.27223
60.530 18.939478
60.535 18.512907
60.540 17.935057
60.545 17.861298
60.550 17.860462
60.555 17.919193
60.560 17.8955
60.565 18.341846
60.570 19.203978
60.575 19.624468
60.580 19.325712
60.585 19.528919
60.590 20.176399
60.595 20.587858
60.600 20.234369
60.605 19.999693
60.610 20.09017
60.615 20.754265
60.620 20.031286
60.625 19.939253
60.630 19.824522
60.635 19.67868
60.640 19.69512
60.645 19.561485
60.650 18.775066
60.655 19.11104
60.660 18.927422
60.665 18.928894
60.670 18.925148
60.675 18.115566
60.680 17.49325
60.685 17.696831
60.690 17.95266
60.695 17.847212
60.700 17.737001
60.705 17.700539
60.710 18.206745
60.715 18.976315
60.720 18.736763
60.725 18.315125
60.730 18.169416
60.735 18.534649
60.740 19.280823
60.745 19.035839
60.750 18.774263
60.755 19.16798
60.760 19.608248
60.765 20.423168
60.770 20.323875
60.775 19.62978
60.780 18.94985
60.785 18.750786
60.790 18.969793
60.795 18.575184
60.800 18.132526
60.805 18.183577
60.810 18.515705
60.815 19.258959
60.820 19.383806
60.825 19.651096
60.830 19.651243
60.835 19.924038
60.840 19.826353
60.845 19.461576
60.850 19.757505
60.855 19.701418
60.860 18.809542
60.865 17.771858
60.870 16.61129
60.875 16.27557
60.880 16.659025
60.885 15.694746
60.890 14.896025
60.895 15.108273
60.900 16.008471
60.905 17.035078
60.910 17.420845
60.915 17.21694
60.920 17.905058
60.925 18.364151
60.930 19.036415
60.935 19.013767
60.940 18.415945
60.945 18.38986
60.950 18.287066
60.955 18.224655
60.960 18.228018
60.965 17.658138
60.970 17.63788
60.975 17.238016
60.980 16.913282
60.985 16.966507
60.990 17.204857
60.995 17.093971
61.000 16.680868
61.005 16.373835
61.010 16.631107
61.015 16.393145
61.020 16.010063
61.025 15.713998
61.030 15.944002
61.035 16.395243
61.040 16.568207
61.045 16.805014
61.050 17.169086
61.055 17.022345
61.060 16.696718
61.065 16.830379
61.070 16.9139
61.075 16.549309
61.080 16.027809
61.085 16.160992
61.090 16.31637
61.095 16.527529
61.100 16.012188
61.105 15.65923
61.110 15.916519
61.115 15.766569
61.120 15.639684
61.125 16.064682
61.130 16.540831
61.135 17.19173
61.140 17.939562
61.145 18.390987
61.150 18.900623
61.155 18.633701
61.160 18.628366
61.165 18.767208
61.170 18.740601
61.175 18.401203
61.180 17.793636
61.185 17.636324
61.190 17.746895
61.195 17.419331
61.200 17.170635
61.205 16.606485
61.210 16.539284
61.215 16.90489
61.220 16.7614
61.225 16.899689
61.230 17.368172
61.235 17.224291
61.240 17.219145
61.245 17.101187
61.250 16.886127
61.255 17.134705
61.260 17.077288
61.265 17.093119
61.270 17.171576
61.275 17.013945
61.280 16.749805
61.285 17.044722
61.290 16.958149
61.295 16.993145
61.300 16.684111
61.305 16.590668
61.310 16.689072
61.315 16.71093
61.320 16.564953
61.325 16.254887
61.330 16.254648
61.335 15.458639
61.340 15.575798
61.345 16.0781
61.350 16.75346
61.355 17.220207
61.360 17.298916
61.365 16.990702
61.370 17.803118
61.375 18.297419
61.380 18.516027
61.385 18.385822
61.390 18.381292
61.395 18.321445
61.400 18.2393
61.405 17.441488
61.410 16.783615
61.415 16.279236
61.420 16.17556
61.425 15.516456
61.430 15.903112
61.435 16.303307
61.440 16.622503
61.445 17.219072
61.450 17.516823
61.455 17.130377
61.460 17.432428
61.465 16.938581
61.470 17.292105
61.475 17.922695
61.480 17.52001
61.485 17.141043
61.490 17.456007
61.495 17.707041
61.500 18.301571
61.505 18.127939
61.510 17.881088
61.515 17.99317
61.520 17.927713
61.525 17.519159
61.530 17.00354
61.535 16.996122
61.540 16.69145
61.545 16.507929
61.550 17.000771
61.555 17.349098
61.560 17.820499
61.565 18.278561
61.570 18.098705
61.575 18.677059
61.580 18.375334
61.585 17.686687
61.590 17.334057
61.595 16.674406
61.600 16.714462
61.605 16.511326
61.610 16.51087
61.615 16.58025
61.620 16.829927
61.625 17.077988
61.630 17.402849
61.635 17.02006
61.640 16.848698
61.645 16.815699
61.650 16.53121
61.655 16.193094
61.660 16.420534
61.665 16.767729
61.670 17.114511
61.675 17.456612
61.680 17.166609
61.685 17.322445
61.690 17.596403
61.695 17.486063
61.700 17.005667
61.705 16.373034
61.710 16.236565
61.715 15.743115
61.720 15.459094
61.725 14.923499
61.730 14.496068
61.735 14.902887
61.740 14.739514
61.745 15.110137
61.750 16.045935
61.755 16.050949
61.760 15.772874
61.765 15.824412
61.770 15.435776
61.775 15.784784
61.780 15.028151
61.785 14.075223
61.790 14.377514
61.795 14.791392
61.800 14.589087
61.805 14.718923
61.810 14.817827
61.815 15.505839
61.820 15.889494
61.825 16.137005
61.830 16.164116
61.835 16.565569
61.840 16.932316
61.845 16.97983
61.850 16.89896
61.855 16.537548
61.860 16.055859
61.865 16.719896
61.870 17.166327
61.875 17.422941
61.880 17.165953
61.885 17.192204
61.890 17.744022
61.895 18.032528
61.900 17.711061
61.905 16.70726
61.910 16.363682
61.915 16.185225
61.920 16.497801
61.925 16.359497
61.930 16.222054
61.935 16.529083
61.940 16.882771
61.945 16.886158
61.950 17.062853
61.955 16.59078
61.960 16.618473
61.965 17.18502
61.970 17.067373
61.975 17.360405
61.980 17.780996
61.985 17.690796
61.990 18.045959
61.995 18.419825
62.000 17.575077
62.005 17.212658
62.010 17.054441
62.015 16.518017
62.020 16.370255
62.025 16.178398
62.030 15.872334
62.035 16.078325
62.040 16.593927
62.045 16.736477
62.050 17.161476
62.055 17.266596
62.060 16.888643
62.065 16.697767
62.070 16.838934
62.075 16.702658
62.080 16.531809
62.085 16.234417
62.090 16.242058
62.095 16.570704
62.100 16.952097
62.105 17.348742
62.110 17.552971
62.115 17.600569
62.120 17.60932
62.125 17.613632
62.130 17.776394
62.135 18.035406
62.140 18.102402
62.145 18.141474
62.150 18.494194
62.155 18.32604
62.160 18.544502
62.165 19.054707
62.170 19.013163
62.175 18.888739
62.180 19.283897
62.185 19.424206
62.190 19.880054
62.195 19.449806
62.200 18.827616
62.205 18.458925
62.210 18.723478
62.215 18.334671
62.220 17.977755
62.225 17.642895
62.230 17.686371
62.235 17.124882
62.240 16.483143
62.245 15.710684
62.250 15.360783
62.255 15.30926
62.260 15.452905
62.265 15.607802
62.270 16.425476
62.275 16.999981
62.280 16.315868
62.285 15.968844
62.290 15.893185
62.295 15.822017
62.300 15.631231
62.305 15.295858
62.310 14.966238
62.315 15.502443
62.320 15.365345
62.325 14.955685
62.330 15.507786
62.335 15.721995
62.340 15.355178
62.345 15.353975
62.350 15.565348
62.355 16.196655
62.360 16.697086
62.365 16.183933
62.370 16.231606
62.375 16.299049
62.380 16.139219
62.385 16.275076
62.390 15.954326
62.395 15.832638
62.400 15.995237
62.405 15.879814
62.410 16.573664
62.415 17.426855
62.420 17.122881
62.425 17.694704
62.430 18.66678
62.435 18.9417
62.440 18.651068
62.445 19.525755
62.450 19.820539
62.455 19.858646
62.460 19.497631
62.465 19.001957
62.470 19.034119
62.475 19.298393
62.480 18.194241
62.485 17.384403
62.490 17.312414
62.495 17.473269
62.500 17.161903
62.505 17.232233
62.510 17.715046
62.515 17.645456
62.520 17.254402
62.525 16.482569
62.530 15.895314
62.535 15.642637
62.540 15.146811
62.545 14.59311
62.550 14.248021
62.555 14.830254
62.560 15.694244
62.565 15.845862
62.570 15.711888
62.575 15.807866
62.580 16.178217
62.585 16.292368
62.590 16.468571
62.595 16.079062
62.600 16.083214
62.605 16.834839
62.610 16.696884
62.615 16.388718
62.620 16.465656
62.625 16.482004
62.630 16.696762
62.635 16.994915
62.640 17.210957
62.645 17.438087
62.650 17.853271
62.655 17.525114
62.660 16.858814
62.665 16.54071
62.670 16.410122
62.675 16.718592
62.680 16.6283
62.685 16.304749
62.690 16.76889
62.695 16.930674
62.700 16.681866
62.705 16.344408
62.710 15.680539
62.715 15.170097
62.720 15.109422
62.725 14.844194
62.730 15.312224
62.735 16.202034
62.740 15.924971
62.745 15.970735
62.750 16.597151
62.755 16.898264
62.760 17.424561
62.765 17.35644
62.770 16.933447
62.775 17.215122
62.780 17.054525
62.785 16.580801
62.790 15.760803
62.795 15.988504
62.800 16.563805
62.805 16.571625
62.810 16.442114
62.815 16.243879
62.820 16.482187
62.825 16.787621
62.830 16.112946
62.835 15.380239
62.840 15.656734
62.845 15.88636
62.850 16.124084
62.855 16.538296
62.860 17.278687
62.865 17.774307
62.870 18.110409
62.875 17.655945
62.880 17.629072
62.885 17.416479
62.890 17.395147
62.895 16.873873
62.900 17.130716
62.905 16.574751
62.910 16.524736
62.915 16.380558
62.920 16.52054
62.925 16.52574
62.930 16.29402
62.935 16.352232
62.940 16.479872
62.945 16.669468
62.950 16.803699
62.955 16.470922
62.960 16.222486
62.965 16.447344
62.970 16.979288
62.975 17.446672
62.980 17.276527
62.985 16.806494
62.990 16.827444
62.995 16.99987
63.000 17.031393
63.005 16.5865
63.010 16.468216
63.015 16.547979
63.020 17.155582
63.025 17.339067
63.030 17.170658
63.035 16.657595
63.040 16.207678
63.045 16.407969
63.050 16.339056
63.055 16.216204
63.060 16.556164
63.065 17.091433
63.070 17.43906
63.075 17.280451
63.080 17.25111
63.085 16.985174
63.090 16.677738
63.095 16.484148
63.100 16.48241
63.105 16.478273
63.110 16.199274
63.115 16.001064
63.120 16.072445
63.125 15.760319
63.130 15.264275
63.135 14.770712
63.140 14.878531
63.145 15.048263
63.150 14.830431
63.155 15.375845
63.160 15.724993
63.165 15.956185
63.170 16.012789
63.175 15.91484
63.180 16.346994
63.185 16.583912
63.190 16.677126
63.195 17.118227
63.200 17.739574
63.205 17.642769
63.210 17.334946
63.215 17.228682
63.220 17.4669
63.225 17.358273
63.230 17.454477
63.235 17.252035
63.240 17.8475
63.245 17.946941
63.250 17.334267
63.255 16.934425
63.260 16.700247
63.265 16.277424
63.270 15.662704
63.275 15.649627
63.280 16.467922
63.285 17.176765
63.290 17.493031
63.295 17.460049
63.300 17.466061
63.305 18.050968
63.310 18.491167
63.315 18.767555
63.320 18.641794
63.325 18.75325
63.330 19.448874
63.335 19.467005
63.340 18.869488
63.345 17.956694
63.350 17.28171
63.355 17.692024
63.360 17.664612
63.365 16.953625
63.370 16.914783
63.375 17.404476
63.380 17.579681
63.385 17.581938
63.390 17.026571
63.395 16.736639
63.400 17.103691
63.405 17.47307
63.410 17.497152
63.415 17.440037
63.420 17.331957
63.425 17.662405
63.430 18.0191
63.435 17.757458
63.440 17.77215
63.445 17.811193
63.450 17.820692
63.455 17.291557
63.460 17.371143
63.465 17.304031
63.470 17.229532
63.475 17.240192
63.480 17.071392
63.485 16.876514
63.490 17.323624
63.495 17.519283
63.500 17.596569
63.505 17.636169
63.510 17.239202
63.515 17.439672
63.520 17.926546
63.525 18.476183
63.530 18.560349
63.535 19.187046
63.540 19.527142
63.545 19.820686
63.550 19.533337
63.555 19.426125
63.560 18.892141
63.565 18.548639
63.570 18.500263
63.575 18.101412
63.580 17.630163
63.585 17.645744
63.590 17.355549
63.595 17.93092
63.600 17.805855
63.605 17.517679
63.610 17.367519
63.615 17.410599
63.620 17.859215
63.625 17.748661
63.630 16.757614
63.635 16.23889
63.640 16.427673
63.645 16.683823
63.650 16.37007
63.655 15.692954
63.660 15.909328
63.665 16.414192
63.670 16.971331
63.675 17.120665
63.680 17.332645
63.685 17.912514
63.690 18.462048
63.695 18.799999
63.700 18.488377
63.705 17.728958
63.710 17.286383
63.715 17.41688
63.720 17.321421
63.725 17.263748
63.730 17.213881
63.735 17.863815
63.740 18.151091
63.745 18.117205
63.750 17.960882
63.755 18.043119
63.760 17.801611
63.765 17.201941
63.770 17.267431
63.775 17.145222
63.780 17.250431
63.785 17.521666
63.790 17.420393
63.795 17.244856
63.800 17.635155
63.805 17.77438
63.810 18.215143
63.815 18.350956
63.820 18.009205
63.825 18.326756
63.830 18.602581
63.835 18.691767
63.840 18.006382
63.845 17.344269
63.850 17.096851
63.855 17.119108
63.860 17.283068
63.865 17.079245
63.870 16.740576
63.875 16.776625
63.880 17.030842
63.885 17.239794
63.890 17.146503
63.895 16.917353
63.900 17.526384
63.905 17.425524
63.910 17.874693
63.915 18.207989
63.920 18.015701
63.925 18.073145
63.930 17.845476
63.935 17.922157
63.940 17.990122
63.945 17.74725
63.950 17.77277
63.955 17.670454
63.960 17.90893
63.965 17.784363
63.970 17.443983
63.975 17.715137
63.980 17.775303
63.985 17.336987
63.990 17.323889
63.995 16.798798
64.000 16.430803
64.005 16.581532
64.010 16.993698
64.015 17.627178
64.020 18.059559
64.025 18.73004
64.030 19.545454
64.035 20.205549
64.040 19.799866
64.045 19.741184
64.050 19.663414
64.055 19.225388
64.060 18.487532
64.065 17.780014
64.070 17.919615
64.075 18.280472
64.080 18.146196
64.085 18.327456
64.090 18.576431
64.095 18.537022
64.100 18.899845
64.105 18.722719
64.110 18.451002
64.115 18.208286
64.120 18.033417
64.125 17.551561
64.130 17.397854
64.135 17.321363
64.140 17.17522
64.145 17.171278
64.150 17.093596
64.155 17.148684
64.160 17.236452
64.165 17.462912
64.170 17.401476
64.175 17.33214
64.180 17.491529
64.185 17.9041
64.190 18.246468
64.195 18.978764
64.200 18.892454
64.205 18.827364
64.210 18.989634
64.215 19.192749
64.220 17.893421
64.225 16.929008
64.230 16.666124
64.235 17.297361
64.240 17.50408
64.245 17.786043
64.250 18.044876
64.255 19.211451
64.260 19.913261
64.265 19.888594
64.270 19.349157
64.275 19.205099
64.280 18.834948
64.285 18.915493
64.290 19.177988
64.295 19.287416
64.300 19.43737
64.305 19.505665
64.310 19.497522
64.315 19.189703
64.320 18.735405
64.325 17.94367
64.330 17.048632
64.335 16.700098
64.340 16.546532
64.345 17.134747
64.350 17.595915
64.355 17.674915
64.360 18.558149
64.365 18.986641
64.370 19.139544
64.375 19.194424
64.380 19.026274
64.385 19.028032
64.390 18.661188
64.395 17.757782
64.400 18.241095
64.405 18.63736
64.410 18.922771
64.415 19.038397
64.420 18.777269
64.425 19.041445
64.430 18.896284
64.435 18.139091
64.440 17.980764
64.445 17.58275
64.450 17.145668
64.455 17.446182
64.460 17.649723
64.465 18.774939
64.470 19.555326
64.475 19.54497
64.480 19.743647
64.485 19.989569
64.490 19.833115
64.495 19.654343
64.500 18.854645
64.505 18.378664
64.510 18.183195
64.515 18.410845
64.520 18.466761
64.525 18.42013
64.530 18.705971
64.535 19.570498
64.540 20.547457
64.545 20.365881
64.550 19.946379
64.555 19.94964
64.560 20.363176
64.565 20.417839
64.570 19.868877
64.575 20.02125
64.580 20.540195
64.585 20.794621
64.590 20.621218
64.595 20.223494
64.600 19.951292
64.605 19.586605
64.610 18.706232
64.615 18.223625
64.620 18.45229
64.625 19.045437
64.630 18.763083
64.635 19.100218
64.640 19.474562
64.645 20.216627
64.650 20.988419
64.655 20.65394
64.660 20.102787
64.665 20.055786
64.670 19.37042
64.675 18.715868
64.680 18.086756
64.685 17.722801
64.690 17.780817
64.695 17.960054
64.700 18.067213
64.705 18.701292
64.710 19.401423
64.715 19.305046
64.720 19.574726
64.725 19.901741
64.730 20.050051
64.735 20.215136
64.740 19.801193
64.745 19.576323
64.750 19.88678
64.755 19.475599
64.760 19.06427
64.765 18.824499
64.770 19.182405
64.775 19.571371
64.780 19.181461
64.785 19.144802
64.790 19.636971
64.795 19.967638
64.800 20.003284
64.805 19.936554
64.810 19.949505
64.815 20.458229
64.820 19.864729
64.825 19.584478
64.830 19.93276
64.835 20.312567
64.840 20.112043
64.845 20.286634
64.850 20.326088
64.855 21.300722
64.860 20.947393
64.865 20.604235
64.870 20.401184
64.875 20.324512
64.880 19.979397
64.885 20.175428
64.890 19.724775
64.895 19.995789
64.900 20.206303
64.905 20.372288
64.910 20.079842
64.915 19.861471
64.920 20.323877
64.925 20.813477
64.930 20.572178
64.935 20.967571
64.940 21.087093
64.945 21.358877
64.950 21.360241
64.955 21.029327
64.960 21.274292
64.965 21.114841
64.970 20.436962
64.975 20.184473
64.980 20.391487
64.985 20.813837
64.990 20.888832
64.995 20.984789
65.000 21.650717
65.005 22.20406
65.010 22.375769
65.015 22.45833
65.020 22.548143
65.025 22.996649
65.030 22.752895
65.035 22.355459
65.040 22.177673
65.045 22.081703
65.050 21.914913
65.055 21.535358
65.060 21.249521
65.065 20.932196
65.070 21.035233
65.075 20.593729
65.080 20.614788
65.085 20.565155
65.090 20.587643
65.095 20.237612
65.100 20.258924
65.105 20.801266
65.110 21.264465
65.115 21.179068
65.120 21.633217
65.125 21.691044
65.130 21.855618
65.135 22.373734
65.140 21.755671
65.145 21.835337
65.150 21.925173
65.155 21.913877
65.160 21.864433
65.165 22.149237
65.170 22.53261
65.175 23.325266
65.180 23.255898
65.185 23.023638
65.190 22.934752
65.195 22.86688
65.200 22.50696
65.205 22.259649
65.210 22.249464
65.215 22.568956
65.220 23.182735
65.225 23.601002
65.230 23.261984
65.235 22.912205
65.240 23.079597
65.245 22.619627
65.250 22.481813
65.255 22.315783
65.260 22.673359
65.265 23.367964
65.270 23.543436
65.275 22.891033
65.280 22.918659
65.285 22.747747
65.290 22.754322
65.295 22.165504
65.300 22.089186
65.305 21.686199
65.310 21.936243
65.315 22.458532
65.320 22.77397
65.325 23.201612
65.330 23.091227
65.335 22.736717
65.340 22.950987
65.345 22.582342
65.350 22.513414
65.355 22.290993
65.360 21.785404
65.365 21.980722
65.370 22.972641
65.375 23.31097
65.380 23.534496
65.385 23.46686
65.390 23.30714
65.395 23.565968
65.400 23.454117
65.405 23.125267
65.410 23.264658
65.415 23.348476
65.420 23.279289
65.425 23.235991
65.430 23.269211
65.435 23.946903
65.440 23.763559
65.445 24.000036
65.450 24.159399
65.455 24.389109
65.460 25.205341
65.465 25.653673
65.470 25.364948
65.475 25.551067
65.480 25.420174
65.485 25.541025
65.490 25.935635
65.495 25.474648
65.500 24.728374
65.505 25.229244
65.510 25.261051
65.515 24.968384
65.520 24.948095
65.525 24.689838
65.530 25.504627
65.535 26.259068
65.540 26.6178
65.545 27.154572
65.550 27.242161
65.555 27.639233
65.560 28.042683
65.565 27.125813
65.570 26.729435
65.575 27.150436
65.580 28.407572
65.585 29.466242
65.590 29.130732
65.595 29.337452
65.600 29.796871
65.605 30.277811
65.610 30.743349
65.615 30.839903
65.620 30.578156
65.625 30.448181
65.630 30.185637
65.635 31.12899
65.640 31.072147
65.645 30.732218
65.650 30.233656
65.655 29.923155
65.660 30.766411
65.665 31.08173
65.670 29.95528
65.675 29.981846
65.680 29.916452
65.685 30.844389
65.690 31.498447
65.695 31.407568
65.700 31.761868
65.705 32.653645
65.710 33.213955
65.715 33.609722
65.720 32.735344
65.725 33.398575
65.730 33.235809
65.735 33.390232
65.740 33.017662
65.745 33.335011
65.750 33.311871
65.755 33.62075
65.760 33.703964
65.765 34.52668
65.770 34.534145
65.775 34.69228
65.780 34.46133
65.785 34.290081
65.790 35.204411
65.795 35.446007
65.800 34.926975
65.805 35.082119
65.810 35.447235
65.815 35.455914
65.820 36.320927
65.825 36.125687
65.830 36.542942
65.835 37.060539
65.840 37.177921
65.845 37.156517
65.850 36.950424
65.855 36.901699
65.860 36.531643
65.865 36.416317
65.870 36.824615
65.875 37.010921
65.880 37.098499
65.885 37.376255
65.890 37.553085
65.895 37.665947
65.900 37.686588
65.905 37.706394
65.910 37.284428
65.915 37.702427
65.920 37.680904
65.925 37.524071
65.930 37.924381
65.935 37.813362
65.940 38.035572
65.945 38.527027
65.950 37.962639
65.955 38.582424
65.960 38.84642
65.965 38.210945
65.970 37.936649
65.975 37.289925
65.980 37.004253
65.985 36.7952
65.990 35.995975
65.995 35.707932
66.000 36.339073
66.005 35.894447
66.010 35.307838
66.015 35.482365
66.020 36.373184
66.025 36.330303
66.030 36.020813
66.035 36.134823
66.040 37.340881
66.045 37.559013
66.050 36.509312
66.055 35.820988
66.060 36.225906
66.065 36.483616
66.070 36.169395
66.075 36.267128
66.080 36.54813
66.085 37.168114
66.090 37.11467
66.095 36.720081
66.100 36.332516
66.105 35.935947
66.110 35.178436
66.115 34.930492
66.120 34.698269
66.125 34.536652
66.130 34.471317
66.135 34.258492
66.140 34.738239
66.145 34.530212
66.150 33.768967
66.155 34.325317
66.160 34.111317
66.165 33.497097
66.170 33.219795
66.175 32.729683
66.180 33.257755
66.185 33.38195
66.190 32.018272
66.195 32.076393
66.200 32.176559
66.205 32.407776
66.210 32.358356
66.215 31.709036
66.220 31.957363
66.225 32.132725
66.230 32.157997
66.235 32.605919
66.240 32.463352
66.245 32.552841
66.250 32.830196
66.255 32.556137
66.260 33.004311
66.265 32.648533
66.270 32.239037
66.275 31.612728
66.280 31.752026
66.285 32.377697
66.290 32.622799
66.295 32.319405
66.300 32.689381
66.305 32.129192
66.310 31.770607
66.315 31.12989
66.320 30.419243
66.325 30.71434
66.330 30.963675
66.335 31.202715
66.340 32.315117
66.345 32.559746
66.350 32.844414
66.355 32.860039
66.360 32.37011
66.365 31.730843
66.370 31.290812
66.375 30.702793
66.380 30.527714
66.385 29.963087
66.390 29.976477
66.395 30.469227
66.400 30.853052
66.405 30.509953
66.410 30.273634
66.415 30.195591
66.420 30.188318
66.425 29.880404
66.430 29.487507
66.435 29.25036
66.440 29.994995
66.445 29.379734
66.450 29.563826
66.455 29.663546
66.460 30.033478
66.465 29.123543
66.470 28.377836
66.475 27.987188
66.480 28.403259
66.485 28.18239
66.490 28.032982
66.495 28.240396
66.500 29.232697
66.505 29.350639
66.510 29.151693
66.515 29.52729
66.520 29.605076
66.525 29.139095
66.530 28.692732
66.535 28.54129
66.540 28.320467
66.545 28.001549
66.550 27.016417
66.555 26.188452
66.560 26.405598
66.565 26.413746
66.570 26.511404
66.575 26.63217
66.580 26.473522
66.585 26.847128
66.590 27.210817
66.595 26.666208
66.600 26.058273
66.605 25.482819
66.610 25.14131
66.615 25.143713
66.620 24.803938
66.625 24.702188
66.630 25.054869
66.635 25.240519
66.640 25.320808
66.645 25.800058
66.650 25.806442
66.655 25.825773
66.660 25.443024
66.665 24.869595
66.670 25.10675
66.675 25.03264
66.680 25.269846
66.685 25.520361
66.690 25.542522
66.695 26.074947
66.700 26.795475
66.705 26.663349
66.710 27.486811
66.715 27.218969
66.720 27.566729
66.725 27.549053
66.730 27.478575
66.735 26.684393
66.740 25.767504
66.745 24.916622
66.750 25.123259
66.755 24.76889
66.760 24.728056
66.765 24.606916
66.770 25.571573
66.775 26.137833
66.780 26.248281
66.785 25.584126
66.790 24.154692
66.795 22.928143
66.800 22.092621
66.805 21.389036
66.810 20.913691
66.815 21.040503
66.820 21.187473
66.825 22.533482
66.830 23.101908
66.835 23.572224
66.840 23.601084
66.845 24.010756
66.850 23.698395
66.855 23.352758
66.860 23.50816
66.865 24.254745
66.870 24.328329
66.875 24.303789
66.880 24.126116
66.885 24.753473
66.890 24.669704
66.895 24.128693
66.900 23.750706
66.905 23.494818
66.910 23.251139
66.915 22.741941
66.920 22.335018
66.925 22.40472
66.930 22.57402
66.935 22.151978
66.940 22.393253
66.945 23.017368
66.950 23.235518
66.955 23.006924
66.960 22.773209
66.965 22.558928
66.970 23.449007
66.975 23.690697
66.980 22.963589
66.985 22.524971
66.990 22.699083
66.995 22.979845
67.000 23.331385
67.005 23.562403
67.010 23.469612
67.015 24.110397
67.020 24.714504
67.025 24.50342
67.030 24.492012
67.035 23.910696
67.040 23.545919
67.045 23.315071
67.050 23.078615
67.055 22.601322
67.060 22.210749
67.065 22.07048
67.070 21.830942
67.075 20.874704
67.080 20.930166
67.085 21.012304
67.090 21.051054
67.095 21.621401
67.100 21.226391
67.105 21.945208
67.110 22.847351
67.115 22.826139
67.120 23.218996
67.125 22.828817
67.130 23.15419
67.135 23.777674
67.140 23.399475
67.145 23.307837
67.150 23.062275
67.155 22.850355
67.160 23.40575
67.165 23.329042
67.170 23.672575
67.175 23.847572
67.180 24.08334
67.185 24.214354
67.190 24.085793
67.195 23.062197
67.200 22.892029
67.205 22.601078
67.210 21.569269
67.215 21.134935
67.220 21.421274
67.225 22.110523
67.230 22.662096
67.235 22.17205
67.240 22.240557
67.245 22.635773
67.250 22.444466
67.255 22.093025
67.260 21.442976
67.265 21.283144
67.270 21.499098
67.275 21.467926
67.280 21.815628
67.285 21.78743
67.290 21.920481
67.295 21.844194
67.300 21.918184
67.305 21.258982
67.310 20.633553
67.315 20.483404
67.320 20.276463
67.325 19.932106
67.330 20.275896
67.335 20.79031
67.340 21.77574
67.345 23.251783
67.350 23.533684
67.355 23.611982
67.360 23.340107
67.365 23.423914
67.370 23.082737
67.375 22.697363
67.380 22.77483
67.385 22.415146
67.390 22.066414
67.395 22.184135
67.400 21.957321
67.405 21.737194
67.410 21.499022
67.415 21.276184
67.420 21.578472
67.425 22.305267
67.430 22.248131
67.435 22.746416
67.440 23.263445
67.445 23.475201
67.450 23.312733
67.455 22.797531
67.460 22.340317
67.465 21.883781
67.470 21.267551
67.475 20.86614
67.480 20.604404
67.485 20.315456
67.490 20.140352
67.495 20.355152
67.500 20.833963
67.505 21.174755
67.510 21.673754
67.515 21.363779
67.520 21.175995
67.525 21.964069
67.530 22.371048
67.535 22.217398
67.540 21.944954
67.545 21.180641
67.550 21.334948
67.555 22.276676
67.560 22.342484
67.565 22.118311
67.570 22.029873
67.575 22.368013
67.580 22.877518
67.585 22.503204
67.590 20.834007
67.595 20.133244
67.600 20.207949
67.605 20.113857
67.610 19.636946
67.615 19.415831
67.620 19.934343
67.625 20.677275
67.630 21.582624
67.635 22.052618
67.640 22.278681
67.645 22.367735
67.650 22.176706
67.655 22.12623
67.660 22.132627
67.665 21.348562
67.670 20.701878
67.675 20.848316
67.680 21.056919
67.685 21.482292
67.690 21.612181
67.695 21.865042
67.700 22.332787
67.705 22.674131
67.710 22.911312
67.715 22.935789
67.720 23.088772
67.725 23.409634
67.730 23.957352
67.735 24.329313
67.740 24.764532
67.745 24.350082
67.750 23.894827
67.755 23.337345
67.760 22.479656
67.765 21.545513
67.770 20.695177
67.775 19.962446
67.780 20.143147
67.785 20.782183
67.790 20.467163
67.795 20.112638
67.800 20.033842
67.805 20.599079
67.810 21.326948
67.815 21.012438
67.820 20.637257
67.825 20.823771
67.830 21.134598
67.835 21.526228
67.840 21.312716
67.845 21.134392
67.850 21.803457
67.855 21.849808
67.860 22.017443
67.865 21.583597
67.870 21.20249
67.875 21.239271
67.880 21.225574
67.885 21.419033
67.890 21.684303
67.895 21.962648
67.900 22.420256
67.905 22.592089
67.910 22.617392
67.915 22.267107
67.920 21.73912
67.925 21.429754
67.930 21.727575
67.935 22.160673
67.940 22.460459
67.945 22.360737
67.950 22.228592
67.955 22.18059
67.960 21.802998
67.965 21.729801
67.970 21.308361
67.975 20.651997
67.980 20.956573
67.985 21.196072
67.990 21.033878
67.995 20.975544
68.000 21.105885
68.005 21.350882
68.010 21.906174
68.015 21.403364
68.020 21.233688
68.025 20.807043
68.030 20.684858
68.035 20.203493
68.040 20.293703
68.045 20.113045
68.050 20.356367
68.055 20.751991
68.060 21.219704
68.065 21.154825
68.070 21.157215
68.075 20.917074
68.080 20.820627
68.085 20.771318
68.090 20.356419
68.095 20.722294
68.100 21.170044
68.105 21.684587
68.110 21.285048
68.115 21.672506
68.120 22.027132
68.125 22.322701
68.130 22.629541
68.135 22.66284
68.140 22.119873
68.145 21.960377
68.150 21.61717
68.155 21.340614
68.160 21.183731
68.165 20.811949
68.170 20.543612
68.175 20.871616
68.180 20.925247
68.185 20.836344
68.190 20.487165
68.195 20.63604
68.200 20.825172
68.205 20.984825
68.210 20.619579
68.215 20.65913
68.220 20.858667
68.225 20.661903
68.230 20.484394
68.235 20.42057
68.240 20.335917
68.245 20.70569
68.250 20.470579
68.255 20.4387
68.260 21.299486
68.265 22.102121
68.270 22.270643
68.275 22.64023
68.280 22.573698
68.285 22.85132
68.290 22.994974
68.295 23.065104
68.300 22.353144
68.305 22.272615
68.310 21.974459
68.315 21.915976
68.320 21.797155
68.325 21.401974
68.330 20.897514
68.335 20.628674
68.340 20.236362
68.345 20.715628
68.350 21.106407
68.355 21.053648
68.360 20.834446
68.365 20.556036
68.370 20.724188
68.375 21.010109
68.380 21.193216
68.385 21.159363
68.390 21.44088
68.395 21.859955
68.400 21.882128
68.405 21.699207
68.410 21.504278
68.415 20.726568
68.420 20.517815
68.425 20.271164
68.430 20.269474
68.435 20.456753
68.440 20.18362
68.445 20.282045
68.450 19.919085
68.455 20.17338
68.460 20.437845
68.465 20.639233
68.470 20.978407
68.475 21.40329
68.480 21.294037
68.485 21.475788
68.490 20.745283
68.495 20.456045
68.500 20.621012
68.505 20.194832
68.510 20.021814
68.515 19.554117
68.520 19.668041
68.525 19.859619
68.530 19.973166
68.535 19.996529
68.540 19.898315
68.545 20.027325
68.550 20.314234
68.555 20.352009
68.560 21.337732
68.565 21.640198
68.570 21.525108
68.575 22.169487
68.580 22.081831
68.585 22.463148
68.590 23.433838
68.595 22.758699
68.600 22.405092
68.605 23.052408
68.610 23.693428
68.615 24.119839
68.620 24.146986
68.625 23.429125
68.630 23.751785
68.635 23.55747
68.640 23.044685
68.645 22.815678
68.650 22.835838
68.655 22.568859
68.660 22.713425
68.665 22.540422
68.670 22.702576
68.675 22.415611
68.680 22.051395
68.685 21.987001
68.690 22.017355
68.695 21.831644
68.700 21.750017
68.705 21.404486
68.710 21.213989
68.715 21.128611
68.720 21.776379
68.725 21.514631
68.730 21.541582
68.735 21.968122
68.740 22.224049
68.745 22.775732
68.750 22.840252
68.755 22.527487
68.760 23.336386
68.765 23.766632
68.770 24.000832
68.775 24.155716
68.780 23.583138
68.785 23.394573
68.790 23.45904
68.795 23.546535
68.800 22.884624
68.805 22.329414
68.810 22.407488
68.815 22.645962
68.820 22.471704
68.825 22.501802
68.830 22.397366
68.835 23.076672
68.840 23.399481
68.845 23.16778
68.850 23.237587
68.855 23.280178
68.860 23.631807
68.865 23.628876
68.870 23.818495
68.875 23.717613
68.880 23.65621
68.885 24.232254
68.890 24.447504
68.895 23.828266
68.900 23.835953
68.905 23.265263
68.910 23.455244
68.915 23.82271
68.920 23.261971
68.925 23.558414
68.930 23.652828
68.935 24.300934
68.940 24.605169
68.945 23.835917
68.950 23.721655
68.955 23.913336
68.960 24.062099
68.965 24.053871
68.970 23.798557
68.975 24.59392
68.980 25.37994
68.985 25.475073
68.990 25.222031
68.995 24.764605
69.000 24.513712
69.005 24.163733
69.010 23.420509
69.015 23.078123
69.020 23.25918
69.025 23.858603
69.030 24.109732
69.035 24.137774
69.040 23.634085
69.045 23.985003
69.050 24.23068
69.055 23.550417
69.060 22.935339
69.065 22.891302
69.070 23.380478
69.075 23.893005
69.080 24.320887
69.085 24.966345
69.090 25.796377
69.095 26.130861
69.100 26.583349
69.105 27.597134
69.110 28.317337
69.115 27.569027
69.120 27.714714
69.125 27.625416
69.130 27.64978
69.135 26.465603
69.140 24.839174
69.145 24.537237
69.150 24.626667
69.155 23.891148
69.160 23.765884
69.165 23.767029
69.170 24.680403
69.175 25.066107
69.180 25.3365
69.185 25.472361
69.190 25.525578
69.195 25.480333
69.200 25.807823
69.205 26.056755
69.210 25.891968
69.215 25.35144
69.220 25.674007
69.225 25.099752
69.230 25.283901
69.235 24.680935
69.240 24.427362
69.245 23.897823
69.250 23.99662
69.255 23.840748
69.260 24.345154
69.265 24.645271
69.270 25.233654
69.275 25.542719
69.280 26.348911
69.285 27.272316
69.290 27.80995
69.295 28.350531
69.300 28.294426
69.305 29.281826
69.310 29.968252
69.315 30.393297
69.320 29.093931
69.325 29.181557
69.330 29.039455
69.335 29.129267
69.340 28.627552
69.345 28.712072
69.350 28.567139
69.355 28.871969
69.360 28.589291
69.365 28.82962
69.370 28.492126
69.375 27.862291
69.380 27.307264
69.385 26.750532
69.390 27.265114
69.395 27.385584
69.400 27.485535
69.405 26.795311
69.410 27.134974
69.415 27.075449
69.420 27.197357
69.425 27.000799
69.430 26.681955
69.435 26.807493
69.440 27.141348
69.445 26.710909
69.450 27.445042
69.455 27.503874
69.460 27.376173
69.465 27.34853
69.470 27.336815
69.475 27.23303
69.480 27.616226
69.485 28.073244
69.490 28.414288
69.495 28.563894
69.500 28.517992
69.505 28.596376
69.510 28.747356
69.515 28.785072
69.520 28.859091
69.525 29.328499
69.530 28.935926
69.535 28.98078
69.540 29.002596
69.545 29.481359
69.550 28.88159
69.555 28.051863
69.560 27.299417
69.565 28.230724
69.570 28.258257
69.575 28.044142
69.580 27.814674
69.585 28.058605
69.590 27.914572
69.595 27.817505
69.600 27.907486
69.605 28.145512
69.610 28.482561
69.615 28.829107
69.620 28.985266
69.625 30.13204
69.630 30.409456
69.635 30.800108
69.640 29.939188
69.645 29.348835
69.650 28.981651
69.655 28.248013
69.660 27.056988
69.665 26.865726
69.670 26.527044
69.675 26.949989
69.680 26.779158
69.685 25.778826
69.690 25.701645
69.695 25.983763
69.700 25.668766
69.705 25.789358
69.710 26.239893
69.715 26.414347
69.720 27.248314
69.725 27.991497
69.730 28.711454
69.735 29.02499
69.740 29.030325
69.745 29.037266
69.750 29.271679
69.755 29.005024
69.760 28.724514
69.765 28.292746
69.770 28.190409
69.775 27.716457
69.780 27.332405
69.785 27.707945
69.790 27.724318
69.795 27.604561
69.800 27.774786
69.805 27.712351
69.810 28.132486
69.815 28.555973
69.820 28.576651
69.825 28.121523
69.830 27.444019
69.835 27.066841
69.840 26.081871
69.845 25.987644
69.850 25.664352
69.855 24.964123
69.860 24.46954
69.865 24.108753
69.870 22.939314
69.875 22.973339
69.880 22.635929
69.885 22.598989
69.890 22.98947
69.895 22.823833
69.900 22.137972
69.905 22.604988
69.910 22.786469
69.915 22.478121
69.920 21.914253
69.925 22.014435
69.930 22.73563
69.935 23.391872
69.940 23.061802
69.945 22.431879
69.950 22.516981
69.955 22.5697
69.960 22.326769
69.965 21.969461
69.970 21.968876
69.975 22.050283
69.980 22.233278
69.985 21.908928
69.990 21.940363
69.995 22.252802
70.000 22.454494
70.005 22.273724
70.010 22.483274
70.015 22.566086
70.020 22.459877
70.025 22.945173
70.030 22.438879
70.035 21.395308
70.040 20.997877
70.045 20.735781
70.050 20.58873
70.055 20.827848
70.060 20.619223
70.065 21.265173
70.070 22.013216
70.075 22.614321
70.080 22.622793
70.085 22.817236
70.090 22.199165
70.095 22.056124
70.100 21.464277
70.105 20.68873
70.110 20.339916
70.115 20.497047
70.120 20.583429
70.125 20.923668
70.130 20.571245
70.135 19.950047
70.140 20.417356
70.145 20.362795
70.150 19.948679
70.155 19.96501
70.160 20.234285
70.165 20.180153
70.170 20.449381
70.175 20.454906
70.180 21.062744
70.185 21.527662
70.190 21.66395
70.195 21.664658
70.200 21.678589
70.205 22.41235
70.210 21.677502
70.215 21.379885
70.220 21.321444
70.225 21.025082
70.230 21.342737
70.235 21.842447
70.240 21.849434
70.245 22.16147
70.250 22.20229
70.255 21.887409
70.260 21.70694
70.265 21.682917
70.270 20.975636
70.275 20.810862
70.280 20.766138
70.285 20.780695
70.290 20.508179
70.295 19.935276
70.300 19.512655
70.305 19.536913
70.310 19.161022
70.315 18.801178
70.320 18.656982
70.325 18.9676
70.330 18.803844
70.335 18.759911
70.340 18.954075
70.345 19.585274
70.350 19.963057
70.355 19.88665
70.360 20.207371
70.365 20.664938
70.370 20.962397
70.375 21.537378
70.380 21.927507
70.385 21.307732
70.390 21.497149
70.395 21.632935
70.400 21.371635
70.405 21.191984
70.410 20.459536
70.415 19.786478
70.420 20.373951
70.425 19.842665
70.430 19.543688
70.435 19.451202
70.440 19.273451
70.445 19.740871
70.450 20.038309
70.455 19.518932
70.460 19.5471
70.465 19.413731
70.470 19.823944
70.475 19.905352
70.480 19.401497
70.485 19.574194
70.490 20.136503
70.495 20.284887
70.500 20.61228
70.505 20.393959
70.510 19.917856
70.515 19.752359
70.520 19.877922
70.525 19.467142
70.530 18.779749
70.535 18.197731
70.540 18.527708
70.545 18.947836
70.550 18.922014
70.555 18.372559
70.560 18.976995
70.565 19.461201
70.570 20.180782
70.575 20.349852
70.580 20.714928
70.585 21.122639
70.590 20.971373
70.595 20.99645
70.600 20.430841
70.605 19.422735
70.610 19.047674
70.615 18.185555
70.620 17.462406
70.625 17.849411
70.630 18.01799
70.635 18.087208
70.640 18.260162
70.645 18.366734
70.650 18.858219
70.655 19.57649
70.660 19.160343
70.665 19.300642
70.670 19.552435
70.675 19.336958
70.680 19.552479
70.685 19.220284
70.690 19.067085
70.695 18.741608
70.700 18.180376
70.705 17.965645
70.710 18.543402
70.715 18.708324
70.720 18.578054
70.725 18.538326
70.730 18.850464
70.735 19.244907
70.740 19.351713
70.745 18.216633
70.750 18.449072
70.755 18.467278
70.760 18.982529
70.765 18.980236
70.770 19.073383
70.775 19.404913
70.780 19.818996
70.785 19.529238
70.790 19.434908
70.795 19.310284
70.800 19.241671
70.805 19.098234
70.810 18.548958
70.815 18.641144
70.820 19.289137
70.825 19.399323
70.830 19.194891
70.835 19.837849
70.840 20.449936
70.845 21.35387
70.850 21.667622
70.855 21.188051
70.860 21.704763
70.865 21.801598
70.870 21.643091
70.875 21.027193
70.880 20.387133
70.885 20.370697
70.890 20.598928
70.895 20.039186
70.900 19.890268
70.905 19.661816
70.910 20.351402
70.915 20.934948
70.920 20.808155
70.925 20.251534
70.930 20.251287
70.935 20.069805
70.940 19.767132
70.945 19.765516
70.950 19.689804
70.955 19.239985
70.960 19.695696
70.965 19.751692
70.970 19.590611
70.975 19.664057
70.980 19.495817
70.985 19.560968
70.990 20.136894
70.995 20.018961
71.000 20.156538
71.005 20.359419
71.010 20.274729
71.015 19.953251
71.020 19.947529
71.025 20.258965
71.030 20.328159
71.035 19.833172
71.040 19.484201
71.045 18.837112
71.050 18.865303
71.055 18.649979
71.060 18.782608
71.065 18.902592
71.070 19.218571
71.075 19.796663
71.080 19.786827
71.085 20.105402
71.090 20.407125
71.095 20.088387
71.100 20.597189
71.105 20.760637
71.110 20.410896
71.115 20.197845
71.120 20.05003
71.125 19.552414
71.130 19.38847
71.135 19.16699
71.140 18.830908
71.145 19.04524
71.150 18.749611
71.155 18.321119
71.160 18.239391
71.165 18.895824
71.170 19.142136
71.175 19.248648
71.180 18.944649
71.185 19.216778
71.190 19.045389
71.195 19.021315
71.200 18.103111
71.205 18.35964
71.210 18.565771
71.215 19.028723
71.220 18.606859
71.225 18.834455
71.230 18.333368
71.235 17.889429
71.240 17.205393
71.245 17.5182
71.250 17.358103
71.255 17.7451
71.260 17.555151
71.265 17.970509
71.270 18.495638
71.275 18.678665
71.280 18.42687
71.285 18.248533
71.290 18.637585
71.295 18.986799
71.300 18.671867
71.305 18.36776
71.310 17.985439
71.315 18.433187
71.320 18.683411
71.325 18.782478
71.330 18.779598
71.335 19.652521
71.340 20.198994
71.345 20.462858
71.350 20.340845
71.355 19.940014
71.360 19.783516
71.365 19.439512
71.370 18.610695
71.375 18.186491
71.380 18.296009
71.385 18.282177
71.390 18.132772
71.395 18.580957
71.400 18.565954
71.405 18.32979
71.410 18.373327
71.415 17.960104
71.420 18.294355
71.425 18.585953
71.430 18.221117
71.435 18.769901
71.440 19.641455
71.445 19.724482
71.450 20.170267
71.455 19.904196
71.460 19.641457
71.465 19.282667
71.470 18.894863
71.475 18.42889
71.480 18.247595
71.485 18.316462
71.490 18.594584
71.495 18.449146
71.500 18.896654
71.505 19.125399
71.510 19.348951
71.515 18.998672
71.520 19.37668
71.525 19.267033
71.530 19.34112
71.535 18.91098
71.540 18.243176
71.545 18.269903
71.550 18.079973
71.555 17.639585
71.560 17.372581
71.565 17.080173
71.570 17.442017
71.575 17.821737
71.580 17.840904
71.585 18.168098
71.590 18.409718
71.595 18.782803
71.600 19.309378
71.605 18.977503
71.610 19.225414
71.615 18.940374
71.620 18.596663
71.625 18.235506
71.630 18.085276
71.635 17.805655
71.640 18.282267
71.645 18.219244
71.650 18.367172
71.655 18.241831
71.660 18.186941
71.665 17.899115
71.670 18.117586
71.675 18.077269
71.680 18.352459
71.685 18.11936
71.690 18.197178
71.695 18.478521
71.700 18.716465
71.705 17.680054
71.710 17.426577
71.715 17.523718
71.720 17.935549
71.725 18.389353
71.730 18.366318
71.735 18.209597
71.740 18.901333
71.745 18.702637
71.750 18.617228
71.755 18.750011
71.760 18.346682
71.765 18.618656
71.770 18.757904
71.775 18.408876
71.780 18.722876
71.785 18.399252
71.790 18.030149
71.795 18.446432
71.800 18.448954
71.805 18.468224
71.810 18.819302
71.815 18.348198
71.820 18.669672
71.825 18.741856
71.830 18.620161
71.835 18.261566
71.840 18.191864
71.845 17.75692
71.850 17.995155
71.855 17.768167
71.860 17.777384
71.865 17.949984
71.870 17.986597
71.875 18.620741
71.880 19.101524
71.885 18.896767
71.890 18.646955
71.895 18.290205
71.900 18.071997
71.905 17.86685
71.910 17.731665
71.915 17.526751
71.920 17.562399
71.925 18.147991
71.930 18.56579
71.935 18.786842
71.940 18.716389
71.945 18.387653
71.950 18.16959
71.955 18.548252
71.960 17.814701
71.965 17.425201
71.970 17.248951
71.975 17.570824
71.980 17.990149
71.985 18.34066
71.990 18.43565
71.995 19.202549
72.000 19.86038
72.005 19.939154
72.010 19.492081
72.015 19.281464
72.020 19.045622
72.025 19.113379
72.030 18.289478
72.035 17.959044
72.040 17.699472
72.045 18.050295
72.050 18.130146
72.055 18.300625
72.060 18.100359
72.065 18.007225
72.070 18.735832
72.075 18.910149
72.080 19.341166
72.085 19.433371
72.090 19.024685
72.095 19.24431
72.100 19.255116
72.105 19.049551
72.110 18.342466
72.115 17.504869
72.120 17.517868
72.125 17.969837
72.130 18.271851
72.135 18.52425
72.140 18.591261
72.145 18.667374
72.150 19.316317
72.155 19.825649
72.160 19.291464
72.165 18.888298
72.170 18.621346
72.175 18.475845
72.180 19.362156
72.185 18.969969
72.190 18.528006
72.195 19.273314
72.200 19.518507
72.205 19.335806
72.210 19.350185
72.215 18.369631
72.220 18.172422
72.225 17.827389
72.230 17.740364
72.235 18.122215
72.240 18.686857
72.245 19.080261
72.250 19.611687
72.255 19.367025
72.260 19.569645
72.265 19.336023
72.270 18.731922
72.275 18.539394
72.280 18.23588
72.285 18.004839
72.290 17.890781
72.295 17.504631
72.300 17.804787
72.305 17.692001
72.310 17.828199
72.315 18.505821
72.320 18.560551
72.325 18.166754
72.330 18.566225
72.335 18.470881
72.340 18.512203
72.345 18.016584
72.350 17.521944
72.355 17.732208
72.360 17.756826
72.365 17.319134
72.370 17.168102
72.375 17.661154
72.380 17.981529
72.385 17.988213
72.390 18.385513
72.395 18.1376
72.400 17.828312
72.405 17.526785
72.410 17.008148
72.415 17.319946
72.420 17.503439
72.425 17.878281
72.430 18.576206
72.435 19.162708
72.440 19.215628
72.445 19.53647
72.450 19.812565
72.455 19.429789
72.460 19.14315
72.465 19.042122
72.470 18.715931
72.475 18.2094
72.480 17.751295
72.485 17.383682
72.490 17.273336
72.495 16.551502
72.500 16.817383
72.505 17.33543
72.510 17.605326
72.515 17.572432
72.520 17.760569
72.525 18.276125
72.530 18.318087
72.535 18.56554
72.540 18.965998
72.545 19.305939
72.550 19.508501
72.555 18.784485
72.560 18.560217
72.565 18.242945
72.570 17.711817
72.575 17.383413
72.580 16.619244
72.585 16.465504
72.590 17.28957
72.595 17.552795
72.600 17.624743
72.605 17.482901
72.610 17.540262
72.615 17.882044
72.620 17.498114
72.625 17.377148
72.630 17.438053
72.635 17.483339
72.640 17.241673
72.645 16.952908
72.650 16.984413
72.655 16.889942
72.660 16.330244
72.665 16.240999
72.670 16.546898
72.675 17.076708
72.680 17.230766
72.685 17.178707
72.690 17.484968
72.695 18.085482
72.700 17.816658
72.705 17.425158
72.710 16.905338
72.715 16.542473
72.720 16.817072
72.725 17.048929
72.730 17.245516
72.735 18.011696
72.740 18.36727
72.745 18.846357
72.750 19.095852
72.755 18.604136
72.760 18.363207
72.765 18.538031
72.770 18.248404
72.775 18.010389
72.780 17.81781
72.785 18.173016
72.790 17.89082
72.795 17.848471
72.800 17.153875
72.805 17.210442
72.810 17.364199
72.815 17.118824
72.820 16.820723
72.825 16.821596
72.830 16.780819
72.835 16.887936
72.840 16.21269
72.845 16.09004
72.850 16.292814
72.855 16.551456
72.860 16.646435
72.865 16.081127
72.870 15.934074
72.875 16.287817
72.880 16.404974
72.885 15.836201
72.890 15.794268
72.895 15.160207
72.900 15.062827
72.905 15.409751
72.910 15.634285
72.915 15.46874
72.920 15.454876
72.925 14.728536
72.930 15.617803
72.935 15.686916
72.940 15.790291
72.945 15.589659
72.950 15.522728
72.955 15.416722
72.960 16.164268
72.965 15.66661
72.970 15.543705
72.975 15.123298
72.980 15.044328
72.985 15.616773
72.990 16.272455
72.995 16.951155
73.000 16.860317
