!@!!GADDS PLOTSO FILE: Chi integration type
!@!!Title/SampleName: map-183
!@!!Comment: ?
!@!!User: Bruker Instrument Administrator
!@!!Site: University of Illinois Chicago
!@!!Frame: map-183_01_000.gfrm
!@!!Wavelengths    1.54184   1.54056   1.54439
!@!!Frame angles: 2Theta: 63.000 Omega: 50.000 Phi: 0.000 Chi: 90.000
!@!!Integration range: 2Theta: 53.000 to 73.000  Gamma: -105.000 to -75.000
!@!!Integration method: bin normalized
!@!N
!@!SS
!@!M
!@!L 0.0 0.0 0.0 0.0
!@!XDegrees
!@!YCounts
53.000 8.629811
53.005 8.567346
53.010 9.066087
53.015 9.742445
53.020 9.507123
53.025 9.746663
53.030 9.602951
53.035 9.790063
53.040 9.4034
53.045 8.820038
53.050 8.500014
53.055 8.804362
53.060 9.171206
53.065 8.970462
53.070 8.884682
53.075 8.704191
53.080 8.953484
53.085 8.940176
53.090 8.527395
53.095 8.717966
53.100 9.177284
53.105 9.221965
53.110 9.333749
53.115 9.698105
53.120 10.580366
53.125 10.417688
53.130 9.733277
53.135 9.347759
53.140 9.210926
53.145 9.088446
53.150 8.642388
53.155 8.614441
53.160 8.850284
53.165 9.330917
53.170 9.706357
53.175 9.985953
53.180 10.385706
53.185 10.164137
53.190 9.567958
53.195 9.199767
53.200 8.862478
53.205 8.671487
53.210 8.578837
53.215 8.688157
53.220 9.259066
53.225 10.045932
53.230 10.855688
53.235 11.347399
53.240 11.433685
53.245 11.470482
53.250 11.302877
53.255 11.200034
53.260 10.849316
53.265 10.359189
53.270 10.170576
53.275 10.010376
53.280 9.824563
53.285 9.806273
53.290 9.755332
53.295 9.718678
53.300 9.987032
53.305 9.731941
53.310 9.655902
53.315 9.648144
53.320 9.382198
53.325 9.483188
53.330 9.696786
53.335 9.991576
53.340 10.388754
53.345 10.612922
53.350 10.613317
53.355 10.632962
53.360 10.383801
53.365 9.893074
53.370 9.507536
53.375 9.386402
53.380 9.143203
53.385 8.986634
53.390 9.38377
53.395 9.449924
53.400 9.293465
53.405 9.260195
53.410 9.650154
53.415 10.031466
53.420 10.358512
53.425 10.049525
53.430 10.320544
53.435 10.229234
53.440 9.970068
53.445 9.427764
53.450 9.492662
53.455 9.652265
53.460 9.52802
53.465 9.547728
53.470 9.941172
53.475 10.054487
53.480 10.099359
53.485 10.669413
53.490 10.911819
53.495 11.387415
53.500 11.368896
53.505 11.629685
53.510 11.761177
53.515 11.361692
53.520 10.397833
53.525 10.434368
53.530 10.187552
53.535 10.176093
53.540 9.557906
53.545 9.626001
53.550 10.145303
53.555 10.23861
53.560 10.122592
53.565 9.994008
53.570 9.894073
53.575 10.428179
53.580 10.598404
53.585 10.003757
53.590 9.920328
53.595 9.957254
53.600 10.193215
53.605 10.324015
53.610 10.027267
53.615 10.088658
53.620 10.299681
53.625 10.248813
53.630 10.408283
53.635 10.309782
53.640 10.17461
53.645 10.28536
53.650 10.138054
53.655 9.952172
53.660 9.549975
53.665 9.660695
53.670 9.587819
53.675 9.652696
53.680 9.643099
53.685 9.45042
53.690 9.484095
53.695 9.430415
53.700 9.325394
53.705 9.594373
53.710 9.598207
53.715 9.352391
53.720 9.865955
53.725 10.165038
53.730 10.182096
53.735 10.124623
53.740 9.610051
53.745 9.641327
53.750 9.998787
53.755 10.076594
53.760 10.173696
53.765 10.511477
53.770 10.594943
53.775 11.076696
53.780 11.216095
53.785 11.358623
53.790 11.262648
53.795 11.117702
53.800 11.22293
53.805 11.252886
53.810 11.453596
53.815 11.464555
53.820 11.630048
53.825 11.61646
53.830 11.316583
53.835 11.281395
53.840 10.984236
53.845 10.938464
53.850 10.831958
53.855 10.92496
53.860 10.752766
53.865 10.737892
53.870 10.463631
53.875 10.232397
53.880 10.016364
53.885 9.698959
53.890 9.65556
53.895 9.991153
53.900 9.954958
53.905 10.045859
53.910 10.134019
53.915 10.045183
53.920 10.261762
53.925 9.810535
53.930 9.807343
53.935 10.43951
53.940 11.064569
53.945 11.277743
53.950 11.615616
53.955 11.609514
53.960 12.32439
53.965 12.645029
53.970 12.416515
53.975 12.564985
53.980 12.751464
53.985 12.90775
53.990 13.076054
53.995 12.989877
54.000 12.613351
54.005 12.183964
54.010 12.094583
54.015 11.421885
54.020 10.670798
54.025 10.256001
54.030 9.53757
54.035 9.667868
54.040 9.565117
54.045 9.441323
54.050 9.477097
54.055 9.456818
54.060 9.585291
54.065 9.619231
54.070 9.390013
54.075 9.198654
54.080 9.246402
54.085 9.214701
54.090 8.883333
54.095 8.626256
54.100 7.905376
54.105 8.261968
54.110 8.448607
54.115 8.423814
54.120 8.694196
54.125 9.046885
54.130 9.440689
54.135 9.856652
54.140 9.897435
54.145 10.143108
54.150 10.170442
54.155 10.580066
54.160 10.748493
54.165 10.759978
54.170 10.687549
54.175 10.355467
54.180 10.239075
54.185 10.5353
54.190 10.291974
54.195 10.176042
54.200 11.194217
54.205 11.252991
54.210 11.251016
54.215 11.580607
54.220 11.508009
54.225 11.574729
54.230 11.564142
54.235 11.334615
54.240 11.497115
54.245 11.325931
54.250 10.674132
54.255 10.820571
54.260 10.622433
54.265 10.266523
54.270 9.993058
54.275 10.115666
54.280 9.96823
54.285 10.263179
54.290 9.873891
54.295 9.644023
54.300 10.094428
54.305 10.557062
54.310 10.64923
54.315 10.961494
54.320 10.871902
54.325 11.410941
54.330 11.470241
54.335 10.912245
54.340 10.51516
54.345 10.833221
54.350 11.001981
54.355 11.339586
54.360 11.413076
54.365 11.695442
54.370 11.981778
54.375 11.87056
54.380 11.227283
54.385 10.771047
54.390 10.324046
54.395 10.521758
54.400 10.311419
54.405 10.224396
54.410 10.084353
54.415 10.384951
54.420 10.649021
54.425 10.285514
54.430 9.764279
54.435 9.594709
54.440 9.504989
54.445 9.899618
54.450 9.903654
54.455 9.605113
54.460 9.742825
54.465 10.281609
54.470 10.651584
54.475 10.883362
54.480 10.844991
54.485 10.808389
54.490 10.741996
54.495 10.732773
54.500 10.271047
54.505 9.615193
54.510 9.910787
54.515 9.874559
54.520 9.825062
54.525 10.125392
54.530 9.980583
54.535 10.657933
54.540 11.440511
54.545 11.249595
54.550 11.512897
54.555 11.403072
54.560 11.233129
54.565 11.322866
54.570 10.405005
54.575 9.222679
54.580 8.708978
54.585 8.785006
54.590 9.208646
54.595 9.084076
54.600 9.081912
54.605 9.594448
54.610 10.444419
54.615 10.56768
54.620 10.429392
54.625 10.814543
54.630 11.105609
54.635 10.845658
54.640 10.646164
54.645 10.635319
54.650 11.156076
54.655 10.907831
54.660 10.329652
54.665 10.358169
54.670 10.127698
54.675 9.620603
54.680 9.357153
54.685 9.115141
54.690 9.354369
54.695 9.662328
54.700 10.067836
54.705 10.657087
54.710 11.172302
54.715 11.339216
54.720 11.253856
54.725 11.28235
54.730 10.727549
54.735 10.40996
54.740 10.448407
54.745 10.269077
54.750 10.066265
54.755 9.836488
54.760 9.843793
54.765 10.303263
54.770 10.504911
54.775 10.471326
54.780 10.642846
54.785 10.850896
54.790 10.842517
54.795 11.091271
54.800 11.322314
54.805 11.538852
54.810 11.474697
54.815 11.298082
54.820 11.507089
54.825 12.007782
54.830 11.643988
54.835 11.18588
54.840 11.013962
54.845 11.277054
54.850 11.6356
54.855 11.428703
54.860 11.550723
54.865 12.004551
54.870 11.898575
54.875 12.116751
54.880 12.381992
54.885 12.360866
54.890 12.121624
54.895 11.528183
54.900 11.078514
54.905 11.121573
54.910 10.933565
54.915 10.827105
54.920 11.339267
54.925 11.571465
54.930 12.130289
54.935 12.511564
54.940 12.474952
54.945 12.363842
54.950 12.67471
54.955 12.254786
54.960 12.098439
54.965 12.064548
54.970 11.895967
54.975 11.640768
54.980 11.769581
54.985 11.112885
54.990 11.230753
54.995 10.759332
55.000 10.275943
55.005 10.104905
55.010 9.943315
55.015 9.620712
55.020 10.004387
55.025 10.436361
55.030 10.800922
55.035 11.142297
55.040 11.444414
55.045 11.631215
55.050 11.56328
55.055 10.990151
55.060 11.055787
55.065 11.113852
55.070 11.027366
55.075 11.38859
55.080 11.388469
55.085 11.324805
55.090 11.322221
55.095 11.08616
55.100 11.22282
55.105 11.631818
55.110 11.223254
55.115 11.146269
55.120 12.096613
55.125 12.294101
55.130 12.104583
55.135 11.751756
55.140 11.51055
55.145 11.984839
55.150 12.133524
55.155 10.872362
55.160 10.737133
55.165 11.035099
55.170 10.858276
55.175 10.770793
55.180 10.319872
55.185 9.903732
55.190 10.116855
55.195 10.23406
55.200 10.028531
55.205 10.035521
55.210 9.710136
55.215 10.054136
55.220 10.447655
55.225 10.368432
55.230 10.073741
55.235 9.744448
55.240 9.855392
55.245 10.067488
55.250 9.768004
55.255 9.680822
55.260 10.107781
55.265 10.59223
55.270 11.403035
55.275 11.736115
55.280 11.959588
55.285 11.945486
55.290 11.659492
55.295 11.541595
55.300 11.457546
55.305 11.058835
55.310 10.600169
55.315 10.28017
55.320 10.643786
55.325 11.27177
55.330 11.071439
55.335 11.10689
55.340 10.927608
55.345 10.768173
55.350 10.753549
55.355 10.270676
55.360 9.935
55.365 10.090755
55.370 10.059237
55.375 10.171144
55.380 10.919526
55.385 11.261694
55.390 11.491992
55.395 11.694418
55.400 11.424154
55.405 11.532279
55.410 11.590542
55.415 10.900227
55.420 10.597982
55.425 10.449964
55.430 10.663743
55.435 10.72467
55.440 10.345162
55.445 10.566755
55.450 11.375804
55.455 11.944421
55.460 12.169184
55.465 12.535073
55.470 13.018008
55.475 13.394781
55.480 13.11931
55.485 12.309623
55.490 11.956166
55.495 11.496513
55.500 11.136226
55.505 10.901877
55.510 10.865106
55.515 10.488496
55.520 10.492441
55.525 10.848743
55.530 10.892912
55.535 10.759699
55.540 10.420213
55.545 10.098874
55.550 10.406812
55.555 10.737447
55.560 11.017242
55.565 11.453677
55.570 11.691491
55.575 12.120192
55.580 13.003798
55.585 12.908265
55.590 12.150953
55.595 11.75211
55.600 11.459867
55.605 11.499486
55.610 11.994262
55.615 11.646633
55.620 11.916638
55.625 12.205001
55.630 11.999679
55.635 12.352959
55.640 11.768869
55.645 11.226642
55.650 11.318823
55.655 11.129987
55.660 11.319396
55.665 10.650332
55.670 10.441217
55.675 10.935315
55.680 11.063436
55.685 11.043172
55.690 11.409828
55.695 11.555643
55.700 11.741914
55.705 11.747331
55.710 11.300001
55.715 11.182079
55.720 11.162242
55.725 10.873929
55.730 10.821372
55.735 11.20308
55.740 10.952109
55.745 10.990148
55.750 10.418971
55.755 10.260312
55.760 10.302398
55.765 10.31959
55.770 10.177178
55.775 10.504712
55.780 10.421492
55.785 10.778538
55.790 11.007219
55.795 10.88068
55.800 10.949924
55.805 11.437221
55.810 11.383579
55.815 11.83398
55.820 11.841746
55.825 11.743466
55.830 11.760331
55.835 12.361259
55.840 12.269388
55.845 12.438325
55.850 12.382263
55.855 11.748405
55.860 11.60955
55.865 11.141243
55.870 10.33012
55.875 10.106845
55.880 9.752807
55.885 9.981277
55.890 10.171938
55.895 10.396709
55.900 10.853311
55.905 10.684774
55.910 11.141715
55.915 11.228741
55.920 11.255952
55.925 11.360045
55.930 11.342378
55.935 11.794705
55.940 11.651931
55.945 11.410551
55.950 11.646039
55.955 11.557227
55.960 11.660197
55.965 11.162593
55.970 10.816237
55.975 10.833586
55.980 10.768791
55.985 11.051622
55.990 11.596797
55.995 11.981005
56.000 12.70609
56.005 12.680679
56.010 12.980954
56.015 12.410988
56.020 11.753137
56.025 11.140441
56.030 10.801083
56.035 10.365548
56.040 10.326665
56.045 9.947949
56.050 10.272291
56.055 10.848299
56.060 10.977139
56.065 11.329214
56.070 11.344631
56.075 11.508082
56.080 11.585518
56.085 11.390306
56.090 10.933944
56.095 10.820228
56.100 10.321172
56.105 10.281676
56.110 10.693043
56.115 10.368442
56.120 10.007656
56.125 10.239468
56.130 10.424526
56.135 11.163838
56.140 10.888786
56.145 10.051022
56.150 10.213854
56.155 10.66425
56.160 10.740655
56.165 10.899747
56.170 11.012686
56.175 11.43854
56.180 12.388678
56.185 13.019946
56.190 13.485762
56.195 13.958497
56.200 13.605135
56.205 12.577811
56.210 12.371384
56.215 12.049047
56.220 11.971642
56.225 11.456642
56.230 10.753218
56.235 10.965405
56.240 11.274261
56.245 11.514213
56.250 11.037219
56.255 11.120032
56.260 11.329898
56.265 11.680392
56.270 11.807216
56.275 12.103492
56.280 11.964514
56.285 12.113534
56.290 11.74701
56.295 11.612156
56.300 11.362084
56.305 11.591991
56.310 11.732558
56.315 11.731894
56.320 12.088928
56.325 12.372058
56.330 12.432582
56.335 12.796718
56.340 12.514781
56.345 12.378864
56.350 12.642982
56.355 12.177554
56.360 11.470598
56.365 11.086633
56.370 10.669575
56.375 10.517248
56.380 10.185871
56.385 10.172225
56.390 10.525047
56.395 10.647514
56.400 11.006162
56.405 11.027818
56.410 11.225244
56.415 11.58161
56.420 11.839645
56.425 12.064709
56.430 12.298401
56.435 12.624306
56.440 13.076495
56.445 13.176702
56.450 13.235956
56.455 13.460636
56.460 13.946168
56.465 13.922113
56.470 13.689334
56.475 13.572532
56.480 13.71043
56.485 13.261595
56.490 12.728167
56.495 12.330662
56.500 12.622552
56.505 12.544855
56.510 12.506137
56.515 12.369111
56.520 13.153327
56.525 13.450912
56.530 13.66914
56.535 13.83048
56.540 13.761059
56.545 13.787197
56.550 14.021038
56.555 13.876993
56.560 13.675266
56.565 12.946404
56.570 12.588475
56.575 12.558143
56.580 12.536971
56.585 11.983974
56.590 11.694366
56.595 12.409463
56.600 12.74326
56.605 13.269248
56.610 13.535582
56.615 13.485213
56.620 13.591947
56.625 13.728801
56.630 13.183557
56.635 12.906494
56.640 12.09389
56.645 11.834374
56.650 12.002391
56.655 11.929546
56.660 11.757154
56.665 11.532861
56.670 11.822171
56.675 12.057436
56.680 12.169628
56.685 12.004233
56.690 11.990832
56.695 11.962706
56.700 12.398301
56.705 12.447559
56.710 12.496547
56.715 12.547707
56.720 12.807903
56.725 13.42498
56.730 13.68222
56.735 14.04518
56.740 14.221769
56.745 14.46453
56.750 14.914598
56.755 14.793644
56.760 14.014335
56.765 13.816654
56.770 13.744601
56.775 13.676745
56.780 13.381004
56.785 13.107124
56.790 12.857574
56.795 13.240235
56.800 12.990269
56.805 12.756191
56.810 12.436323
56.815 12.098961
56.820 11.385253
56.825 11.174907
56.830 10.96307
56.835 10.906
56.840 10.915646
56.845 10.729632
56.850 10.315086
56.855 10.219613
56.860 10.259112
56.865 9.726891
56.870 9.409884
56.875 9.013253
56.880 9.262958
56.885 9.698735
56.890 9.992688
56.895 10.37358
56.900 10.439295
56.905 10.569209
56.910 10.736773
56.915 11.007384
56.920 11.116267
56.925 11.148945
56.930 10.987853
56.935 11.371411
56.940 11.278339
56.945 11.731205
56.950 11.565089
56.955 11.733026
56.960 11.738376
56.965 11.95765
56.970 12.450406
56.975 12.375271
56.980 11.973525
56.985 12.276153
56.990 12.68832
56.995 12.71481
57.000 12.422357
57.005 11.836741
57.010 11.435379
57.015 11.397629
57.020 11.165845
57.025 10.972438
57.030 10.795132
57.035 11.125934
57.040 11.536606
57.045 11.571918
57.050 11.843112
57.055 12.110451
57.060 12.229381
57.065 12.162161
57.070 11.860546
57.075 12.065639
57.080 12.643039
57.085 12.233906
57.090 11.744545
57.095 11.75914
57.100 11.813333
57.105 11.880304
57.110 11.97664
57.115 11.420369
57.120 11.520107
57.125 11.101696
57.130 11.195937
57.135 11.134511
57.140 10.785057
57.145 10.939784
57.150 11.552887
57.155 11.806331
57.160 12.270558
57.165 12.131482
57.170 12.410752
57.175 12.564405
57.180 12.216327
57.185 12.038159
57.190 11.642581
57.195 11.833718
57.200 11.768429
57.205 11.459309
57.210 11.320006
57.215 10.831077
57.220 10.949762
57.225 11.45528
57.230 11.135276
57.235 11.273158
57.240 11.425756
57.245 11.638393
57.250 11.860274
57.255 11.929994
57.260 11.788312
57.265 11.807666
57.270 11.895729
57.275 11.983225
57.280 11.800869
57.285 11.644112
57.290 11.112276
57.295 11.30762
57.300 11.653368
57.305 11.56937
57.310 11.602659
57.315 11.770635
57.320 12.053994
57.325 12.377464
57.330 12.105631
57.335 12.113056
57.340 12.37343
57.345 12.229045
57.350 11.681269
57.355 11.326097
57.360 10.923181
57.365 10.632677
57.370 10.6853
57.375 10.499175
57.380 10.883461
57.385 11.444146
57.390 11.717062
57.395 11.946731
57.400 11.656393
57.405 11.44214
57.410 11.781276
57.415 11.745621
57.420 11.579463
57.425 11.232162
57.430 11.471821
57.435 11.960356
57.440 11.916564
57.445 11.651247
57.450 11.607663
57.455 11.321893
57.460 11.486554
57.465 11.451487
57.470 11.021059
57.475 10.770287
57.480 10.780259
57.485 10.739838
57.490 11.028881
57.495 10.977615
57.500 11.04746
57.505 10.9037
57.510 10.749656
57.515 10.613395
57.520 11.085978
57.525 10.934444
57.530 10.746609
57.535 10.489171
57.540 10.464872
57.545 10.332113
57.550 10.265697
57.555 10.001289
57.560 10.081335
57.565 10.743033
57.570 11.489592
57.575 12.171371
57.580 12.273384
57.585 12.250504
57.590 12.596499
57.595 12.782403
57.600 12.149052
57.605 11.599462
57.610 11.553983
57.615 11.599768
57.620 11.264506
57.625 11.622788
57.630 12.03997
57.635 12.235406
57.640 12.19344
57.645 12.153332
57.650 12.546383
57.655 13.019186
57.660 12.74035
57.665 12.384286
57.670 12.74471
57.675 12.835292
57.680 12.853985
57.685 13.234182
57.690 13.408529
57.695 13.064658
57.700 13.046194
57.705 12.942624
57.710 12.888769
57.715 13.300691
57.720 13.202636
57.725 12.816118
57.730 12.985559
57.735 12.868853
57.740 12.796596
57.745 13.047832
57.750 12.036677
57.755 11.28433
57.760 11.262614
57.765 10.764192
57.770 10.817634
57.775 10.709096
57.780 10.636501
57.785 11.092286
57.790 11.215109
57.795 11.449842
57.800 11.472649
57.805 11.161736
57.810 11.187737
57.815 11.185044
57.820 11.2093
57.825 11.162366
57.830 10.907572
57.835 11.130852
57.840 11.267624
57.845 11.114171
57.850 10.739354
57.855 10.445376
57.860 10.631328
57.865 10.523851
57.870 10.665209
57.875 10.251465
57.880 10.438587
57.885 10.879
57.890 10.979656
57.895 10.581222
57.900 11.094313
57.905 11.223208
57.910 11.907353
57.915 11.832512
57.920 11.828729
57.925 12.03555
57.930 12.380806
57.935 12.709472
57.940 12.611139
57.945 12.355414
57.950 12.152369
57.955 12.170783
57.960 12.229588
57.965 12.174047
57.970 11.424555
57.975 11.683179
57.980 11.904549
57.985 11.922067
57.990 11.954391
57.995 12.092208
58.000 11.681481
58.005 11.614109
58.010 11.09325
58.015 11.222888
58.020 11.613897
58.025 11.727065
58.030 11.595145
58.035 11.825156
58.040 12.431848
58.045 12.771764
58.050 12.975483
58.055 12.974153
58.060 12.948771
58.065 13.114428
58.070 12.970562
58.075 12.806993
58.080 12.798556
58.085 12.655406
58.090 12.369696
58.095 12.360826
58.100 12.772282
58.105 13.158468
58.110 12.881502
58.115 12.942658
58.120 12.796335
58.125 12.62878
58.130 12.386478
58.135 12.048795
58.140 11.942422
58.145 12.309832
58.150 12.243709
58.155 12.181191
58.160 11.984037
58.165 11.621785
58.170 11.80499
58.175 11.875154
58.180 12.084434
58.185 12.449332
58.190 13.13801
58.195 13.484817
58.200 13.862987
58.205 13.388044
58.210 12.838935
58.215 12.491252
58.220 12.229359
58.225 12.158236
58.230 12.216293
58.235 12.060422
58.240 12.188447
58.245 12.419062
58.250 12.362091
58.255 12.194551
58.260 11.993995
58.265 11.908867
58.270 11.772511
58.275 11.969992
58.280 12.128246
58.285 12.34473
58.290 12.283178
58.295 11.781761
58.300 11.729205
58.305 12.081368
58.310 12.04826
58.315 12.144544
58.320 11.943863
58.325 12.042587
58.330 12.482352
58.335 12.784365
58.340 12.708715
58.345 12.466311
58.350 12.382999
58.355 12.540525
58.360 12.467693
58.365 12.40155
58.370 12.341469
58.375 12.868318
58.380 13.023635
58.385 12.591233
58.390 12.764134
58.395 13.500243
58.400 13.824855
58.405 13.572665
58.410 13.263068
58.415 13.274331
58.420 13.707093
58.425 13.103951
58.430 12.490046
58.435 12.027879
58.440 12.04935
58.445 11.972625
58.450 11.823211
58.455 11.640317
58.460 12.288767
58.465 12.522267
58.470 12.692728
58.475 12.972133
58.480 13.375816
58.485 13.610267
58.490 13.415363
58.495 12.940457
58.500 13.262095
58.505 13.46205
58.510 13.006043
58.515 12.9175
58.520 12.93391
58.525 13.418823
58.530 13.568048
58.535 13.388249
58.540 13.54887
58.545 13.854679
58.550 13.805101
58.555 14.04012
58.560 14.159801
58.565 14.070298
58.570 13.714726
58.575 14.15828
58.580 14.756419
58.585 15.105934
58.590 15.609846
58.595 15.991271
58.600 16.137533
58.605 16.485992
58.610 16.155092
58.615 15.632739
58.620 15.119271
58.625 14.880228
58.630 15.122181
58.635 15.351332
58.640 15.483719
58.645 15.209521
58.650 15.027534
58.655 15.056686
58.660 14.932759
58.665 14.792489
58.670 14.507264
58.675 14.011013
58.680 13.945479
58.685 13.851288
58.690 13.666517
58.695 13.738214
58.700 13.463066
58.705 14.288815
58.710 14.850109
58.715 14.828359
58.720 14.816653
58.725 14.962623
58.730 14.139065
58.735 13.706416
58.740 13.002814
58.745 12.534818
58.750 12.710462
58.755 12.653501
58.760 12.702784
58.765 13.079003
58.770 13.672902
58.775 13.635342
58.780 13.455099
58.785 13.751472
58.790 13.993923
58.795 13.949581
58.800 13.672594
58.805 13.180305
58.810 13.042934
58.815 13.186594
58.820 13.019244
58.825 13.357972
58.830 12.936152
58.835 12.682373
58.840 12.603901
58.845 12.831231
58.850 12.76486
58.855 12.57354
58.860 12.278707
58.865 12.184794
58.870 12.470758
58.875 12.976073
58.880 12.838304
58.885 12.480125
58.890 12.502768
58.895 12.531566
58.900 12.934101
58.905 12.453474
58.910 12.165915
58.915 12.581027
58.920 12.590724
58.925 12.139601
58.930 12.100346
58.935 11.969211
58.940 12.487915
58.945 12.280746
58.950 11.842575
58.955 11.837895
58.960 11.985899
58.965 11.83374
58.970 12.032708
58.975 11.971274
58.980 12.027125
58.985 12.084433
58.990 12.00877
58.995 12.314573
59.000 12.415841
59.005 12.519143
59.010 12.898727
59.015 13.303272
59.020 13.394046
59.025 13.641812
59.030 13.507261
59.035 13.549983
59.040 13.322491
59.045 12.994342
59.050 13.137438
59.055 13.342482
59.060 12.979671
59.065 13.281358
59.070 13.554976
59.075 13.995925
59.080 14.23702
59.085 14.239683
59.090 14.179759
59.095 14.59598
59.100 14.081623
59.105 13.56332
59.110 12.983289
59.115 12.560287
59.120 12.332223
59.125 12.339442
59.130 12.270765
59.135 12.556449
59.140 12.901158
59.145 12.736427
59.150 12.451943
59.155 12.017741
59.160 12.466687
59.165 12.349078
59.170 12.904708
59.175 13.24242
59.180 13.745484
59.185 13.61387
59.190 13.322354
59.195 12.76319
59.200 12.744587
59.205 11.876225
59.210 11.572175
59.215 12.032579
59.220 12.474174
59.225 13.175169
59.230 13.51131
59.235 13.358251
59.240 13.830767
59.245 13.686852
59.250 12.945143
59.255 12.834899
59.260 12.428023
59.265 12.456179
59.270 12.200368
59.275 11.516902
59.280 11.534349
59.285 11.991424
59.290 12.651846
59.295 12.64909
59.300 12.691643
59.305 13.236551
59.310 13.367917
59.315 13.557843
59.320 13.501092
59.325 12.904095
59.330 12.840566
59.335 13.025453
59.340 13.181993
59.345 13.119581
59.350 13.24826
59.355 13.140325
59.360 13.256926
59.365 13.555912
59.370 13.139795
59.375 12.76228
59.380 12.717997
59.385 12.09279
59.390 12.649382
59.395 12.832236
59.400 12.696176
59.405 12.641885
59.410 12.976172
59.415 13.231153
59.420 13.445429
59.425 13.159092
59.430 13.316523
59.435 13.602767
59.440 13.568766
59.445 13.267091
59.450 13.489906
59.455 13.623406
59.460 13.082781
59.465 12.889324
59.470 12.71298
59.475 12.621805
59.480 12.965032
59.485 12.993997
59.490 12.947741
59.495 13.2114
59.500 12.952946
59.505 12.550985
59.510 12.319663
59.515 12.00693
59.520 11.600736
59.525 11.099292
59.530 10.404363
59.535 10.489326
59.540 10.624978
59.545 10.87342
59.550 10.519265
59.555 10.440211
59.560 10.824482
59.565 12.003006
59.570 12.057895
59.575 12.398119
59.580 12.597648
59.585 13.118114
59.590 13.908665
59.595 14.251774
59.600 14.090382
59.605 14.199337
59.610 14.529087
59.615 14.432386
59.620 13.88072
59.625 12.827149
59.630 12.115006
59.635 11.952185
59.640 12.108578
59.645 11.68151
59.650 11.546422
59.655 11.606337
59.660 12.166162
59.665 12.42703
59.670 12.231919
59.675 12.12842
59.680 12.541252
59.685 12.776491
59.690 12.871022
59.695 13.178557
59.700 13.691965
59.705 13.626458
59.710 13.590559
59.715 13.34914
59.720 13.541368
59.725 13.55179
59.730 13.335463
59.735 13.214007
59.740 13.585143
59.745 14.10944
59.750 14.369977
59.755 14.88328
59.760 15.09138
59.765 14.989401
59.770 15.252697
59.775 15.533893
59.780 14.831446
59.785 14.404709
59.790 14.065428
59.795 14.231017
59.800 14.346398
59.805 14.017769
59.810 13.522761
59.815 13.918188
59.820 14.038138
59.825 13.741256
59.830 13.552258
59.835 13.824233
59.840 13.579434
59.845 13.524286
59.850 13.482211
59.855 13.515219
59.860 14.170322
59.865 14.314088
59.870 14.20781
59.875 14.40604
59.880 14.905637
59.885 14.794459
59.890 14.475557
59.895 14.049525
59.900 13.769476
59.905 13.541703
59.910 13.15314
59.915 13.19587
59.920 13.359807
59.925 13.694699
59.930 14.045964
59.935 14.140704
59.940 14.230112
59.945 14.330482
59.950 13.843594
59.955 13.817354
59.960 13.861449
59.965 13.591387
59.970 13.826252
59.975 13.708762
59.980 13.687266
59.985 13.940863
59.990 14.35087
59.995 14.09201
60.000 14.381453
60.005 14.458735
60.010 15.008938
60.015 15.555518
60.020 15.711611
60.025 15.644542
60.030 15.948561
60.035 15.849045
60.040 15.530431
60.045 15.463861
60.050 15.365753
60.055 15.438931
60.060 15.493978
60.065 15.313595
60.070 15.280397
60.075 15.566964
60.080 15.594857
60.085 15.778918
60.090 15.460632
60.095 15.132516
60.100 14.918379
60.105 14.858243
60.110 14.771185
60.115 14.192855
60.120 13.920462
60.125 13.746214
60.130 13.968633
60.135 13.931683
60.140 13.915238
60.145 13.671088
60.150 14.486773
60.155 14.899999
60.160 15.682066
60.165 15.630597
60.170 15.374482
60.175 14.804513
60.180 14.440375
60.185 13.663356
60.190 12.844814
60.195 12.35495
60.200 12.28886
60.205 12.600277
60.210 13.073156
60.215 13.000308
60.220 12.829056
60.225 12.518631
60.230 12.066597
60.235 11.92887
60.240 11.929804
60.245 11.919603
60.250 12.233974
60.255 13.001246
60.260 13.514003
60.265 13.458491
60.270 13.8161
60.275 13.698343
60.280 13.711585
60.285 13.683124
60.290 13.303612
60.295 13.342655
60.300 13.917793
60.305 13.777735
60.310 13.66537
60.315 13.658524
60.320 13.696826
60.325 13.760648
60.330 13.800447
60.335 13.393708
60.340 13.405029
60.345 13.447071
60.350 13.434805
60.355 13.927668
60.360 13.512797
60.365 12.846914
60.370 13.06269
60.375 13.131711
60.380 13.209992
60.385 13.181927
60.390 12.432265
60.395 12.571348
60.400 13.294293
60.405 13.246799
60.410 13.311991
60.415 13.234552
60.420 13.198551
60.425 12.980612
60.430 13.01035
60.435 12.192237
60.440 11.807062
60.445 11.879575
60.450 11.917632
60.455 11.975711
60.460 11.807625
60.465 11.81172
60.470 12.007586
60.475 11.850058
60.480 11.898641
60.485 11.986881
60.490 11.906822
60.495 12.102359
60.500 12.122181
60.505 12.330403
60.510 11.994984
60.515 11.917226
60.520 11.4313
60.525 11.508883
60.530 11.418738
60.535 11.346058
60.540 11.162737
60.545 11.662114
60.550 11.755456
60.555 11.996455
60.560 12.009887
60.565 12.504564
60.570 12.673602
60.575 12.723551
60.580 12.518523
60.585 12.014347
60.590 11.830343
60.595 11.807112
60.600 11.906338
60.605 12.015293
60.610 11.864282
60.615 11.933666
60.620 12.336493
60.625 13.06967
60.630 13.015712
60.635 12.551453
60.640 12.535466
60.645 13.028452
60.650 13.428523
60.655 12.827437
60.660 12.171154
60.665 12.528504
60.670 12.812675
60.675 12.814548
60.680 12.521069
60.685 11.677281
60.690 12.01092
60.695 12.210005
60.700 11.503863
60.705 11.490542
60.710 11.489328
60.715 11.717464
60.720 12.128492
60.725 11.84836
60.730 11.719016
60.735 11.911988
60.740 11.848375
60.745 11.883092
60.750 11.4227
60.755 11.451419
60.760 11.501515
60.765 11.796159
60.770 12.123461
60.775 12.133319
60.780 11.95057
60.785 12.017278
60.790 12.426177
60.795 13.2034
60.800 13.25609
60.805 13.402645
60.810 13.129426
60.815 13.05492
60.820 13.185594
60.825 13.204941
60.830 13.019129
60.835 12.662621
60.840 12.4347
60.845 12.476264
60.850 12.877299
60.855 12.864407
60.860 12.39574
60.865 11.966174
60.870 11.691962
60.875 11.578494
60.880 11.69032
60.885 11.405981
60.890 11.563068
60.895 11.738108
60.900 11.701276
60.905 11.748158
60.910 11.731012
60.915 11.802489
60.920 12.00339
60.925 11.791697
60.930 12.096944
60.935 12.664104
60.940 12.545209
60.945 12.994452
60.950 13.226206
60.955 12.826738
60.960 12.873629
60.965 12.858791
60.970 12.944044
60.975 13.270805
60.980 12.913679
60.985 12.709812
60.990 12.792561
60.995 12.648864
61.000 12.685634
61.005 12.451332
61.010 12.270888
61.015 12.04744
61.020 11.578252
61.025 11.451738
61.030 11.432274
61.035 10.925932
61.040 11.103549
61.045 10.953753
61.050 10.913831
61.055 11.125072
61.060 11.422804
61.065 11.301894
61.070 11.536877
61.075 11.577952
61.080 11.888445
61.085 12.099894
61.090 12.672436
61.095 12.749358
61.100 12.51148
61.105 12.657471
61.110 12.453321
61.115 12.264742
61.120 12.27673
61.125 11.505294
61.130 11.598751
61.135 11.97938
61.140 11.751648
61.145 11.967472
61.150 12.0412
61.155 11.811011
61.160 11.557625
61.165 11.106033
61.170 11.086266
61.175 11.030426
61.180 10.766479
61.185 10.830464
61.190 11.175557
61.195 12.437264
61.200 12.802786
61.205 12.899615
61.210 13.177319
61.215 13.532297
61.220 13.656974
61.225 13.280221
61.230 12.738781
61.235 12.420928
61.240 12.065872
61.245 12.304848
61.250 12.580608
61.255 12.447275
61.260 12.660182
61.265 12.459715
61.270 12.398381
61.275 12.187814
61.280 11.862119
61.285 11.829682
61.290 11.827724
61.295 11.747381
61.300 11.872681
61.305 11.904146
61.310 11.766375
61.315 11.634697
61.320 11.739173
61.325 12.107841
61.330 12.156469
61.335 12.443516
61.340 12.91866
61.345 13.368873
61.350 13.20496
61.355 12.696201
61.360 12.387852
61.365 12.461537
61.370 12.195588
61.375 11.714557
61.380 11.689025
61.385 11.476937
61.390 11.892776
61.395 12.433248
61.400 12.162764
61.405 11.818953
61.410 11.713933
61.415 11.65484
61.420 11.807808
61.425 11.308806
61.430 10.927369
61.435 10.886747
61.440 11.141743
61.445 11.852839
61.450 11.762353
61.455 11.947624
61.460 12.022359
61.465 12.016593
61.470 12.229257
61.475 12.547791
61.480 12.280113
61.485 12.438485
61.490 12.266706
61.495 12.44727
61.500 12.629655
61.505 13.124714
61.510 12.995358
61.515 12.952286
61.520 12.728641
61.525 12.665206
61.530 12.453835
61.535 12.777845
61.540 12.669953
61.545 12.556433
61.550 12.426517
61.555 12.455187
61.560 12.650842
61.565 12.672893
61.570 12.253304
61.575 12.01181
61.580 11.451794
61.585 11.844016
61.590 12.304391
61.595 12.488416
61.600 12.782919
61.605 12.903385
61.610 12.717867
61.615 12.822033
61.620 12.306403
61.625 12.138988
61.630 11.954521
61.635 11.509583
61.640 11.267996
61.645 11.180186
61.650 11.161266
61.655 11.612701
61.660 11.553358
61.665 11.265782
61.670 11.195995
61.675 11.551723
61.680 12.006322
61.685 12.179055
61.690 12.033145
61.695 12.120814
61.700 11.94883
61.705 11.879814
61.710 11.759318
61.715 11.64606
61.720 11.727497
61.725 11.465305
61.730 11.585257
61.735 11.918163
61.740 12.110303
61.745 12.466084
61.750 12.361979
61.755 12.021887
61.760 12.204503
61.765 12.234213
61.770 12.635523
61.775 12.685351
61.780 12.669894
61.785 12.711035
61.790 13.036915
61.795 12.981763
61.800 12.888974
61.805 12.785984
61.810 12.832707
61.815 12.677937
61.820 12.875509
61.825 12.791305
61.830 12.695847
61.835 12.556455
61.840 12.398381
61.845 12.084832
61.850 11.775241
61.855 11.794688
61.860 11.658044
61.865 11.874797
61.870 11.712241
61.875 11.528942
61.880 12.227517
61.885 12.985512
61.890 12.833683
61.895 13.230299
61.900 13.114367
61.905 12.951459
61.910 13.115058
61.915 12.485381
61.920 12.0068
61.925 12.556737
61.930 12.802475
61.935 13.029602
61.940 13.310019
61.945 13.28648
61.950 13.066146
61.955 13.307425
61.960 13.049997
61.965 12.208174
61.970 11.817266
61.975 11.552892
61.980 11.332283
61.985 11.300718
61.990 11.057466
61.995 11.093075
62.000 11.243584
62.005 11.591698
62.010 12.370432
62.015 13.191921
62.020 13.358795
62.025 13.245152
62.030 13.130751
62.035 13.380236
62.040 13.050927
62.045 12.431145
62.050 12.319414
62.055 12.518723
62.060 12.678201
62.065 12.765338
62.070 13.550528
62.075 14.105956
62.080 14.328692
62.085 14.20738
62.090 14.413071
62.095 14.612411
62.100 14.211929
62.105 14.037593
62.110 13.613866
62.115 13.291572
62.120 12.988281
62.125 12.646179
62.130 12.681355
62.135 13.077029
62.140 12.471047
62.145 12.513348
62.150 12.96971
62.155 13.194215
62.160 13.143438
62.165 12.968863
62.170 13.06762
62.175 13.313785
62.180 13.62527
62.185 13.827879
62.190 14.119219
62.195 14.240473
62.200 13.764196
62.205 13.143864
62.210 12.972639
62.215 12.592451
62.220 12.056808
62.225 11.921494
62.230 11.899201
62.235 12.029793
62.240 12.039861
62.245 12.112195
62.250 12.151358
62.255 12.137131
62.260 11.409161
62.265 11.325738
62.270 11.649474
62.275 11.380037
62.280 11.216641
62.285 11.603342
62.290 12.016345
62.295 12.298535
62.300 12.293406
62.305 12.26349
62.310 12.327547
62.315 12.30484
62.320 12.077703
62.325 12.304642
62.330 12.280037
62.335 11.783548
62.340 11.883854
62.345 11.743927
62.350 11.653821
62.355 11.459918
62.360 11.082211
62.365 11.407831
62.370 12.154461
62.375 12.063671
62.380 12.729282
62.385 12.626507
62.390 12.516035
62.395 12.510882
62.400 12.808408
62.405 12.912274
62.410 13.410908
62.415 13.761271
62.420 13.843781
62.425 13.999901
62.430 14.234716
62.435 13.784388
62.440 13.601222
62.445 13.282756
62.450 13.176546
62.455 13.621734
62.460 13.502904
62.465 13.553785
62.470 13.635522
62.475 13.500149
62.480 13.480994
62.485 13.001634
62.490 12.947614
62.495 13.075626
62.500 12.87692
62.505 12.599544
62.510 12.343403
62.515 12.336609
62.520 12.236117
62.525 11.794052
62.530 11.247821
62.535 11.230053
62.540 11.06636
62.545 11.269643
62.550 11.392876
62.555 11.443854
62.560 11.276578
62.565 11.750339
62.570 11.850103
62.575 12.515793
62.580 12.158455
62.585 12.325524
62.590 12.564904
62.595 12.465968
62.600 12.32111
62.605 12.167921
62.610 11.383823
62.615 11.966193
62.620 11.98112
62.625 12.439805
62.630 12.971713
62.635 13.223013
62.640 13.444423
62.645 13.797791
62.650 13.652869
62.655 13.356936
62.660 12.749841
62.665 12.280515
62.670 12.446645
62.675 12.829664
62.680 13.087538
62.685 13.019389
62.690 13.283237
62.695 13.519657
62.700 13.592987
62.705 13.352674
62.710 13.566255
62.715 13.393975
62.720 13.51468
62.725 13.6477
62.730 14.275513
62.735 14.415889
62.740 14.425611
62.745 14.279411
62.750 14.709933
62.755 15.124964
62.760 15.206467
62.765 14.882434
62.770 14.694749
62.775 14.604527
62.780 14.263812
62.785 13.972554
62.790 13.746922
62.795 13.920598
62.800 14.532229
62.805 15.312578
62.810 15.307837
62.815 15.257277
62.820 15.317895
62.825 15.659947
62.830 15.571887
62.835 15.569525
62.840 15.54127
62.845 15.804205
62.850 15.806063
62.855 15.785813
62.860 15.466969
62.865 15.069047
62.870 14.495844
62.875 14.394334
62.880 14.348665
62.885 14.257991
62.890 14.213905
62.895 14.57043
62.900 14.723189
62.905 14.517258
62.910 14.459338
62.915 14.444983
62.920 14.441395
62.925 14.313375
62.930 13.836987
62.935 13.92342
62.940 13.673883
62.945 13.135379
62.950 12.865513
62.955 12.780289
62.960 12.429957
62.965 11.877007
62.970 11.753284
62.975 11.747709
62.980 11.942434
62.985 12.29784
62.990 12.447922
62.995 12.742064
63.000 13.141743
63.005 12.988887
63.010 13.377815
63.015 13.304854
63.020 12.785346
63.025 12.616067
63.030 12.575585
63.035 12.937975
63.040 13.444996
63.045 13.095284
63.050 12.986134
63.055 12.913348
63.060 12.713098
63.065 12.932824
63.070 12.233531
63.075 11.764262
63.080 11.77618
63.085 11.883006
63.090 12.522739
63.095 12.832747
63.100 12.781962
63.105 13.176558
63.110 12.84584
63.115 13.172206
63.120 13.319184
63.125 12.941417
63.130 12.708447
63.135 12.72765
63.140 12.269494
63.145 12.091428
63.150 11.447344
63.155 11.083504
63.160 11.219262
63.165 11.187744
63.170 11.362703
63.175 11.360829
63.180 11.211856
63.185 11.746422
63.190 11.689537
63.195 12.108097
63.200 11.787374
63.205 11.744969
63.210 12.121071
63.215 12.519696
63.220 13.013268
63.225 13.336746
63.230 13.001625
63.235 12.963094
63.240 12.516063
63.245 12.665655
63.250 13.157439
63.255 12.819874
63.260 12.611372
63.265 12.623121
63.270 12.716624
63.275 13.201261
63.280 13.371585
63.285 12.902538
63.290 12.710173
63.295 13.221932
63.300 13.404575
63.305 13.590727
63.310 13.870312
63.315 14.183988
63.320 14.515052
63.325 14.514256
63.330 14.089344
63.335 14.218133
63.340 14.477843
63.345 14.309816
63.350 13.707545
63.355 13.398661
63.360 13.329309
63.365 13.223309
63.370 13.366637
63.375 13.356255
63.380 13.239654
63.385 13.528227
63.390 13.734899
63.395 13.812633
63.400 14.209862
63.405 14.090086
63.410 13.854599
63.415 13.960403
63.420 13.924836
63.425 13.712579
63.430 13.423827
63.435 12.958889
63.440 12.142874
63.445 12.173907
63.450 12.059425
63.455 11.917153
63.460 12.114425
63.465 12.115373
63.470 12.230188
63.475 12.730803
63.480 12.805426
63.485 13.551347
63.490 13.529947
63.495 13.678685
63.500 14.030421
63.505 14.513143
63.510 14.786666
63.515 14.764882
63.520 14.296601
63.525 14.193067
63.530 13.868889
63.535 13.802653
63.540 13.553619
63.545 13.193899
63.550 13.181247
63.555 13.503886
63.560 13.744248
63.565 14.29997
63.570 14.579582
63.575 14.442367
63.580 14.463484
63.585 14.137168
63.590 13.533091
63.595 13.564616
63.600 13.157117
63.605 12.744595
63.610 12.897841
63.615 13.002659
63.620 13.116487
63.625 13.519157
63.630 13.904377
63.635 14.022424
63.640 14.125835
63.645 14.224061
63.650 14.290156
63.655 14.069067
63.660 13.85959
63.665 13.194412
63.670 13.000442
63.675 12.721705
63.680 12.459097
63.685 12.604544
63.690 12.672277
63.695 12.389425
63.700 12.285118
63.705 12.661578
63.710 12.872381
63.715 12.670622
63.720 12.585736
63.725 12.245029
63.730 12.027238
63.735 12.535961
63.740 12.717579
63.745 12.863712
63.750 12.954679
63.755 12.677599
63.760 12.662435
63.765 12.958776
63.770 12.713392
63.775 12.18944
63.780 11.931132
63.785 11.588009
63.790 11.828174
63.795 12.046175
63.800 11.973993
63.805 12.487375
63.810 13.046675
63.815 13.291765
63.820 13.584439
63.825 13.71672
63.830 14.09205
63.835 13.957682
63.840 13.109047
63.845 12.58445
63.850 12.66322
63.855 12.672919
63.860 13.114874
63.865 12.801883
63.870 12.968036
63.875 13.016768
63.880 13.319274
63.885 13.718492
63.890 13.558298
63.895 13.088804
63.900 12.619395
63.905 12.619921
63.910 12.867516
63.915 12.379645
63.920 11.96518
63.925 12.391317
63.930 12.818357
63.935 13.715824
63.940 13.538754
63.945 14.055954
63.950 14.419882
63.955 14.162899
63.960 13.968088
63.965 13.775743
63.970 13.603313
63.975 13.917033
63.980 13.732874
63.985 13.967509
63.990 14.307115
63.995 14.494478
64.000 14.549838
64.005 14.225887
64.010 14.152065
64.015 14.390367
64.020 14.61865
64.025 14.787752
64.030 14.554437
64.035 14.262708
64.040 14.313381
64.045 14.22223
64.050 13.734905
64.055 13.31817
64.060 13.277068
64.065 12.827538
64.070 13.07845
64.075 13.309235
64.080 13.37236
64.085 13.585258
64.090 13.617373
64.095 13.540774
64.100 13.595469
64.105 13.505812
64.110 13.309176
64.115 13.588301
64.120 13.178067
64.125 12.978209
64.130 13.212947
64.135 13.639713
64.140 13.75349
64.145 13.906653
64.150 13.637294
64.155 13.82154
64.160 13.683443
64.165 13.074043
64.170 12.95612
64.175 13.290855
64.180 13.507404
64.185 13.582811
64.190 13.486374
64.195 14.170401
64.200 14.697803
64.205 14.520723
64.210 14.087936
64.215 14.142257
64.220 13.914162
64.225 13.969758
64.230 13.870744
64.235 13.985355
64.240 14.120665
64.245 14.296137
64.250 14.552632
64.255 14.881923
64.260 14.943104
64.265 14.981749
64.270 14.705424
64.275 15.426293
64.280 15.457623
64.285 14.894275
64.290 14.931855
64.295 15.070212
64.300 14.891303
64.305 15.17036
64.310 14.251258
64.315 13.876119
64.320 14.25123
64.325 13.916278
64.330 13.587736
64.335 13.344638
64.340 13.125575
64.345 13.742938
64.350 13.635113
64.355 13.090045
64.360 12.750662
64.365 12.886565
64.370 13.181333
64.375 13.24023
64.380 13.353874
64.385 13.700819
64.390 14.065926
64.395 14.496006
64.400 14.614657
64.405 14.227906
64.410 14.414555
64.415 14.384295
64.420 14.353576
64.425 14.788219
64.430 15.240129
64.435 15.162777
64.440 15.345022
64.445 15.281654
64.450 15.220222
64.455 14.955501
64.460 14.514792
64.465 15.099071
64.470 14.905932
64.475 14.913585
64.480 14.595305
64.485 14.835064
64.490 15.056424
64.495 15.156328
64.500 15.127593
64.505 15.789263
64.510 16.30167
64.515 16.489531
64.520 15.916709
64.525 15.50608
64.530 15.38455
64.535 15.163963
64.540 14.916561
64.545 14.515122
64.550 14.367183
64.555 14.506853
64.560 14.383152
64.565 14.232983
64.570 13.809155
64.575 13.705723
64.580 13.54972
64.585 13.546136
64.590 13.395006
64.595 13.753176
64.600 13.784871
64.605 13.697383
64.610 13.42694
64.615 13.742953
64.620 13.925848
64.625 14.617459
64.630 14.661592
64.635 14.910801
64.640 15.258798
64.645 15.374289
64.650 15.324973
64.655 15.224037
64.660 15.253683
64.665 15.384261
64.670 15.527286
64.675 15.379306
64.680 15.311146
64.685 15.152001
64.690 14.736267
64.695 14.187686
64.700 14.127539
64.705 13.458219
64.710 13.449767
64.715 13.503517
64.720 13.290799
64.725 14.115571
64.730 15.007831
64.735 15.524685
64.740 16.357178
64.745 17.092184
64.750 17.212446
64.755 17.364548
64.760 17.148947
64.765 17.115337
64.770 16.75783
64.775 16.310749
64.780 15.960838
64.785 15.847012
64.790 15.883725
64.795 16.15674
64.800 15.849671
64.805 16.211971
64.810 17.130186
64.815 17.564213
64.820 18.253492
64.825 18.552931
64.830 18.578823
64.835 18.835983
64.840 19.022249
64.845 19.39909
64.850 20.03474
64.855 20.604216
64.860 21.342516
64.865 21.079739
64.870 20.885685
64.875 21.003256
64.880 20.115349
64.885 19.656717
64.890 20.069574
64.895 20.359819
64.900 20.883219
64.905 21.284685
64.910 21.432743
64.915 22.250734
64.920 22.843973
64.925 22.718025
64.930 22.663378
64.935 22.690561
64.940 22.391436
64.945 22.074415
64.950 22.074154
64.955 22.123816
64.960 22.139135
64.965 22.008535
64.970 22.432604
64.975 22.966869
64.980 23.516977
64.985 24.12966
64.990 23.877329
64.995 23.429588
65.000 23.539433
65.005 23.798004
65.010 24.232052
65.015 23.545799
65.020 23.684885
65.025 23.965675
65.030 23.567833
65.035 23.567009
65.040 23.741549
65.045 23.727655
65.050 23.811666
65.055 22.862322
65.060 22.943434
65.065 23.616909
65.070 23.80792
65.075 23.105814
65.080 22.711658
65.085 22.995964
65.090 23.838301
65.095 23.576733
65.100 24.166199
65.105 24.537149
65.110 24.948555
65.115 25.794662
65.120 25.906988
65.125 25.52667
65.130 25.627035
65.135 24.221891
65.140 23.993294
65.145 24.053072
65.150 23.218651
65.155 22.554256
65.160 21.705791
65.165 21.496622
65.170 21.971905
65.175 21.364374
65.180 21.293411
65.185 21.619757
65.190 21.717022
65.195 22.314348
65.200 22.604374
65.205 22.998697
65.210 23.136299
65.215 22.933628
65.220 22.86442
65.225 22.972073
65.230 22.369314
65.235 22.574091
65.240 22.022921
65.245 21.727226
65.250 20.870174
65.255 20.287605
65.260 20.134668
65.265 20.685507
65.270 19.918016
65.275 19.722301
65.280 19.55023
65.285 19.637009
65.290 19.743542
65.295 19.701225
65.300 18.724533
65.305 18.737324
65.310 18.951124
65.315 18.872187
65.320 18.702278
65.325 18.201374
65.330 18.266184
65.335 18.230373
65.340 18.170057
65.345 17.927942
65.350 17.74066
65.355 17.766514
65.360 17.730022
65.365 17.014597
65.370 17.429165
65.375 17.586113
65.380 17.630638
65.385 17.084913
65.390 16.880041
65.395 16.903763
65.400 16.918163
65.405 16.537462
65.410 16.290195
65.415 16.337978
65.420 17.225452
65.425 17.439613
65.430 17.552029
65.435 17.346577
65.440 17.242685
65.445 17.032578
65.450 16.561314
65.455 15.733395
65.460 15.929246
65.465 16.240015
65.470 16.298235
65.475 15.937257
65.480 15.747288
65.485 15.7342
65.490 16.130482
65.495 16.491394
65.500 16.784473
65.505 17.470083
65.510 17.450464
65.515 17.34724
65.520 17.827415
65.525 17.828266
65.530 17.239466
65.535 16.98995
65.540 16.482719
65.545 16.742615
65.550 16.626671
65.555 15.542454
65.560 15.219885
65.565 15.112273
65.570 14.859348
65.575 15.23182
65.580 15.683287
65.585 15.953285
65.590 16.792425
65.595 16.931444
65.600 17.029236
65.605 17.082058
65.610 16.739759
65.615 16.502743
65.620 16.893637
65.625 17.079737
65.630 17.337498
65.635 17.70257
65.640 17.778271
65.645 17.927313
65.650 17.524065
65.655 17.388216
65.660 16.888773
65.665 16.736588
65.670 16.465134
65.675 16.912373
65.680 16.581997
65.685 16.679358
65.690 16.904264
65.695 17.412052
65.700 17.335394
65.705 16.994116
65.710 16.80957
65.715 17.599176
65.720 17.534367
65.725 17.704279
65.730 17.687366
65.735 17.683113
65.740 17.776403
65.745 17.759956
65.750 17.391109
65.755 17.018326
65.760 16.775331
65.765 16.836157
65.770 16.783705
65.775 17.048483
65.780 17.337431
65.785 17.556927
65.790 18.329966
65.795 18.514557
65.800 18.209122
65.805 18.604298
65.810 18.290396
65.815 18.266701
65.820 18.442841
65.825 17.748768
65.830 17.282425
65.835 18.144533
65.840 17.87064
65.845 17.670557
65.850 17.620628
65.855 17.66054
65.860 18.240833
65.865 18.058411
65.870 17.830509
65.875 18.255878
65.880 18.761301
65.885 18.783657
65.890 18.741608
65.895 18.716141
65.900 18.710949
65.905 18.80234
65.910 18.711418
65.915 18.086355
65.920 17.990427
65.925 17.732716
65.930 17.669867
65.935 18.454407
65.940 18.174324
65.945 18.075203
65.950 18.540581
65.955 18.663914
65.960 18.977163
65.965 19.060633
65.970 18.889435
65.975 18.752195
65.980 18.98996
65.985 19.189835
65.990 19.417608
65.995 19.315742
66.000 19.358059
66.005 19.66024
66.010 20.089495
66.015 19.65329
66.020 19.270462
66.025 18.6441
66.030 18.529484
66.035 18.901281
66.040 18.885956
66.045 19.144979
66.050 18.992918
66.055 19.165861
66.060 19.541513
66.065 19.73103
66.070 19.72191
66.075 19.209267
66.080 18.803768
66.085 19.357491
66.090 19.596561
66.095 20.150669
66.100 20.811686
66.105 20.765547
66.110 21.108721
66.115 21.213377
66.120 21.383615
66.125 21.357105
66.130 21.350447
66.135 20.616447
66.140 19.89814
66.145 19.421869
66.150 18.94067
66.155 18.722397
66.160 18.479673
66.165 18.179741
66.170 17.912739
66.175 18.308899
66.180 18.572163
66.185 19.2456
66.190 19.15122
66.195 19.140295
66.200 19.228249
66.205 19.86256
66.210 20.45647
66.215 20.446558
66.220 19.67787
66.225 19.99621
66.230 20.300123
66.235 20.740398
66.240 20.900356
66.245 20.890587
66.250 21.291641
66.255 21.63619
66.260 21.405218
66.265 20.369801
66.270 19.750292
66.275 19.611921
66.280 19.559292
66.285 19.066851
66.290 19.209032
66.295 19.094978
66.300 20.001961
66.305 20.19095
66.310 19.493023
66.315 19.098293
66.320 19.209301
66.325 19.156458
66.330 19.096386
66.335 19.095604
66.340 18.755486
66.345 18.376158
66.350 18.320599
66.355 18.096909
66.360 17.644896
66.365 17.312122
66.370 16.647682
66.375 16.086107
66.380 16.178431
66.385 15.894711
66.390 16.037563
66.395 16.440554
66.400 16.360107
66.405 16.580111
66.410 16.78738
66.415 16.323736
66.420 16.521749
66.425 16.503778
66.430 16.163012
66.435 15.667344
66.440 15.369437
66.445 15.766494
66.450 16.117411
66.455 15.243064
66.460 14.509678
66.465 14.587225
66.470 14.626369
66.475 14.621828
66.480 14.560394
66.485 14.853006
66.490 15.863899
66.495 16.256413
66.500 16.065224
66.505 16.1334
66.510 16.202633
66.515 15.947508
66.520 15.711315
66.525 14.937571
66.530 14.836142
66.535 14.943998
66.540 15.856377
66.545 15.675132
66.550 15.986704
66.555 16.492613
66.560 16.852524
66.565 17.408808
66.570 17.457638
66.575 16.581894
66.580 16.319471
66.585 15.718123
66.590 15.633632
66.595 15.545182
66.600 15.084513
66.605 15.121113
66.610 14.995595
66.615 15.217394
66.620 15.160339
66.625 14.654566
66.630 14.469184
66.635 14.579504
66.640 14.315097
66.645 14.344193
66.650 14.432374
66.655 14.326246
66.660 14.485158
66.665 14.497719
66.670 14.256093
66.675 14.770386
66.680 14.918726
66.685 15.155071
66.690 15.39973
66.695 15.025904
66.700 15.036492
66.705 15.053707
66.710 14.557064
66.715 14.185713
66.720 13.898657
66.725 13.541063
66.730 13.783975
66.735 14.124802
66.740 14.385433
66.745 14.762304
66.750 15.176135
66.755 14.954294
66.760 14.759513
66.765 14.99872
66.770 14.590674
66.775 14.286351
66.780 14.198626
66.785 13.657673
66.790 13.642384
66.795 13.751933
66.800 13.698567
66.805 13.753638
66.810 13.298823
66.815 13.057229
66.820 13.455012
66.825 14.185596
66.830 13.763852
66.835 13.32353
66.840 13.501399
66.845 13.426611
66.850 13.73162
66.855 13.580761
66.860 13.142517
66.865 13.284781
66.870 12.964623
66.875 13.32994
66.880 13.96715
66.885 14.180492
66.890 13.806363
66.895 14.027043
66.900 14.580852
66.905 15.016842
66.910 14.529957
66.915 13.773775
66.920 13.775005
66.925 13.717621
66.930 13.291206
66.935 13.243011
66.940 13.00421
66.945 13.256552
66.950 13.655286
66.955 13.675391
66.960 13.909278
66.965 14.324862
66.970 14.657229
66.975 14.414823
66.980 14.193906
66.985 13.914264
66.990 13.763224
66.995 14.279737
67.000 14.062319
67.005 13.875606
67.010 13.763978
67.015 13.58178
67.020 13.433661
67.025 13.236646
67.030 13.034431
67.035 13.217183
67.040 13.16475
67.045 13.40519
67.050 13.8008
67.055 13.902761
67.060 14.660443
67.065 14.663181
67.070 15.1578
67.075 15.865094
67.080 15.878591
67.085 15.644942
67.090 15.258003
67.095 14.849813
67.100 14.088552
67.105 13.159453
67.110 12.476907
67.115 12.403123
67.120 12.506709
67.125 12.673209
67.130 12.325139
67.135 12.788502
67.140 12.446822
67.145 12.53526
67.150 12.490409
67.155 12.295052
67.160 12.136131
67.165 12.196416
67.170 11.903254
67.175 12.312686
67.180 12.210446
67.185 12.331108
67.190 12.651815
67.195 12.613316
67.200 12.796248
67.205 12.875045
67.210 13.049064
67.215 12.945736
67.220 13.292577
67.225 12.979873
67.230 12.836426
67.235 12.622979
67.240 12.845001
67.245 13.230787
67.250 14.119952
67.255 14.19805
67.260 14.66971
67.265 14.790961
67.270 14.977577
67.275 14.936301
67.280 14.543678
67.285 13.834766
67.290 13.366549
67.295 13.511848
67.300 14.032323
67.305 13.866055
67.310 14.061356
67.315 13.972547
67.320 14.059758
67.325 14.184497
67.330 13.556891
67.335 13.009369
67.340 12.844092
67.345 12.211983
67.350 12.17822
67.355 11.994534
67.360 11.828098
67.365 12.242009
67.370 12.161818
67.375 12.552393
67.380 12.997721
67.385 12.284628
67.390 12.325635
67.395 12.313432
67.400 12.153681
67.405 12.44899
67.410 12.282778
67.415 12.003774
67.420 12.414409
67.425 12.473866
67.430 12.173352
67.435 12.102387
67.440 11.959886
67.445 12.145817
67.450 12.795567
67.455 12.814748
67.460 12.729405
67.465 13.1915
67.470 13.475447
67.475 13.849361
67.480 13.979865
67.485 13.81865
67.490 14.040792
67.495 14.241246
67.500 14.097823
67.505 14.120115
67.510 13.942595
67.515 13.515819
67.520 13.580274
67.525 13.699299
67.530 13.718881
67.535 13.435383
67.540 13.044542
67.545 12.622127
67.550 12.610188
67.555 12.389817
67.560 12.568819
67.565 12.407494
67.570 12.637131
67.575 12.729879
67.580 13.304876
67.585 13.175456
67.590 12.712173
67.595 12.444879
67.600 12.621724
67.605 13.331445
67.610 13.798239
67.615 13.761417
67.620 14.105075
67.625 14.493537
67.630 14.767062
67.635 14.776901
67.640 14.348463
67.645 13.674191
67.650 13.850843
67.655 14.284328
67.660 14.445066
67.665 14.124738
67.670 14.180754
67.675 13.777994
67.680 13.753781
67.685 13.606261
67.690 12.940918
67.695 12.658484
67.700 12.679273
67.705 12.328825
67.710 12.336072
67.715 12.811097
67.720 12.571051
67.725 12.541786
67.730 13.106284
67.735 13.017602
67.740 13.194525
67.745 13.242461
67.750 12.806246
67.755 13.259813
67.760 13.72738
67.765 13.663625
67.770 13.87771
67.775 13.869151
67.780 14.37467
67.785 14.495347
67.790 14.421898
67.795 14.27641
67.800 14.095922
67.805 13.946522
67.810 13.98229
67.815 13.488243
67.820 13.439567
67.825 13.220156
67.830 12.618311
67.835 12.52892
67.840 12.761649
67.845 13.021166
67.850 13.547053
67.855 14.173485
67.860 14.224403
67.865 14.041842
67.870 14.037505
67.875 14.135011
67.880 13.888362
67.885 13.500659
67.890 13.258902
67.895 13.448392
67.900 13.943464
67.905 14.383372
67.910 14.230004
67.915 14.138184
67.920 14.423319
67.925 14.150917
67.930 14.327204
67.935 14.454249
67.940 14.229571
67.945 14.424632
67.950 14.724606
67.955 14.512272
67.960 14.408295
67.965 14.298874
67.970 13.7787
67.975 13.629656
67.980 13.241922
67.985 13.077577
67.990 13.617882
67.995 14.091465
68.000 14.348813
68.005 14.702019
68.010 14.728225
68.015 14.541481
68.020 14.35994
68.025 13.713788
68.030 13.000941
68.035 13.308846
68.040 13.265726
68.045 13.571911
68.050 13.779153
68.055 13.480927
68.060 13.681551
68.065 13.753682
68.070 13.586295
68.075 13.573577
68.080 13.625019
68.085 14.125747
68.090 13.855935
68.095 13.726482
68.100 13.792997
68.105 13.454832
68.110 13.439221
68.115 13.090187
68.120 12.513194
68.125 12.800076
68.130 12.866431
68.135 12.611926
68.140 12.386935
68.145 11.847277
68.150 11.81063
68.155 12.084838
68.160 12.064454
68.165 12.348402
68.170 12.722497
68.175 12.608046
68.180 13.222461
68.185 13.086913
68.190 13.016476
68.195 12.877834
68.200 12.614762
68.205 12.508628
68.210 13.049719
68.215 13.472226
68.220 13.356067
68.225 13.038526
68.230 13.134923
68.235 12.768469
68.240 12.397993
68.245 11.893412
68.250 11.696259
68.255 11.768076
68.260 12.26175
68.265 12.278631
68.270 12.60257
68.275 12.756989
68.280 12.642604
68.285 12.216253
68.290 12.529644
68.295 12.229038
68.300 12.183522
68.305 12.094951
68.310 12.57714
68.315 12.943636
68.320 12.796251
68.325 12.643394
68.330 12.717975
68.335 12.843602
68.340 12.867313
68.345 12.55463
68.350 12.704532
68.355 12.989017
68.360 12.8283
68.365 12.953851
68.370 12.832759
68.375 12.95347
68.380 12.41597
68.385 12.163935
68.390 12.296757
68.395 12.43452
68.400 12.684283
68.405 12.960649
68.410 13.08019
68.415 13.618499
68.420 14.360642
68.425 14.297424
68.430 14.282702
68.435 14.046205
68.440 13.776264
68.445 13.754641
68.450 13.839975
68.455 13.835703
68.460 14.052384
68.465 13.391278
68.470 13.099316
68.475 13.094343
68.480 13.138779
68.485 12.813167
68.490 12.160747
68.495 12.345384
68.500 12.811759
68.505 13.158258
68.510 12.960849
68.515 12.901175
68.520 12.838319
68.525 12.742993
68.530 12.527098
68.535 12.701656
68.540 12.703883
68.545 13.137388
68.550 13.813397
68.555 13.806067
68.560 13.835134
68.565 13.684669
68.570 13.451532
68.575 13.301042
68.580 12.974035
68.585 12.559609
68.590 12.773244
68.595 13.234611
68.600 13.361164
68.605 13.878532
68.610 13.880999
68.615 14.190269
68.620 14.426098
68.625 14.536974
68.630 14.388122
68.635 14.729693
68.640 14.468655
68.645 14.369924
68.650 14.247151
68.655 13.722425
68.660 13.824935
68.665 13.751513
68.670 13.221268
68.675 12.811325
68.680 13.112609
68.685 12.960527
68.690 13.294016
68.695 13.48845
68.700 13.521441
68.705 14.168097
68.710 14.636233
68.715 14.649462
68.720 14.703112
68.725 14.331944
68.730 14.375443
68.735 14.668932
68.740 14.510694
68.745 13.673968
68.750 13.509639
68.755 13.621304
68.760 13.854912
68.765 13.364677
68.770 12.989115
68.775 13.029449
68.780 13.588578
68.785 13.645736
68.790 13.499262
68.795 13.588081
68.800 13.669507
68.805 13.842433
68.810 14.146552
68.815 14.627595
68.820 14.642499
68.825 14.43658
68.830 14.092838
68.835 14.679699
68.840 14.734005
68.845 14.232901
68.850 13.50362
68.855 13.384112
68.860 13.751494
68.865 13.735354
68.870 12.904833
68.875 12.734375
68.880 13.335602
68.885 13.802811
68.890 14.006613
68.895 13.900697
68.900 14.024133
68.905 14.544693
68.910 14.518317
68.915 14.038319
68.920 14.019403
68.925 14.24281
68.930 14.731691
68.935 15.011265
68.940 14.917633
68.945 15.362514
68.950 15.881506
68.955 15.50851
68.960 15.170952
68.965 14.722697
68.970 14.720789
68.975 14.232257
68.980 13.646388
68.985 13.078166
68.990 13.163972
68.995 12.64105
69.000 12.820393
69.005 12.886664
69.010 13.678687
69.015 14.295124
69.020 15.246299
69.025 15.81793
69.030 16.637733
69.035 16.440563
69.040 16.323999
69.045 15.880501
69.050 15.248831
69.055 14.532289
69.060 14.166821
69.065 13.747561
69.070 14.127601
69.075 14.392219
69.080 14.750044
69.085 14.665919
69.090 15.234522
69.095 15.882682
69.100 16.284555
69.105 16.236771
69.110 16.670649
69.115 16.813904
69.120 16.981497
69.125 16.575567
69.130 15.902894
69.135 15.648157
69.140 15.873609
69.145 15.33639
69.150 15.35839
69.155 15.729983
69.160 16.113461
69.165 17.18111
69.170 17.820103
69.175 18.374989
69.180 18.43701
69.185 18.41169
69.190 18.471342
69.195 18.337509
69.200 17.769268
69.205 16.73789
69.210 16.455233
69.215 16.495886
69.220 16.047144
69.225 15.734275
69.230 15.690251
69.235 16.063189
69.240 16.304758
69.245 15.891946
69.250 15.69113
69.255 15.819309
69.260 16.313461
69.265 16.174559
69.270 15.794978
69.275 15.524505
69.280 16.103344
69.285 16.952307
69.290 17.243578
69.295 16.695755
69.300 16.500551
69.305 16.491068
69.310 16.657011
69.315 16.654032
69.320 16.257492
69.325 16.348055
69.330 16.364256
69.335 16.683947
69.340 17.523611
69.345 17.749434
69.350 17.46196
69.355 17.048969
69.360 17.060074
69.365 17.297859
69.370 16.989941
69.375 16.438051
69.380 15.998139
69.385 16.632164
69.390 16.399923
69.395 16.341742
69.400 16.520348
69.405 16.783279
69.410 16.855024
69.415 17.06237
69.420 16.949383
69.425 17.678703
69.430 17.979809
69.435 17.765564
69.440 17.640682
69.445 17.538641
69.450 17.606621
69.455 16.704031
69.460 16.310141
69.465 15.65724
69.470 15.564174
69.475 15.357931
69.480 15.655538
69.485 15.741837
69.490 16.269094
69.495 16.262625
69.500 16.436111
69.505 16.276613
69.510 16.441109
69.515 16.734962
69.520 16.442108
69.525 16.748232
69.530 16.858162
69.535 16.894724
69.540 16.775454
69.545 16.557562
69.550 15.961189
69.555 16.017168
69.560 15.830778
69.565 15.513282
69.570 15.810607
69.575 16.437662
69.580 16.494474
69.585 16.904278
69.590 16.621086
69.595 16.491552
69.600 17.197044
69.605 17.060123
69.610 17.040947
69.615 16.898684
69.620 16.57147
69.625 17.038935
69.630 17.00428
69.635 16.770817
69.640 16.732729
69.645 16.789398
69.650 17.198509
69.655 16.977875
69.660 16.278553
69.665 16.340115
69.670 16.465792
69.675 16.203304
69.680 15.316122
69.685 14.49787
69.690 15.070658
69.695 15.087317
69.700 14.885247
69.705 14.682435
69.710 14.792399
69.715 15.156049
69.720 15.234335
69.725 15.021502
69.730 15.426378
69.735 15.332997
69.740 16.080154
69.745 16.576242
69.750 17.064947
69.755 17.13732
69.760 17.472147
69.765 17.297014
69.770 17.426693
69.775 16.896906
69.780 16.620958
69.785 16.49164
69.790 16.504005
69.795 16.36166
69.800 16.225273
69.805 15.773265
69.810 15.708786
69.815 15.748229
69.820 15.932252
69.825 15.890398
69.830 16.076017
69.835 16.27854
69.840 16.147917
69.845 15.645546
69.850 15.315422
69.855 15.135175
69.860 14.418205
69.865 13.900249
69.870 13.514611
69.875 13.909617
69.880 14.10587
69.885 14.048465
69.890 14.262618
69.895 14.921336
69.900 15.300237
69.905 14.945294
69.910 14.981485
69.915 14.767514
69.920 14.483151
69.925 13.666348
69.930 13.260451
69.935 13.092406
69.940 13.666856
69.945 13.118116
69.950 13.838545
69.955 14.526685
69.960 14.557472
69.965 14.500319
69.970 14.486466
69.975 13.821531
69.980 13.654427
69.985 13.034089
69.990 12.955511
69.995 13.405402
70.000 13.171619
70.005 13.041821
70.010 13.203668
70.015 13.157896
70.020 12.826911
70.025 12.805216
70.030 13.176454
70.035 13.448428
70.040 13.471715
70.045 13.751417
70.050 14.019349
70.055 13.816887
70.060 13.470453
70.065 13.45035
70.070 13.96252
70.075 13.627809
70.080 13.303975
70.085 13.301331
70.090 13.206172
70.095 13.469686
70.100 12.519741
70.105 12.093278
70.110 12.540586
70.115 12.761437
70.120 13.209108
70.125 13.691881
70.130 13.669698
70.135 14.696752
70.140 15.059159
70.145 14.928757
70.150 15.105124
70.155 14.884228
70.160 14.509899
70.165 13.894753
70.170 13.462541
70.175 13.587195
70.180 13.730009
70.185 13.597825
70.190 13.43993
70.195 13.865513
70.200 13.909449
70.205 13.666513
70.210 13.42924
70.215 13.133023
70.220 13.04974
70.225 12.937668
70.230 12.933819
70.235 13.154682
70.240 13.213576
70.245 13.109044
70.250 12.897163
70.255 12.65155
70.260 12.849015
70.265 12.921884
70.270 12.527185
70.275 12.904371
70.280 13.11396
70.285 13.719015
70.290 14.267473
70.295 14.245015
70.300 14.281165
70.305 14.264599
70.310 14.23215
70.315 14.163976
70.320 14.183426
70.325 13.892137
70.330 13.61595
70.335 13.840129
70.340 13.621669
70.345 13.149665
70.350 13.084214
70.355 13.098117
70.360 13.291179
70.365 13.828711
70.370 14.007487
70.375 14.049844
70.380 14.294567
70.385 14.626891
70.390 14.184851
70.395 13.783205
70.400 13.410608
70.405 13.645445
70.410 13.647344
70.415 13.499929
70.420 13.047288
70.425 13.292546
70.430 13.530417
70.435 13.575393
70.440 13.233396
70.445 12.805969
70.450 12.655476
70.455 12.640588
70.460 12.719752
70.465 12.48826
70.470 12.374307
70.475 12.751849
70.480 13.467338
70.485 13.615607
70.490 13.722629
70.495 13.883913
70.500 14.029396
70.505 13.993039
70.510 13.709644
70.515 13.459624
70.520 13.714601
70.525 14.006214
70.530 13.887906
70.535 13.039829
70.540 12.660537
70.545 13.025103
70.550 13.5133
70.555 13.247243
70.560 13.116644
70.565 13.231928
70.570 13.38835
70.575 13.464901
70.580 13.064493
70.585 13.11622
70.590 13.146895
70.595 12.675132
70.600 12.301809
70.605 12.487864
70.610 12.739564
70.615 12.820946
70.620 12.424608
70.625 12.496013
70.630 13.035152
70.635 13.730838
70.640 13.927849
70.645 13.617398
70.650 13.454994
70.655 13.062679
70.660 12.932469
70.665 12.787859
70.670 12.792132
70.675 12.885185
70.680 12.87491
70.685 12.412539
70.690 12.873409
70.695 12.883077
70.700 12.400804
70.705 12.363297
70.710 12.568338
70.715 12.964167
70.720 13.177211
70.725 12.771091
70.730 13.481204
70.735 13.662449
70.740 13.604747
70.745 13.572849
70.750 13.257442
70.755 13.496021
70.760 13.417821
70.765 12.631485
70.770 12.320082
70.775 11.946653
70.780 11.630689
70.785 11.66
70.790 11.594997
70.795 11.511292
70.800 11.403731
70.805 11.369903
70.810 11.450836
70.815 11.412736
70.820 11.250343
70.825 11.246162
70.830 11.551046
70.835 11.689677
70.840 11.832942
70.845 12.20569
70.850 12.60187
70.855 12.063791
70.860 12.035069
70.865 12.005392
70.870 12.166507
70.875 12.118035
70.880 11.637549
70.885 11.548228
70.890 11.924845
70.895 11.300948
70.900 11.340527
70.905 11.393696
70.910 11.421081
70.915 11.793979
70.920 12.118871
70.925 12.603502
70.930 12.726748
70.935 12.585497
70.940 12.522132
70.945 12.343577
70.950 12.477638
70.955 12.088183
70.960 11.72594
70.965 11.870806
70.970 11.570377
70.975 11.74261
70.980 12.066131
70.985 11.702065
70.990 12.000338
70.995 12.604015
71.000 12.228599
71.005 12.547762
71.010 12.904463
71.015 12.758582
71.020 13.319787
71.025 13.110322
71.030 12.573042
71.035 13.315051
71.040 13.350583
71.045 12.985188
71.050 12.753661
71.055 12.154391
71.060 12.508551
71.065 12.427217
71.070 11.946945
71.075 11.636941
71.080 11.903326
71.085 12.755292
71.090 12.88092
71.095 12.564734
71.100 12.500562
71.105 12.614335
71.110 12.714866
71.115 12.50903
71.120 11.562394
71.125 11.750054
71.130 12.022832
71.135 12.513497
71.140 12.989042
71.145 12.542612
71.150 12.689754
71.155 12.774053
71.160 12.716839
71.165 12.900597
71.170 12.625312
71.175 12.479076
71.180 12.511632
71.185 12.222764
71.190 12.481545
71.195 12.312057
71.200 12.615887
71.205 12.552556
71.210 12.071541
71.215 12.416847
71.220 12.584838
71.225 12.572039
71.230 12.344403
71.235 11.321446
71.240 11.593926
71.245 11.955633
71.250 12.187551
71.255 12.138923
71.260 12.035843
71.265 12.983395
71.270 13.66089
71.275 13.362334
71.280 13.007365
71.285 12.752202
71.290 13.025127
71.295 13.209145
71.300 12.940193
71.305 12.93525
71.310 13.214217
71.315 13.003112
71.320 12.405105
71.325 12.203085
71.330 11.486912
71.335 11.434096
71.340 11.565443
71.345 11.908664
71.350 12.878238
71.355 13.415064
71.360 13.250391
71.365 13.343461
71.370 13.233565
71.375 12.879357
71.380 12.566663
71.385 12.219504
71.390 11.916031
71.395 12.108488
71.400 12.638425
71.405 13.086738
71.410 13.343445
71.415 12.997904
71.420 12.631592
71.425 12.851056
71.430 12.897168
71.435 12.613025
71.440 12.693136
71.445 12.483532
71.450 12.702774
71.455 12.854491
71.460 13.155573
71.465 12.854464
71.470 12.844943
71.475 12.909105
71.480 12.957459
71.485 13.457772
71.490 13.27488
71.495 12.592344
71.500 12.521934
71.505 12.450015
71.510 12.262648
71.515 12.170117
71.520 11.79042
71.525 12.085868
71.530 12.451031
71.535 12.535246
71.540 12.659015
71.545 12.736106
71.550 13.215474
71.555 13.271078
71.560 13.264498
71.565 13.221443
71.570 12.722662
71.575 12.383245
71.580 12.372618
71.585 12.233001
71.590 12.78195
71.595 12.996423
71.600 13.728587
71.605 13.863719
71.610 13.77307
71.615 13.557434
71.620 12.991158
71.625 12.610541
71.630 12.120603
71.635 11.951369
71.640 12.111984
71.645 12.420111
71.650 12.563511
71.655 12.639006
71.660 12.814387
71.665 13.233047
71.670 12.905087
71.675 12.415902
71.680 12.230822
71.685 12.312071
71.690 12.522552
71.695 12.230554
71.700 12.12566
71.705 12.060861
71.710 11.919731
71.715 11.948693
71.720 11.993368
71.725 12.056626
71.730 11.867788
71.735 11.458368
71.740 11.678596
71.745 11.381907
71.750 10.990193
71.755 10.561744
71.760 10.170604
71.765 10.697077
71.770 10.651509
71.775 10.906252
71.780 11.527722
71.785 11.816721
71.790 12.018912
71.795 11.912395
71.800 11.510465
71.805 11.322594
71.810 10.883068
71.815 10.76551
71.820 10.916896
71.825 10.758902
71.830 10.928779
71.835 10.697436
71.840 11.493036
71.845 11.410227
71.850 10.787868
71.855 11.115395
71.860 11.489115
71.865 11.478902
71.870 11.558766
71.875 11.816113
71.880 12.501611
71.885 13.147182
71.890 12.997842
71.895 13.054673
71.900 13.415974
71.905 13.734971
71.910 13.91945
71.915 13.800205
71.920 14.04585
71.925 14.422748
71.930 14.186426
71.935 14.195327
71.940 14.076036
71.945 13.708847
71.950 13.281792
71.955 12.46547
71.960 11.888067
71.965 11.710262
71.970 11.680943
71.975 11.457633
71.980 11.235426
71.985 11.374171
71.990 11.377499
71.995 12.052676
72.000 12.263412
72.005 12.265549
72.010 12.03826
72.015 12.015292
72.020 12.533644
72.025 12.48462
72.030 11.990097
72.035 11.678036
72.040 11.928967
72.045 12.595251
72.050 13.108203
72.055 12.957338
72.060 12.611948
72.065 13.102427
72.070 13.332415
72.075 13.169411
72.080 12.919169
72.085 12.889595
72.090 13.278011
72.095 13.558488
72.100 13.642207
72.105 13.719111
72.110 13.940119
72.115 14.362985
72.120 14.093476
72.125 14.226469
72.130 14.188164
72.135 13.862225
72.140 13.458166
72.145 12.762442
72.150 12.020665
72.155 12.060464
72.160 11.95597
72.165 11.882901
72.170 11.553842
72.175 11.723284
72.180 12.264256
72.185 12.260914
72.190 12.451735
72.195 12.46256
72.200 12.545838
72.205 12.637479
72.210 12.61869
72.215 13.125963
72.220 13.536282
72.225 12.751518
72.230 12.650115
72.235 12.682054
72.240 12.472799
72.245 12.211561
72.250 11.313046
72.255 11.238831
72.260 11.53587
72.265 11.218008
72.270 11.35557
72.275 12.021221
72.280 12.548517
72.285 13.262854
72.290 13.441387
72.295 13.730389
72.300 13.716587
72.305 13.390054
72.310 13.321978
72.315 12.944533
72.320 12.227118
72.325 11.865971
72.330 12.191543
72.335 12.567078
72.340 12.782807
72.345 12.617334
72.350 13.167312
72.355 13.454833
72.360 13.361788
72.365 13.091737
72.370 12.877977
72.375 12.656395
72.380 12.676769
72.385 12.010661
72.390 11.867935
72.395 11.790969
72.400 11.63073
72.405 11.891278
72.410 11.787439
72.415 11.919544
72.420 12.38283
72.425 12.524285
72.430 12.717129
72.435 12.884772
72.440 12.733642
72.445 12.832837
72.450 12.784281
72.455 12.507133
72.460 12.62833
72.465 12.27107
72.470 12.26288
72.475 12.418444
72.480 12.761024
72.485 12.644671
72.490 12.412477
72.495 12.331385
72.500 12.42643
72.505 12.285536
72.510 11.602407
72.515 11.082338
72.520 11.173995
72.525 11.180601
72.530 11.339657
72.535 11.149158
72.540 11.344681
72.545 11.9212
72.550 12.131923
72.555 12.146729
72.560 12.268832
72.565 12.474143
72.570 12.298841
72.575 12.5082
72.580 12.431032
72.585 12.464595
72.590 12.395974
72.595 12.494365
72.600 12.744151
72.605 12.854962
72.610 12.761924
72.615 12.597902
72.620 12.552569
72.625 12.794382
72.630 12.24588
72.635 12.080282
72.640 12.252795
72.645 11.940806
72.650 11.869689
72.655 11.981599
72.660 12.571649
72.665 13.060326
72.670 13.120635
72.675 12.808828
72.680 12.863796
72.685 12.657862
72.690 12.478427
72.695 11.805332
72.700 11.499028
72.705 11.587663
72.710 11.505935
72.715 11.549162
72.720 11.771826
72.725 11.898468
72.730 11.93908
72.735 12.32911
72.740 12.383065
72.745 12.614238
72.750 12.386489
72.755 12.712223
72.760 12.798451
72.765 12.528442
72.770 11.973041
72.775 11.650263
72.780 11.741454
72.785 11.903566
72.790 11.161163
72.795 10.936081
72.800 10.830735
72.805 11.105514
72.810 11.307633
72.815 10.857016
72.820 10.686101
72.825 10.984193
72.830 11.407635
72.835 11.634624
72.840 11.905963
72.845 12.028558
72.850 12.382253
72.855 12.510586
72.860 12.14401
72.865 11.865666
72.870 11.666823
72.875 11.16157
72.880 10.900343
72.885 10.643661
72.890 10.827322
72.895 11.058221
72.900 10.728245
72.905 10.936037
72.910 11.303736
72.915 11.598087
72.920 11.557962
72.925 11.302745
72.930 11.312521
72.935 12.068013
72.940 12.737286
72.945 12.900918
72.950 13.436726
72.955 13.801141
72.960 13.58092
72.965 13.115878
72.970 12.327497
72.975 11.772408
72.980 11.612651
72.985 11.35776
72.990 11.346633
72.995 11.449308
73.000 11.552904
