!@!!GADDS PLOTSO FILE: Chi integration type
!@!!Title/SampleName: map-5b
!@!!Comment: ?
!@!!User: Bruker Instrument Administrator
!@!!Site: University of Illinois Chicago
!@!!Frame: map-5b_01_000.gfrm
!@!!Wavelengths    1.54184   1.54056   1.54439
!@!!Frame angles: 2Theta: 63.000 Omega: 50.000 Phi: 0.000 Chi: 90.000
!@!!Integration range: 2Theta: 53.000 to 73.000  Gamma: -105.000 to -75.000
!@!!Integration method: bin normalized
!@!N
!@!SS
!@!M
!@!L 0.0 0.0 0.0 0.0
!@!XDegrees
!@!YCounts
53.000 8.835248
53.005 8.560806
53.010 8.460386
53.015 8.068688
53.020 8.357319
53.025 8.54457
53.030 8.745716
53.035 8.958161
53.040 8.888616
53.045 9.218961
53.050 9.361387
53.055 9.65668
53.060 10.02774
53.065 9.631987
53.070 9.551953
53.075 9.458858
53.080 8.946639
53.085 9.102593
53.090 8.369663
53.095 8.125952
53.100 8.321755
53.105 8.471084
53.110 8.74296
53.115 9.161767
53.120 9.057313
53.125 9.395936
53.130 9.855422
53.135 10.157701
53.140 9.741945
53.145 9.456303
53.150 9.392129
53.155 9.635502
53.160 9.429824
53.165 9.170427
53.170 9.435653
53.175 9.70037
53.180 9.853002
53.185 9.575424
53.190 9.384127
53.195 9.51608
53.200 8.979213
53.205 8.754099
53.210 8.649273
53.215 8.355094
53.220 8.120986
53.225 8.133137
53.230 8.138896
53.235 8.100718
53.240 8.365872
53.245 8.745343
53.250 8.914081
53.255 9.268844
53.260 9.424784
53.265 9.764091
53.270 10.239235
53.275 9.75523
53.280 9.869538
53.285 10.006432
53.290 9.73698
53.295 9.335592
53.300 9.490674
53.305 9.548847
53.310 9.756053
53.315 9.832019
53.320 10.173367
53.325 10.537327
53.330 10.93799
53.335 10.677261
53.340 10.639917
53.345 10.658873
53.350 10.52679
53.355 10.267429
53.360 10.084938
53.365 9.927011
53.370 10.123849
53.375 10.372493
53.380 10.298675
53.385 10.081411
53.390 9.995904
53.395 10.103649
53.400 10.009643
53.405 9.265846
53.410 9.108878
53.415 9.248129
53.420 9.670495
53.425 10.024147
53.430 10.4612
53.435 10.535207
53.440 11.174198
53.445 11.104357
53.450 10.58168
53.455 10.455388
53.460 10.045869
53.465 9.982207
53.470 10.00281
53.475 9.595193
53.480 9.651731
53.485 9.922807
53.490 9.885116
53.495 9.608271
53.500 9.746847
53.505 9.726157
53.510 9.743738
53.515 9.78104
53.520 9.848303
53.525 10.002851
53.530 9.760363
53.535 9.421023
53.540 9.784598
53.545 10.023078
53.550 10.39149
53.555 10.142468
53.560 9.972443
53.565 10.187998
53.570 10.142012
53.575 10.098908
53.580 9.823746
53.585 9.644434
53.590 9.933528
53.595 9.867417
53.600 9.975195
53.605 10.267605
53.610 10.387937
53.615 10.422781
53.620 10.241985
53.625 10.181437
53.630 10.399126
53.635 10.47465
53.640 10.467417
53.645 10.398692
53.650 9.974439
53.655 10.524222
53.660 10.79438
53.665 10.762465
53.670 10.324022
53.675 10.217197
53.680 10.608454
53.685 10.932344
53.690 10.541216
53.695 10.296411
53.700 10.537019
53.705 10.608812
53.710 11.051471
53.715 11.186552
53.720 11.178557
53.725 11.088642
53.730 10.817766
53.735 10.418098
53.740 10.238135
53.745 9.38231
53.750 8.96224
53.755 9.683674
53.760 9.827784
53.765 9.932625
53.770 10.489653
53.775 10.777162
53.780 10.958347
53.785 10.96638
53.790 10.787579
53.795 11.132107
53.800 11.021991
53.805 10.634394
53.810 11.029932
53.815 11.135736
53.820 11.15202
53.825 10.79088
53.830 10.69682
53.835 10.694482
53.840 11.070787
53.845 10.463464
53.850 9.919132
53.855 9.730151
53.860 9.730926
53.865 10.15752
53.870 10.510606
53.875 10.135876
53.880 10.379859
53.885 10.694671
53.890 10.67457
53.895 10.115507
53.900 9.589827
53.905 9.472009
53.910 9.796483
53.915 9.808541
53.920 9.627076
53.925 9.571246
53.930 9.955155
53.935 10.296632
53.940 10.136867
53.945 9.93954
53.950 10.083084
53.955 10.115954
53.960 10.218747
53.965 9.833951
53.970 9.88252
53.975 9.646902
53.980 9.906403
53.985 9.688686
53.990 9.453874
53.995 9.49532
54.000 9.299638
54.005 9.477719
54.010 9.414327
54.015 9.329388
54.020 9.626465
54.025 9.700735
54.030 9.854657
54.035 9.883225
54.040 9.701671
54.045 9.932982
54.050 9.684615
54.055 9.65943
54.060 9.89915
54.065 9.438186
54.070 9.357004
54.075 9.430367
54.080 9.410905
54.085 9.553275
54.090 9.616034
54.095 9.951097
54.100 10.659536
54.105 11.089863
54.110 10.869168
54.115 11.168962
54.120 11.295012
54.125 11.40232
54.130 11.087809
54.135 10.961291
54.140 10.628889
54.145 11.125206
54.150 11.535855
54.155 11.658291
54.160 11.557892
54.165 11.539892
54.170 11.56196
54.175 11.419048
54.180 10.602567
54.185 10.200165
54.190 10.014851
54.195 10.038971
54.200 10.252986
54.205 10.349125
54.210 10.554502
54.215 10.972237
54.220 10.937132
54.225 10.839404
54.230 10.853518
54.235 11.120623
54.240 11.20295
54.245 11.666655
54.250 11.386399
54.255 11.713736
54.260 12.174767
54.265 12.248436
54.270 11.648355
54.275 11.535387
54.280 11.072388
54.285 10.96706
54.290 10.73025
54.295 10.68302
54.300 10.787116
54.305 10.78373
54.310 10.810313
54.315 10.505632
54.320 10.559393
54.325 10.489958
54.330 10.312413
54.335 10.631586
54.340 10.442639
54.345 10.781527
54.350 11.156661
54.355 11.656344
54.360 11.987741
54.365 12.064918
54.370 12.141397
54.375 12.237683
54.380 12.187938
54.385 11.842426
54.390 11.369321
54.395 10.963621
54.400 10.456204
54.405 10.696695
54.410 10.8908
54.415 11.164248
54.420 11.297286
54.425 11.284722
54.430 11.469936
54.435 11.687785
54.440 11.21787
54.445 10.777384
54.450 10.764537
54.455 10.999611
54.460 11.270113
54.465 11.569447
54.470 12.094903
54.475 12.297043
54.480 12.223139
54.485 11.92921
54.490 11.906913
54.495 11.530447
54.500 11.394998
54.505 11.416612
54.510 11.758354
54.515 11.877308
54.520 11.903199
54.525 12.086858
54.530 12.130728
54.535 11.928699
54.540 11.413925
54.545 11.382988
54.550 11.559569
54.555 11.435337
54.560 11.146255
54.565 11.012383
54.570 11.129296
54.575 10.731557
54.580 10.648745
54.585 11.042593
54.590 11.45248
54.595 11.429001
54.600 11.287667
54.605 11.065843
54.610 11.125056
54.615 11.121765
54.620 10.695129
54.625 10.336025
54.630 10.579682
54.635 10.745072
54.640 10.478583
54.645 10.160791
54.650 9.523149
54.655 9.831966
54.660 10.406353
54.665 10.80959
54.670 11.002212
54.675 11.677105
54.680 11.964864
54.685 12.20903
54.690 11.838632
54.695 11.347756
54.700 11.192311
54.705 11.440268
54.710 11.261784
54.715 11.265381
54.720 11.562371
54.725 11.844166
54.730 11.826185
54.735 11.494064
54.740 10.814523
54.745 11.083519
54.750 11.216476
54.755 10.970763
54.760 11.164727
54.765 10.811934
54.770 10.874391
54.775 10.931759
54.780 11.090438
54.785 10.935642
54.790 10.969914
54.795 11.037514
54.800 11.526698
54.805 11.657088
54.810 11.455988
54.815 11.113874
54.820 11.132538
54.825 11.271476
54.830 10.983749
54.835 10.427362
54.840 10.322753
54.845 10.764157
54.850 10.993118
54.855 10.621753
54.860 9.942188
54.865 10.151232
54.870 10.407392
54.875 10.913927
54.880 10.521523
54.885 10.264083
54.890 10.559422
54.895 10.916872
54.900 10.985989
54.905 10.899768
54.910 11.494592
54.915 11.932897
54.920 12.525256
54.925 12.442154
54.930 12.202422
54.935 11.927658
54.940 11.728809
54.945 10.875846
54.950 10.714203
54.955 10.304049
54.960 10.835976
54.965 11.484501
54.970 11.700287
54.975 11.57229
54.980 11.834474
54.985 12.297627
54.990 12.211655
54.995 12.051211
55.000 11.686358
55.005 11.623132
55.010 11.89882
55.015 11.81726
55.020 11.772403
55.025 12.158155
55.030 12.101829
55.035 12.233516
55.040 12.614421
55.045 12.236841
55.050 12.255593
55.055 12.304502
55.060 12.080583
55.065 11.627745
55.070 11.719239
55.075 11.493581
55.080 11.699263
55.085 10.902836
55.090 10.189659
55.095 10.404462
55.100 10.764999
55.105 10.766278
55.110 10.930225
55.115 11.030159
55.120 11.394443
55.125 11.600432
55.130 11.745747
55.135 11.70982
55.140 11.743598
55.145 11.272017
55.150 11.021968
55.155 11.185592
55.160 11.045964
55.165 11.002388
55.170 11.135722
55.175 11.140611
55.180 11.676851
55.185 11.776309
55.190 11.796423
55.195 11.7343
55.200 11.881382
55.205 11.850896
55.210 11.785777
55.215 11.941973
55.220 12.231861
55.225 12.204176
55.230 12.142182
55.235 12.314498
55.240 12.285987
55.245 12.355462
55.250 12.037711
55.255 11.829168
55.260 12.109837
55.265 12.294127
55.270 12.058584
55.275 11.956832
55.280 12.116764
55.285 12.082698
55.290 11.505762
55.295 11.448351
55.300 11.40856
55.305 11.496119
55.310 11.311254
55.315 11.066955
55.320 11.38715
55.325 11.828095
55.330 11.758995
55.335 11.433145
55.340 11.54913
55.345 11.131687
55.350 11.173884
55.355 10.90197
55.360 10.767876
55.365 10.838097
55.370 10.763044
55.375 10.762317
55.380 11.217876
55.385 11.127728
55.390 11.191339
55.395 11.378125
55.400 11.440822
55.405 11.394135
55.410 11.942905
55.415 12.33365
55.420 12.668962
55.425 12.843586
55.430 12.887014
55.435 13.181567
55.440 13.293799
55.445 12.118709
55.450 11.8325
55.455 11.76141
55.460 11.484914
55.465 11.156322
55.470 10.860655
55.475 11.193846
55.480 11.752458
55.485 11.655722
55.490 11.544434
55.495 11.531791
55.500 11.419026
55.505 11.53659
55.510 11.405465
55.515 11.114444
55.520 11.329326
55.525 11.21992
55.530 11.391576
55.535 11.931257
55.540 11.949152
55.545 12.328774
55.550 12.818662
55.555 12.302884
55.560 12.46964
55.565 12.498523
55.570 12.667029
55.575 12.403994
55.580 11.759287
55.585 11.425553
55.590 11.935527
55.595 11.922924
55.600 11.668676
55.605 11.471768
55.610 11.703986
55.615 11.771525
55.620 12.031215
55.625 12.213613
55.630 12.440575
55.635 12.314308
55.640 12.251985
55.645 12.01447
55.650 12.072409
55.655 11.672697
55.660 11.290683
55.665 11.219701
55.670 11.438508
55.675 11.78437
55.680 11.933817
55.685 12.373239
55.690 12.869814
55.695 12.79495
55.700 12.190538
55.705 12.010091
55.710 11.522161
55.715 11.529588
55.720 11.366092
55.725 11.93047
55.730 12.510932
55.735 12.849993
55.740 13.106412
55.745 13.289531
55.750 13.599599
55.755 13.666612
55.760 12.8297
55.765 12.205602
55.770 12.012751
55.775 11.780371
55.780 11.540307
55.785 11.207795
55.790 11.126117
55.795 10.833124
55.800 10.824765
55.805 11.212473
55.810 11.167932
55.815 11.577429
55.820 11.573679
55.825 11.741133
55.830 12.697634
55.835 13.437827
55.840 13.575082
55.845 13.892584
55.850 13.788449
55.855 13.641053
55.860 13.271888
55.865 13.406317
55.870 13.416404
55.875 13.262688
55.880 13.0245
55.885 12.866763
55.890 13.198802
55.895 13.23345
55.900 12.53953
55.905 11.930552
55.910 11.59222
55.915 11.74285
55.920 11.598774
55.925 11.366681
55.930 11.441919
55.935 11.485255
55.940 12.112464
55.945 12.440012
55.950 12.804004
55.955 13.197215
55.960 13.004578
55.965 12.901611
55.970 13.165446
55.975 12.505804
55.980 12.485169
55.985 12.260086
55.990 11.683702
55.995 11.73498
56.000 11.461999
56.005 10.985942
56.010 11.585964
56.015 11.447461
56.020 11.515868
56.025 11.703097
56.030 12.048072
56.035 12.683912
56.040 13.457723
56.045 13.580731
56.050 13.62431
56.055 13.404607
56.060 13.670009
56.065 13.323249
56.070 12.785552
56.075 12.439646
56.080 12.208053
56.085 12.025406
56.090 12.062125
56.095 12.051546
56.100 11.928734
56.105 11.642449
56.110 11.437279
56.115 11.501786
56.120 11.929264
56.125 12.030908
56.130 12.504893
56.135 12.890743
56.140 13.117918
56.145 13.541196
56.150 13.516266
56.155 13.390178
56.160 13.166836
56.165 12.879666
56.170 12.831446
56.175 12.877623
56.180 12.812303
56.185 12.724977
56.190 12.834092
56.195 13.106188
56.200 13.132438
56.205 12.9809
56.210 13.016692
56.215 12.793434
56.220 12.965033
56.225 13.789865
56.230 13.853863
56.235 14.23431
56.240 14.395139
56.245 14.808386
56.250 15.373159
56.255 14.989137
56.260 14.068343
56.265 14.105621
56.270 14.57718
56.275 14.532121
56.280 14.132242
56.285 13.94254
56.290 14.827847
56.295 15.764283
56.300 15.396156
56.305 15.095897
56.310 14.771815
56.315 14.862966
56.320 15.233335
56.325 14.406565
56.330 14.019511
56.335 13.95905
56.340 13.596559
56.345 13.608218
56.350 13.606239
56.355 13.520728
56.360 13.178533
56.365 12.884444
56.370 12.64283
56.375 12.655857
56.380 12.727396
56.385 12.313984
56.390 12.013571
56.395 12.095622
56.400 12.277567
56.405 12.851724
56.410 12.605028
56.415 12.667391
56.420 12.57892
56.425 12.780335
56.430 12.911031
56.435 12.846613
56.440 12.915595
56.445 12.885213
56.450 13.041199
56.455 12.60841
56.460 12.890711
56.465 12.424047
56.470 12.107242
56.475 12.181337
56.480 12.435071
56.485 12.241129
56.490 12.665268
56.495 12.474434
56.500 13.109802
56.505 13.116432
56.510 13.407334
56.515 13.268838
56.520 13.804211
56.525 13.748363
56.530 13.882683
56.535 13.69385
56.540 13.558596
56.545 13.485554
56.550 13.542427
56.555 13.138933
56.560 13.063654
56.565 13.0216
56.570 13.282722
56.575 13.261958
56.580 12.976584
56.585 13.228133
56.590 12.856453
56.595 12.708024
56.600 12.789419
56.605 12.897038
56.610 12.95579
56.615 13.092086
56.620 13.328955
56.625 13.344537
56.630 13.525782
56.635 14.024826
56.640 13.961879
56.645 14.029014
56.650 14.019375
56.655 13.942243
56.660 14.610538
56.665 14.749463
56.670 14.557901
56.675 14.898334
56.680 14.891638
56.685 14.968017
56.690 14.819596
56.695 14.704459
56.700 14.123021
56.705 13.69597
56.710 13.618398
56.715 13.756314
56.720 14.211001
56.725 14.350178
56.730 13.849676
56.735 14.133033
56.740 14.358683
56.745 14.417313
56.750 14.463269
56.755 14.115129
56.760 13.92136
56.765 14.129387
56.770 14.23421
56.775 14.376156
56.780 14.490255
56.785 14.402541
56.790 14.350768
56.795 14.427919
56.800 14.299249
56.805 13.989191
56.810 13.533134
56.815 13.792133
56.820 13.895869
56.825 14.277152
56.830 14.559271
56.835 14.529963
56.840 14.776174
56.845 15.123464
56.850 14.476575
56.855 13.730701
56.860 13.293545
56.865 12.956551
56.870 13.405205
56.875 13.106635
56.880 12.802546
56.885 13.024057
56.890 13.193311
56.895 13.241235
56.900 13.187595
56.905 13.077579
56.910 12.979153
56.915 12.75709
56.920 13.202534
56.925 13.379028
56.930 12.958394
56.935 12.657922
56.940 12.582774
56.945 12.586688
56.950 12.53113
56.955 12.297817
56.960 12.445726
56.965 12.799114
56.970 13.17718
56.975 13.214748
56.980 13.229905
56.985 13.332251
56.990 13.346585
56.995 13.474487
57.000 13.322627
57.005 13.209857
57.010 13.078262
57.015 13.256895
57.020 12.627793
57.025 12.619837
57.030 12.206106
57.035 12.369112
57.040 12.427824
57.045 12.216599
57.050 12.41337
57.055 12.749533
57.060 12.654798
57.065 13.244435
57.070 13.448971
57.075 13.841956
57.080 14.001248
57.085 13.767869
57.090 14.114563
57.095 14.493645
57.100 14.055406
57.105 14.395911
57.110 14.891244
57.115 15.336275
57.120 15.711869
57.125 15.623359
57.130 15.338771
57.135 15.491466
57.140 15.046662
57.145 13.832125
57.150 13.654006
57.155 13.009489
57.160 12.633036
57.165 12.731332
57.170 13.045034
57.175 12.934278
57.180 13.379104
57.185 13.466279
57.190 13.88555
57.195 13.673103
57.200 13.200989
57.205 12.873576
57.210 13.269267
57.215 13.406132
57.220 13.405332
57.225 13.502524
57.230 13.800529
57.235 13.771853
57.240 14.058908
57.245 14.427019
57.250 14.27907
57.255 14.605872
57.260 14.849662
57.265 15.138998
57.270 15.671162
57.275 15.449411
57.280 14.904916
57.285 15.078889
57.290 14.572698
57.295 14.088223
57.300 13.907393
57.305 13.268412
57.310 12.901771
57.315 12.624519
57.320 12.277553
57.325 12.616144
57.330 12.712728
57.335 12.637518
57.340 12.863299
57.345 12.70331
57.350 12.894738
57.355 13.097719
57.360 12.979545
57.365 13.091817
57.370 13.198864
57.375 13.159281
57.380 13.689996
57.385 14.193642
57.390 14.447273
57.395 14.397141
57.400 14.515707
57.405 14.939793
57.410 15.215576
57.415 14.719924
57.420 14.105497
57.425 13.440064
57.430 13.082356
57.435 13.114644
57.440 12.865005
57.445 12.664131
57.450 13.347312
57.455 13.988947
57.460 14.680097
57.465 14.741611
57.470 14.555131
57.475 14.795911
57.480 14.613756
57.485 14.085187
57.490 13.299412
57.495 12.95623
57.500 13.111097
57.505 13.28638
57.510 13.005349
57.515 13.010215
57.520 13.133514
57.525 13.508027
57.530 13.713794
57.535 13.776225
57.540 13.264938
57.545 12.940479
57.550 12.863991
57.555 12.773198
57.560 13.242932
57.565 13.321903
57.570 13.588209
57.575 14.283168
57.580 14.727069
57.585 14.780761
57.590 14.714001
57.595 14.551535
57.600 14.050778
57.605 13.476161
57.610 13.638473
57.615 14.248559
57.620 15.060832
57.625 15.850977
57.630 15.6473
57.635 15.929943
57.640 15.925218
57.645 15.116134
57.650 14.740882
57.655 14.767666
57.660 14.61279
57.665 14.866869
57.670 14.659144
57.675 14.836821
57.680 15.207081
57.685 15.245296
57.690 14.772669
57.695 13.952128
57.700 14.219503
57.705 15.025537
57.710 15.2503
57.715 15.405317
57.720 14.980806
57.725 14.999813
57.730 15.175546
57.735 14.520069
57.740 14.403964
57.745 14.152113
57.750 14.000113
57.755 13.791414
57.760 13.592461
57.765 14.037299
57.770 14.128347
57.775 14.431482
57.780 14.877679
57.785 14.875211
57.790 14.821472
57.795 14.669716
57.800 14.284954
57.805 14.560968
57.810 14.134332
57.815 13.991676
57.820 14.259813
57.825 14.509211
57.830 14.695906
57.835 14.565132
57.840 14.228758
57.845 14.39047
57.850 13.921597
57.855 13.741106
57.860 13.320316
57.865 13.641859
57.870 14.24706
57.875 13.837387
57.880 13.645775
57.885 14.097156
57.890 14.231789
57.895 14.483653
57.900 14.240066
57.905 14.428981
57.910 14.700986
57.915 14.667562
57.920 14.280931
57.925 13.949836
57.930 13.817844
57.935 13.700568
57.940 14.035675
57.945 14.143246
57.950 14.003264
57.955 14.251497
57.960 14.561404
57.965 15.077155
57.970 15.232624
57.975 14.221752
57.980 14.154417
57.985 14.236699
57.990 13.914313
57.995 13.766702
58.000 13.302392
58.005 13.558299
58.010 13.676197
58.015 14.346707
58.020 14.837346
58.025 15.133294
58.030 15.39967
58.035 15.519715
58.040 16.08032
58.045 16.239395
58.050 15.673324
58.055 15.671513
58.060 16.045824
58.065 15.919283
58.070 15.461759
58.075 14.797182
58.080 14.372712
58.085 14.080319
58.090 14.209286
58.095 13.886053
58.100 13.956347
58.105 14.277605
58.110 14.937114
58.115 15.685674
58.120 15.598124
58.125 15.411667
58.130 15.210272
58.135 15.417655
58.140 15.683415
58.145 15.568722
58.150 15.284636
58.155 15.254
58.160 15.11772
58.165 15.70745
58.170 15.663375
58.175 15.529815
58.180 14.890588
58.185 15.021732
58.190 15.142715
58.195 15.196454
58.200 15.183236
58.205 15.134574
58.210 14.904801
58.215 15.348759
58.220 15.51686
58.225 15.178432
58.230 15.127565
58.235 14.747042
58.240 14.707662
58.245 14.642642
58.250 14.597112
58.255 15.324947
58.260 15.826751
58.265 16.23797
58.270 16.631071
58.275 16.711466
58.280 16.17486
58.285 15.926196
58.290 15.314537
58.295 14.658637
58.300 14.383853
58.305 14.05094
58.310 13.891866
58.315 13.672346
58.320 13.158869
58.325 12.913829
58.330 13.113588
58.335 13.323149
58.340 13.57888
58.345 14.309084
58.350 15.242499
58.355 15.611667
58.360 15.968265
58.365 16.235741
58.370 15.660129
58.375 14.996231
58.380 14.3435
58.385 13.590247
58.390 13.835462
58.395 13.603584
58.400 13.460048
58.405 13.886687
58.410 14.387134
58.415 14.962833
58.420 15.418676
58.425 15.349038
58.430 15.45948
58.435 15.163557
58.440 15.117465
58.445 14.864414
58.450 14.60244
58.455 14.164087
58.460 14.047101
58.465 13.825851
58.470 14.183507
58.475 14.07993
58.480 14.50421
58.485 14.610023
58.490 14.872143
58.495 15.022326
58.500 14.933025
58.505 14.674633
58.510 14.852947
58.515 14.351821
58.520 13.856895
58.525 13.719662
58.530 13.591825
58.535 13.61332
58.540 13.660499
58.545 13.920526
58.550 14.341383
58.555 14.842131
58.560 15.304371
58.565 15.775378
58.570 16.036146
58.575 16.009802
58.580 15.647752
58.585 15.259328
58.590 15.422836
58.595 15.892898
58.600 15.573855
58.605 15.464705
58.610 15.454295
58.615 15.613705
58.620 15.811812
58.625 15.718312
58.630 14.929791
58.635 14.447351
58.640 14.815425
58.645 14.808133
58.650 14.972124
58.655 14.908071
58.660 14.864197
58.665 14.883572
58.670 15.214555
58.675 14.965497
58.680 15.30195
58.685 15.236353
58.690 14.961735
58.695 15.295744
58.700 15.606784
58.705 15.852413
58.710 16.104511
58.715 16.238808
58.720 16.682398
58.725 17.309731
58.730 16.638369
58.735 16.639784
58.740 16.862019
58.745 17.080959
58.750 17.026693
58.755 17.126812
58.760 16.965908
58.765 17.413214
58.770 17.264069
58.775 16.864624
58.780 16.741741
58.785 16.452816
58.790 15.530822
58.795 15.054688
58.800 14.625462
58.805 14.682401
58.810 14.825184
58.815 14.362886
58.820 14.537581
58.825 15.083646
58.830 15.368525
58.835 15.374848
58.840 15.156957
58.845 15.091669
58.850 14.926867
58.855 14.940742
58.860 14.646297
58.865 14.582849
58.870 14.852907
58.875 15.167192
58.880 15.091033
58.885 15.060686
58.890 15.018727
58.895 15.22759
58.900 15.18263
58.905 15.576522
58.910 15.873734
58.915 16.445593
58.920 16.787079
58.925 16.884653
58.930 16.50635
58.935 16.455271
58.940 15.775816
58.945 15.329041
58.950 15.559073
58.955 15.508986
58.960 15.138072
58.965 15.176106
58.970 15.411313
58.975 15.959155
58.980 16.302711
58.985 16.469362
58.990 16.79792
58.995 17.252499
59.000 17.698568
59.005 18.126238
59.010 17.964859
59.015 17.957607
59.020 17.838617
59.025 17.126348
59.030 17.063007
59.035 16.927729
59.040 17.232533
59.045 17.661694
59.050 17.383007
59.055 17.375788
59.060 18.042284
59.065 18.224657
59.070 18.387724
59.075 17.33684
59.080 17.047689
59.085 17.240967
59.090 16.83337
59.095 16.288984
59.100 15.860437
59.105 15.651018
59.110 15.699254
59.115 15.136331
59.120 14.951062
59.125 15.225283
59.130 15.724001
59.135 16.234251
59.140 15.73983
59.145 15.790418
59.150 16.264383
59.155 16.207693
59.160 16.242559
59.165 16.003109
59.170 16.237013
59.175 16.910992
59.180 17.28499
59.185 16.264198
59.190 16.046227
59.195 15.941278
59.200 15.770327
59.205 15.455408
59.210 14.998727
59.215 14.492311
59.220 14.968537
59.225 15.162829
59.230 15.201141
59.235 15.282712
59.240 15.47171
59.245 16.032364
59.250 16.201935
59.255 15.928285
59.260 15.938144
59.265 16.445406
59.270 16.666977
59.275 16.787279
59.280 16.528662
59.285 16.552603
59.290 17.487894
59.295 17.237196
59.300 16.970388
59.305 17.133764
59.310 17.33242
59.315 17.740005
59.320 17.780029
59.325 16.988155
59.330 16.908535
59.335 16.76218
59.340 16.825975
59.345 16.457155
59.350 15.989793
59.355 16.220367
59.360 16.799236
59.365 17.506468
59.370 18.10656
59.375 18.144852
59.380 18.940226
59.385 19.062702
59.390 19.368546
59.395 19.244982
59.400 18.745874
59.405 17.668165
59.410 17.222374
59.415 16.911304
59.420 17.300516
59.425 16.658459
59.430 16.488579
59.435 16.442772
59.440 16.583841
59.445 15.996769
59.450 16.017527
59.455 16.422777
59.460 16.722485
59.465 16.85191
59.470 16.855619
59.475 17.07048
59.480 17.34359
59.485 16.665854
59.490 16.333151
59.495 16.522467
59.500 16.836519
59.505 16.558228
59.510 16.442881
59.515 16.930143
59.520 17.538601
59.525 17.523726
59.530 17.259552
59.535 17.094551
59.540 17.742033
59.545 17.726492
59.550 17.100496
59.555 17.173767
59.560 16.819115
59.565 16.965309
59.570 16.962303
59.575 16.533707
59.580 16.505457
59.585 17.142405
59.590 17.055643
59.595 17.310259
59.600 17.177437
59.605 17.181396
59.610 17.325966
59.615 17.69488
59.620 17.301807
59.625 17.229927
59.630 17.546955
59.635 17.769583
59.640 17.968531
59.645 18.185232
59.650 18.021255
59.655 17.698465
59.660 17.369692
59.665 17.233868
59.670 16.908607
59.675 17.184566
59.680 16.981796
59.685 16.987774
59.690 17.087807
59.695 17.59185
59.700 18.400826
59.705 18.327549
59.710 17.974129
59.715 18.244652
59.720 18.445774
59.725 18.671576
59.730 18.558693
59.735 18.3589
59.740 19.201738
59.745 20.004457
59.750 20.130268
59.755 20.111942
59.760 20.008154
59.765 19.699734
59.770 19.612461
59.775 19.587036
59.780 19.54376
59.785 19.218275
59.790 19.645689
59.795 19.824659
59.800 20.032173
59.805 19.578854
59.810 19.658772
59.815 19.880053
59.820 20.175491
59.825 20.104631
59.830 20.7393
59.835 21.172243
59.840 21.626966
59.845 20.719017
59.850 20.339027
59.855 20.674892
59.860 20.268093
59.865 19.499592
59.870 19.251026
59.875 19.123032
59.880 19.714499
59.885 19.919954
59.890 19.96776
59.895 20.629713
59.900 21.145529
59.905 21.052315
59.910 21.303305
59.915 21.525753
59.920 20.974661
59.925 20.313622
59.930 19.61582
59.935 19.416555
59.940 19.257215
59.945 18.420458
59.950 18.716646
59.955 19.286322
59.960 19.638401
59.965 19.672771
59.970 19.780897
59.975 19.924831
59.980 20.275831
59.985 20.269621
59.990 20.130966
59.995 20.240854
60.000 20.506004
60.005 20.586914
60.010 21.292156
60.015 21.486759
60.020 20.867941
60.025 20.992405
60.030 21.584887
60.035 21.776947
60.040 22.086695
60.045 22.070108
60.050 21.490057
60.055 21.783403
60.060 21.532698
60.065 21.264067
60.070 21.341654
60.075 21.211969
60.080 21.051899
60.085 21.30409
60.090 21.301468
60.095 21.944372
60.100 21.996391
60.105 21.646429
60.110 20.990072
60.115 20.560541
60.120 20.764656
60.125 20.462265
60.130 20.033257
60.135 20.266069
60.140 20.204311
60.145 20.936962
60.150 21.582302
60.155 21.68915
60.160 21.901464
60.165 21.042261
60.170 20.66958
60.175 20.615499
60.180 20.338799
60.185 20.397976
60.190 20.331373
60.195 20.454079
60.200 21.544954
60.205 21.723236
60.210 21.950455
60.215 22.336561
60.220 22.544758
60.225 23.244896
60.230 22.9475
60.235 22.998329
60.240 23.109932
60.245 23.050085
60.250 22.744726
60.255 21.619169
60.260 21.128664
60.265 21.135435
60.270 20.479771
60.275 20.199278
60.280 20.358725
60.285 20.90955
60.290 20.949596
60.295 20.642393
60.300 20.91671
60.305 21.366526
60.310 21.598343
60.315 21.214869
60.320 20.958763
60.325 21.639891
60.330 21.87221
60.335 21.943316
60.340 21.241608
60.345 21.331165
60.350 21.347471
60.355 20.970295
60.360 20.545729
60.365 20.267937
60.370 20.151159
60.375 20.915909
60.380 21.09841
60.385 21.164427
60.390 20.977776
60.395 20.96718
60.400 21.127121
60.405 21.370308
60.410 20.962688
60.415 20.129473
60.420 20.365297
60.425 21.339117
60.430 22.141254
60.435 22.07929
60.440 21.605608
60.445 21.152401
60.450 21.468155
60.455 21.140453
60.460 20.279501
60.465 19.712284
60.470 20.221249
60.475 21.44022
60.480 21.889462
60.485 22.011894
60.490 22.029408
60.495 22.305311
60.500 22.40864
60.505 21.99498
60.510 21.012018
60.515 21.090557
60.520 21.247549
60.525 21.717434
60.530 21.213856
60.535 20.627825
60.540 20.172401
60.545 20.327742
60.550 20.216757
60.555 20.122776
60.560 19.538601
60.565 19.456781
60.570 19.648203
60.575 19.812456
60.580 19.663319
60.585 19.403473
60.590 19.070595
60.595 19.5334
60.600 19.691978
60.605 19.778326
60.610 19.911509
60.615 20.655724
60.620 21.087025
60.625 21.301937
60.630 21.177299
60.635 21.427317
60.640 21.316479
60.645 21.251944
60.650 21.015493
60.655 21.092855
60.660 21.059834
60.665 20.32962
60.670 20.24369
60.675 20.069382
60.680 19.346231
60.685 19.410563
60.690 19.596649
60.695 19.522093
60.700 19.979214
60.705 19.598097
60.710 20.284252
60.715 20.021051
60.720 19.079617
60.725 18.426861
60.730 17.879519
60.735 17.612944
60.740 17.95677
60.745 17.482204
60.750 17.480141
60.755 17.809517
60.760 18.132023
60.765 18.369259
60.770 18.319395
60.775 17.887897
60.780 17.31358
60.785 17.42399
60.790 17.750708
60.795 18.026928
60.800 18.390198
60.805 18.611773
60.810 18.408426
60.815 18.750519
60.820 18.300066
60.825 17.53289
60.830 16.753748
60.835 16.474691
60.840 16.296814
60.845 16.482155
60.850 16.702206
60.855 17.090599
60.860 17.217659
60.865 17.720692
60.870 18.114902
60.875 18.020847
60.880 18.10957
60.885 17.948025
60.890 18.589664
60.895 18.721561
60.900 18.614307
60.905 18.380592
60.910 18.543774
60.915 19.110077
60.920 19.28343
60.925 18.785646
60.930 18.742668
60.935 18.86035
60.940 18.367353
60.945 18.112034
60.950 17.411947
60.955 17.280653
60.960 17.352354
60.965 17.561678
60.970 17.498854
60.975 18.13146
60.980 18.570383
60.985 18.971575
60.990 19.25111
60.995 19.042873
61.000 19.261896
61.005 19.035755
61.010 18.48476
61.015 17.465513
61.020 17.154497
61.025 16.229309
61.030 15.754605
61.035 15.279183
61.040 15.396679
61.045 15.479379
61.050 16.140205
61.055 15.652014
61.060 15.685612
61.065 15.903404
61.070 15.387933
61.075 15.723476
61.080 16.0543
61.085 15.835533
61.090 16.276295
61.095 16.645573
61.100 17.225754
61.105 17.772394
61.110 17.756399
61.115 17.58663
61.120 17.196222
61.125 17.310205
61.130 17.528099
61.135 17.51745
61.140 17.363132
61.145 16.924862
61.150 17.045862
61.155 17.473959
61.160 17.450735
61.165 16.587442
61.170 16.244129
61.175 16.435726
61.180 16.614653
61.185 16.708473
61.190 17.285624
61.195 17.715174
61.200 18.667198
61.205 18.967627
61.210 18.447599
61.215 18.427938
61.220 18.488422
61.225 17.884518
61.230 17.894253
61.235 17.416069
61.240 17.194565
61.245 17.30756
61.250 16.6045
61.255 16.409489
61.260 16.126373
61.265 15.792088
61.270 16.004692
61.275 15.658349
61.280 16.278473
61.285 17.196043
61.290 17.531853
61.295 18.228525
61.300 18.478518
61.305 18.292873
61.310 18.561909
61.315 18.394203
61.320 18.181561
61.325 17.925655
61.330 17.751646
61.335 17.93227
61.340 18.629559
61.345 18.638254
61.350 18.313156
61.355 18.372864
61.360 18.644026
61.365 18.245411
61.370 17.705324
61.375 16.549088
61.380 16.728939
61.385 16.728338
61.390 16.315952
61.395 15.463223
61.400 15.559022
61.405 16.079842
61.410 16.557421
61.415 16.33802
61.420 16.723337
61.425 16.617245
61.430 16.81632
61.435 16.567358
61.440 16.096348
61.445 16.507885
61.450 16.80348
61.455 17.093008
61.460 17.842873
61.465 18.470491
61.470 18.782471
61.475 19.245491
61.480 18.829418
61.485 18.038485
61.490 17.542271
61.495 17.18281
61.500 16.800882
61.505 16.474674
61.510 16.610147
61.515 17.023081
61.520 17.162806
61.525 17.183384
61.530 17.135336
61.535 17.301622
61.540 17.401628
61.545 17.085417
61.550 17.331486
61.555 18.01433
61.560 18.038643
61.565 17.684221
61.570 17.640282
61.575 17.748795
61.580 17.638691
61.585 17.591599
61.590 17.273588
61.595 17.564896
61.600 18.002884
61.605 17.837852
61.610 17.89563
61.615 18.027742
61.620 17.745691
61.625 17.462734
61.630 17.037764
61.635 16.457932
61.640 16.360268
61.645 16.108173
61.650 15.705818
61.655 15.373852
61.660 15.862011
61.665 16.504416
61.670 17.573427
61.675 17.686775
61.680 18.092731
61.685 18.680412
61.690 18.529446
61.695 18.449213
61.700 18.39237
61.705 18.366501
61.710 18.989729
61.715 18.615227
61.720 17.953829
61.725 18.235279
61.730 17.755102
61.735 17.055473
61.740 15.982818
61.745 15.223133
61.750 15.220275
61.755 15.602221
61.760 15.488316
61.765 15.927773
61.770 16.390827
61.775 16.708815
61.780 16.718805
61.785 17.405861
61.790 17.307634
61.795 17.26273
61.800 17.284935
61.805 17.528141
61.810 18.593546
61.815 19.148609
61.820 18.306576
61.825 18.954638
61.830 19.620863
61.835 19.728165
61.840 19.737652
61.845 18.976093
61.850 18.296926
61.855 18.620859
61.860 18.694382
61.865 18.037605
61.870 17.333509
61.875 16.971992
61.880 17.275698
61.885 17.440525
61.890 17.533838
61.895 16.885059
61.900 17.024769
61.905 17.908464
61.910 18.027872
61.915 17.482807
61.920 17.135593
61.925 16.415518
61.930 16.259995
61.935 16.335672
61.940 16.041145
61.945 16.142778
61.950 16.133574
61.955 16.247236
61.960 16.569159
61.965 16.46525
61.970 16.649418
61.975 16.665007
61.980 16.818192
61.985 17.218445
61.990 16.909155
61.995 16.513004
62.000 16.71203
62.005 15.848527
62.010 16.039
62.015 16.06884
62.020 16.30398
62.025 16.844023
62.030 17.213083
62.035 16.541853
62.040 16.770067
62.045 16.178482
62.050 16.324604
62.055 16.459419
62.060 16.256659
62.065 16.394783
62.070 16.921598
62.075 17.248575
62.080 17.548248
62.085 17.351946
62.090 17.06551
62.095 16.751883
62.100 16.230225
62.105 15.821843
62.110 15.879068
62.115 16.047071
62.120 16.692497
62.125 16.968653
62.130 17.757223
62.135 18.274017
62.140 18.830524
62.145 19.147255
62.150 19.016773
62.155 18.28676
62.160 18.371643
62.165 19.289778
62.170 20.057066
62.175 20.246569
62.180 20.114075
62.185 19.900482
62.190 19.937019
62.195 19.890589
62.200 18.809067
62.205 18.168285
62.210 17.43107
62.215 16.717035
62.220 16.177788
62.225 15.959735
62.230 15.441559
62.235 14.844815
62.240 14.852698
62.245 15.513597
62.250 16.036104
62.255 16.806873
62.260 16.886694
62.265 16.74128
62.270 17.493036
62.275 17.215878
62.280 16.04528
62.285 15.709804
62.290 15.346438
62.295 15.561517
62.300 16.239918
62.305 16.002512
62.310 16.542957
62.315 16.498009
62.320 16.61968
62.325 17.017027
62.330 17.231806
62.335 16.638096
62.340 16.226326
62.345 15.935906
62.350 16.531734
62.355 16.143589
62.360 16.008404
62.365 16.172102
62.370 16.339966
62.375 16.845106
62.380 17.116556
62.385 17.184553
62.390 17.346441
62.395 17.105337
62.400 16.912943
62.405 17.510832
62.410 18.105898
62.415 18.080519
62.420 18.674286
62.425 18.728104
62.430 18.706799
62.435 18.706558
62.440 17.80723
62.445 17.504602
62.450 17.92548
62.455 17.936998
62.460 18.303194
62.465 19.073935
62.470 19.293291
62.475 19.677565
62.480 19.273996
62.485 18.517433
62.490 17.631775
62.495 17.376856
62.500 16.889748
62.505 16.839285
62.510 16.989105
62.515 17.277647
62.520 17.384941
62.525 17.716255
62.530 17.378794
62.535 17.043318
62.540 16.646955
62.545 16.487679
62.550 16.6346
62.555 16.568411
62.560 16.777033
62.565 16.983389
62.570 16.419504
62.575 16.641823
62.580 16.780931
62.585 16.228745
62.590 16.498446
62.595 16.137396
62.600 16.001942
62.605 16.484304
62.610 16.18252
62.615 15.967908
62.620 15.952683
62.625 15.704741
62.630 15.886549
62.635 16.334766
62.640 16.327938
62.645 16.130312
62.650 16.645756
62.655 17.763481
62.660 17.92045
62.665 18.048981
62.670 18.02866
62.675 18.310526
62.680 18.63695
62.685 18.072971
62.690 17.372589
62.695 17.469965
62.700 17.221546
62.705 17.186251
62.710 17.38763
62.715 17.602819
62.720 18.391022
62.725 19.211376
62.730 19.62911
62.735 19.695065
62.740 19.922918
62.745 19.945969
62.750 19.581293
62.755 18.712223
62.760 17.807762
62.765 17.614868
62.770 17.651402
62.775 17.429525
62.780 17.249313
62.785 17.097721
62.790 17.123777
62.795 17.331224
62.800 17.164562
62.805 17.539543
62.810 17.270021
62.815 17.503685
62.820 17.293867
62.825 17.361528
62.830 17.189407
62.835 17.226992
62.840 16.518396
62.845 16.5494
62.850 16.519516
62.855 17.090425
62.860 17.306242
62.865 17.362928
62.870 17.080528
62.875 17.149773
62.880 17.150515
62.885 16.87628
62.890 16.473194
62.895 15.861792
62.900 15.659575
62.905 15.880178
62.910 16.337626
62.915 16.589228
62.920 16.753401
62.925 17.23484
62.930 17.493296
62.935 17.694204
62.940 18.017971
62.945 18.352371
62.950 18.379347
62.955 18.081896
62.960 17.58843
62.965 17.632919
62.970 17.687632
62.975 17.231323
62.980 17.037897
62.985 16.763723
62.990 17.259321
62.995 17.519321
63.000 17.982433
63.005 17.92725
63.010 17.579548
63.015 17.34605
63.020 17.276958
63.025 16.986305
63.030 17.068386
63.035 17.13431
63.040 17.36281
63.045 17.667377
63.050 17.166531
63.055 17.457256
63.060 17.621769
63.065 17.943792
63.070 18.562943
63.075 18.523014
63.080 19.223846
63.085 19.931597
63.090 19.952158
63.095 19.942736
63.100 19.582005
63.105 18.468233
63.110 18.133411
63.115 17.802313
63.120 17.672493
63.125 17.451738
63.130 17.603172
63.135 17.594534
63.140 18.2022
63.145 18.554968
63.150 18.049776
63.155 17.956146
63.160 18.471737
63.165 18.347305
63.170 18.13188
63.175 17.90806
63.180 17.908119
63.185 17.987514
63.190 17.718491
63.195 17.410267
63.200 17.696058
63.205 17.965485
63.210 17.607136
63.215 17.188854
63.220 17.094891
63.225 16.799154
63.230 16.571627
63.235 16.211071
63.240 16.741226
63.245 16.959036
63.250 16.876097
63.255 17.814156
63.260 18.215631
63.265 18.30562
63.270 17.811087
63.275 16.797039
63.280 17.240629
63.285 17.721874
63.290 16.878494
63.295 16.828634
63.300 17.070925
63.305 17.945618
63.310 18.361115
63.315 17.926975
63.320 17.769129
63.325 17.94743
63.330 17.67425
63.335 17.164314
63.340 16.848524
63.345 16.908087
63.350 17.444809
63.355 17.562698
63.360 17.431852
63.365 17.586065
63.370 18.266876
63.375 18.171101
63.380 17.64152
63.385 17.207281
63.390 17.053995
63.395 17.229567
63.400 17.419319
63.405 17.168549
63.410 17.435347
63.415 17.728951
63.420 17.845102
63.425 18.0063
63.430 18.073603
63.435 17.711491
63.440 17.704016
63.445 17.37549
63.450 16.988335
63.455 17.136154
63.460 17.507669
63.465 17.361113
63.470 17.33069
63.475 16.937382
63.480 16.64225
63.485 16.81612
63.490 17.080103
63.495 16.805401
63.500 16.924757
63.505 17.364286
63.510 17.684624
63.515 18.404015
63.520 18.560244
63.525 17.486126
63.530 16.957363
63.535 17.036222
63.540 16.775282
63.545 16.526165
63.550 16.569542
63.555 16.828484
63.560 17.641399
63.565 18.513212
63.570 18.441578
63.575 19.08676
63.580 19.311247
63.585 18.783188
63.590 18.359114
63.595 18.570951
63.600 18.252354
63.605 18.157852
63.610 17.492226
63.615 17.191031
63.620 17.113146
63.625 17.229935
63.630 17.02631
63.635 16.92322
63.640 17.10438
63.645 17.347389
63.650 17.235941
63.655 17.31188
63.660 17.620916
63.665 17.343149
63.670 17.525705
63.675 17.334471
63.680 17.545067
63.685 18.184992
63.690 17.989452
63.695 17.907721
63.700 18.262743
63.705 17.935957
63.710 17.72541
63.715 17.877995
63.720 18.068521
63.725 18.230268
63.730 18.066214
63.735 18.450537
63.740 19.249166
63.745 19.338497
63.750 19.0109
63.755 18.515055
63.760 17.992422
63.765 17.739944
63.770 17.209867
63.775 16.670673
63.780 16.888659
63.785 17.351831
63.790 17.616846
63.795 18.007437
63.800 17.832926
63.805 17.776796
63.810 17.341852
63.815 16.633539
63.820 16.372343
63.825 16.736904
63.830 17.317278
63.835 17.931282
63.840 18.444548
63.845 18.888054
63.850 19.654385
63.855 19.114199
63.860 18.890415
63.865 18.659367
63.870 18.520077
63.875 18.008904
63.880 18.044586
63.885 17.912813
63.890 18.776577
63.895 18.62398
63.900 18.110102
63.905 17.963013
63.910 17.913309
63.915 17.454884
63.920 16.834438
63.925 15.746165
63.930 15.366489
63.935 15.762269
63.940 15.894286
63.945 16.414858
63.950 16.380898
63.955 16.826262
63.960 17.623899
63.965 18.194204
63.970 17.859936
63.975 17.248734
63.980 17.059378
63.985 18.046188
63.990 17.86735
63.995 17.939646
64.000 17.957651
64.005 18.532194
64.010 19.234644
64.015 19.855803
64.020 19.898905
64.025 20.70594
64.030 20.78076
64.035 21.073311
64.040 20.995432
64.045 20.997936
64.050 20.699261
64.055 19.885012
64.060 19.230648
64.065 18.743435
64.070 18.347485
64.075 17.851065
64.080 17.251923
64.085 17.495663
64.090 17.94451
64.095 18.228689
64.100 18.151968
64.105 18.216759
64.110 18.58288
64.115 18.971916
64.120 19.137156
64.125 18.677528
64.130 18.366602
64.135 18.848139
64.140 18.856037
64.145 19.009624
64.150 18.494938
64.155 17.998932
64.160 18.00474
64.165 17.826048
64.170 18.02809
64.175 18.222345
64.180 18.118483
64.185 18.214365
64.190 17.859997
64.195 17.976818
64.200 18.433105
64.205 18.294596
64.210 17.921835
64.215 17.568718
64.220 17.466511
64.225 17.126059
64.230 17.241158
64.235 17.364574
64.240 16.879206
64.245 16.615232
64.250 16.767767
64.255 17.229721
64.260 18.036192
64.265 18.410496
64.270 18.334787
64.275 18.96858
64.280 19.387705
64.285 19.279167
64.290 18.505226
64.295 18.240942
64.300 18.330444
64.305 18.026793
64.310 17.426336
64.315 17.037745
64.320 17.584091
64.325 18.124817
64.330 17.586542
64.335 17.201433
64.340 17.272324
64.345 17.943121
64.350 18.240673
64.355 18.282707
64.360 18.96752
64.365 19.832405
64.370 20.080828
64.375 20.343117
64.380 19.583521
64.385 19.206936
64.390 19.127758
64.395 18.638336
64.400 19.095934
64.405 19.457575
64.410 19.472761
64.415 20.126854
64.420 20.475376
64.425 20.108498
64.430 20.326752
64.435 19.416885
64.440 19.793127
64.445 19.945002
64.450 19.947453
64.455 20.01067
64.460 20.506433
64.465 20.700665
64.470 20.709583
64.475 19.565437
64.480 19.601528
64.485 19.817057
64.490 19.733549
64.495 20.072906
64.500 19.78981
64.505 19.691574
64.510 20.105402
64.515 20.263594
64.520 20.348068
64.525 20.379162
64.530 19.832312
64.535 19.764133
64.540 19.916304
64.545 19.821384
64.550 19.900389
64.555 19.899303
64.560 19.755083
64.565 20.013678
64.570 20.450233
64.575 20.038408
64.580 19.302193
64.585 19.031914
64.590 19.167057
64.595 18.85265
64.600 18.344828
64.605 17.981014
64.610 18.643635
64.615 19.019615
64.620 18.860405
64.625 18.626507
64.630 18.917162
64.635 19.166906
64.640 19.246639
64.645 19.283001
64.650 19.606956
64.655 19.790358
64.660 19.719841
64.665 19.384169
64.670 19.122379
64.675 18.863646
64.680 18.440474
64.685 17.859863
64.690 17.184477
64.695 17.214138
64.700 17.923056
64.705 18.539465
64.710 18.827179
64.715 19.246901
64.720 19.374062
64.725 19.414433
64.730 19.451452
64.735 18.68539
64.740 18.374493
64.745 18.231968
64.750 18.142139
64.755 18.176895
64.760 19.354696
64.765 19.538576
64.770 20.403528
64.775 20.165997
64.780 20.190184
64.785 20.131577
64.790 19.923512
64.795 19.18421
64.800 19.006424
64.805 18.068144
64.810 18.245008
64.815 18.116556
64.820 18.126883
64.825 18.399105
64.830 18.519573
64.835 19.004873
64.840 20.096638
64.845 20.445759
64.850 20.651556
64.855 20.742826
64.860 20.912395
64.865 21.275175
64.870 21.158632
64.875 21.259117
64.880 21.678215
64.885 21.558802
64.890 21.879416
64.895 21.746538
64.900 21.271318
64.905 20.591927
64.910 19.782766
64.915 19.463999
64.920 20.108377
64.925 19.908964
64.930 19.992128
64.935 20.318846
64.940 20.60494
64.945 21.335327
64.950 21.094187
64.955 20.80574
64.960 21.139545
64.965 21.150639
64.970 21.684889
64.975 21.509697
64.980 21.133743
64.985 21.611788
64.990 21.493107
64.995 21.69112
65.000 21.497118
65.005 20.950415
65.010 21.359167
65.015 21.526571
65.020 22.137125
65.025 22.492559
65.030 21.945755
65.035 21.713076
65.040 22.038628
65.045 22.185219
65.050 21.83494
65.055 21.526121
65.060 21.466593
65.065 22.189104
65.070 23.154558
65.075 23.584906
65.080 23.70389
65.085 23.633205
65.090 23.210386
65.095 23.218594
65.100 23.192263
65.105 22.644735
65.110 22.606575
65.115 22.666018
65.120 23.23465
65.125 23.979858
65.130 23.853703
65.135 23.684263
65.140 23.989521
65.145 23.267204
65.150 23.361834
65.155 22.739016
65.160 22.444
65.165 22.910891
65.170 22.484879
65.175 22.325657
65.180 22.331301
65.185 21.48724
65.190 21.573954
65.195 21.034439
65.200 20.815105
65.205 21.283367
65.210 21.158783
65.215 21.508875
65.220 22.096081
65.225 22.400478
65.230 22.183249
65.235 21.679108
65.240 21.172306
65.245 21.074617
65.250 20.891518
65.255 20.615049
65.260 20.584726
65.265 21.086744
65.270 21.463943
65.275 21.904938
65.280 22.507616
65.285 23.23287
65.290 23.86792
65.295 24.210613
65.300 24.325144
65.305 24.402664
65.310 24.408009
65.315 23.74172
65.320 22.988579
65.325 22.436434
65.330 21.688023
65.335 21.94787
65.340 22.206961
65.345 22.417635
65.350 22.925945
65.355 23.459976
65.360 24.067327
65.365 24.92173
65.370 25.59367
65.375 26.297569
65.380 25.836279
65.385 25.877295
65.390 26.229631
65.395 26.034046
65.400 26.268278
65.405 25.441362
65.410 24.653818
65.415 24.587431
65.420 24.362692
65.425 23.758688
65.430 23.68059
65.435 23.008326
65.440 22.828871
65.445 23.157682
65.450 24.276384
65.455 24.139946
65.460 23.595371
65.465 23.328436
65.470 23.518398
65.475 23.872963
65.480 24.181286
65.485 23.901979
65.490 24.399794
65.495 25.613422
65.500 26.279509
65.505 26.384439
65.510 26.772635
65.515 26.348619
65.520 26.227226
65.525 26.284527
65.530 26.034103
65.535 25.83111
65.540 26.280109
65.545 26.795383
65.550 27.213654
65.555 27.382177
65.560 27.261812
65.565 26.958712
65.570 27.335352
65.575 26.41585
65.580 26.159746
65.585 26.317829
65.590 26.598555
65.595 27.109936
65.600 28.097393
65.605 28.795055
65.610 29.930042
65.615 30.56604
65.620 31.354389
65.625 31.387609
65.630 31.419716
65.635 31.008545
65.640 30.119171
65.645 29.710163
65.650 29.926041
65.655 30.012997
65.660 31.158655
65.665 31.506718
65.670 31.426661
65.675 32.439831
65.680 33.140404
65.685 33.123131
65.690 32.942696
65.695 32.822254
65.700 32.695145
65.705 32.929977
65.710 32.660538
65.715 33.073238
65.720 33.429539
65.725 33.480774
65.730 33.080978
65.735 33.065453
65.740 33.173801
65.745 33.307278
65.750 33.68837
65.755 33.526215
65.760 34.100765
65.765 35.281246
65.770 35.648911
65.775 35.970787
65.780 35.796494
65.785 35.709621
65.790 36.254143
65.795 35.738823
65.800 36.199638
65.805 36.557297
65.810 37.023067
65.815 37.711624
65.820 37.69183
65.825 37.431622
65.830 37.555927
65.835 37.147041
65.840 36.626957
65.845 36.541355
65.850 36.804653
65.855 37.578461
65.860 37.748127
65.865 37.943226
65.870 37.755219
65.875 38.223858
65.880 37.765728
65.885 37.216991
65.890 36.988186
65.895 37.224735
65.900 37.695148
65.905 38.20118
65.910 38.613094
65.915 39.382755
65.920 39.86219
65.925 40.258347
65.930 40.297138
65.935 40.046753
65.940 39.461403
65.945 39.668552
65.950 39.707867
65.955 39.923256
65.960 40.018814
65.965 39.365974
65.970 39.692886
65.975 39.229118
65.980 38.816795
65.985 38.831341
65.990 38.000637
65.995 37.518665
66.000 37.850811
66.005 37.791351
66.010 38.87048
66.015 39.288185
66.020 39.954288
66.025 40.882668
66.030 41.820816
66.035 41.822742
66.040 41.38937
66.045 41.086548
66.050 41.081337
66.055 40.501671
66.060 39.487068
66.065 38.326126
66.070 38.638714
66.075 38.95319
66.080 38.497475
66.085 38.423225
66.090 38.407154
66.095 38.574795
66.100 39.124012
66.105 38.282169
66.110 37.972141
66.115 37.928165
66.120 37.296955
66.125 37.106091
66.130 36.784485
66.135 36.36927
66.140 36.501892
66.145 35.862251
66.150 35.566612
66.155 35.18568
66.160 35.15279
66.165 35.006809
66.170 34.281815
66.175 34.254093
66.180 34.586746
66.185 34.594387
66.190 34.962151
66.195 34.961552
66.200 35.262676
66.205 35.036907
66.210 35.079407
66.215 35.394947
66.220 35.175289
66.225 35.022545
66.230 35.0229
66.235 35.380661
66.240 35.471428
66.245 35.010429
66.250 35.087467
66.255 35.129704
66.260 35.115795
66.265 34.432217
66.270 33.718403
66.275 33.975346
66.280 33.262897
66.285 32.617367
66.290 32.4963
66.295 32.956512
66.300 33.202755
66.305 33.449879
66.310 33.014034
66.315 33.145691
66.320 32.547836
66.325 32.358974
66.330 32.156059
66.335 31.415871
66.340 30.998894
66.345 31.505575
66.350 31.990503
66.355 32.43475
66.360 32.094406
66.365 31.609882
66.370 31.898535
66.375 30.814022
66.380 29.893089
66.385 29.846455
66.390 29.536098
66.395 29.780609
66.400 29.914612
66.405 29.858616
66.410 30.058773
66.415 29.95089
66.420 29.502638
66.425 29.23044
66.430 29.321163
66.435 29.431656
66.440 29.384155
66.445 29.174809
66.450 28.67857
66.455 28.459475
66.460 28.401766
66.465 27.980747
66.470 27.650709
66.475 27.605709
66.480 27.721001
66.485 28.341751
66.490 28.77586
66.495 28.31465
66.500 27.855736
66.505 28.032564
66.510 27.667545
66.515 27.813976
66.520 28.279991
66.525 28.493544
66.530 28.64152
66.535 28.846424
66.540 29.179632
66.545 29.291189
66.550 29.084726
66.555 28.360281
66.560 27.233229
66.565 26.965485
66.570 27.050974
66.575 26.353905
66.580 26.414066
66.585 25.936708
66.590 25.653845
66.595 26.418802
66.600 27.390409
66.605 27.036964
66.610 26.549274
66.615 26.340117
66.620 26.808653
66.625 26.544199
66.630 26.409451
66.635 25.559153
66.640 25.741329
66.645 26.092646
66.650 26.848927
66.655 27.37081
66.660 27.380754
66.665 26.957726
66.670 26.701365
66.675 27.001738
66.680 27.175247
66.685 26.152758
66.690 25.314611
66.695 25.362783
66.700 26.02459
66.705 26.057629
66.710 25.489887
66.715 25.115995
66.720 25.593786
66.725 25.746264
66.730 25.04611
66.735 25.116056
66.740 25.219585
66.745 25.565176
66.750 25.54616
66.755 25.968609
66.760 26.241455
66.765 26.426779
66.770 26.009571
66.775 25.905109
66.780 26.095722
66.785 26.489187
66.790 25.300774
66.795 25.151373
66.800 25.031881
66.805 24.971457
66.810 24.69129
66.815 23.775324
66.820 23.028156
66.825 22.894072
66.830 22.963564
66.835 22.405376
66.840 22.316074
66.845 22.627855
66.850 22.898275
66.855 23.208099
66.860 23.354733
66.865 23.259319
66.870 23.35372
66.875 23.365816
66.880 23.279427
66.885 23.488525
66.890 24.063364
66.895 24.643162
66.900 24.94655
66.905 24.922688
66.910 24.632776
66.915 24.075947
66.920 23.542175
66.925 23.257313
66.930 22.793175
66.935 22.353796
66.940 22.498589
66.945 22.923641
66.950 23.147041
66.955 23.25955
66.960 23.339121
66.965 23.32287
66.970 23.353048
66.975 23.474903
66.980 23.37007
66.985 23.184628
66.990 23.009605
66.995 22.541267
67.000 22.924765
67.005 23.696577
67.010 23.426668
67.015 23.280024
67.020 23.304075
67.025 23.501938
67.030 23.806969
67.035 23.184206
67.040 22.763083
67.045 22.931263
67.050 22.966066
67.055 22.620146
67.060 22.164043
67.065 21.561626
67.070 22.126486
67.075 21.772041
67.080 21.199987
67.085 21.091265
67.090 21.434374
67.095 21.387152
67.100 21.600306
67.105 21.119123
67.110 21.704252
67.115 22.65926
67.120 23.403591
67.125 23.460461
67.130 23.782793
67.135 24.042913
67.140 24.279207
67.145 24.062464
67.150 23.619387
67.155 23.359755
67.160 23.82716
67.165 23.638571
67.170 23.50959
67.175 23.70948
67.180 23.577587
67.185 23.229757
67.190 22.949905
67.195 23.003138
67.200 23.48942
67.205 23.392731
67.210 22.920799
67.215 23.267773
67.220 23.732357
67.225 23.860699
67.230 23.159739
67.235 23.151068
67.240 23.710634
67.245 23.95162
67.250 22.89798
67.255 22.229284
67.260 22.417841
67.265 23.198462
67.270 22.479055
67.275 21.660072
67.280 21.364473
67.285 22.215542
67.290 22.342949
67.295 22.025129
67.300 21.367117
67.305 21.553406
67.310 21.4086
67.315 21.233095
67.320 20.617371
67.325 20.844662
67.330 21.301699
67.335 21.403198
67.340 21.26553
67.345 20.976101
67.350 21.416115
67.355 21.223213
67.360 20.817837
67.365 20.627748
67.370 20.853804
67.375 21.228226
67.380 21.207212
67.385 20.787518
67.390 21.723934
67.395 22.286535
67.400 22.252388
67.405 22.177601
67.410 22.219799
67.415 23.135506
67.420 23.157011
67.425 22.769863
67.430 22.665213
67.435 22.83177
67.440 22.553686
67.445 22.506882
67.450 22.292198
67.455 22.482246
67.460 22.628916
67.465 22.674768
67.470 22.914415
67.475 23.166241
67.480 23.191368
67.485 23.510147
67.490 23.558638
67.495 23.242691
67.500 22.987844
67.505 22.634369
67.510 22.727177
67.515 22.769644
67.520 22.24473
67.525 22.419186
67.530 22.616871
67.535 22.799376
67.540 22.230618
67.545 22.208199
67.550 21.974134
67.555 22.010466
67.560 21.934536
67.565 21.823929
67.570 21.528109
67.575 22.058872
67.580 22.116596
67.585 22.534288
67.590 22.43565
67.595 22.328623
67.600 22.226801
67.605 22.556215
67.610 21.91774
67.615 21.771643
67.620 21.823282
67.625 22.366415
67.630 22.298763
67.635 21.999657
67.640 22.173809
67.645 22.751825
67.650 22.342001
67.655 22.382557
67.660 21.984062
67.665 22.236273
67.670 22.655048
67.675 22.41404
67.680 22.221254
67.685 22.392208
67.690 22.176117
67.695 22.228338
67.700 22.219999
67.705 22.210314
67.710 22.505499
67.715 22.878691
67.720 22.994349
67.725 22.834373
67.730 22.845787
67.735 22.585493
67.740 22.224785
67.745 21.364325
67.750 20.684361
67.755 20.613708
67.760 21.076344
67.765 21.020109
67.770 20.813076
67.775 20.931477
67.780 21.351824
67.785 21.329403
67.790 21.545557
67.795 20.499275
67.800 20.464933
67.805 20.784609
67.810 20.829449
67.815 20.963329
67.820 21.437525
67.825 21.330059
67.830 21.70723
67.835 21.753553
67.840 21.324789
67.845 20.927847
67.850 21.188232
67.855 21.102978
67.860 21.533976
67.865 20.897924
67.870 20.40237
67.875 20.315825
67.880 20.472471
67.885 20.164072
67.890 19.535704
67.895 19.261774
67.900 19.878521
67.905 20.337973
67.910 20.695976
67.915 21.044268
67.920 20.978193
67.925 21.059204
67.930 20.994888
67.935 21.227814
67.940 21.376402
67.945 21.525631
67.950 20.950085
67.955 21.075556
67.960 20.670012
67.965 20.425949
67.970 20.113886
67.975 20.014364
67.980 20.345783
67.985 20.338814
67.990 20.34553
67.995 20.769741
68.000 20.956202
68.005 21.110363
68.010 20.905922
68.015 20.679222
68.020 21.005701
68.025 20.913414
68.030 21.189877
68.035 21.396465
68.040 22.465221
68.045 22.461618
68.050 22.947002
68.055 22.673754
68.060 22.808836
68.065 23.271601
68.070 22.6721
68.075 21.888079
68.080 21.874371
68.085 21.182119
68.090 21.23522
68.095 21.167389
68.100 20.962223
68.105 21.286652
68.110 21.77873
68.115 22.144831
68.120 22.095161
68.125 22.126181
68.130 21.816872
68.135 21.742388
68.140 21.024761
68.145 20.054003
68.150 19.583069
68.155 19.739952
68.160 19.711502
68.165 19.76091
68.170 20.182846
68.175 20.885206
68.180 21.30603
68.185 21.833359
68.190 21.976799
68.195 21.945951
68.200 21.633909
68.205 20.824661
68.210 20.400955
68.215 19.849174
68.220 19.575363
68.225 19.532495
68.230 19.270115
68.235 19.112299
68.240 19.501827
68.245 20.328461
68.250 20.836329
68.255 20.784878
68.260 20.61624
68.265 20.935356
68.270 21.64397
68.275 21.87307
68.280 21.325912
68.285 20.897659
68.290 20.275198
68.295 20.626757
68.300 20.888554
68.305 20.659222
68.310 20.223476
68.315 19.690821
68.320 19.914537
68.325 20.377487
68.330 19.793819
68.335 19.663073
68.340 19.798489
68.345 20.340464
68.350 21.330297
68.355 21.460037
68.360 21.762985
68.365 22.459713
68.370 22.659767
68.375 23.179653
68.380 22.863682
68.385 22.510008
68.390 22.415768
68.395 22.097855
68.400 21.475164
68.405 21.127617
68.410 20.896759
68.415 21.02961
68.420 20.796387
68.425 21.282862
68.430 21.493044
68.435 21.80759
68.440 21.351376
68.445 21.380245
68.450 21.695681
68.455 22.22172
68.460 22.051819
68.465 21.927332
68.470 21.89834
68.475 22.332153
68.480 21.853426
68.485 22.058516
68.490 22.031797
68.495 21.952229
68.500 21.947409
68.505 21.596359
68.510 21.070164
68.515 20.842367
68.520 20.187342
68.525 19.600685
68.530 19.535843
68.535 19.574844
68.540 20.062262
68.545 21.087839
68.550 21.472858
68.555 21.968508
68.560 22.139305
68.565 22.504393
68.570 22.803974
68.575 22.558399
68.580 22.159138
68.585 21.976545
68.590 22.070801
68.595 22.069252
68.600 22.033213
68.605 21.790499
68.610 21.85635
68.615 21.498817
68.620 21.538425
68.625 21.140142
68.630 21.595049
68.635 21.827759
68.640 22.143538
68.645 22.245022
68.650 22.251682
68.655 21.992838
68.660 21.353287
68.665 20.747437
68.670 20.40139
68.675 20.302883
68.680 20.338408
68.685 20.556549
68.690 21.375299
68.695 22.16041
68.700 22.368095
68.705 22.132421
68.710 22.565149
68.715 22.470564
68.720 22.410233
68.725 22.148506
68.730 22.129992
68.735 22.345036
68.740 22.552862
68.745 21.813011
68.750 21.870691
68.755 21.947309
68.760 21.816814
68.765 21.758053
68.770 21.89407
68.775 21.901165
68.780 21.961508
68.785 21.699701
68.790 21.640543
68.795 21.735775
68.800 21.501144
68.805 21.639465
68.810 22.174833
68.815 22.404074
68.820 22.5501
68.825 22.390953
68.830 22.497524
68.835 23.390921
68.840 23.07642
68.845 22.442316
68.850 22.705416
68.855 23.242027
68.860 23.522434
68.865 23.312174
68.870 22.383696
68.875 22.307137
68.880 22.196327
68.885 21.80303
68.890 21.827526
68.895 21.665478
68.900 21.549978
68.905 21.981979
68.910 22.079741
68.915 22.25548
68.920 21.787237
68.925 21.535406
68.930 21.450106
68.935 21.036346
68.940 20.772936
68.945 20.75926
68.950 20.946751
68.955 21.767305
68.960 22.372221
68.965 22.66189
68.970 23.44706
68.975 23.882338
68.980 23.887234
68.985 23.912447
68.990 23.872562
68.995 23.816555
69.000 23.781792
69.005 23.634123
69.010 23.403049
69.015 23.552109
69.020 23.955338
69.025 23.922026
69.030 23.856785
69.035 23.330698
69.040 23.345318
69.045 23.486498
69.050 23.861137
69.055 23.321028
69.060 23.45536
69.065 23.878817
69.070 23.874207
69.075 24.252829
69.080 24.003654
69.085 24.009785
69.090 23.971186
69.095 23.358971
69.100 23.653097
69.105 23.998926
69.110 24.109333
69.115 24.515835
69.120 24.690176
69.125 25.19376
69.130 24.582029
69.135 24.285658
69.140 24.773581
69.145 24.441809
69.150 24.573271
69.155 24.284637
69.160 24.175131
69.165 24.676554
69.170 25.008106
69.175 25.301094
69.180 25.918463
69.185 26.64563
69.190 27.340633
69.195 27.830809
69.200 27.310469
69.205 27.023209
69.210 27.499063
69.215 27.159262
69.220 26.740856
69.225 26.301958
69.230 26.184839
69.235 26.748739
69.240 26.361164
69.245 26.438932
69.250 26.70508
69.255 26.460146
69.260 27.030439
69.265 27.001198
69.270 27.342398
69.275 27.929848
69.280 27.27598
69.285 27.13891
69.290 27.597683
69.295 27.992546
69.300 28.284353
69.305 27.544859
69.310 27.333521
69.315 27.360149
69.320 27.186855
69.325 26.820316
69.330 26.128368
69.335 26.309841
69.340 26.599623
69.345 26.395685
69.350 26.665291
69.355 26.61158
69.360 26.369129
69.365 26.383091
69.370 26.63652
69.375 27.217112
69.380 27.680326
69.385 27.527321
69.390 28.525846
69.395 28.989271
69.400 29.238718
69.405 29.262974
69.410 28.784765
69.415 28.443245
69.420 28.749302
69.425 28.690584
69.430 28.962294
69.435 29.65012
69.440 30.721395
69.445 31.416616
69.450 32.433083
69.455 32.245644
69.460 31.471169
69.465 30.622892
69.470 29.966288
69.475 29.060085
69.480 28.426476
69.485 27.530005
69.490 27.400858
69.495 28.291731
69.500 28.777369
69.505 28.681089
69.510 29.028849
69.515 29.529249
69.520 30.894051
69.525 30.762079
69.530 30.026237
69.535 30.297585
69.540 30.037376
69.545 29.902956
69.550 29.716993
69.555 28.715952
69.560 28.897535
69.565 29.340521
69.570 29.620342
69.575 29.549376
69.580 28.922781
69.585 28.506861
69.590 28.86425
69.595 28.270899
69.600 28.25141
69.605 27.669386
69.610 28.118042
69.615 28.868353
69.620 28.505344
69.625 28.78161
69.630 28.99963
69.635 29.041229
69.640 29.430218
69.645 29.281378
69.650 28.979229
69.655 29.53784
69.660 29.624401
69.665 29.573938
69.670 28.841467
69.675 28.59506
69.680 28.312717
69.685 28.798668
69.690 28.006411
69.695 27.29405
69.700 26.92701
69.705 26.306313
69.710 26.238791
69.715 26.289452
69.720 26.047703
69.725 26.725334
69.730 26.59234
69.735 26.211279
69.740 26.880629
69.745 27.088581
69.750 26.747995
69.755 26.025249
69.760 25.455275
69.765 25.54882
69.770 26.390293
69.775 25.981184
69.780 25.756826
69.785 25.652031
69.790 25.312271
69.795 25.317192
69.800 25.117214
69.805 24.697859
69.810 25.067495
69.815 24.900131
69.820 24.896276
69.825 25.1038
69.830 25.939278
69.835 26.448868
69.840 26.640701
69.845 26.666218
69.850 26.42157
69.855 26.776623
69.860 26.509333
69.865 25.327314
69.870 25.164883
69.875 24.949635
69.880 24.732277
69.885 24.663723
69.890 24.24819
69.895 23.653652
69.900 23.829149
69.905 23.487913
69.910 23.181799
69.915 22.669352
69.920 22.783325
69.925 22.675535
69.930 22.685335
69.935 23.073431
69.940 22.789738
69.945 23.270554
69.950 23.562492
69.955 23.949812
69.960 24.435888
69.965 24.095654
69.970 23.572329
69.975 23.186773
69.980 23.133755
69.985 23.067442
69.990 23.276976
69.995 23.791582
70.000 23.672504
70.005 23.699192
70.010 23.951149
70.015 23.189817
70.020 23.431448
70.025 22.9592
70.030 22.211224
70.035 21.540331
70.040 20.999809
70.045 20.730949
70.050 20.613737
70.055 20.066389
70.060 20.007427
70.065 20.650999
70.070 21.307964
70.075 22.076483
70.080 22.122013
70.085 22.343332
70.090 22.062586
70.095 21.608418
70.100 21.092337
70.105 20.795486
70.110 20.746159
70.115 20.481222
70.120 20.567919
70.125 19.897291
70.130 19.691923
70.135 19.674429
70.140 19.383444
70.145 19.191856
70.150 19.485241
70.155 19.453997
70.160 19.932606
70.165 19.713621
70.170 19.83989
70.175 19.432693
70.180 19.147524
70.185 18.860111
70.190 19.115677
70.195 19.258535
70.200 19.608635
70.205 19.870176
70.210 20.843376
70.215 21.023396
70.220 21.126305
70.225 20.455273
70.230 20.287189
70.235 20.158411
70.240 19.829214
70.245 19.297293
70.250 18.992413
70.255 19.246445
70.260 19.837263
70.265 20.270941
70.270 20.383352
70.275 20.694992
70.280 20.697958
70.285 20.743343
70.290 20.471052
70.295 20.269033
70.300 20.261627
70.305 20.780407
70.310 21.126297
70.315 21.922548
70.320 22.636055
70.325 22.834139
70.330 22.959343
70.335 22.85701
70.340 22.243515
70.345 21.461973
70.350 20.901581
70.355 19.508602
70.360 19.240835
70.365 18.488094
70.370 17.945892
70.375 17.436554
70.380 17.608084
70.385 17.220045
70.390 17.814556
70.395 18.116564
70.400 18.460979
70.405 18.838297
70.410 19.206553
70.415 19.249979
70.420 19.743399
70.425 19.638176
70.430 20.012302
70.435 20.151539
70.440 20.509321
70.445 20.476892
70.450 20.300749
70.455 19.822744
70.460 19.886852
70.465 19.287704
70.470 18.57691
70.475 18.088112
70.480 17.378078
70.485 17.138062
70.490 17.401178
70.495 17.351965
70.500 18.239275
70.505 18.709505
70.510 18.674652
70.515 19.136932
70.520 19.484077
70.525 19.089096
70.530 19.196768
70.535 18.967079
70.540 18.795574
70.545 18.726521
70.550 18.746679
70.555 18.964848
70.560 19.122129
70.565 18.979549
70.570 18.629774
70.575 18.457935
70.580 18.790356
70.585 18.754766
70.590 18.704082
70.595 18.744532
70.600 18.913958
70.605 19.037157
70.610 19.283428
70.615 20.028061
70.620 20.313862
70.625 19.864384
70.630 19.524904
70.635 19.367039
70.640 19.46767
70.645 19.504873
70.650 19.516994
70.655 19.806835
70.660 20.693848
70.665 20.906879
70.670 20.180538
70.675 19.866467
70.680 19.778048
70.685 18.674801
70.690 18.68153
70.695 17.938148
70.700 17.987503
70.705 18.496111
70.710 18.799109
70.715 19.278442
70.720 19.828529
70.725 19.735834
70.730 19.940695
70.735 19.647076
70.740 19.538664
70.745 19.061981
70.750 19.40136
70.755 19.3225
70.760 19.106514
70.765 19.096388
70.770 19.560198
70.775 19.687279
70.780 19.18371
70.785 18.88109
70.790 19.219473
70.795 18.945978
70.800 18.7363
70.805 18.803358
70.810 19.199013
70.815 19.523561
70.820 19.589943
70.825 19.789675
70.830 20.183815
70.835 20.159801
70.840 19.874157
70.845 19.661669
70.850 19.763365
70.855 19.496622
70.860 19.082842
70.865 19.7213
70.870 20.014771
70.875 19.931265
70.880 20.012133
70.885 20.530825
70.890 20.184679
70.895 20.097771
70.900 20.237429
70.905 19.936047
70.910 19.574715
70.915 19.202394
70.920 18.667355
70.925 18.685226
70.930 18.204155
70.935 18.061359
70.940 18.582315
70.945 18.806734
70.950 19.02733
70.955 18.939457
70.960 18.901438
70.965 18.94948
70.970 18.812193
70.975 18.952755
70.980 18.720488
70.985 18.345972
70.990 18.468264
70.995 18.449123
71.000 18.141972
71.005 17.854246
71.010 17.645376
71.015 17.55986
71.020 18.048073
71.025 17.615662
71.030 17.445702
71.035 17.312567
71.040 17.537607
71.045 17.760616
71.050 17.454832
71.055 16.944136
71.060 17.107569
71.065 17.292624
71.070 17.313929
71.075 17.461853
71.080 17.428541
71.085 17.720158
71.090 18.278116
71.095 18.827364
71.100 19.379251
71.105 19.553452
71.110 19.754864
71.115 20.2869
71.120 21.142981
71.125 21.504181
71.130 21.642096
71.135 21.293531
71.140 21.193716
71.145 20.777254
71.150 20.449469
71.155 20.347073
71.160 19.909138
71.165 19.672733
71.170 19.652582
71.175 19.728476
71.180 19.729195
71.185 19.137838
71.190 18.830591
71.195 18.191679
71.200 18.217474
71.205 18.247408
71.210 17.953701
71.215 17.90336
71.220 18.022123
71.225 17.978645
71.230 18.958485
71.235 19.136072
71.240 18.999851
71.245 19.274015
71.250 19.44413
71.255 19.145947
71.260 18.953409
71.265 19.064541
71.270 18.885212
71.275 19.111485
71.280 18.764833
71.285 18.774607
71.290 19.145914
71.295 18.720182
71.300 18.362677
71.305 18.542112
71.310 18.435713
71.315 18.413601
71.320 18.076979
71.325 18.010328
71.330 17.495785
71.335 17.417017
71.340 17.299355
71.345 17.681961
71.350 18.036345
71.355 18.571629
71.360 18.78792
71.365 19.487125
71.370 18.786282
71.375 19.099335
71.380 19.493408
71.385 19.460985
71.390 18.808601
71.395 18.281218
71.400 18.418428
71.405 18.570934
71.410 18.365017
71.415 17.854275
71.420 17.274782
71.425 17.263678
71.430 16.924534
71.435 16.148489
71.440 15.603389
71.445 15.654076
71.450 16.240173
71.455 16.855034
71.460 17.637829
71.465 18.715944
71.470 19.34832
71.475 19.614613
71.480 19.967421
71.485 20.493258
71.490 20.439938
71.495 20.012165
71.500 19.692068
71.505 19.779455
71.510 20.614986
71.515 19.918756
71.520 19.976671
71.525 20.243563
71.530 20.332987
71.535 21.082911
71.540 21.2075
71.545 21.010647
71.550 20.501928
71.555 19.877653
71.560 19.66503
71.565 19.223421
71.570 18.641144
71.575 18.079853
71.580 18.002893
71.585 18.836418
71.590 19.364344
71.595 19.850616
71.600 19.885983
71.605 20.139103
71.610 20.071657
71.615 20.292822
71.620 20.078793
71.625 19.858309
71.630 19.800619
71.635 19.943611
71.640 20.266842
71.645 19.846619
71.650 19.656603
71.655 19.345339
71.660 18.963993
71.665 18.640402
71.670 18.518358
71.675 18.088955
71.680 17.392227
71.685 16.770555
71.690 16.690672
71.695 16.712156
71.700 16.734831
71.705 16.366224
71.710 16.762575
71.715 17.468578
71.720 17.821125
71.725 17.953335
71.730 18.708626
71.735 18.416527
71.740 17.973436
71.745 18.041817
71.750 18.052431
71.755 18.838903
71.760 18.849102
71.765 18.230482
71.770 18.548035
71.775 19.745779
71.780 19.959642
71.785 19.888477
71.790 19.496628
71.795 19.686722
71.800 20.096775
71.805 20.186457
71.810 19.812538
71.815 20.059347
71.820 20.011648
71.825 19.573002
71.830 19.445765
71.835 18.998125
71.840 18.315456
71.845 17.673473
71.850 17.14596
71.855 17.010876
71.860 17.562969
71.865 17.575716
71.870 18.160528
71.875 19.121124
71.880 19.007847
71.885 18.683426
71.890 18.410969
71.895 17.853283
71.900 17.987053
71.905 17.820614
71.910 17.677769
71.915 18.604347
71.920 18.812435
71.925 18.912323
71.930 19.170904
71.935 18.89467
71.940 19.294617
71.945 18.491549
71.950 17.461601
71.955 17.900137
71.960 18.16618
71.965 17.974699
71.970 17.953459
71.975 17.529348
71.980 18.135792
71.985 18.879854
71.990 18.419863
71.995 18.077072
72.000 18.318014
72.005 17.931629
72.010 17.576071
72.015 17.246414
72.020 17.247662
72.025 17.702806
72.030 17.451252
72.035 17.372854
72.040 17.63723
72.045 18.657679
72.050 18.889854
72.055 18.442612
72.060 18.49649
72.065 18.689709
72.070 18.429153
72.075 17.777824
72.080 17.062325
72.085 17.468332
72.090 17.465101
72.095 17.058323
72.100 17.201784
72.105 17.580992
72.110 17.877356
72.115 18.041086
72.120 17.149929
72.125 16.937912
72.130 17.218767
72.135 17.625237
72.140 17.775646
72.145 17.987249
72.150 17.899363
72.155 18.527342
72.160 18.923401
72.165 18.856249
72.170 18.770655
72.175 18.986015
72.180 18.708559
72.185 19.079569
72.190 19.468054
72.195 19.151325
72.200 18.570908
72.205 18.608067
72.210 18.88102
72.215 19.122488
72.220 19.23568
72.225 19.030083
72.230 20.243141
72.235 20.821642
72.240 20.5805
72.245 20.393373
72.250 20.810865
72.255 21.084211
72.260 20.801563
72.265 20.487467
72.270 20.512686
72.275 20.692745
72.280 20.137936
72.285 19.501787
72.290 19.185837
72.295 18.840345
72.300 18.68268
72.305 18.72224
72.310 18.850531
72.315 19.228865
72.320 19.195248
72.325 19.120237
72.330 18.719402
72.335 18.892691
72.340 18.690241
72.345 18.521826
72.350 18.109375
72.355 17.961618
72.360 18.410589
72.365 18.977547
72.370 18.739836
72.375 18.472401
72.380 18.612341
72.385 18.70652
72.390 18.624821
72.395 18.316027
72.400 17.870907
72.405 17.596792
72.410 17.522026
72.415 17.253691
72.420 16.524647
72.425 16.436729
72.430 16.578497
72.435 16.955194
72.440 16.840065
72.445 17.248589
72.450 18.253078
72.455 19.237766
72.460 19.177212
72.465 18.440924
72.470 18.122921
72.475 18.275724
72.480 18.716259
72.485 18.450762
72.490 18.218824
72.495 18.18623
72.500 18.472145
72.505 18.559963
72.510 17.96801
72.515 17.443174
72.520 16.861176
72.525 16.710497
72.530 16.795902
72.535 17.186495
72.540 17.272705
72.545 17.247704
72.550 17.500515
72.555 18.14135
72.560 17.950663
72.565 18.149275
72.570 18.148958
72.575 18.501677
72.580 18.686743
72.585 18.994987
72.590 19.592329
72.595 19.674925
72.600 19.510313
72.605 19.407108
72.610 18.699492
72.615 18.378632
72.620 17.579306
72.625 17.289982
72.630 17.035196
72.635 16.689201
72.640 16.631863
72.645 16.450663
72.650 16.369499
72.655 16.189255
72.660 16.109755
72.665 16.431435
72.670 16.304396
72.675 16.50771
72.680 16.862026
72.685 16.887033
72.690 17.090836
72.695 17.216995
72.700 16.956072
72.705 16.901836
72.710 17.312122
72.715 17.449663
72.720 17.761742
72.725 17.6817
72.730 17.79497
72.735 18.09334
72.740 17.858147
72.745 17.160822
72.750 17.472975
72.755 17.55611
72.760 17.921818
72.765 17.991629
72.770 18.129606
72.775 18.713243
72.780 19.136068
72.785 18.805515
72.790 18.433224
72.795 18.430464
72.800 18.543808
72.805 18.248186
72.810 18.274916
72.815 17.752645
72.820 17.563709
72.825 17.652563
72.830 17.223303
72.835 17.905769
72.840 18.664637
72.845 18.953714
72.850 19.123062
72.855 19.385294
72.860 19.399719
72.865 19.470154
72.870 18.594059
72.875 18.282906
72.880 17.78466
72.885 17.478842
72.890 17.306337
72.895 17.321774
72.900 16.965549
72.905 17.38756
72.910 17.189594
72.915 17.465706
72.920 17.769548
72.925 17.713377
72.930 17.485432
72.935 17.689312
72.940 17.021004
72.945 16.966221
72.950 16.90032
72.955 17.17639
72.960 17.425766
72.965 17.537868
72.970 16.823246
72.975 16.485737
72.980 16.470839
72.985 16.413187
72.990 16.572824
72.995 16.316238
73.000 16.792484
