!@!!GADDS PLOTSO FILE: Chi integration type
!@!!Title/SampleName: map-37
!@!!Comment: ?
!@!!User: Bruker Instrument Administrator
!@!!Site: University of Illinois Chicago
!@!!Frame: map-37_01_000.gfrm
!@!!Wavelengths    1.54184   1.54056   1.54439
!@!!Frame angles: 2Theta: 63.000 Omega: 50.000 Phi: 0.000 Chi: 90.000
!@!!Integration range: 2Theta: 53.000 to 73.000  Gamma: -105.000 to -75.000
!@!!Integration method: bin normalized
!@!N
!@!SS
!@!M
!@!L 0.0 0.0 0.0 0.0
!@!XDegrees
!@!YCounts
53.000 7.654064
53.005 7.485113
53.010 7.490038
53.015 7.741433
53.020 8.235021
53.025 8.210232
53.030 8.092322
53.035 8.388965
53.040 8.404461
53.045 8.536545
53.050 8.368135
53.055 7.996484
53.060 7.938491
53.065 7.730817
53.070 7.439834
53.075 7.355612
53.080 7.288937
53.085 7.377118
53.090 7.475996
53.095 7.609696
53.100 7.733588
53.105 8.11219
53.110 8.595609
53.115 8.559593
53.120 8.963511
53.125 9.291755
53.130 9.7414
53.135 9.975196
53.140 9.508664
53.145 9.071072
53.150 9.134539
53.155 8.638491
53.160 8.603515
53.165 8.358188
53.170 8.318446
53.175 8.513546
53.180 8.444592
53.185 8.468558
53.190 8.349269
53.195 8.090341
53.200 7.810938
53.205 7.835611
53.210 7.641689
53.215 7.719995
53.220 7.997513
53.225 8.14951
53.230 8.495963
53.235 8.656794
53.240 8.844099
53.245 8.912657
53.250 9.170184
53.255 9.172494
53.260 9.285652
53.265 9.086372
53.270 9.034945
53.275 8.870772
53.280 8.90296
53.285 8.340497
53.290 8.246323
53.295 7.991051
53.300 7.846245
53.305 8.063947
53.310 8.730524
53.315 9.284269
53.320 9.869487
53.325 9.619346
53.330 9.677379
53.335 10.112838
53.340 9.829604
53.345 9.18933
53.350 8.84784
53.355 8.48562
53.360 8.568746
53.365 8.653075
53.370 8.596051
53.375 8.471186
53.380 8.545671
53.385 8.349941
53.390 8.408762
53.395 8.411249
53.400 8.278852
53.405 8.48317
53.410 8.608012
53.415 8.84546
53.420 8.932282
53.425 9.21192
53.430 9.205528
53.435 9.116759
53.440 8.992374
53.445 8.728625
53.450 8.782689
53.455 9.004988
53.460 9.165673
53.465 9.60598
53.470 9.607944
53.475 9.737067
53.480 9.633573
53.485 9.370458
53.490 9.028429
53.495 9.047981
53.500 8.864411
53.505 9.024514
53.510 9.109705
53.515 9.08668
53.520 9.11587
53.525 9.31105
53.530 9.509133
53.535 10.097869
53.540 10.226178
53.545 10.420642
53.550 10.588643
53.555 10.457364
53.560 10.080572
53.565 9.208874
53.570 8.580456
53.575 8.4721
53.580 8.44303
53.585 8.537585
53.590 8.59027
53.595 8.305787
53.600 8.733401
53.605 8.806238
53.610 8.543986
53.615 8.451797
53.620 8.417531
53.625 8.746515
53.630 9.193753
53.635 9.159736
53.640 9.310261
53.645 9.556646
53.650 9.550746
53.655 9.332274
53.660 9.200859
53.665 8.901515
53.670 8.662348
53.675 8.713582
53.680 8.636913
53.685 8.662417
53.690 9.14548
53.695 8.982873
53.700 9.432023
53.705 9.882675
53.710 10.304862
53.715 10.235261
53.720 10.480622
53.725 10.083642
53.730 10.101757
53.735 9.860921
53.740 9.136313
53.745 8.756714
53.750 8.981626
53.755 8.686652
53.760 8.975684
53.765 9.155963
53.770 9.440073
53.775 9.524931
53.780 9.437038
53.785 9.192996
53.790 9.316202
53.795 9.336268
53.800 9.170814
53.805 9.177806
53.810 9.42036
53.815 9.357809
53.820 9.467978
53.825 9.856344
53.830 10.02886
53.835 9.639266
53.840 9.338352
53.845 9.327205
53.850 9.768337
53.855 9.598286
53.860 9.446222
53.865 9.649246
53.870 9.853125
53.875 9.983174
53.880 9.72681
53.885 9.176805
53.890 8.727006
53.895 8.491228
53.900 8.17285
53.905 8.472352
53.910 8.255066
53.915 8.18132
53.920 8.397081
53.925 8.556314
53.930 8.803938
53.935 8.927103
53.940 9.368777
53.945 9.546873
53.950 9.570051
53.955 9.882085
53.960 9.334528
53.965 8.682825
53.970 8.501654
53.975 8.615366
53.980 8.856314
53.985 9.083076
53.990 9.318402
53.995 10.268345
54.000 10.518563
54.005 10.25529
54.010 10.094168
54.015 9.70557
54.020 9.663313
54.025 9.33972
54.030 9.158963
54.035 9.508007
54.040 9.281897
54.045 9.214046
54.050 9.461571
54.055 9.058954
54.060 8.993367
54.065 8.88921
54.070 8.848478
54.075 9.162276
54.080 8.905372
54.085 9.181027
54.090 9.424173
54.095 9.523724
54.100 9.803788
54.105 9.371994
54.110 9.334918
54.115 9.521491
54.120 9.506565
54.125 9.752739
54.130 9.571344
54.135 9.689302
54.140 9.925614
54.145 10.081058
54.150 9.59413
54.155 9.386987
54.160 9.517446
54.165 9.294554
54.170 9.207674
54.175 8.826876
54.180 8.6647
54.185 9.048686
54.190 9.274755
54.195 9.179239
54.200 9.60292
54.205 9.810482
54.210 10.092411
54.215 10.307188
54.220 10.104847
54.225 9.984655
54.230 10.181045
54.235 10.065127
54.240 10.344864
54.245 10.570467
54.250 10.662996
54.255 11.106555
54.260 11.114607
54.265 10.785005
54.270 10.501643
54.275 10.048521
54.280 9.999123
54.285 9.800931
54.290 9.123238
54.295 9.318069
54.300 9.988084
54.305 10.587112
54.310 10.918849
54.315 10.692049
54.320 10.818453
54.325 11.074384
54.330 10.92653
54.335 10.743285
54.340 10.684824
54.345 10.362521
54.350 10.486969
54.355 10.772906
54.360 10.905109
54.365 10.807582
54.370 10.255349
54.375 10.089797
54.380 10.37945
54.385 10.657574
54.390 10.212098
54.395 10.135666
54.400 9.872831
54.405 9.742975
54.410 9.800086
54.415 9.568779
54.420 9.149379
54.425 9.320994
54.430 9.037306
54.435 9.344586
54.440 10.064128
54.445 9.815608
54.450 9.848847
54.455 9.930856
54.460 9.874291
54.465 9.92391
54.470 9.609784
54.475 9.173347
54.480 9.533758
54.485 9.834743
54.490 10.183578
54.495 10.54419
54.500 10.774104
54.505 10.937603
54.510 10.974874
54.515 11.411992
54.520 10.776255
54.525 10.443423
54.530 10.213683
54.535 10.031779
54.540 9.66017
54.545 9.174638
54.550 9.162801
54.555 9.530144
54.560 9.934822
54.565 10.349863
54.570 10.726917
54.575 11.306757
54.580 11.261006
54.585 10.825502
54.590 10.76265
54.595 10.379274
54.600 10.327222
54.605 10.376779
54.610 10.254874
54.615 10.39343
54.620 10.704576
54.625 10.422235
54.630 10.607781
54.635 11.014332
54.640 11.07107
54.645 11.045617
54.650 11.080877
54.655 11.338737
54.660 11.753185
54.665 11.226814
54.670 10.511406
54.675 10.482776
54.680 10.353543
54.685 10.523847
54.690 10.28265
54.695 9.993817
54.700 10.002032
54.705 10.154278
54.710 10.490272
54.715 10.760358
54.720 10.436997
54.725 10.513405
54.730 10.46497
54.735 10.27912
54.740 10.081557
54.745 10.349174
54.750 10.282385
54.755 10.317335
54.760 9.899626
54.765 10.094614
54.770 9.962691
54.775 10.036988
54.780 9.832741
54.785 9.262533
54.790 8.808523
54.795 8.990428
54.800 9.10679
54.805 9.351507
54.810 9.189844
54.815 9.296912
54.820 9.220081
54.825 9.075326
54.830 8.754683
54.835 8.560188
54.840 8.820611
54.845 8.626458
54.850 9.223722
54.855 9.729958
54.860 10.036886
54.865 10.521907
54.870 10.921813
54.875 10.808467
54.880 10.688182
54.885 10.1224
54.890 10.522715
54.895 11.075092
54.900 10.989817
54.905 10.734141
54.910 10.637148
54.915 10.975134
54.920 10.835618
54.925 10.550802
54.930 10.519871
54.935 10.414427
54.940 10.67286
54.945 10.834017
54.950 10.675858
54.955 10.682395
54.960 10.857913
54.965 10.388025
54.970 10.514823
54.975 10.352733
54.980 9.874252
54.985 9.882976
54.990 9.643162
54.995 9.476981
55.000 9.633633
55.005 9.969164
55.010 10.314605
55.015 10.864203
55.020 10.925659
55.025 10.89361
55.030 11.097868
55.035 11.259121
55.040 10.935041
55.045 10.634562
55.050 10.883986
55.055 11.530155
55.060 11.893124
55.065 11.863981
55.070 11.646299
55.075 11.555371
55.080 11.555517
55.085 11.040229
55.090 10.493734
55.095 10.243321
55.100 9.724246
55.105 10.094975
55.110 10.473162
55.115 10.386926
55.120 10.567309
55.125 10.437562
55.130 10.30907
55.135 10.288118
55.140 10.035841
55.145 9.868011
55.150 10.310063
55.155 10.511003
55.160 10.595636
55.165 10.910799
55.170 11.470852
55.175 11.370632
55.180 11.672328
55.185 11.651607
55.190 11.592607
55.195 11.716803
55.200 11.870397
55.205 11.80422
55.210 11.752268
55.215 11.593243
55.220 11.111843
55.225 11.290009
55.230 11.316258
55.235 10.860388
55.240 10.719456
55.245 11.079922
55.250 11.324928
55.255 10.913386
55.260 10.723121
55.265 11.184888
55.270 11.435822
55.275 11.474943
55.280 11.108044
55.285 11.078334
55.290 11.356277
55.295 11.066236
55.300 10.633088
55.305 11.01054
55.310 10.979781
55.315 10.699778
55.320 10.866464
55.325 11.555942
55.330 11.923197
55.335 11.352592
55.340 10.560111
55.345 10.536116
55.350 10.610544
55.355 10.340261
55.360 10.096609
55.365 9.879361
55.370 9.884899
55.375 9.973425
55.380 9.840303
55.385 10.019372
55.390 10.093616
55.395 10.245879
55.400 10.275723
55.405 10.664986
55.410 10.801435
55.415 10.877633
55.420 10.709976
55.425 11.076352
55.430 11.234751
55.435 11.272017
55.440 11.351241
55.445 11.181837
55.450 11.324864
55.455 11.581848
55.460 10.926051
55.465 11.649602
55.470 11.718005
55.475 12.095084
55.480 12.707653
55.485 12.645126
55.490 12.658578
55.495 12.768353
55.500 12.508241
55.505 12.438582
55.510 12.187824
55.515 11.964063
55.520 11.903988
55.525 11.916936
55.530 12.183949
55.535 11.935127
55.540 11.843719
55.545 11.677121
55.550 11.420102
55.555 11.510134
55.560 11.413013
55.565 11.430602
55.570 11.711405
55.575 11.689551
55.580 11.759142
55.585 11.968742
55.590 11.913091
55.595 11.773079
55.600 11.22563
55.605 10.790665
55.610 10.952249
55.615 11.29965
55.620 11.209958
55.625 10.983851
55.630 10.324754
55.635 10.636292
55.640 10.526088
55.645 9.972034
55.650 9.305901
55.655 9.490687
55.660 9.979562
55.665 10.505079
55.670 10.172261
55.675 10.576032
55.680 11.27334
55.685 12.012651
55.690 11.920716
55.695 12.049128
55.700 12.554536
55.705 12.940587
55.710 13.453042
55.715 12.917809
55.720 12.659753
55.725 12.67684
55.730 12.297137
55.735 12.89746
55.740 12.666043
55.745 11.989898
55.750 11.667081
55.755 11.246136
55.760 11.034817
55.765 10.505282
55.770 9.605248
55.775 9.776112
55.780 10.228614
55.785 10.773968
55.790 10.826839
55.795 10.709479
55.800 10.852602
55.805 11.033279
55.810 10.955028
55.815 10.901495
55.820 11.113083
55.825 11.420603
55.830 11.667024
55.835 11.910834
55.840 12.151223
55.845 11.983932
55.850 11.525267
55.855 11.437046
55.860 11.682214
55.865 11.721988
55.870 11.397504
55.875 11.14944
55.880 11.30995
55.885 11.633624
55.890 11.613928
55.895 11.283772
55.900 11.270777
55.905 11.128478
55.910 11.127276
55.915 11.359953
55.920 12.053405
55.925 12.139144
55.930 12.127016
55.935 12.064663
55.940 12.524206
55.945 12.997907
55.950 12.71901
55.955 12.651708
55.960 12.791213
55.965 13.026467
55.970 12.850202
55.975 12.708616
55.980 12.77893
55.985 12.968892
55.990 12.34862
55.995 12.617617
56.000 12.757466
56.005 12.713663
56.010 12.783741
56.015 12.342862
56.020 11.954885
56.025 12.060363
56.030 11.778764
56.035 11.909613
56.040 12.068826
56.045 11.791745
56.050 12.054177
56.055 12.308104
56.060 12.219929
56.065 12.074453
56.070 11.760026
56.075 11.409967
56.080 11.460169
56.085 11.442071
56.090 11.144776
56.095 11.510498
56.100 11.540627
56.105 11.674836
56.110 12.136664
56.115 12.639943
56.120 12.502975
56.125 12.078543
56.130 11.674265
56.135 11.927753
56.140 11.836736
56.145 11.584903
56.150 11.438609
56.155 12.294657
56.160 13.290823
56.165 13.566807
56.170 13.622148
56.175 13.971777
56.180 14.114708
56.185 13.812772
56.190 13.356603
56.195 12.979135
56.200 12.461195
56.205 12.220137
56.210 12.375708
56.215 12.38576
56.220 12.051804
56.225 11.989801
56.230 12.03154
56.235 12.249613
56.240 12.282717
56.245 12.023354
56.250 11.950015
56.255 12.628613
56.260 12.609964
56.265 12.447837
56.270 12.561693
56.275 12.69104
56.280 12.832457
56.285 12.673289
56.290 11.892211
56.295 11.90961
56.300 11.821211
56.305 11.415396
56.310 11.413896
56.315 11.765177
56.320 11.948318
56.325 12.448718
56.330 12.848516
56.335 13.282034
56.340 13.629554
56.345 13.16308
56.350 13.134305
56.355 13.218914
56.360 12.754853
56.365 12.270731
56.370 12.086105
56.375 11.94067
56.380 12.500765
56.385 12.109797
56.390 11.780987
56.395 11.78109
56.400 11.944661
56.405 11.969364
56.410 12.055815
56.415 11.592605
56.420 11.172206
56.425 11.577994
56.430 12.053576
56.435 12.21341
56.440 12.769834
56.445 13.115869
56.450 13.283267
56.455 13.444508
56.460 12.982785
56.465 12.882632
56.470 12.4282
56.475 11.939853
56.480 11.315007
56.485 11.434441
56.490 12.474026
56.495 13.057711
56.500 12.997929
56.505 12.961334
56.510 13.090248
56.515 13.502562
56.520 13.284294
56.525 12.047924
56.530 11.096315
56.535 10.852529
56.540 11.100612
56.545 10.973175
56.550 11.177358
56.555 11.589518
56.560 12.342235
56.565 12.899959
56.570 13.349979
56.575 13.141793
56.580 13.160571
56.585 12.310719
56.590 12.133738
56.595 12.185912
56.600 11.871518
56.605 11.401214
56.610 11.272955
56.615 11.161976
56.620 11.605731
56.625 11.685522
56.630 11.59974
56.635 11.4994
56.640 11.377157
56.645 11.305746
56.650 11.405691
56.655 11.560464
56.660 11.722361
56.665 11.738088
56.670 11.897439
56.675 12.51701
56.680 13.021091
56.685 13.363781
56.690 13.599881
56.695 13.486667
56.700 13.473659
56.705 14.053923
56.710 13.765497
56.715 13.066207
56.720 12.743107
56.725 12.583671
56.730 12.765404
56.735 13.1888
56.740 12.770623
56.745 12.812653
56.750 13.489969
56.755 14.087702
56.760 14.262364
56.765 14.228594
56.770 14.154016
56.775 14.326043
56.780 14.041765
56.785 13.964042
56.790 13.944548
56.795 13.536301
56.800 13.413754
56.805 13.336225
56.810 13.425941
56.815 13.35735
56.820 13.063554
56.825 12.57774
56.830 12.999486
56.835 13.284363
56.840 13.393474
56.845 14.17079
56.850 14.651565
56.855 14.612299
56.860 14.306458
56.865 14.001144
56.870 13.726315
56.875 13.52773
56.880 12.756113
56.885 12.74818
56.890 12.827164
56.895 12.873664
56.900 12.795122
56.905 13.067441
56.910 13.023705
56.915 12.650755
56.920 12.228893
56.925 12.348237
56.930 12.354681
56.935 12.351278
56.940 12.18562
56.945 12.558533
56.950 13.092184
56.955 13.257277
56.960 13.234721
56.965 13.164413
56.970 13.534559
56.975 13.658519
56.980 13.35016
56.985 13.635583
56.990 13.749937
56.995 13.883686
57.000 14.422299
57.005 14.165154
57.010 13.928545
57.015 13.889238
57.020 13.353279
57.025 13.157829
57.030 12.973595
57.035 12.371953
57.040 12.007446
57.045 11.94458
57.050 12.048128
57.055 12.626892
57.060 12.769705
57.065 12.858213
57.070 13.239479
57.075 13.78023
57.080 14.413724
57.085 14.355283
57.090 13.540467
57.095 13.575814
57.100 13.927588
57.105 13.632093
57.110 13.39951
57.115 13.217291
57.120 13.73683
57.125 14.450575
57.130 14.072638
57.135 13.71423
57.140 14.248043
57.145 14.365593
57.150 14.190414
57.155 13.902216
57.160 13.875922
57.165 14.380578
57.170 14.509131
57.175 13.782677
57.180 13.359447
57.185 13.577211
57.190 13.53504
57.195 13.080523
57.200 12.737139
57.205 12.97113
57.210 13.025617
57.215 12.874292
57.220 12.508955
57.225 12.503915
57.230 12.726209
57.235 12.898232
57.240 12.530859
57.245 12.945807
57.250 13.09481
57.255 13.199283
57.260 12.834416
57.265 12.964368
57.270 12.760098
57.275 12.917232
57.280 13.10186
57.285 13.241951
57.290 13.305523
57.295 13.400067
57.300 13.256358
57.305 13.929041
57.310 14.026777
57.315 13.278041
57.320 13.042135
57.325 13.002967
57.330 13.37657
57.335 13.837141
57.340 13.611753
57.345 13.669885
57.350 13.886469
57.355 13.863713
57.360 13.72003
57.365 13.663249
57.370 13.353166
57.375 13.266056
57.380 13.531874
57.385 13.883466
57.390 13.785119
57.395 13.969798
57.400 13.867254
57.405 14.22582
57.410 14.423667
57.415 14.454426
57.420 14.426459
57.425 14.558784
57.430 14.101774
57.435 13.881718
57.440 13.281291
57.445 12.746075
57.450 12.782342
57.455 12.605786
57.460 12.535539
57.465 13.263631
57.470 13.328168
57.475 13.490122
57.480 13.30351
57.485 12.489083
57.490 12.444331
57.495 12.207215
57.500 11.814927
57.505 11.840747
57.510 11.77789
57.515 12.251098
57.520 12.970885
57.525 12.980444
57.530 13.4526
57.535 13.449139
57.540 13.854037
57.545 14.090602
57.550 14.075839
57.555 13.979339
57.560 14.024751
57.565 13.593565
57.570 13.288334
57.575 13.12816
57.580 12.881161
57.585 12.816669
57.590 12.499021
57.595 13.079682
57.600 13.285312
57.605 12.947349
57.610 12.961184
57.615 12.705524
57.620 13.131306
57.625 12.972021
57.630 11.979541
57.635 12.21471
57.640 12.366766
57.645 12.486535
57.650 12.873863
57.655 12.58666
57.660 13.013126
57.665 13.011321
57.670 12.83985
57.675 13.133611
57.680 12.831518
57.685 12.865196
57.690 13.18364
57.695 14.30241
57.700 15.441912
57.705 15.692184
57.710 16.097275
57.715 16.1395
57.720 15.995681
57.725 15.272736
57.730 13.77549
57.735 13.492825
57.740 13.330993
57.745 12.548022
57.750 12.943331
57.755 12.653006
57.760 13.150663
57.765 13.52231
57.770 13.216274
57.775 13.083467
57.780 12.994365
57.785 12.845524
57.790 13.319872
57.795 13.414147
57.800 13.649242
57.805 13.952531
57.810 14.562325
57.815 14.656847
57.820 14.470788
57.825 14.199006
57.830 13.717068
57.835 13.351782
57.840 13.164905
57.845 13.274013
57.850 13.326732
57.855 13.585184
57.860 13.875995
57.865 14.701941
57.870 15.348575
57.875 15.350499
57.880 15.504054
57.885 15.68877
57.890 15.325284
57.895 15.090773
57.900 14.43924
57.905 13.892096
57.910 13.812973
57.915 13.745602
57.920 13.67647
57.925 14.130769
57.930 14.142995
57.935 14.59528
57.940 14.646924
57.945 14.994714
57.950 14.885609
57.955 14.639295
57.960 14.293459
57.965 14.277747
57.970 14.63991
57.975 14.539248
57.980 14.35218
57.985 14.501814
57.990 14.492037
57.995 14.799559
58.000 14.491577
58.005 14.3777
58.010 14.786161
58.015 14.443567
58.020 14.589436
58.025 14.674584
58.030 14.729275
58.035 14.893664
58.040 15.225099
58.045 15.008774
58.050 14.912455
58.055 15.123082
58.060 14.957745
58.065 15.005617
58.070 14.690155
58.075 13.943267
58.080 14.272676
58.085 14.458653
58.090 14.06173
58.095 14.120562
58.100 14.185069
58.105 14.439034
58.110 14.285213
58.115 13.791986
58.120 13.294762
58.125 13.436187
58.130 13.058065
58.135 13.114333
58.140 12.972923
58.145 13.320726
58.150 13.398442
58.155 13.757523
58.160 13.817552
58.165 14.442492
58.170 14.334959
58.175 14.177417
58.180 14.278589
58.185 14.634725
58.190 14.283359
58.195 14.226587
58.200 13.897486
58.205 13.673399
58.210 13.647944
58.215 13.343623
58.220 13.555634
58.225 14.475859
58.230 14.413074
58.235 14.44384
58.240 14.768259
58.245 15.172105
58.250 15.021396
58.255 14.682757
58.260 14.439357
58.265 14.683147
58.270 14.756958
58.275 14.821497
58.280 14.738289
58.285 14.924857
58.290 15.007833
58.295 14.599694
58.300 14.588248
58.305 14.22427
58.310 14.27626
58.315 14.352973
58.320 14.849559
58.325 14.929571
58.330 14.842558
58.335 15.173965
58.340 15.402039
58.345 15.598912
58.350 15.823754
58.355 15.542465
58.360 15.069245
58.365 15.243435
58.370 15.16597
58.375 15.262267
58.380 15.15528
58.385 14.670978
58.390 14.626443
58.395 14.924268
58.400 15.098052
58.405 14.966263
58.410 14.909911
58.415 14.283615
58.420 14.650652
58.425 14.682059
58.430 15.182294
58.435 15.344531
58.440 15.603764
58.445 15.659963
58.450 15.588904
58.455 15.176835
58.460 15.483545
58.465 15.10991
58.470 15.138303
58.475 14.999739
58.480 15.188467
58.485 15.186404
58.490 15.57363
58.495 15.242689
58.500 15.300567
58.505 15.118386
58.510 15.494461
58.515 15.801907
58.520 15.826772
58.525 15.681718
58.530 15.938113
58.535 16.0014
58.540 15.821703
58.545 15.358788
58.550 14.996882
58.555 15.02784
58.560 15.055739
58.565 15.260059
58.570 14.963671
58.575 15.262976
58.580 15.644719
58.585 15.855326
58.590 15.38678
58.595 15.514307
58.600 15.73738
58.605 15.530701
58.610 14.923686
58.615 14.997917
58.620 14.916826
58.625 15.118602
58.630 15.053991
58.635 14.804124
58.640 15.529806
58.645 15.531885
58.650 14.977831
58.655 15.223133
58.660 15.542029
58.665 14.997457
58.670 14.774873
58.675 14.653583
58.680 14.987161
58.685 15.501287
58.690 15.93953
58.695 15.827343
58.700 15.663545
58.705 15.3847
58.710 15.155007
58.715 14.735446
58.720 14.529444
58.725 14.118743
58.730 14.264389
58.735 15.188873
58.740 15.504569
58.745 15.470344
58.750 16.2742
58.755 16.438259
58.760 16.536598
58.765 16.567081
58.770 16.102886
58.775 16.314983
58.780 16.060253
58.785 15.109508
58.790 14.377335
58.795 14.144317
58.800 14.111337
58.805 13.623602
58.810 13.412374
58.815 13.935878
58.820 14.55617
58.825 15.282473
58.830 15.525506
58.835 14.900361
58.840 15.093425
58.845 15.339575
58.850 15.251098
58.855 15.158133
58.860 15.197443
58.865 15.289948
58.870 15.706718
58.875 15.64426
58.880 15.496543
58.885 15.533057
58.890 15.585373
58.895 14.955572
58.900 14.445696
58.905 14.338002
58.910 14.880432
58.915 14.974374
58.920 15.210884
58.925 15.425076
58.930 16.138912
58.935 16.599096
58.940 16.906248
58.945 16.936813
58.950 16.663103
58.955 15.999586
58.960 15.741045
58.965 15.418777
58.970 15.226484
58.975 15.336758
58.980 15.074951
58.985 15.034966
58.990 15.213391
58.995 15.198146
59.000 15.327044
59.005 15.467666
59.010 15.313608
59.015 15.444556
59.020 15.527095
59.025 15.80327
59.030 15.676795
59.035 15.976091
59.040 16.430645
59.045 16.742449
59.050 17.121695
59.055 17.023617
59.060 16.889198
59.065 16.504936
59.070 16.222868
59.075 16.250402
59.080 16.24951
59.085 16.144157
59.090 16.496649
59.095 16.677689
59.100 16.893415
59.105 16.992418
59.110 16.615499
59.115 16.172039
59.120 15.568769
59.125 15.518982
59.130 15.149674
59.135 15.245418
59.140 14.966847
59.145 14.725554
59.150 14.806593
59.155 15.244659
59.160 15.543134
59.165 16.259027
59.170 17.047888
59.175 17.305841
59.180 17.420681
59.185 17.15687
59.190 16.212812
59.195 15.472747
59.200 14.59726
59.205 14.031089
59.210 13.841831
59.215 14.516436
59.220 15.458882
59.225 16.534445
59.230 17.410549
59.235 17.929371
59.240 17.517328
59.245 17.956331
59.250 17.461233
59.255 17.00601
59.260 16.630121
59.265 16.186268
59.270 16.210716
59.275 16.436565
59.280 15.905971
59.285 15.301586
59.290 15.171106
59.295 15.318496
59.300 15.303887
59.305 14.891141
59.310 14.727967
59.315 15.267434
59.320 15.290963
59.325 14.916105
59.330 14.912564
59.335 14.913612
59.340 15.221276
59.345 15.493409
59.350 15.305776
59.355 15.91524
59.360 16.187424
59.365 16.103617
59.370 15.946559
59.375 15.639455
59.380 15.49938
59.385 15.328414
59.390 15.575552
59.395 15.799678
59.400 16.130699
59.405 15.96042
59.410 16.006481
59.415 16.225948
59.420 16.452719
59.425 16.04921
59.430 16.005278
59.435 16.244061
59.440 16.66893
59.445 17.018711
59.450 17.333208
59.455 16.829693
59.460 16.842241
59.465 16.477255
59.470 15.979573
59.475 15.788614
59.480 15.662821
59.485 15.526389
59.490 15.749372
59.495 16.172817
59.500 16.746674
59.505 17.418785
59.510 17.968349
59.515 18.473711
59.520 18.481081
59.525 18.644197
59.530 18.27718
59.535 17.813496
59.540 17.380825
59.545 17.097401
59.550 16.57019
59.555 16.446247
59.560 16.60339
59.565 17.317307
59.570 17.396141
59.575 17.523565
59.580 17.859375
59.585 17.974758
59.590 18.355713
59.595 19.030376
59.600 19.074783
59.605 19.465252
59.610 19.332045
59.615 19.327564
59.620 19.495939
59.625 19.257555
59.630 17.944923
59.635 17.476795
59.640 17.208696
59.645 16.946352
59.650 16.81073
59.655 16.500656
59.660 16.355749
59.665 16.925966
59.670 17.266832
59.675 17.652445
59.680 17.799389
59.685 18.192636
59.690 18.811264
59.695 19.076313
59.700 19.475893
59.705 19.543785
59.710 19.273638
59.715 18.694578
59.720 18.155893
59.725 18.344076
59.730 18.633173
59.735 18.551346
59.740 18.454311
59.745 18.968122
59.750 19.834652
59.755 19.982155
59.760 19.461494
59.765 19.043207
59.770 18.274464
59.775 17.833448
59.780 17.41017
59.785 17.131939
59.790 16.921303
59.795 16.672518
59.800 16.957205
59.805 17.608339
59.810 18.057619
59.815 18.320736
59.820 18.621241
59.825 19.104971
59.830 19.234594
59.835 18.606012
59.840 18.084343
59.845 18.583078
59.850 19.100155
59.855 19.145508
59.860 18.493067
59.865 18.543159
59.870 18.927032
59.875 18.685524
59.880 17.722532
59.885 17.386986
59.890 17.771278
59.895 18.29417
59.900 18.581152
59.905 18.615694
59.910 18.972315
59.915 19.313057
59.920 19.564789
59.925 19.226713
59.930 18.89176
59.935 19.127098
59.940 19.416771
59.945 19.815201
59.950 19.729504
59.955 19.68301
59.960 19.514956
59.965 19.510979
59.970 19.130318
59.975 19.090557
59.980 19.114548
59.985 19.076523
59.990 19.146507
59.995 19.652685
60.000 19.733248
60.005 19.992134
60.010 19.826361
60.015 19.633829
60.020 19.508551
60.025 19.300951
60.030 19.132122
60.035 19.116186
60.040 19.357355
60.045 19.602533
60.050 19.654062
60.055 19.882715
60.060 20.104622
60.065 20.596001
60.070 20.539473
60.075 20.608061
60.080 20.905457
60.085 20.859905
60.090 20.751396
60.095 20.829006
60.100 20.842735
60.105 21.068653
60.110 20.440409
60.115 20.561008
60.120 21.260767
60.125 20.92547
60.130 20.79273
60.135 20.896027
60.140 21.433989
60.145 21.61982
60.150 21.046623
60.155 20.813679
60.160 21.081657
60.165 20.667368
60.170 20.605164
60.175 19.69404
60.180 19.604685
60.185 19.794483
60.190 19.848288
60.195 19.767527
60.200 20.07947
60.205 20.147894
60.210 21.083122
60.215 21.720989
60.220 22.612398
60.225 23.045786
60.230 22.910767
60.235 22.567068
60.240 22.612425
60.245 22.340281
60.250 21.888821
60.255 21.106892
60.260 20.999666
60.265 21.349985
60.270 21.388758
60.275 20.802862
60.280 21.117102
60.285 21.345581
60.290 20.914314
60.295 20.126484
60.300 19.987215
60.305 19.703386
60.310 19.826864
60.315 19.459766
60.320 19.074179
60.325 19.365505
60.330 19.319942
60.335 19.498783
60.340 19.661221
60.345 20.260986
60.350 20.592728
60.355 20.833088
60.360 21.117565
60.365 21.475698
60.370 21.988258
60.375 21.925262
60.380 21.120083
60.385 20.798368
60.390 21.148617
60.395 21.73
60.400 22.029011
60.405 22.151506
60.410 21.947163
60.415 22.184145
60.420 22.033461
60.425 21.650049
60.430 21.06978
60.435 20.248913
60.440 20.08754
60.445 20.453905
60.450 20.75375
60.455 20.687576
60.460 20.707045
60.465 21.319286
60.470 21.813896
60.475 21.930918
60.480 22.282246
60.485 22.068974
60.490 21.750645
60.495 21.339653
60.500 20.979141
60.505 21.246452
60.510 20.919321
60.515 20.036865
60.520 19.744389
60.525 19.966778
60.530 19.572117
60.535 18.957558
60.540 18.257677
60.545 17.994827
60.550 17.917908
60.555 17.616062
60.560 17.636656
60.565 18.309584
60.570 18.550043
60.575 18.89205
60.580 19.359922
60.585 19.600754
60.590 19.654692
60.595 19.579597
60.600 19.348761
60.605 19.478331
60.610 19.436291
60.615 19.035738
60.620 19.327593
60.625 19.818754
60.630 19.994286
60.635 20.300827
60.640 20.334761
60.645 21.145388
60.650 21.745026
60.655 22.620104
60.660 22.542261
60.665 22.549854
60.670 22.270533
60.675 21.725657
60.680 20.913542
60.685 20.46521
60.690 19.398928
60.695 18.972216
60.700 18.616652
60.705 18.470009
60.710 18.985155
60.715 18.74206
60.720 18.871387
60.725 18.676315
60.730 18.676538
60.735 18.980827
60.740 18.963076
60.745 18.918282
60.750 19.048288
60.755 19.286337
60.760 19.805256
60.765 20.437637
60.770 20.059458
60.775 19.669867
60.780 19.530746
60.785 19.208393
60.790 19.180532
60.795 19.520172
60.800 19.395155
60.805 19.631401
60.810 19.316298
60.815 19.541563
60.820 19.741053
60.825 19.044495
60.830 18.450918
60.835 17.892866
60.840 17.709446
60.845 18.147324
60.850 17.700287
60.855 17.59347
60.860 17.969154
60.865 18.380846
60.870 18.854601
60.875 19.241133
60.880 18.678822
60.885 18.607927
60.890 18.354109
60.895 17.768471
60.900 17.429352
60.905 16.90169
60.910 16.451756
60.915 16.269457
60.920 16.008131
60.925 16.416254
60.930 16.872372
60.935 17.278477
60.940 17.156363
60.945 17.57093
60.950 17.814516
60.955 17.690689
60.960 17.47814
60.965 17.360762
60.970 16.55937
60.975 16.62038
60.980 16.152058
60.985 16.668217
60.990 17.361624
60.995 17.664412
61.000 17.959999
61.005 18.22105
61.010 18.263514
61.015 18.684231
61.020 18.325848
61.025 17.40357
61.030 16.942593
61.035 16.390139
61.040 16.595539
61.045 16.82402
61.050 16.646488
61.055 16.766663
61.060 17.527275
61.065 18.073032
61.070 18.443687
61.075 18.257687
61.080 17.86306
61.085 17.845179
61.090 17.855028
61.095 17.443954
61.100 17.178476
61.105 17.237392
61.110 17.236074
61.115 17.244085
61.120 17.091702
61.125 16.892721
61.130 17.079641
61.135 16.490986
61.140 15.959384
61.145 16.160213
61.150 16.653847
61.155 16.715065
61.160 16.363955
61.165 16.587769
61.170 17.168983
61.175 17.599413
61.180 17.187546
61.185 16.903095
61.190 16.815443
61.195 17.400045
61.200 17.868385
61.205 18.025631
61.210 18.071047
61.215 18.233103
61.220 18.61937
61.225 18.849148
61.230 18.045046
61.235 16.653437
61.240 16.427118
61.245 16.588451
61.250 16.951635
61.255 16.975334
61.260 17.119804
61.265 17.63051
61.270 18.214962
61.275 18.461927
61.280 18.330227
61.285 17.679966
61.290 17.325218
61.295 16.886885
61.300 16.395964
61.305 16.036581
61.310 15.733215
61.315 15.386855
61.320 15.310427
61.325 14.76629
61.330 14.525163
61.335 15.154669
61.340 15.475278
61.345 15.454075
61.350 15.565191
61.355 15.702775
61.360 16.660034
61.365 16.789886
61.370 16.277304
61.375 15.928571
61.380 15.678517
61.385 15.627595
61.390 15.76887
61.395 15.262421
61.400 15.157169
61.405 15.122102
61.410 15.434813
61.415 15.491004
61.420 15.180055
61.425 14.835876
61.430 14.77989
61.435 15.218152
61.440 15.839031
61.445 16.517462
61.450 17.051538
61.455 17.751066
61.460 17.929384
61.465 18.694395
61.470 18.935665
61.475 18.378855
61.480 18.108477
61.485 18.041763
61.490 17.646948
61.495 17.63542
61.500 17.158262
61.505 17.573555
61.510 17.619688
61.515 17.416801
61.520 17.536276
61.525 17.710474
61.530 17.960714
61.535 18.014212
61.540 17.384949
61.545 17.689806
61.550 17.960913
61.555 18.1014
61.560 17.819643
61.565 17.870836
61.570 18.172779
61.575 18.169691
61.580 17.698595
61.585 17.708567
61.590 17.592001
61.595 17.90243
61.600 17.581615
61.605 16.786163
61.610 16.400656
61.615 16.368076
61.620 15.963502
61.625 16.352991
61.630 16.295706
61.635 16.368311
61.640 16.721889
61.645 17.07691
61.650 17.100386
61.655 17.609745
61.660 17.877718
61.665 18.361362
61.670 18.626215
61.675 18.917995
61.680 19.112968
61.685 18.89115
61.690 18.055769
61.695 17.79917
61.700 17.75466
61.705 17.57468
61.710 17.108555
61.715 17.164711
61.720 17.377529
61.725 17.59223
61.730 17.634724
61.735 17.550791
61.740 17.531191
61.745 17.60693
61.750 17.622187
61.755 17.638706
61.760 17.507813
61.765 16.980303
61.770 16.659945
61.775 16.602123
61.780 16.494869
61.785 16.424347
61.790 16.81871
61.795 16.94149
61.800 17.398577
61.805 17.602856
61.810 17.883577
61.815 17.932791
61.820 17.611633
61.825 17.430815
61.830 17.272783
61.835 16.630217
61.840 16.292105
61.845 15.8236
61.850 15.994882
61.855 16.089966
61.860 15.965978
61.865 16.0348
61.870 16.350742
61.875 16.623442
61.880 16.891703
61.885 17.11116
61.890 17.47595
61.895 17.69808
61.900 17.90379
61.905 17.911594
61.910 18.058571
61.915 18.079874
61.920 17.532032
61.925 17.394333
61.930 16.911127
61.935 16.949726
61.940 17.005262
61.945 17.197128
61.950 17.132097
61.955 17.226027
61.960 16.877363
61.965 16.72562
61.970 16.642879
61.975 16.668417
61.980 16.34132
61.985 15.957852
61.990 16.432644
61.995 16.575806
62.000 17.195648
62.005 17.395144
62.010 17.569298
62.015 17.835735
62.020 18.453007
62.025 18.105644
62.030 17.670803
62.035 16.96076
62.040 16.767565
62.045 16.481478
62.050 16.314116
62.055 15.603879
62.060 15.548107
62.065 15.761981
62.070 15.86248
62.075 16.017328
62.080 16.241526
62.085 16.848511
62.090 17.373873
62.095 17.267946
62.100 17.311653
62.105 17.369905
62.110 17.027613
62.115 16.630045
62.120 16.474928
62.125 16.676928
62.130 16.69208
62.135 16.74144
62.140 16.682901
62.145 16.781487
62.150 17.038992
62.155 16.856627
62.160 16.937229
62.165 17.347897
62.170 17.215797
62.175 17.512735
62.180 17.899324
62.185 17.962795
62.190 17.982742
62.195 17.983738
62.200 17.701725
62.205 17.500269
62.210 17.013767
62.215 16.270681
62.220 15.389141
62.225 14.955791
62.230 14.859469
62.235 14.899852
62.240 14.816483
62.245 15.57669
62.250 15.694071
62.255 16.196465
62.260 16.223005
62.265 16.182165
62.270 16.219635
62.275 16.550293
62.280 16.092491
62.285 15.837895
62.290 15.593075
62.295 15.579225
62.300 15.048844
62.305 14.638547
62.310 14.139266
62.315 14.191911
62.320 14.930889
62.325 15.517934
62.330 15.187711
62.335 15.594306
62.340 15.981869
62.345 16.559
62.350 16.635233
62.355 16.34815
62.360 16.093422
62.365 16.753923
62.370 16.640755
62.375 16.531361
62.380 16.685177
62.385 17.06201
62.390 17.332224
62.395 17.121992
62.400 17.222376
62.405 17.095053
62.410 17.256861
62.415 16.885014
62.420 16.77062
62.425 16.47109
62.430 16.577957
62.435 16.989294
62.440 17.4181
62.445 18.051294
62.450 18.715668
62.455 18.710312
62.460 19.286646
62.465 19.09141
62.470 18.372488
62.475 18.56719
62.480 17.7763
62.485 16.857559
62.490 16.595459
62.495 16.649233
62.500 16.82094
62.505 17.281166
62.510 16.886395
62.515 16.726154
62.520 16.93873
62.525 16.901913
62.530 16.279556
62.535 16.436028
62.540 15.765575
62.545 15.796619
62.550 15.799384
62.555 15.266324
62.560 15.181318
62.565 15.799963
62.570 15.867494
62.575 16.063932
62.580 15.729989
62.585 15.86204
62.590 16.072821
62.595 16.132404
62.600 15.770336
62.605 15.6313
62.610 15.794934
62.615 16.300138
62.620 16.931688
62.625 17.562471
62.630 17.606972
62.635 17.599257
62.640 17.258123
62.645 16.863815
62.650 16.514297
62.655 16.088108
62.660 15.521098
62.665 15.359706
62.670 15.37044
62.675 15.86529
62.680 16.203962
62.685 16.654259
62.690 17.313665
62.695 17.96036
62.700 18.247841
62.705 18.071463
62.710 17.803099
62.715 17.945026
62.720 17.820053
62.725 17.777472
62.730 17.522463
62.735 17.67869
62.740 18.212307
62.745 18.566324
62.750 18.606583
62.755 18.510391
62.760 17.761196
62.765 17.823011
62.770 17.203474
62.775 16.73366
62.780 16.693031
62.785 16.720388
62.790 17.20261
62.795 17.987892
62.800 18.301851
62.805 18.935949
62.810 18.703623
62.815 18.465633
62.820 18.406725
62.825 17.856676
62.830 17.166599
62.835 16.637608
62.840 16.577744
62.845 16.874115
62.850 16.980974
62.855 16.899509
62.860 16.601835
62.865 16.232462
62.870 16.885668
62.875 16.928247
62.880 17.133312
62.885 17.06949
62.890 16.86705
62.895 17.287292
62.900 17.86562
62.905 17.496101
62.910 17.40877
62.915 17.603718
62.920 17.544628
62.925 17.582529
62.930 17.320606
62.935 16.785034
62.940 16.59642
62.945 16.200893
62.950 15.376223
62.955 15.210235
62.960 15.172345
62.965 15.486156
62.970 16.480825
62.975 17.213783
62.980 17.73135
62.985 18.837086
62.990 19.232059
62.995 19.344429
63.000 19.526247
63.005 18.985695
63.010 18.544046
63.015 18.099466
63.020 17.523136
63.025 17.699055
63.030 17.560913
63.035 17.584444
63.040 17.373722
63.045 17.421139
63.050 17.494823
63.055 17.031971
63.060 16.684818
63.065 16.532682
63.070 15.866214
63.075 15.828405
63.080 15.757467
63.085 16.066256
63.090 16.524973
63.095 16.84515
63.100 17.418875
63.105 18.288853
63.110 18.69396
63.115 18.423622
63.120 18.606138
63.125 18.426815
63.130 18.436722
63.135 18.171566
63.140 18.319933
63.145 18.404613
63.150 18.457531
63.155 18.208866
63.160 18.148487
63.165 17.868174
63.170 17.467237
63.175 16.35393
63.180 15.899799
63.185 15.862624
63.190 15.649275
63.195 15.488005
63.200 15.734755
63.205 15.629867
63.210 16.435307
63.215 16.770977
63.220 16.693789
63.225 16.488459
63.230 16.398331
63.235 16.19116
63.240 16.758087
63.245 16.234028
63.250 16.421923
63.255 17.029482
63.260 17.696674
63.265 17.879423
63.270 17.670967
63.275 17.284674
63.280 17.429811
63.285 17.153332
63.290 16.808008
63.295 16.907951
63.300 16.962059
63.305 17.589542
63.310 18.037531
63.315 17.967575
63.320 18.52985
63.325 18.644476
63.330 18.596045
63.335 18.262033
63.340 17.64889
63.345 17.619135
63.350 17.754274
63.355 17.410028
63.360 17.425344
63.365 17.602844
63.370 18.052254
63.375 17.619701
63.380 17.355547
63.385 17.703913
63.390 18.16543
63.395 18.091236
63.400 17.784187
63.405 18.262053
63.410 18.759626
63.415 18.475546
63.420 18.321215
63.425 17.578192
63.430 17.717506
63.435 17.589653
63.440 17.384598
63.445 17.559986
63.450 17.435978
63.455 17.345173
63.460 17.425739
63.465 16.949207
63.470 16.891043
63.475 16.623306
63.480 17.085848
63.485 17.105658
63.490 16.895111
63.495 17.201948
63.500 17.329351
63.505 17.468761
63.510 17.776049
63.515 17.648071
63.520 17.681948
63.525 17.743652
63.530 17.926977
63.535 18.518415
63.540 18.574112
63.545 18.260437
63.550 18.022024
63.555 17.680653
63.560 17.258274
63.565 17.263651
63.570 16.393496
63.575 16.758932
63.580 16.647612
63.585 16.960388
63.590 17.558924
63.595 17.454626
63.600 17.378576
63.605 17.834164
63.610 17.35508
63.615 17.764511
63.620 18.116898
63.625 17.757034
63.630 17.666376
63.635 17.365358
63.640 17.697065
63.645 17.672159
63.650 17.664103
63.655 17.531597
63.660 18.053295
63.665 18.865444
63.670 19.210264
63.675 18.758032
63.680 18.891293
63.685 18.184177
63.690 18.123734
63.695 18.265467
63.700 18.185656
63.705 17.765293
63.710 17.865751
63.715 17.874474
63.720 18.494167
63.725 17.909447
63.730 17.495262
63.735 17.430998
63.740 17.573349
63.745 17.783396
63.750 17.522577
63.755 17.021595
63.760 17.052992
63.765 16.897266
63.770 17.325415
63.775 17.666119
63.780 17.38233
63.785 17.261326
63.790 17.380127
63.795 17.151932
63.800 16.845282
63.805 15.899755
63.810 15.608853
63.815 16.272238
63.820 16.157619
63.825 16.089968
63.830 16.75416
63.835 17.218102
63.840 17.286789
63.845 16.934258
63.850 16.568443
63.855 16.94869
63.860 17.167366
63.865 17.035473
63.870 17.08543
63.875 17.860683
63.880 17.628218
63.885 17.809305
63.890 17.84617
63.895 17.666483
63.900 17.802141
63.905 18.526905
63.910 19.25915
63.915 19.587906
63.920 19.707083
63.925 20.174387
63.930 20.358849
63.935 19.85054
63.940 19.113201
63.945 18.893513
63.950 19.071733
63.955 18.906834
63.960 18.767717
63.965 19.354349
63.970 19.529648
63.975 19.203051
63.980 17.534702
63.985 17.503639
63.990 17.681671
63.995 17.463623
64.000 17.184122
64.005 17.882595
64.010 18.606333
64.015 19.884079
64.020 19.497231
64.025 19.369223
64.030 19.775864
64.035 19.835995
64.040 19.026278
64.045 18.884111
64.050 18.322857
64.055 18.373686
64.060 18.155014
64.065 17.712601
64.070 17.507107
64.075 17.633814
64.080 17.367603
64.085 17.347988
64.090 18.014185
64.095 18.360165
64.100 18.30179
64.105 18.429754
64.110 18.751814
64.115 18.969357
64.120 18.97197
64.125 18.506132
64.130 18.309395
64.135 18.739031
64.140 18.552971
64.145 18.469105
64.150 18.209188
64.155 18.200874
64.160 18.010847
64.165 18.334829
64.170 18.550272
64.175 18.979815
64.180 18.864149
64.185 19.337547
64.190 19.668188
64.195 19.598593
64.200 18.85603
64.205 18.453714
64.210 18.299932
64.215 18.585567
64.220 18.020479
64.225 18.265333
64.230 18.987141
64.235 19.285997
64.240 18.767885
64.245 18.505878
64.250 18.00889
64.255 18.117701
64.260 17.563084
64.265 16.807922
64.270 16.515783
64.275 16.397736
64.280 16.103916
64.285 16.539108
64.290 16.568438
64.295 16.216198
64.300 16.657129
64.305 17.160471
64.310 17.331953
64.315 17.225325
64.320 17.259027
64.325 17.47644
64.330 17.972366
64.335 17.504393
64.340 17.638771
64.345 17.900026
64.350 17.949373
64.355 17.591267
64.360 17.600882
64.365 17.850918
64.370 17.981339
64.375 17.844902
64.380 18.632835
64.385 19.16069
64.390 19.414585
64.395 19.098986
64.400 18.932678
64.405 19.091944
64.410 19.593489
64.415 19.208574
64.420 18.780994
64.425 18.47847
64.430 18.440609
64.435 18.726297
64.440 18.774464
64.445 18.797701
64.450 18.826399
64.455 19.352678
64.460 20.083225
64.465 20.296566
64.470 20.231985
64.475 20.070299
64.480 19.813032
64.485 19.623987
64.490 19.16683
64.495 18.937954
64.500 18.925287
64.505 19.500834
64.510 19.672043
64.515 19.43491
64.520 19.456635
64.525 19.355919
64.530 19.168608
64.535 18.818495
64.540 18.364847
64.545 17.940126
64.550 18.073559
64.555 18.693445
64.560 19.064241
64.565 19.455339
64.570 20.287577
64.575 20.357147
64.580 20.533632
64.585 20.081095
64.590 20.068134
64.595 19.846275
64.600 19.33502
64.605 19.193489
64.610 18.837242
64.615 19.12911
64.620 19.464539
64.625 19.529951
64.630 19.558071
64.635 19.983091
64.640 19.934971
64.645 20.234261
64.650 19.803637
64.655 19.779247
64.660 19.246796
64.665 19.487164
64.670 19.357664
64.675 19.597456
64.680 19.401499
64.685 19.604591
64.690 19.768984
64.695 20.118929
64.700 19.898844
64.705 18.975056
64.710 18.494923
64.715 19.066454
64.720 19.308353
64.725 19.065536
64.730 19.235395
64.735 18.975128
64.740 19.139977
64.745 19.162746
64.750 18.751822
64.755 18.08832
64.760 17.649759
64.765 17.239586
64.770 17.345058
64.775 17.517172
64.780 17.220833
64.785 17.729897
64.790 18.611019
64.795 19.321692
64.800 19.618761
64.805 19.75219
64.810 19.806862
64.815 19.689924
64.820 19.639668
64.825 19.758987
64.830 19.437794
64.835 19.332636
64.840 19.745531
64.845 19.822464
64.850 20.197498
64.855 20.018545
64.860 19.349541
64.865 19.146019
64.870 18.81201
64.875 18.051014
64.880 17.776964
64.885 17.021641
64.890 16.35837
64.895 16.857565
64.900 16.912092
64.905 16.889187
64.910 17.358234
64.915 18.079689
64.920 18.608236
64.925 19.003033
64.930 18.77347
64.935 19.665598
64.940 20.659367
64.945 21.279776
64.950 21.290359
64.955 21.451233
64.960 21.175596
64.965 21.094385
64.970 20.332916
64.975 19.712452
64.980 19.299524
64.985 19.495708
64.990 19.985941
64.995 20.065275
65.000 19.499477
65.005 20.382843
65.010 21.043819
65.015 21.096912
65.020 20.997066
65.025 20.53359
65.030 21.251842
65.035 21.748381
65.040 21.29698
65.045 20.906507
65.050 21.412052
65.055 21.152981
65.060 21.264042
65.065 21.314781
65.070 21.498852
65.075 21.394995
65.080 20.71384
65.085 20.346033
65.090 21.258051
65.095 21.739931
65.100 21.62925
65.105 21.916504
65.110 21.735281
65.115 22.018658
65.120 22.139746
65.125 21.978525
65.130 21.972706
65.135 21.789949
65.140 21.193668
65.145 21.812042
65.150 21.419249
65.155 20.666061
65.160 20.119617
65.165 19.535292
65.170 19.94178
65.175 20.348337
65.180 20.153194
65.185 20.878155
65.190 21.848152
65.195 21.68462
65.200 21.684999
65.205 21.216669
65.210 21.450232
65.215 21.255615
65.220 21.670202
65.225 21.323362
65.230 22.113905
65.235 22.133017
65.240 22.486357
65.245 22.538464
65.250 22.358866
65.255 21.80728
65.260 21.762571
65.265 21.223829
65.270 22.019247
65.275 22.278996
65.280 22.443254
65.285 22.900595
65.290 23.227703
65.295 23.234482
65.300 23.460052
65.305 23.044909
65.310 23.125509
65.315 23.187294
65.320 23.295486
65.325 23.383791
65.330 23.30051
65.335 23.205664
65.340 23.804218
65.345 22.892944
65.350 22.588833
65.355 22.310297
65.360 22.442272
65.365 23.567608
65.370 24.012165
65.375 23.605404
65.380 24.101706
65.385 24.097914
65.390 24.127819
65.395 23.76012
65.400 22.804861
65.405 22.716942
65.410 23.064405
65.415 23.408758
65.420 23.505747
65.425 23.810896
65.430 24.308998
65.435 24.378767
65.440 24.415936
65.445 24.718843
65.450 24.659378
65.455 24.770967
65.460 25.093552
65.465 25.291855
65.470 25.276871
65.475 24.790787
65.480 24.170397
65.485 24.124466
65.490 24.760883
65.495 24.728142
65.500 24.86198
65.505 25.478395
65.510 26.303205
65.515 26.523092
65.520 26.725393
65.525 26.173874
65.530 26.051701
65.535 25.91757
65.540 26.348282
65.545 26.564543
65.550 27.415367
65.555 27.595768
65.560 27.579247
65.565 27.994984
65.570 28.123367
65.575 27.590998
65.580 27.981359
65.585 27.653801
65.590 27.253931
65.595 27.339565
65.600 27.199028
65.605 27.687775
65.610 28.617455
65.615 29.341707
65.620 29.990402
65.625 31.091587
65.630 31.422768
65.635 31.728014
65.640 32.277802
65.645 32.280128
65.650 31.068296
65.655 30.238186
65.660 30.610481
65.665 30.844183
65.670 30.871271
65.675 30.4079
65.680 30.698708
65.685 31.974653
65.690 32.930958
65.695 33.077484
65.700 33.321388
65.705 32.767464
65.710 32.8666
65.715 32.321423
65.720 32.216812
65.725 31.981483
65.730 31.777653
65.735 31.562141
65.740 31.441368
65.745 31.832361
65.750 32.34856
65.755 32.805321
65.760 33.547188
65.765 34.063911
65.770 34.477547
65.775 35.222095
65.780 35.105698
65.785 34.914238
65.790 34.252468
65.795 34.284035
65.800 33.56459
65.805 33.794922
65.810 33.636265
65.815 33.741676
65.820 34.624912
65.825 35.643215
65.830 35.841995
65.835 36.677299
65.840 36.982891
65.845 37.447674
65.850 37.3041
65.855 37.26075
65.860 36.905437
65.865 35.946964
65.870 35.495777
65.875 34.904602
65.880 34.430561
65.885 34.783646
65.890 34.674091
65.895 34.840439
65.900 35.962109
65.905 36.75943
65.910 37.307991
65.915 37.572273
65.920 37.42799
65.925 37.419182
65.930 37.571178
65.935 37.312695
65.940 37.069759
65.945 37.404072
65.950 37.588268
65.955 37.837013
65.960 38.941929
65.965 39.335152
65.970 39.311882
65.975 39.082878
65.980 39.368202
65.985 39.493923
65.990 39.340637
65.995 38.183128
66.000 37.943386
66.005 38.255352
66.010 38.275291
66.015 37.739506
66.020 37.842979
66.025 37.865299
66.030 38.010288
66.035 38.086666
66.040 37.96777
66.045 37.681236
66.050 37.942997
66.055 38.050217
66.060 37.491707
66.065 36.59351
66.070 36.061596
66.075 36.177715
66.080 36.328007
66.085 36.076237
66.090 35.431808
66.095 35.844685
66.100 36.707394
66.105 36.50349
66.110 36.135597
66.115 36.249172
66.120 36.234657
66.125 36.841461
66.130 37.26725
66.135 37.026558
66.140 36.989929
66.145 36.535572
66.150 35.751823
66.155 35.481922
66.160 34.583561
66.165 34.329041
66.170 33.530186
66.175 34.232555
66.180 34.325981
66.185 34.057865
66.190 33.938786
66.195 34.534184
66.200 33.789001
66.205 33.711609
66.210 32.977448
66.215 33.249596
66.220 33.152187
66.225 32.61364
66.230 31.766958
66.235 31.71134
66.240 31.798304
66.245 31.939865
66.250 32.309628
66.255 32.510139
66.260 32.59441
66.265 32.358624
66.270 31.676277
66.275 31.231144
66.280 30.122
66.285 30.019634
66.290 30.158352
66.295 29.841785
66.300 29.866827
66.305 29.945263
66.310 29.900633
66.315 30.313951
66.320 29.20533
66.325 29.23069
66.330 29.748943
66.335 29.863287
66.340 29.896299
66.345 30.236609
66.350 30.771555
66.355 31.13533
66.360 31.295807
66.365 31.08086
66.370 31.128611
66.375 30.488646
66.380 30.331469
66.385 29.983082
66.390 30.160177
66.395 29.885269
66.400 29.988852
66.405 30.415638
66.410 30.982821
66.415 30.748989
66.420 30.66223
66.425 30.809402
66.430 30.506905
66.435 29.793646
66.440 29.343271
66.445 28.822819
66.450 28.812733
66.455 28.31366
66.460 27.616808
66.465 27.458939
66.470 27.61525
66.475 27.402981
66.480 27.798983
66.485 27.217735
66.490 26.954956
66.495 27.115591
66.500 27.183887
66.505 27.451889
66.510 27.962416
66.515 26.891708
66.520 27.09593
66.525 28.134487
66.530 27.686089
66.535 27.698349
66.540 27.716864
66.545 27.470263
66.550 28.011074
66.555 27.583868
66.560 26.978119
66.565 27.501497
66.570 27.659527
66.575 26.967709
66.580 26.860249
66.585 26.770575
66.590 26.622276
66.595 26.51491
66.600 25.97287
66.605 25.851925
66.610 26.509123
66.615 26.82305
66.620 26.136736
66.625 26.038353
66.630 26.138758
66.635 25.807903
66.640 25.589775
66.645 25.198696
66.650 25.031296
66.655 25.734495
66.660 25.888098
66.665 26.216278
66.670 26.779005
66.675 26.512251
66.680 26.228231
66.685 25.260447
66.690 25.00293
66.695 25.036062
66.700 24.473928
66.705 24.535042
66.710 24.654726
66.715 24.704039
66.720 25.710716
66.725 25.93165
66.730 25.851814
66.735 25.9161
66.740 25.911825
66.745 25.353292
66.750 24.990952
66.755 24.889954
66.760 25.042046
66.765 25.006138
66.770 25.021088
66.775 24.698381
66.780 25.303837
66.785 25.517826
66.790 24.769386
66.795 24.423397
66.800 23.973738
66.805 23.9314
66.810 23.990107
66.815 23.331646
66.820 23.156002
66.825 23.60745
66.830 23.880915
66.835 24.173439
66.840 23.40711
66.845 22.658939
66.850 23.098902
66.855 22.837431
66.860 22.411823
66.865 22.249941
66.870 21.988367
66.875 22.708878
66.880 23.237951
66.885 22.859768
66.890 23.37739
66.895 23.813044
66.900 23.818665
66.905 23.639904
66.910 23.82917
66.915 23.591663
66.920 23.690449
66.925 23.726166
66.930 23.708059
66.935 23.971474
66.940 23.990524
66.945 23.961655
66.950 24.01383
66.955 24.108152
66.960 23.996943
66.965 23.650724
66.970 23.421242
66.975 23.578241
66.980 23.185192
66.985 23.428701
66.990 23.751431
66.995 23.9242
67.000 23.453732
67.005 23.147701
67.010 22.889774
67.015 23.156723
67.020 22.690149
67.025 21.814054
67.030 21.330076
67.035 21.653872
67.040 21.266539
67.045 20.674915
67.050 20.759024
67.055 20.881748
67.060 21.700191
67.065 21.632441
67.070 21.446638
67.075 21.514744
67.080 21.863195
67.085 21.802675
67.090 21.705324
67.095 21.660242
67.100 22.358591
67.105 22.58424
67.110 23.008862
67.115 23.176819
67.120 22.98559
67.125 23.157633
67.130 23.432497
67.135 23.066429
67.140 22.902578
67.145 22.634443
67.150 22.632433
67.155 23.094728
67.160 22.930351
67.165 22.742878
67.170 22.730011
67.175 22.599838
67.180 22.528294
67.185 22.178881
67.190 22.143364
67.195 22.079193
67.200 21.342384
67.205 21.237598
67.210 21.647116
67.215 22.209156
67.220 22.942429
67.225 22.852753
67.230 22.833897
67.235 23.433016
67.240 23.378172
67.245 23.006451
67.250 21.916498
67.255 21.239798
67.260 21.298815
67.265 21.678995
67.270 21.745264
67.275 21.910084
67.280 22.021648
67.285 22.606934
67.290 22.394753
67.295 21.999454
67.300 21.1891
67.305 20.783899
67.310 20.37694
67.315 20.608944
67.320 21.227922
67.325 21.878689
67.330 22.244808
67.335 22.575296
67.340 22.208595
67.345 22.326635
67.350 22.107006
67.355 21.634928
67.360 20.75157
67.365 20.091078
67.370 20.047789
67.375 20.158327
67.380 20.305374
67.385 19.990425
67.390 19.105944
67.395 19.241241
67.400 20.066233
67.405 20.230419
67.410 20.326603
67.415 20.279665
67.420 20.921476
67.425 22.013195
67.430 21.924725
67.435 21.670761
67.440 21.678701
67.445 21.645908
67.450 21.438425
67.455 20.86097
67.460 20.359409
67.465 20.620451
67.470 20.805929
67.475 20.966879
67.480 20.670355
67.485 20.802021
67.490 20.550081
67.495 20.423151
67.500 20.673422
67.505 20.275526
67.510 20.83003
67.515 21.614328
67.520 22.124516
67.525 23.10767
67.530 24.133923
67.535 23.958364
67.540 24.134378
67.545 23.400499
67.550 22.584566
67.555 21.977852
67.560 21.71142
67.565 20.773893
67.570 20.15777
67.575 19.600803
67.580 20.177179
67.585 20.446844
67.590 20.502272
67.595 19.562742
67.600 19.604284
67.605 19.806458
67.610 19.893076
67.615 19.440708
67.620 19.798494
67.625 20.302927
67.630 21.08765
67.635 21.228155
67.640 21.494242
67.645 21.74365
67.650 21.636837
67.655 21.424696
67.660 21.279839
67.665 20.831903
67.670 20.651154
67.675 20.493885
67.680 20.330994
67.685 20.513977
67.690 20.27729
67.695 20.398539
67.700 20.981022
67.705 21.043339
67.710 21.155813
67.715 21.958323
67.720 21.920883
67.725 22.181158
67.730 22.32415
67.735 21.83687
67.740 21.921713
67.745 21.685762
67.750 21.236771
67.755 20.962469
67.760 20.427116
67.765 20.475433
67.770 20.576529
67.775 20.821024
67.780 20.872778
67.785 20.791439
67.790 21.252413
67.795 21.418854
67.800 21.318455
67.805 21.894732
67.810 22.063047
67.815 22.019325
67.820 22.32999
67.825 21.708052
67.830 20.989449
67.835 20.393732
67.840 19.727219
67.845 19.504662
67.850 19.529964
67.855 19.348063
67.860 19.684053
67.865 20.066565
67.870 20.777573
67.875 20.694113
67.880 20.4762
67.885 20.678604
67.890 20.845705
67.895 20.960388
67.900 20.740196
67.905 20.977226
67.910 21.383831
67.915 21.745937
67.920 21.736534
67.925 21.83395
67.930 22.138664
67.935 21.957855
67.940 22.076786
67.945 22.138437
67.950 22.124523
67.955 21.864294
67.960 21.509096
67.965 21.686657
67.970 21.491266
67.975 20.873304
67.980 20.917704
67.985 20.453732
67.990 20.420158
67.995 20.422047
68.000 20.872829
68.005 21.611893
68.010 21.557848
68.015 21.761995
68.020 22.178743
68.025 22.843111
68.030 22.669455
68.035 21.958778
68.040 21.830883
68.045 21.576324
68.050 21.459293
68.055 21.063618
68.060 20.509933
68.065 21.085938
68.070 20.746161
68.075 20.280628
68.080 20.46278
68.085 20.205383
68.090 20.19454
68.095 20.861546
68.100 20.759327
68.105 21.437155
68.110 21.81518
68.115 21.406435
68.120 20.947374
68.125 20.521896
68.130 20.20483
68.135 19.900888
68.140 19.993505
68.145 19.960575
68.150 19.970264
68.155 20.891344
68.160 21.296944
68.165 20.666456
68.170 20.504177
68.175 20.310518
68.180 20.563021
68.185 20.937868
68.190 21.567873
68.195 21.385336
68.200 21.684048
68.205 21.707918
68.210 21.725464
68.215 21.305578
68.220 21.220808
68.225 20.451208
68.230 20.174622
68.235 20.236353
68.240 20.210917
68.245 20.60033
68.250 20.229437
68.255 19.987173
68.260 20.099159
68.265 20.493198
68.270 21.324432
68.275 22.573612
68.280 23.013737
68.285 23.875788
68.290 23.826832
68.295 24.159575
68.300 23.877384
68.305 23.314102
68.310 22.048643
68.315 21.598782
68.320 21.430815
68.325 21.856094
68.330 21.860321
68.335 22.219019
68.340 21.910744
68.345 21.60186
68.350 21.432089
68.355 21.044676
68.360 20.528276
68.365 19.459038
68.370 19.575624
68.375 19.14924
68.380 18.959127
68.385 18.449705
68.390 18.150291
68.395 18.378214
68.400 19.062408
68.405 19.073868
68.410 19.502714
68.415 20.142578
68.420 20.728075
68.425 21.288923
68.430 21.112766
68.435 20.963732
68.440 20.919588
68.445 20.744333
68.450 20.532597
68.455 20.702488
68.460 20.642124
68.465 21.218733
68.470 20.912809
68.475 21.593534
68.480 21.799488
68.485 21.807552
68.490 21.932171
68.495 22.164785
68.500 22.573986
68.505 22.924578
68.510 22.154266
68.515 22.562653
68.520 23.10433
68.525 23.080408
68.530 22.793795
68.535 22.344149
68.540 21.866106
68.545 21.577158
68.550 20.86554
68.555 20.652676
68.560 20.47378
68.565 20.4925
68.570 20.498503
68.575 20.347355
68.580 20.784912
68.585 21.578808
68.590 22.074961
68.595 22.609844
68.600 21.951004
68.605 21.623236
68.610 22.763906
68.615 22.569052
68.620 21.588043
68.625 20.580894
68.630 20.122496
68.635 20.372911
68.640 20.33309
68.645 19.60257
68.650 19.616745
68.655 19.870712
68.660 19.800236
68.665 20.095669
68.670 20.283585
68.675 20.450842
68.680 20.550112
68.685 21.011047
68.690 21.123178
68.695 20.787563
68.700 20.554373
68.705 20.366777
68.710 20.594299
68.715 20.571264
68.720 20.546415
68.725 21.127537
68.730 21.713522
68.735 21.932856
68.740 21.678234
68.745 21.653803
68.750 21.714771
68.755 21.478092
68.760 20.693459
68.765 20.880556
68.770 21.247728
68.775 22.144003
68.780 21.841022
68.785 22.157658
68.790 22.098009
68.795 22.454565
68.800 22.845062
68.805 23.189659
68.810 22.917929
68.815 22.897568
68.820 22.426741
68.825 22.31031
68.830 22.363514
68.835 21.948065
68.840 21.375204
68.845 21.305576
68.850 20.895884
68.855 20.875671
68.860 21.21534
68.865 21.637949
68.870 21.464615
68.875 21.409325
68.880 21.778048
68.885 22.385681
68.890 22.703833
68.895 23.083557
68.900 22.799738
68.905 23.012791
68.910 23.656548
68.915 23.682377
68.920 24.002941
68.925 23.667484
68.930 23.883165
68.935 24.442232
68.940 24.258045
68.945 23.36916
68.950 23.056234
68.955 22.73521
68.960 22.768774
68.965 22.420914
68.970 21.66534
68.975 21.589716
68.980 21.693317
68.985 22.254734
68.990 22.693058
68.995 22.79829
69.000 22.516468
69.005 22.647888
69.010 22.963505
69.015 23.320868
69.020 22.983383
69.025 22.89959
69.030 22.707052
69.035 22.827095
69.040 23.533678
69.045 24.03536
69.050 24.950687
69.055 25.383385
69.060 25.689917
69.065 25.453169
69.070 25.819742
69.075 25.91925
69.080 25.578215
69.085 24.922943
69.090 24.933783
69.095 24.767521
69.100 25.024748
69.105 24.647949
69.110 24.508982
69.115 24.485218
69.120 24.024822
69.125 24.021551
69.130 24.072088
69.135 24.000492
69.140 24.739016
69.145 24.234266
69.150 24.167377
69.155 24.264893
69.160 23.67309
69.165 23.913181
69.170 23.839539
69.175 23.600084
69.180 23.990158
69.185 24.082268
69.190 24.629765
69.195 25.37565
69.200 25.546196
69.205 25.813261
69.210 25.717785
69.215 26.524485
69.220 27.21002
69.225 27.167839
69.230 27.312853
69.235 26.798679
69.240 27.016279
69.245 27.743032
69.250 27.539705
69.255 27.947012
69.260 28.412367
69.265 28.662376
69.270 29.281668
69.275 28.734436
69.280 28.583609
69.285 28.30703
69.290 27.513391
69.295 27.321508
69.300 27.521734
69.305 28.313419
69.310 28.648655
69.315 28.125914
69.320 27.584303
69.325 27.318258
69.330 26.901087
69.335 26.226837
69.340 25.344395
69.345 26.059368
69.350 26.737484
69.355 27.739672
69.360 28.165844
69.365 28.68442
69.370 28.790243
69.375 29.437342
69.380 29.333334
69.385 29.478853
69.390 29.306767
69.395 29.414709
69.400 29.215591
69.405 29.23267
69.410 29.150658
69.415 29.425152
69.420 29.603533
69.425 29.745932
69.430 30.008505
69.435 30.438499
69.440 30.521074
69.445 30.412668
69.450 29.717588
69.455 29.293547
69.460 28.895439
69.465 28.612093
69.470 28.69348
69.475 28.744438
69.480 28.939989
69.485 29.035368
69.490 29.921083
69.495 30.00012
69.500 30.423494
69.505 30.492571
69.510 30.374458
69.515 30.554457
69.520 31.096113
69.525 29.790037
69.530 29.47562
69.535 28.695215
69.540 28.034328
69.545 28.097582
69.550 28.004112
69.555 28.036762
69.560 28.556808
69.565 29.290365
69.570 30.263485
69.575 31.073809
69.580 30.749266
69.585 31.051186
69.590 30.629269
69.595 30.813309
69.600 29.503254
69.605 28.877768
69.610 28.253389
69.615 27.547842
69.620 27.330307
69.625 27.68293
69.630 27.262531
69.635 27.437172
69.640 27.234627
69.645 27.916229
69.650 27.885323
69.655 27.064064
69.660 26.3272
69.665 26.842751
69.670 26.492872
69.675 26.35358
69.680 26.925039
69.685 27.710384
69.690 27.704014
69.695 27.7036
69.700 27.551464
69.705 27.916229
69.710 28.038849
69.715 27.419857
69.720 26.77533
69.725 26.962212
69.730 27.160385
69.735 28.007858
69.740 28.035051
69.745 27.590582
69.750 27.540121
69.755 28.067694
69.760 28.164852
69.765 28.477509
69.770 28.114864
69.775 28.191927
69.780 28.753941
69.785 28.225861
69.790 28.139782
69.795 27.745382
69.800 26.641243
69.805 26.245594
69.810 26.064484
69.815 26.663321
69.820 26.95046
69.825 27.141445
69.830 27.456854
69.835 27.176321
69.840 26.622789
69.845 25.878897
69.850 24.788671
69.855 24.292194
69.860 23.434887
69.865 23.227531
69.870 23.617916
69.875 23.492128
69.880 23.618797
69.885 24.332478
69.890 24.968924
69.895 24.633539
69.900 24.137066
69.905 24.443924
69.910 24.065222
69.915 23.734957
69.920 22.595762
69.925 21.545364
69.930 22.020525
69.935 22.101791
69.940 21.788054
69.945 22.233715
69.950 22.309551
69.955 22.60803
69.960 22.717352
69.965 21.904074
69.970 21.378605
69.975 21.021814
69.980 21.507643
69.985 21.424198
69.990 20.933443
69.995 20.974701
70.000 21.826584
70.005 22.08116
70.010 21.911083
70.015 21.283125
70.020 22.433699
70.025 22.895777
70.030 22.507231
70.035 21.820354
70.040 21.765636
70.045 21.464262
70.050 20.943102
70.055 20.477095
70.060 20.335878
70.065 20.447405
70.070 20.847473
70.075 20.783928
70.080 20.709961
70.085 20.857727
70.090 20.5151
70.095 20.550457
70.100 20.249807
70.105 20.229883
70.110 20.679338
70.115 21.111341
70.120 21.125429
70.125 21.359268
70.130 21.547865
70.135 21.744228
70.140 22.105377
70.145 21.396393
70.150 21.05456
70.155 20.597399
70.160 20.249113
70.165 20.214119
70.170 19.713684
70.175 19.669331
70.180 19.826023
70.185 19.763552
70.190 19.822536
70.195 20.275152
70.200 21.151077
70.205 21.340891
70.210 20.725245
70.215 20.469893
70.220 20.677677
70.225 20.702475
70.230 19.76071
70.235 19.242567
70.240 19.067427
70.245 19.347023
70.250 20.56093
70.255 20.775269
70.260 20.713476
70.265 21.073225
70.270 20.869101
70.275 21.40439
70.280 21.539162
70.285 20.894758
70.290 20.679268
70.295 20.232098
70.300 19.752094
70.305 19.773811
70.310 19.385283
70.315 19.448002
70.320 19.64769
70.325 19.871159
70.330 20.53924
70.335 20.841187
70.340 20.511713
70.345 20.523149
70.350 20.555319
70.355 20.351507
70.360 20.610876
70.365 20.529135
70.370 20.309965
70.375 20.693075
70.380 20.165611
70.385 19.964497
70.390 20.16136
70.395 19.92794
70.400 20.026989
70.405 20.113092
70.410 21.005186
70.415 21.153044
70.420 20.666836
70.425 20.545187
70.430 20.700388
70.435 21.19269
70.440 21.323282
70.445 20.915356
70.450 20.993031
70.455 21.070505
70.460 21.161333
70.465 20.741179
70.470 20.135365
70.475 19.631887
70.480 20.111814
70.485 20.395317
70.490 20.143831
70.495 20.04047
70.500 20.166595
70.505 20.51375
70.510 21.003338
70.515 20.67915
70.520 20.873295
70.525 21.205734
70.530 21.091955
70.535 20.793015
70.540 20.40307
70.545 20.029928
70.550 19.855373
70.555 19.74015
70.560 19.423803
70.565 18.864637
70.570 18.515432
70.575 18.754957
70.580 18.001719
70.585 17.98337
70.590 17.49675
70.595 17.999695
70.600 18.881662
70.605 19.345501
70.610 19.647259
70.615 20.361582
70.620 20.27449
70.625 20.893435
70.630 21.202921
70.635 21.52338
70.640 21.211529
70.645 20.991505
70.650 21.127613
70.655 21.700224
70.660 21.236372
70.665 20.084143
70.670 19.473022
70.675 19.729902
70.680 19.372967
70.685 19.044708
70.690 19.120274
70.695 19.800251
70.700 20.213789
70.705 20.325409
70.710 20.272766
70.715 20.738258
70.720 20.939749
70.725 20.946049
70.730 20.835169
70.735 20.864674
70.740 20.61894
70.745 20.517664
70.750 20.166786
70.755 20.189407
70.760 19.410452
70.765 19.883066
70.770 20.081505
70.775 20.555912
70.780 20.19342
70.785 19.2752
70.790 19.415529
70.795 18.9877
70.800 18.493624
70.805 18.408121
70.810 17.951868
70.815 17.997816
70.820 19.047615
70.825 19.061531
70.830 19.231199
70.835 19.092541
70.840 19.51787
70.845 20.690731
70.850 21.281796
70.855 21.891325
70.860 21.801073
70.865 21.771542
70.870 21.912092
70.875 21.446707
70.880 20.789766
70.885 20.179178
70.890 18.976395
70.895 18.802896
70.900 18.62608
70.905 18.71982
70.910 19.013992
70.915 19.129517
70.920 19.295277
70.925 19.568007
70.930 19.378391
70.935 19.258308
70.940 18.552031
70.945 18.699615
70.950 18.402029
70.955 18.442989
70.960 19.018593
70.965 19.02257
70.970 19.016811
70.975 18.782993
70.980 18.26754
70.985 18.244314
70.990 18.751877
70.995 18.415125
71.000 18.678421
71.005 18.464441
71.010 18.577667
71.015 18.871284
71.020 19.047348
71.025 18.428534
71.030 18.457302
71.035 18.808432
71.040 19.183599
71.045 19.626232
71.050 19.450672
71.055 19.744081
71.060 20.078222
71.065 20.206985
71.070 20.681524
71.075 21.282
71.080 21.036806
71.085 20.895836
71.090 20.718269
71.095 20.68858
71.100 20.768126
71.105 20.476778
71.110 20.252104
71.115 21.027485
71.120 21.264874
71.125 21.090487
71.130 20.685873
71.135 20.331686
71.140 20.204746
71.145 19.976137
71.150 19.851995
71.155 20.128721
71.160 19.996441
71.165 20.017096
71.170 20.445168
71.175 20.213503
71.180 19.652496
71.185 19.133919
71.190 18.997435
71.195 19.630617
71.200 19.453665
71.205 19.044401
71.210 18.774105
71.215 18.813871
71.220 18.696297
71.225 18.493355
71.230 18.116381
71.235 18.222534
71.240 18.871706
71.245 19.698219
71.250 20.324789
71.255 20.353647
71.260 20.678028
71.265 20.700624
71.270 20.833534
71.275 20.4508
71.280 19.958534
71.285 19.83391
71.290 19.558344
71.295 19.181868
71.300 18.27277
71.305 18.440928
71.310 18.370287
71.315 17.953497
71.320 17.379059
71.325 17.191515
71.330 16.980637
71.335 17.14839
71.340 17.120619
71.345 17.516012
71.350 18.200098
71.355 19.232864
71.360 19.726612
71.365 20.668793
71.370 21.132053
71.375 20.799726
71.380 20.307461
71.385 19.796482
71.390 19.352762
71.395 19.36466
71.400 19.54537
71.405 18.984192
71.410 19.279352
71.415 19.641832
71.420 19.415838
71.425 18.968966
71.430 18.936882
71.435 18.443579
71.440 18.964354
71.445 18.912788
71.450 18.950817
71.455 20.08807
71.460 20.521082
71.465 20.445599
71.470 20.412851
71.475 19.652851
71.480 19.708191
71.485 19.375359
71.490 18.867424
71.495 18.927736
71.500 19.074358
71.505 19.661343
71.510 19.551571
71.515 19.68865
71.520 20.030289
71.525 19.996384
71.530 19.738447
71.535 19.873686
71.540 19.359478
71.545 19.768881
71.550 19.525042
71.555 18.763599
71.560 19.389271
71.565 19.798977
71.570 20.208027
71.575 20.237259
71.580 19.558601
71.585 19.467611
71.590 19.278517
71.595 18.983929
71.600 18.343256
71.605 17.787094
71.610 18.0795
71.615 18.119492
71.620 18.375143
71.625 18.334251
71.630 18.00325
71.635 18.445467
71.640 19.039377
71.645 19.11647
71.650 19.460863
71.655 19.643776
71.660 19.93364
71.665 19.757044
71.670 19.204557
71.675 18.937235
71.680 18.579346
71.685 18.525936
71.690 18.160593
71.695 18.179199
71.700 19.062485
71.705 18.904306
71.710 18.742134
71.715 19.03344
71.720 19.638903
71.725 19.346567
71.730 19.298908
71.735 18.767981
71.740 18.613327
71.745 18.359591
71.750 17.932972
71.755 18.169073
71.760 18.613087
71.765 18.306149
71.770 18.653826
71.775 19.576466
71.780 20.377283
71.785 20.393175
71.790 20.005877
71.795 19.689629
71.800 19.272882
71.805 18.98646
71.810 19.095753
71.815 19.011248
71.820 18.77766
71.825 19.03805
71.830 19.333214
71.835 19.529711
71.840 19.026182
71.845 18.645929
71.850 18.844067
71.855 18.777504
71.860 17.986622
71.865 18.212263
71.870 18.056601
71.875 18.614042
71.880 18.38339
71.885 18.123857
71.890 18.129665
71.895 18.771587
71.900 19.20326
71.905 19.141745
71.910 18.615139
71.915 18.21031
71.920 18.151915
71.925 18.661055
71.930 18.392214
71.935 18.23012
71.940 17.761507
71.945 17.989504
71.950 18.37604
71.955 17.808191
71.960 17.285929
71.965 17.584019
71.970 17.188347
71.975 17.488041
71.980 18.042856
71.985 18.736849
71.990 18.990549
71.995 18.52784
72.000 18.46855
72.005 18.575329
72.010 18.378481
72.015 17.755533
72.020 17.553541
72.025 17.842228
72.030 18.611673
72.035 18.914801
72.040 19.618828
72.045 19.768745
72.050 19.95697
72.055 20.598801
72.060 20.939913
72.065 20.169317
72.070 19.484982
72.075 19.163189
72.080 19.564547
72.085 19.457249
72.090 18.648415
72.095 18.118919
72.100 18.583233
72.105 18.477009
72.110 18.473066
72.115 17.90984
72.120 17.728367
72.125 18.127529
72.130 18.5917
72.135 18.926901
72.140 19.280752
72.145 19.350525
72.150 19.403671
72.155 20.067028
72.160 20.126205
72.165 19.829985
72.170 19.562801
72.175 19.326111
72.180 19.781639
72.185 19.744669
72.190 19.735859
72.195 19.764168
72.200 19.259083
72.205 19.297197
72.210 19.297728
72.215 18.567043
72.220 18.588697
72.225 18.06818
72.230 18.086733
72.235 18.414249
72.240 18.693838
72.245 19.207834
72.250 19.619589
72.255 19.148573
72.260 18.795595
72.265 18.768864
72.270 18.956469
72.275 18.686958
72.280 18.523928
72.285 18.03282
72.290 17.931581
72.295 18.090456
72.300 17.801596
72.305 17.866861
72.310 17.6329
72.315 17.721626
72.320 17.960405
72.325 18.397377
72.330 18.774889
72.335 18.879871
72.340 18.254055
72.345 18.092043
72.350 18.362371
72.355 17.80265
72.360 17.504456
72.365 17.279955
72.370 17.88047
72.375 18.3256
72.380 18.427874
72.385 17.823368
72.390 17.963091
72.395 18.035814
72.400 17.609936
72.405 17.417768
72.410 17.547962
72.415 17.986879
72.420 18.164459
72.425 18.614864
72.430 19.080587
72.435 19.013378
72.440 19.076361
72.445 18.227919
72.450 18.510508
72.455 18.574461
72.460 18.203823
72.465 17.712214
72.470 17.427917
72.475 17.469061
72.480 17.772289
72.485 17.489662
72.490 17.855999
72.495 18.194214
72.500 18.479416
72.505 18.686069
72.510 18.96063
72.515 18.529491
72.520 17.707462
72.525 17.331646
72.530 16.890867
72.535 17.217346
72.540 17.092867
72.545 17.507605
72.550 18.408243
72.555 18.930887
72.560 19.482706
72.565 19.706045
72.570 19.494671
72.575 19.208508
72.580 18.701557
72.585 18.179079
72.590 18.538788
72.595 18.413485
72.600 18.348555
72.605 18.519066
72.610 18.82748
72.615 18.918594
72.620 19.069712
72.625 18.70141
72.630 18.455465
72.635 18.433455
72.640 17.571114
72.645 17.636709
72.650 17.616547
72.655 17.186079
72.660 16.307539
72.665 16.045696
72.670 16.076286
72.675 16.381657
72.680 15.458111
72.685 15.312798
72.690 15.611856
72.695 17.05625
72.700 17.353411
72.705 17.903961
72.710 17.896587
72.715 18.217962
72.720 18.08696
72.725 18.126678
72.730 17.969263
72.735 17.556551
72.740 17.818745
72.745 18.422789
72.750 18.252882
72.755 18.62467
72.760 18.915361
72.765 18.868643
72.770 18.578678
72.775 18.728781
72.780 18.663229
72.785 18.559475
72.790 18.014891
72.795 17.661163
72.800 17.749031
72.805 17.63072
72.810 17.002899
72.815 17.321333
72.820 17.513542
72.825 17.503525
72.830 17.15835
72.835 17.311571
72.840 17.213308
72.845 17.169468
72.850 17.287809
72.855 16.808762
72.860 17.090704
72.865 16.666767
72.870 16.498423
72.875 16.763117
72.880 16.688948
72.885 16.19404
72.890 16.129131
72.895 16.448254
72.900 16.730564
72.905 16.455254
72.910 15.768719
72.915 16.176792
72.920 16.162533
72.925 16.478102
72.930 15.910305
72.935 16.247795
72.940 16.667252
72.945 16.915937
72.950 16.740965
72.955 17.137506
72.960 16.227394
72.965 16.579401
72.970 16.527338
72.975 16.385004
72.980 16.374403
72.985 16.361488
72.990 17.076447
72.995 17.240704
73.000 16.906858
