!@!!GADDS PLOTSO FILE: Chi integration type
!@!!Title/SampleName: map-83
!@!!Comment: ?
!@!!User: Bruker Instrument Administrator
!@!!Site: University of Illinois Chicago
!@!!Frame: map-83_01_000.gfrm
!@!!Wavelengths    1.54184   1.54056   1.54439
!@!!Frame angles: 2Theta: 63.000 Omega: 50.000 Phi: 0.000 Chi: 90.000
!@!!Integration range: 2Theta: 53.000 to 73.000  Gamma: -105.000 to -75.000
!@!!Integration method: bin normalized
!@!N
!@!SS
!@!M
!@!L 0.0 0.0 0.0 0.0
!@!XDegrees
!@!YCounts
53.000 7.293145
53.005 7.246057
53.010 7.323301
53.015 7.414233
53.020 7.656074
53.025 7.92141
53.030 8.01289
53.035 8.553582
53.040 8.558702
53.045 8.521932
53.050 8.426534
53.055 8.279779
53.060 7.963471
53.065 7.531566
53.070 7.213773
53.075 7.052424
53.080 7.009356
53.085 7.114733
53.090 7.589431
53.095 8.235653
53.100 8.808576
53.105 8.883011
53.110 9.148755
53.115 9.239317
53.120 9.13968
53.125 8.828919
53.130 8.67016
53.135 8.74443
53.140 8.970094
53.145 8.944831
53.150 9.16536
53.155 9.122131
53.160 8.780361
53.165 8.563131
53.170 8.453252
53.175 8.367931
53.180 7.943632
53.185 7.620822
53.190 7.874092
53.195 8.046267
53.200 7.580224
53.205 7.492185
53.210 7.650134
53.215 7.90378
53.220 8.177324
53.225 8.20729
53.230 8.273058
53.235 8.518449
53.240 8.44352
53.245 8.853923
53.250 9.403662
53.255 9.30617
53.260 9.444486
53.265 9.836542
53.270 10.027916
53.275 10.029872
53.280 9.898997
53.285 9.829974
53.290 9.853938
53.295 9.592697
53.300 9.390355
53.305 9.373551
53.310 9.461051
53.315 8.860202
53.320 8.439505
53.325 8.340174
53.330 8.435896
53.335 8.376612
53.340 8.262532
53.345 8.298469
53.350 8.75168
53.355 8.984059
53.360 9.418308
53.365 9.58847
53.370 9.577548
53.375 9.787043
53.380 9.77949
53.385 9.019275
53.390 8.731386
53.395 8.530074
53.400 8.108395
53.405 7.758422
53.410 7.480343
53.415 7.607605
53.420 8.148535
53.425 8.161443
53.430 8.428736
53.435 8.665107
53.440 8.958466
53.445 8.498235
53.450 8.150809
53.455 8.394115
53.460 8.523051
53.465 8.328032
53.470 8.569395
53.475 9.254343
53.480 9.790355
53.485 10.137554
53.490 9.698795
53.495 9.364635
53.500 9.167746
53.505 8.887265
53.510 8.590899
53.515 8.668738
53.520 8.589982
53.525 8.917301
53.530 9.30854
53.535 9.282474
53.540 9.557995
53.545 9.325389
53.550 8.951805
53.555 9.205889
53.560 9.229774
53.565 9.208225
53.570 9.362906
53.575 9.204179
53.580 9.458107
53.585 9.709567
53.590 9.274881
53.595 9.271543
53.600 8.792441
53.605 8.590547
53.610 8.756849
53.615 8.706252
53.620 9.192875
53.625 9.526157
53.630 9.418336
53.635 10.19091
53.640 10.326275
53.645 10.177179
53.650 10.177674
53.655 9.99792
53.660 10.133359
53.665 10.696057
53.670 10.401524
53.675 10.069908
53.680 10.320226
53.685 10.258779
53.690 10.01633
53.695 9.702127
53.700 9.390842
53.705 9.474568
53.710 9.670464
53.715 9.579555
53.720 9.587813
53.725 9.759192
53.730 10.106493
53.735 10.437928
53.740 10.839264
53.745 10.989383
53.750 10.846547
53.755 10.884074
53.760 10.132329
53.765 9.760685
53.770 9.522058
53.775 9.503793
53.780 9.587975
53.785 9.662219
53.790 9.644027
53.795 10.032331
53.800 10.182138
53.805 10.296876
53.810 10.091025
53.815 10.01123
53.820 10.191677
53.825 10.259368
53.830 10.28528
53.835 10.109702
53.840 10.123822
53.845 10.048487
53.850 10.064573
53.855 9.834219
53.860 9.627227
53.865 9.188769
53.870 8.835138
53.875 8.603518
53.880 8.427662
53.885 8.534971
53.890 8.746325
53.895 9.027378
53.900 9.352228
53.905 9.336831
53.910 9.416853
53.915 9.489757
53.920 9.432725
53.925 9.342408
53.930 9.470137
53.935 10.138424
53.940 10.297092
53.945 10.446143
53.950 10.315247
53.955 9.945395
53.960 10.395531
53.965 10.51028
53.970 10.298635
53.975 9.715629
53.980 9.60174
53.985 9.994116
53.990 10.375049
53.995 10.279415
54.000 10.381693
54.005 10.218528
54.010 10.639774
54.015 10.572685
54.020 10.247964
54.025 10.209998
54.030 9.752668
54.035 9.734828
54.040 9.662016
54.045 9.784207
54.050 9.459873
54.055 9.396642
54.060 9.468669
54.065 9.396996
54.070 9.573806
54.075 9.721898
54.080 9.802
54.085 10.394671
54.090 10.166874
54.095 9.725739
54.100 9.710687
54.105 9.766922
54.110 9.59941
54.115 9.358202
54.120 9.243699
54.125 9.361462
54.130 9.662811
54.135 9.519147
54.140 9.424841
54.145 9.811624
54.150 10.120123
54.155 9.942896
54.160 9.714532
54.165 9.879922
54.170 9.946663
54.175 9.622017
54.180 9.08005
54.185 8.890861
54.190 9.075996
54.195 9.574447
54.200 9.803189
54.205 9.895082
54.210 10.337874
54.215 10.201855
54.220 10.403739
54.225 10.493351
54.230 10.20867
54.235 10.431942
54.240 10.354258
54.245 10.448609
54.250 10.57735
54.255 10.386412
54.260 10.643074
54.265 10.51586
54.270 9.947251
54.275 10.311441
54.280 10.331076
54.285 10.565198
54.290 10.81291
54.295 10.4218
54.300 10.743155
54.305 10.814787
54.310 10.760858
54.315 10.611443
54.320 10.538347
54.325 10.501978
54.330 10.615976
54.335 9.936539
54.340 9.714895
54.345 9.828815
54.350 10.047612
54.355 9.937929
54.360 9.851569
54.365 9.612524
54.370 9.579711
54.375 9.405867
54.380 9.271905
54.385 9.165019
54.390 8.800832
54.395 8.912554
54.400 9.436611
54.405 9.970606
54.410 10.316985
54.415 10.282803
54.420 10.590044
54.425 10.868144
54.430 11.105478
54.435 11.242394
54.440 11.256478
54.445 11.309537
54.450 11.673382
54.455 11.557495
54.460 11.637976
54.465 11.396003
54.470 11.019563
54.475 11.061392
54.480 10.626336
54.485 9.884617
54.490 9.623386
54.495 9.704605
54.500 9.604074
54.505 9.316305
54.510 9.410294
54.515 9.923434
54.520 10.477199
54.525 10.75145
54.530 10.526523
54.535 10.800987
54.540 10.852781
54.545 10.40099
54.550 10.187836
54.555 9.823899
54.560 9.501267
54.565 9.818482
54.570 9.926826
54.575 10.30564
54.580 10.445977
54.585 10.782988
54.590 10.652122
54.595 10.274303
54.600 9.827544
54.605 9.556696
54.610 9.403998
54.615 9.560252
54.620 9.7834
54.625 10.444621
54.630 10.987024
54.635 11.204573
54.640 11.134682
54.645 11.041229
54.650 10.881232
54.655 10.709805
54.660 10.306573
54.665 10.220378
54.670 10.036741
54.675 9.702862
54.680 9.595242
54.685 9.132197
54.690 9.03481
54.695 9.233335
54.700 9.224555
54.705 9.377278
54.710 9.813288
54.715 9.877882
54.720 10.475453
54.725 10.559465
54.730 10.419026
54.735 10.69818
54.740 10.880785
54.745 11.027106
54.750 10.973688
54.755 10.486721
54.760 10.084133
54.765 10.167924
54.770 10.236402
54.775 10.367355
54.780 10.452848
54.785 10.790036
54.790 11.202693
54.795 11.415387
54.800 11.478148
54.805 11.355165
54.810 11.007518
54.815 10.834029
54.820 10.421224
54.825 10.872882
54.830 10.541443
54.835 10.368094
54.840 10.294912
54.845 10.453389
54.850 10.969647
54.855 10.793418
54.860 10.502897
54.865 10.546062
54.870 10.812356
54.875 10.861629
54.880 10.632661
54.885 10.35856
54.890 10.909149
54.895 11.394519
54.900 11.807897
54.905 11.411683
54.910 11.357
54.915 11.792419
54.920 11.676583
54.925 11.73958
54.930 11.736704
54.935 11.827584
54.940 12.083442
54.945 12.002918
54.950 11.594369
54.955 11.146409
54.960 10.932364
54.965 10.552522
54.970 10.369898
54.975 10.495467
54.980 10.763759
54.985 11.542561
54.990 12.050025
54.995 11.848425
55.000 11.744942
55.005 12.225809
55.010 12.15604
55.015 11.747299
55.020 11.474444
55.025 11.39339
55.030 11.521822
55.035 11.138281
55.040 10.885716
55.045 11.122351
55.050 10.951021
55.055 11.033183
55.060 10.628467
55.065 10.761448
55.070 10.973986
55.075 10.653382
55.080 10.56741
55.085 10.816952
55.090 10.622419
55.095 10.725189
55.100 10.817206
55.105 10.809107
55.110 10.891521
55.115 10.953585
55.120 10.813694
55.125 10.677998
55.130 10.53371
55.135 10.721539
55.140 10.958566
55.145 11.417521
55.150 11.010241
55.155 11.178342
55.160 11.432773
55.165 11.362745
55.170 11.437613
55.175 11.05726
55.180 10.812499
55.185 11.063459
55.190 10.746971
55.195 10.435989
55.200 10.833293
55.205 10.950577
55.210 11.081162
55.215 11.471486
55.220 11.634142
55.225 11.879505
55.230 11.690433
55.235 11.5029
55.240 11.208405
55.245 10.923394
55.250 10.524872
55.255 10.784923
55.260 11.453083
55.265 11.880541
55.270 11.806613
55.275 11.533046
55.280 11.162436
55.285 11.249601
55.290 11.055376
55.295 10.698519
55.300 10.21652
55.305 10.151428
55.310 10.780669
55.315 11.327561
55.320 11.49029
55.325 12.107919
55.330 12.248857
55.335 12.516981
55.340 12.230297
55.345 12.153164
55.350 11.867364
55.355 11.477241
55.360 10.808864
55.365 10.398825
55.370 10.538338
55.375 10.642548
55.380 10.391708
55.385 10.897796
55.390 10.765903
55.395 11.295466
55.400 11.987706
55.405 11.646681
55.410 11.66117
55.415 11.209667
55.420 10.471746
55.425 10.239915
55.430 9.485191
55.435 9.224838
55.440 9.769575
55.445 10.239904
55.450 10.683816
55.455 11.212545
55.460 11.686919
55.465 11.623815
55.470 11.51101
55.475 11.406801
55.480 11.331532
55.485 11.597583
55.490 11.366143
55.495 11.708014
55.500 11.777719
55.505 11.720731
55.510 11.627259
55.515 11.451715
55.520 11.255994
55.525 11.370339
55.530 10.981791
55.535 11.186143
55.540 11.459265
55.545 11.683015
55.550 11.596047
55.555 11.926173
55.560 11.875051
55.565 11.914941
55.570 11.79051
55.575 11.275108
55.580 11.145199
55.585 10.703357
55.590 10.324271
55.595 10.327872
55.600 10.264133
55.605 10.361208
55.610 10.628138
55.615 10.789097
55.620 11.038638
55.625 10.90427
55.630 10.649409
55.635 10.85811
55.640 10.924498
55.645 10.924508
55.650 11.035394
55.655 11.168983
55.660 11.221879
55.665 10.923201
55.670 10.621291
55.675 10.633065
55.680 10.486524
55.685 10.692018
55.690 10.674983
55.695 10.654809
55.700 10.503375
55.705 10.575006
55.710 10.42844
55.715 10.409653
55.720 10.195206
55.725 10.199735
55.730 10.403443
55.735 10.768816
55.740 10.908551
55.745 11.162639
55.750 11.25557
55.755 11.483649
55.760 11.620122
55.765 11.64396
55.770 11.876003
55.775 11.75935
55.780 11.38493
55.785 10.988967
55.790 11.222021
55.795 11.156535
55.800 11.197083
55.805 11.03878
55.810 10.993724
55.815 11.300868
55.820 11.729736
55.825 11.565301
55.830 11.436772
55.835 11.481652
55.840 11.342728
55.845 11.603415
55.850 11.526562
55.855 11.625862
55.860 11.46599
55.865 11.626007
55.870 11.744906
55.875 11.917893
55.880 11.933885
55.885 11.628308
55.890 11.817472
55.895 11.908809
55.900 11.577731
55.905 11.611298
55.910 12.041873
55.915 11.90738
55.920 11.82095
55.925 11.590363
55.930 12.08663
55.935 12.132647
55.940 12.723859
55.945 13.610471
55.950 14.022029
55.955 14.209621
55.960 14.247236
55.965 13.969373
55.970 14.022447
55.975 13.220842
55.980 11.954422
55.985 11.94478
55.990 11.650549
55.995 11.394506
56.000 11.505458
56.005 11.606713
56.010 11.580389
56.015 11.825066
56.020 11.632919
56.025 11.418871
56.030 11.435886
56.035 10.999788
56.040 11.010045
56.045 11.12095
56.050 11.155523
56.055 11.38471
56.060 11.787586
56.065 11.9131
56.070 12.370808
56.075 12.233211
56.080 12.725148
56.085 12.576732
56.090 12.547456
56.095 12.247101
56.100 11.9176
56.105 11.81259
56.110 11.412267
56.115 10.982326
56.120 11.158046
56.125 10.845531
56.130 11.179656
56.135 11.098197
56.140 10.996913
56.145 11.459573
56.150 11.586428
56.155 11.574562
56.160 11.431993
56.165 11.70985
56.170 12.229533
56.175 12.579176
56.180 12.25281
56.185 11.619999
56.190 11.589319
56.195 11.853776
56.200 11.689323
56.205 11.551241
56.210 11.824938
56.215 12.082182
56.220 12.264221
56.225 12.438383
56.230 12.31697
56.235 12.115322
56.240 12.228865
56.245 12.359606
56.250 12.286719
56.255 12.500184
56.260 12.507792
56.265 12.724401
56.270 12.61974
56.275 12.420312
56.280 12.249853
56.285 12.215066
56.290 12.400476
56.295 12.664318
56.300 12.83961
56.305 12.88368
56.310 12.824289
56.315 12.657135
56.320 12.377528
56.325 12.103174
56.330 11.972568
56.335 11.894483
56.340 11.755857
56.345 11.678095
56.350 11.785634
56.355 11.89106
56.360 12.076376
56.365 11.901725
56.370 11.905043
56.375 11.918781
56.380 12.071514
56.385 12.322608
56.390 12.335199
56.395 12.113809
56.400 12.034281
56.405 12.277184
56.410 11.896694
56.415 11.760542
56.420 11.697889
56.425 11.531906
56.430 11.610691
56.435 11.62019
56.440 11.883243
56.445 12.212546
56.450 12.269846
56.455 12.173895
56.460 12.464284
56.465 12.760377
56.470 12.593448
56.475 12.452172
56.480 12.587403
56.485 12.895657
56.490 13.562719
56.495 14.123034
56.500 13.90717
56.505 13.750199
56.510 13.861529
56.515 13.795803
56.520 13.632791
56.525 13.134634
56.530 13.29355
56.535 13.443589
56.540 13.665886
56.545 13.508846
56.550 13.762575
56.555 13.24831
56.560 12.823867
56.565 11.699136
56.570 11.090098
56.575 10.428059
56.580 9.80292
56.585 9.501424
56.590 10.297021
56.595 11.045593
56.600 11.429408
56.605 12.105021
56.610 12.204615
56.615 12.32743
56.620 12.194328
56.625 11.481529
56.630 11.516124
56.635 11.641784
56.640 11.940302
56.645 12.598946
56.650 12.878425
56.655 13.370592
56.660 13.333748
56.665 12.851632
56.670 12.477535
56.675 11.997299
56.680 11.728124
56.685 11.502342
56.690 11.177835
56.695 11.107237
56.700 11.468376
56.705 12.403408
56.710 12.714914
56.715 12.941342
56.720 13.341495
56.725 13.528493
56.730 14.380449
56.735 14.619266
56.740 14.228433
56.745 14.681608
56.750 14.614191
56.755 14.184228
56.760 14.506806
56.765 13.754549
56.770 13.107698
56.775 12.358188
56.780 11.498933
56.785 11.4509
56.790 11.398981
56.795 11.177627
56.800 11.322044
56.805 11.627772
56.810 12.44454
56.815 12.658393
56.820 13.176354
56.825 13.492243
56.830 13.353731
56.835 13.085917
56.840 12.962211
56.845 12.480074
56.850 12.463917
56.855 11.502663
56.860 11.477638
56.865 11.695144
56.870 11.89456
56.875 11.870938
56.880 12.642777
56.885 13.21075
56.890 13.69276
56.895 13.516388
56.900 13.406329
56.905 13.703182
56.910 13.884547
56.915 13.295329
56.920 13.049377
56.925 13.002263
56.930 13.157172
56.935 13.213336
56.940 12.905505
56.945 13.367491
56.950 13.32618
56.955 13.120538
56.960 12.918529
56.965 12.767449
56.970 13.098523
56.975 12.972073
56.980 12.442495
56.985 12.782147
56.990 13.269898
56.995 13.9464
57.000 14.27195
57.005 13.958651
57.010 14.281542
57.015 14.421359
57.020 14.290346
57.025 13.968534
57.030 13.290392
57.035 13.192554
57.040 13.707057
57.045 13.695775
57.050 13.644568
57.055 13.815359
57.060 13.857047
57.065 14.054353
57.070 13.779099
57.075 13.913127
57.080 13.920364
57.085 13.386785
57.090 13.093116
57.095 13.113642
57.100 12.917723
57.105 13.114744
57.110 12.819546
57.115 12.957792
57.120 13.099652
57.125 13.261086
57.130 13.160072
57.135 13.505602
57.140 13.268153
57.145 13.013486
57.150 12.724906
57.155 12.726257
57.160 12.264814
57.165 12.450726
57.170 12.52389
57.175 12.416575
57.180 12.925683
57.185 13.383916
57.190 13.663787
57.195 14.171246
57.200 14.591232
57.205 14.608014
57.210 14.398267
57.215 13.656863
57.220 13.420192
57.225 13.617764
57.230 13.492386
57.235 12.945367
57.240 12.594823
57.245 12.59743
57.250 12.686306
57.255 12.397152
57.260 12.309204
57.265 12.189135
57.270 12.398386
57.275 12.818233
57.280 13.54049
57.285 13.752317
57.290 13.5225
57.295 12.75596
57.300 12.424382
57.305 12.302943
57.310 12.052113
57.315 12.087034
57.320 12.46546
57.325 12.382793
57.330 12.949045
57.335 13.016347
57.340 12.666986
57.345 12.413789
57.350 12.012138
57.355 11.519257
57.360 11.901388
57.365 11.84857
57.370 12.294375
57.375 12.397903
57.380 12.507886
57.385 12.744156
57.390 12.898821
57.395 13.246616
57.400 13.329717
57.405 13.382933
57.410 13.944568
57.415 13.888255
57.420 14.395298
57.425 14.428268
57.430 14.111865
57.435 14.412232
57.440 14.634538
57.445 14.271837
57.450 14.161098
57.455 13.787116
57.460 14.734968
57.465 15.006797
57.470 14.684196
57.475 14.368504
57.480 14.533623
57.485 14.795035
57.490 14.785304
57.495 14.305912
57.500 14.229221
57.505 14.298222
57.510 14.372386
57.515 14.120553
57.520 14.440223
57.525 14.277915
57.530 13.685657
57.535 13.499476
57.540 13.235945
57.545 13.392656
57.550 13.873675
57.555 13.679223
57.560 13.625888
57.565 13.70102
57.570 13.548528
57.575 13.823304
57.580 13.732654
57.585 13.580375
57.590 13.838815
57.595 14.067492
57.600 14.592726
57.605 14.971286
57.610 15.214743
57.615 15.027555
57.620 14.568056
57.625 14.406894
57.630 14.047566
57.635 13.160803
57.640 12.820441
57.645 12.574055
57.650 12.614929
57.655 12.185802
57.660 11.981741
57.665 12.686461
57.670 13.486683
57.675 13.555167
57.680 13.629796
57.685 13.596682
57.690 14.151735
57.695 14.200432
57.700 13.78273
57.705 13.373857
57.710 13.129978
57.715 13.705289
57.720 14.16353
57.725 14.455419
57.730 14.733705
57.735 14.265075
57.740 14.56576
57.745 15.133461
57.750 14.836439
57.755 14.92626
57.760 14.670621
57.765 14.082857
57.770 14.53282
57.775 14.39001
57.780 13.973619
57.785 14.187584
57.790 13.85348
57.795 13.634214
57.800 13.439841
57.805 13.052251
57.810 13.367786
57.815 13.225897
57.820 12.51641
57.825 12.403671
57.830 12.655257
57.835 12.976114
57.840 13.456214
57.845 12.949578
57.850 12.976288
57.855 12.871513
57.860 13.110268
57.865 13.349017
57.870 13.544792
57.875 13.695252
57.880 14.257127
57.885 14.60625
57.890 14.399142
57.895 13.828489
57.900 13.861964
57.905 13.314786
57.910 12.583303
57.915 11.972862
57.920 11.731535
57.925 12.030967
57.930 12.302774
57.935 12.12662
57.940 12.522488
57.945 13.075474
57.950 13.431486
57.955 13.404131
57.960 13.686112
57.965 13.713841
57.970 13.767514
57.975 14.237278
57.980 14.574943
57.985 14.511744
57.990 14.847296
57.995 14.960896
58.000 15.2472
58.005 14.942113
58.010 14.491735
58.015 14.400432
58.020 14.11164
58.025 14.192214
58.030 14.331451
58.035 14.309097
58.040 14.30161
58.045 13.949236
58.050 13.851454
58.055 14.01576
58.060 14.007963
58.065 13.704399
58.070 14.071992
58.075 14.807704
58.080 15.122172
58.085 15.029292
58.090 15.111312
58.095 14.687513
58.100 14.578547
58.105 13.982675
58.110 13.520148
58.115 13.456232
58.120 13.561384
58.125 13.994609
58.130 14.546178
58.135 14.457706
58.140 14.378889
58.145 14.832604
58.150 14.668327
58.155 14.097179
58.160 13.410249
58.165 13.635962
58.170 14.280708
58.175 14.743473
58.180 14.51671
58.185 14.217844
58.190 14.853095
58.195 14.93403
58.200 14.650443
58.205 13.928195
58.210 13.266836
58.215 13.027756
58.220 13.048243
58.225 12.503566
58.230 12.666057
58.235 13.084515
58.240 13.704045
58.245 13.562984
58.250 14.167662
58.255 14.639905
58.260 15.249102
58.265 14.871626
58.270 14.003544
58.275 13.790211
58.280 14.188936
58.285 13.907049
58.290 13.772877
58.295 13.748887
58.300 13.715761
58.305 13.928857
58.310 14.109554
58.315 14.17342
58.320 14.067774
58.325 13.595993
58.330 13.470592
58.335 14.078629
58.340 13.981287
58.345 13.747393
58.350 13.969823
58.355 14.407884
58.360 14.453115
58.365 14.261662
58.370 14.16358
58.375 14.358136
58.380 14.505017
58.385 14.122747
58.390 14.348048
58.395 15.163452
58.400 15.420166
58.405 15.503695
58.410 15.412263
58.415 15.248196
58.420 15.289831
58.425 14.831386
58.430 14.309034
58.435 14.013175
58.440 13.83601
58.445 13.82975
58.450 13.656427
58.455 13.278055
58.460 13.575939
58.465 13.93537
58.470 14.248831
58.475 14.51502
58.480 14.898581
58.485 14.841514
58.490 15.280129
58.495 15.274714
58.500 14.857512
58.505 14.525968
58.510 14.102691
58.515 13.645784
58.520 13.83942
58.525 13.805457
58.530 13.542148
58.535 13.48344
58.540 13.65653
58.545 13.852705
58.550 13.936207
58.555 13.441536
58.560 13.137081
58.565 13.277016
58.570 13.571819
58.575 13.626775
58.580 13.7377
58.585 14.036915
58.590 14.559194
58.595 15.186121
58.600 15.226311
58.605 15.257123
58.610 15.109666
58.615 15.207903
58.620 15.685496
58.625 15.936081
58.630 15.629664
58.635 15.443335
58.640 15.521399
58.645 15.520268
58.650 15.293884
58.655 15.095736
58.660 15.633206
58.665 15.917723
58.670 16.723574
58.675 17.054506
58.680 17.09717
58.685 17.155626
58.690 16.629568
58.695 16.058504
58.700 16.039663
58.705 15.598543
58.710 15.419215
58.715 15.367324
58.720 15.597705
58.725 15.731081
58.730 15.699721
58.735 15.279084
58.740 15.265564
58.745 14.966399
58.750 15.037245
58.755 14.995394
58.760 15.263605
58.765 15.794304
58.770 16.040907
58.775 16.079899
58.780 16.260904
58.785 15.989416
58.790 15.789121
58.795 15.690846
58.800 15.219318
58.805 14.906722
58.810 14.67835
58.815 14.19635
58.820 14.549711
58.825 14.675236
58.830 14.620825
58.835 15.184475
58.840 15.62882
58.845 15.661356
58.850 15.702472
58.855 15.662514
58.860 15.680798
58.865 15.279588
58.870 14.803801
58.875 14.573059
58.880 14.644612
58.885 14.441181
58.890 14.58469
58.895 14.614237
58.900 14.640057
58.905 14.147426
58.910 14.466325
58.915 14.962499
58.920 15.257621
58.925 15.153728
58.930 15.201442
58.935 15.256888
58.940 15.716045
58.945 15.937262
58.950 16.117247
58.955 16.179087
58.960 15.86319
58.965 15.363239
58.970 15.413454
58.975 15.409153
58.980 14.774475
58.985 14.327946
58.990 13.934171
58.995 14.464693
59.000 14.438426
59.005 13.832976
59.010 13.367022
59.015 13.375085
59.020 13.286967
59.025 13.668118
59.030 13.614511
59.035 14.609446
59.040 15.523818
59.045 15.951369
59.050 16.116173
59.055 16.304348
59.060 16.269035
59.065 16.148964
59.070 15.767927
59.075 15.805327
59.080 16.145096
59.085 16.138454
59.090 15.868044
59.095 16.11006
59.100 16.36731
59.105 16.914732
59.110 16.686907
59.115 16.90151
59.120 16.809422
59.125 16.622196
59.130 16.458082
59.135 16.268766
59.140 16.212523
59.145 15.951401
59.150 15.473275
59.155 16.101484
59.160 16.912844
59.165 17.279814
59.170 17.616186
59.175 18.04871
59.180 17.785938
59.185 17.538555
59.190 16.763601
59.195 16.341887
59.200 15.800966
59.205 14.719761
59.210 13.961614
59.215 14.674422
59.220 14.701278
59.225 14.86695
59.230 14.777294
59.235 15.28967
59.240 15.812808
59.245 16.056814
59.250 15.607409
59.255 15.392735
59.260 15.585135
59.265 16.135511
59.270 16.241501
59.275 16.543154
59.280 16.750984
59.285 16.978201
59.290 17.449726
59.295 17.216936
59.300 16.271719
59.305 15.882774
59.310 15.679527
59.315 15.254412
59.320 15.489592
59.325 15.740022
59.330 15.806135
59.335 16.051229
59.340 15.997779
59.345 15.641389
59.350 15.278775
59.355 14.881232
59.360 14.836352
59.365 15.024242
59.370 15.209837
59.375 15.431325
59.380 16.13142
59.385 16.856403
59.390 17.299946
59.395 17.412811
59.400 17.442146
59.405 17.370277
59.410 17.459393
59.415 17.66457
59.420 17.774227
59.425 17.616005
59.430 17.588335
59.435 17.585045
59.440 18.114529
59.445 17.768946
59.450 17.524576
59.455 17.781855
59.460 18.09656
59.465 18.27006
59.470 18.641933
59.475 18.136471
59.480 18.342295
59.485 18.092606
59.490 17.978827
59.495 17.819483
59.500 17.91367
59.505 17.373432
59.510 17.526033
59.515 17.920012
59.520 17.892059
59.525 17.39189
59.530 16.816093
59.535 16.747009
59.540 17.04446
59.545 17.395939
59.550 17.516628
59.555 17.574884
59.560 18.051376
59.565 18.530457
59.570 18.635447
59.575 18.667179
59.580 18.207129
59.585 17.816736
59.590 18.016298
59.595 18.306854
59.600 18.24601
59.605 18.566589
59.610 19.272312
59.615 19.270651
59.620 19.061392
59.625 18.703018
59.630 19.025612
59.635 19.156279
59.640 18.804796
59.645 18.187428
59.650 18.500843
59.655 18.707104
59.660 18.955872
59.665 18.892399
59.670 18.756132
59.675 18.277908
59.680 18.303301
59.685 18.280951
59.690 18.744608
59.695 19.116362
59.700 19.43841
59.705 19.863199
59.710 20.413481
59.715 20.693106
59.720 20.579115
59.725 19.977589
59.730 20.361443
59.735 19.908995
59.740 20.178596
59.745 19.677744
59.750 19.798115
59.755 20.20565
59.760 20.384329
59.765 19.894423
59.770 19.742218
59.775 19.070854
59.780 19.607939
59.785 19.566124
59.790 19.674177
59.795 19.631853
59.800 19.230135
59.805 19.461098
59.810 20.426277
59.815 20.778904
59.820 20.963659
59.825 21.139631
59.830 21.48996
59.835 21.9268
59.840 21.943493
59.845 21.946314
59.850 22.171875
59.855 21.758297
59.860 21.856878
59.865 22.011204
59.870 22.160957
59.875 21.87672
59.880 21.330795
59.885 20.983877
59.890 21.586407
59.895 21.193405
59.900 20.835527
59.905 21.238417
59.910 21.280449
59.915 20.856005
59.920 20.530363
59.925 20.479725
59.930 20.706633
59.935 21.008404
59.940 20.874874
59.945 21.327578
59.950 21.757107
59.955 22.365723
59.960 22.307953
59.965 22.352201
59.970 22.124788
59.975 22.548553
59.980 23.012554
59.985 23.584925
59.990 23.034107
59.995 23.008801
60.000 23.324629
60.005 23.561762
60.010 22.953014
60.015 22.269419
60.020 21.651154
60.025 21.860476
60.030 21.141102
60.035 20.734324
60.040 20.521259
60.045 20.905342
60.050 21.149221
60.055 21.529303
60.060 21.379787
60.065 21.99016
60.070 22.483839
60.075 22.143805
60.080 22.317858
60.085 22.521383
60.090 21.772753
60.095 21.872519
60.100 21.637821
60.105 21.863976
60.110 22.524675
60.115 22.252869
60.120 22.21003
60.125 22.960066
60.130 23.229347
60.135 22.418497
60.140 22.123112
60.145 21.999062
60.150 22.230562
60.155 22.550699
60.160 22.015707
60.165 22.346539
60.170 22.717474
60.175 22.361681
60.180 21.863028
60.185 21.616604
60.190 21.886913
60.195 22.451349
60.200 22.331381
60.205 22.307066
60.210 22.328184
60.215 22.357189
60.220 21.612606
60.225 20.983801
60.230 21.367191
60.235 21.284958
60.240 21.697943
60.245 21.904049
60.250 21.96731
60.255 22.225412
60.260 21.859404
60.265 21.642841
60.270 21.509493
60.275 20.975292
60.280 20.569956
60.285 20.706924
60.290 21.060886
60.295 21.426479
60.300 21.378519
60.305 21.774582
60.310 21.86236
60.315 21.753859
60.320 21.854429
60.325 22.442135
60.330 22.61738
60.335 22.673792
60.340 22.204662
60.345 22.25457
60.350 22.577696
60.355 22.762911
60.360 22.427376
60.365 21.486378
60.370 20.929621
60.375 21.402885
60.380 21.607668
60.385 21.614183
60.390 21.282135
60.395 21.332735
60.400 21.502539
60.405 21.346874
60.410 20.630449
60.415 20.26701
60.420 19.968252
60.425 19.421726
60.430 18.502937
60.435 18.159708
60.440 18.057364
60.445 18.379707
60.450 18.01219
60.455 17.692177
60.460 17.527618
60.465 17.623775
60.470 18.824749
60.475 19.094604
60.480 19.365162
60.485 19.911604
60.490 20.462894
60.495 20.79822
60.500 20.943491
60.505 20.168026
60.510 20.327644
60.515 19.931738
60.520 19.674009
60.525 19.289333
60.530 19.409513
60.535 18.86512
60.540 19.122879
60.545 19.039116
60.550 18.720741
60.555 19.325617
60.560 19.452242
60.565 19.190569
60.570 19.212542
60.575 18.819466
60.580 18.7771
60.585 18.690758
60.590 17.836348
60.595 17.919165
60.600 18.148727
60.605 18.680265
60.610 18.824638
60.615 18.544699
60.620 18.698296
60.625 18.932392
60.630 18.670153
60.635 18.798763
60.640 18.618835
60.645 18.952745
60.650 19.256363
60.655 19.515495
60.660 19.635048
60.665 19.799809
60.670 19.493063
60.675 18.753473
60.680 18.880165
60.685 18.67992
60.690 18.252783
60.695 18.491421
60.700 18.181
60.705 18.812206
60.710 19.03088
60.715 17.898108
60.720 18.27762
60.725 18.36425
60.730 18.312931
60.735 18.070347
60.740 18.215393
60.745 18.164591
60.750 18.607924
60.755 19.019199
60.760 19.257622
60.765 19.127815
60.770 19.045256
60.775 18.573793
60.780 18.330782
60.785 18.624439
60.790 18.13245
60.795 17.690252
60.800 17.250341
60.805 17.047359
60.810 16.943405
60.815 17.389505
60.820 16.915751
60.825 16.783957
60.830 17.057846
60.835 17.848572
60.840 17.762957
60.845 17.919916
60.850 17.977596
60.855 18.170544
60.860 18.220516
60.865 18.407597
60.870 18.010344
60.875 18.328865
60.880 18.637711
60.885 18.107006
60.890 17.615948
60.895 17.546007
60.900 17.089516
60.905 17.150457
60.910 17.021399
60.915 16.594093
60.920 16.901556
60.925 17.254633
60.930 16.777245
60.935 16.761179
60.940 16.637436
60.945 15.939206
60.950 16.14381
60.955 15.796485
60.960 15.319825
60.965 15.448983
60.970 15.569003
60.975 15.566383
60.980 16.063427
60.985 15.462186
60.990 15.170287
60.995 15.617343
61.000 16.631708
61.005 16.403915
61.010 16.372252
61.015 16.392645
61.020 16.701746
61.025 17.035294
61.030 16.645588
61.035 15.528353
61.040 15.960267
61.045 15.492329
61.050 15.292335
61.055 14.994203
61.060 15.231696
61.065 15.580708
61.070 16.164616
61.075 16.193834
61.080 16.750589
61.085 17.426121
61.090 18.021429
61.095 17.914259
61.100 17.45908
61.105 16.968988
61.110 16.619112
61.115 16.291082
61.120 15.732534
61.125 15.2328
61.130 15.196762
61.135 15.589803
61.140 15.58775
61.145 16.147144
61.150 16.348083
61.155 16.301455
61.160 16.570059
61.165 17.088001
61.170 17.164394
61.175 17.190214
61.180 16.690859
61.185 16.369045
61.190 16.386278
61.195 16.295107
61.200 16.320749
61.205 15.997094
61.210 16.70503
61.215 17.293303
61.220 18.065792
61.225 18.51499
61.230 18.812143
61.235 18.227385
61.240 18.331099
61.245 17.368061
61.250 17.317234
61.255 17.100019
61.260 17.3664
61.265 17.427837
61.270 17.728125
61.275 17.432177
61.280 17.365206
61.285 17.246691
61.290 17.256887
61.295 16.495527
61.300 15.686843
61.305 15.594321
61.310 15.610862
61.315 15.681914
61.320 15.236619
61.325 14.981171
61.330 15.615298
61.335 16.048906
61.340 15.397831
61.345 15.356006
61.350 15.518999
61.355 16.041975
61.360 16.713404
61.365 16.618605
61.370 16.409746
61.375 17.107559
61.380 17.399948
61.385 17.463182
61.390 17.340334
61.395 16.545923
61.400 16.460213
61.405 16.341028
61.410 16.004076
61.415 15.832772
61.420 15.716549
61.425 15.891195
61.430 16.015909
61.435 15.643368
61.440 15.743037
61.445 16.018591
61.450 16.222771
61.455 16.082346
61.460 15.421313
61.465 15.140122
61.470 15.413031
61.475 15.646732
61.480 15.76044
61.485 15.719653
61.490 16.037334
61.495 16.257107
61.500 16.619696
61.505 16.665743
61.510 16.607208
61.515 16.161798
61.520 15.742545
61.525 15.363343
61.530 15.313643
61.535 15.471004
61.540 14.741068
61.545 15.374152
61.550 16.083076
61.555 16.565464
61.560 16.580776
61.565 16.530844
61.570 16.374136
61.575 16.784458
61.580 15.635931
61.585 15.534669
61.590 15.264921
61.595 15.710985
61.600 16.036366
61.605 16.295099
61.610 16.071304
61.615 16.626072
61.620 16.527584
61.625 17.135977
61.630 16.703382
61.635 16.502089
61.640 16.161995
61.645 16.441771
61.650 16.302303
61.655 15.418261
61.660 14.847108
61.665 15.208052
61.670 15.427054
61.675 15.51831
61.680 15.067358
61.685 14.80632
61.690 15.537127
61.695 15.833724
61.700 15.638479
61.705 15.64543
61.710 16.16081
61.715 16.9226
61.720 17.364527
61.725 17.015423
61.730 16.719488
61.735 16.49856
61.740 15.796298
61.745 15.402687
61.750 15.176835
61.755 15.38491
61.760 15.377748
61.765 15.648028
61.770 16.214064
61.775 16.635942
61.780 16.586002
61.785 16.867634
61.790 17.034243
61.795 17.46245
61.800 17.278633
61.805 16.899971
61.810 16.866852
61.815 16.647104
61.820 16.569353
61.825 16.162552
61.830 15.837869
61.835 15.707221
61.840 15.760084
61.845 15.904584
61.850 16.113625
61.855 16.452957
61.860 16.799892
61.865 17.246056
61.870 17.717815
61.875 18.335369
61.880 18.870775
61.885 18.98241
61.890 18.783587
61.895 18.983303
61.900 18.933502
61.905 18.726885
61.910 18.273483
61.915 17.900665
61.920 17.841059
61.925 16.892033
61.930 16.334703
61.935 16.348
61.940 16.435211
61.945 16.301867
61.950 15.795161
61.955 15.569302
61.960 16.004829
61.965 16.013659
61.970 15.99333
61.975 15.661775
61.980 15.456608
61.985 15.66281
61.990 15.630309
61.995 15.520495
62.000 15.384389
62.005 15.099379
62.010 15.490425
62.015 15.694906
62.020 16.002193
62.025 15.823951
62.030 15.533923
62.035 15.986535
62.040 16.4944
62.045 16.217266
62.050 16.100384
62.055 15.95042
62.060 16.360994
62.065 16.83021
62.070 16.995371
62.075 17.050653
62.080 17.136208
62.085 17.23922
62.090 17.150032
62.095 17.071957
62.100 16.574989
62.105 16.16394
62.110 15.943786
62.115 16.463072
62.120 17.162872
62.125 17.452679
62.130 17.893482
62.135 18.650276
62.140 18.965778
62.145 18.667091
62.150 18.28153
62.155 18.001162
62.160 17.841652
62.165 17.337862
62.170 17.612385
62.175 17.959305
62.180 18.152733
62.185 18.121593
62.190 17.621071
62.195 17.590832
62.200 17.775988
62.205 16.908195
62.210 15.840192
62.215 15.493537
62.220 15.344584
62.225 15.279771
62.230 15.197121
62.235 15.549553
62.240 16.5098
62.245 17.3353
62.250 17.518658
62.255 17.386341
62.260 17.481436
62.265 17.36727
62.270 16.937645
62.275 16.046343
62.280 15.16655
62.285 15.355292
62.290 15.348167
62.295 15.599405
62.300 15.670019
62.305 15.514905
62.310 15.274613
62.315 15.636404
62.320 15.194863
62.325 14.856713
62.330 14.262032
62.335 14.434579
62.340 14.642578
62.345 14.675708
62.350 14.859159
62.355 14.95487
62.360 15.759428
62.365 16.103819
62.370 15.281405
62.375 15.206826
62.380 15.193806
62.385 14.791711
62.390 14.697413
62.395 14.257207
62.400 13.937344
62.405 14.848485
62.410 15.006526
62.415 15.039798
62.420 15.180032
62.425 15.352044
62.430 15.612438
62.435 15.734769
62.440 15.533167
62.445 15.833903
62.450 16.360384
62.455 16.897106
62.460 17.481947
62.465 17.885063
62.470 18.749102
62.475 18.80295
62.480 18.410231
62.485 18.148338
62.490 17.765017
62.495 17.571499
62.500 17.71467
62.505 17.89636
62.510 18.162006
62.515 18.889862
62.520 19.185822
62.525 19.028622
62.530 18.488026
62.535 18.033249
62.540 16.876217
62.545 16.398106
62.550 15.813454
62.555 15.389033
62.560 15.595923
62.565 15.476653
62.570 15.30781
62.575 15.444634
62.580 15.492815
62.585 15.30313
62.590 15.602037
62.595 15.952581
62.600 16.357405
62.605 16.349279
62.610 16.606239
62.615 16.697947
62.620 17.298294
62.625 17.711903
62.630 17.524097
62.635 17.666283
62.640 17.822386
62.645 17.612358
62.650 17.556242
62.655 17.247074
62.660 16.924562
62.665 16.903997
62.670 16.236452
62.675 15.832015
62.680 15.811239
62.685 15.995545
62.690 16.037445
62.695 15.700002
62.700 15.837045
62.705 16.726259
62.710 17.154911
62.715 17.320738
62.720 17.820194
62.725 18.052931
62.730 18.410721
62.735 18.185261
62.740 17.977034
62.745 18.757814
62.750 18.793139
62.755 18.567942
62.760 17.789997
62.765 17.738897
62.770 17.925768
62.775 17.459183
62.780 17.79682
62.785 17.328323
62.790 16.614296
62.795 16.945974
62.800 16.620697
62.805 17.119137
62.810 17.204391
62.815 16.37109
62.820 16.425453
62.825 17.297163
62.830 17.687239
62.835 18.071127
62.840 17.926634
62.845 18.432913
62.850 18.420803
62.855 18.036901
62.860 17.616917
62.865 17.063698
62.870 16.266991
62.875 16.014336
62.880 15.739326
62.885 15.713125
62.890 16.317135
62.895 16.006702
62.900 16.401155
62.905 16.92244
62.910 16.60247
62.915 16.255442
62.920 16.333632
62.925 16.7024
62.930 16.834446
62.935 16.265419
62.940 16.256828
62.945 16.105663
62.950 16.326685
62.955 16.25318
62.960 15.925207
62.965 16.123976
62.970 16.599585
62.975 16.697186
62.980 17.074183
62.985 16.679314
62.990 16.734522
62.995 16.983454
63.000 17.030939
63.005 16.794529
63.010 16.398838
63.015 16.656231
63.020 17.094505
63.025 17.042757
63.030 16.881649
63.035 16.964756
63.040 16.769777
63.045 16.770977
63.050 16.316374
63.055 15.987087
63.060 15.800666
63.065 16.083618
63.070 16.264809
63.075 16.819485
63.080 17.324507
63.085 17.502636
63.090 17.768427
63.095 18.051577
63.100 17.835169
63.105 17.86274
63.110 18.068424
63.115 17.755398
63.120 17.881828
63.125 18.248329
63.130 18.481768
63.135 18.450768
63.140 18.426878
63.145 17.721363
63.150 17.835775
63.155 17.814352
63.160 17.594118
63.165 17.223623
63.170 17.430962
63.175 17.421705
63.180 17.618792
63.185 17.380182
63.190 16.572227
63.195 16.24909
63.200 16.425856
63.205 16.199087
63.210 16.287117
63.215 16.768871
63.220 17.181356
63.225 18.203863
63.230 18.627899
63.235 18.793316
63.240 18.694962
63.245 18.381197
63.250 17.901489
63.255 17.918451
63.260 17.482691
63.265 17.171236
63.270 16.716299
63.275 16.793427
63.280 17.071218
63.285 17.867933
63.290 17.910683
63.295 17.845495
63.300 18.067299
63.305 18.275173
63.310 18.409521
63.315 18.25865
63.320 17.30649
63.325 16.919226
63.330 17.245356
63.335 17.349424
63.340 17.263878
63.345 17.162405
63.350 17.462881
63.355 17.819275
63.360 18.247231
63.365 18.514919
63.370 18.618109
63.375 18.687504
63.380 19.000479
63.385 18.529036
63.390 18.767359
63.395 18.535109
63.400 17.949726
63.405 17.962381
63.410 17.720263
63.415 17.337603
63.420 17.630825
63.425 17.509655
63.430 17.580017
63.435 17.953066
63.440 18.068352
63.445 18.332155
63.450 18.466536
63.455 18.169777
63.460 17.686298
63.465 17.002289
63.470 16.56214
63.475 16.384609
63.480 16.541342
63.485 16.152529
63.490 16.357338
63.495 16.450611
63.500 16.636475
63.505 16.380613
63.510 16.235384
63.515 16.172985
63.520 16.742769
63.525 16.839851
63.530 16.753569
63.535 17.234806
63.540 17.491991
63.545 17.505833
63.550 17.202209
63.555 17.347185
63.560 17.613901
63.565 18.215519
63.570 17.896025
63.575 17.818798
63.580 18.013727
63.585 18.090784
63.590 17.764526
63.595 17.557623
63.600 17.269453
63.605 17.338596
63.610 17.283752
63.615 17.318529
63.620 17.46941
63.625 17.331705
63.630 16.972883
63.635 16.704985
63.640 17.008224
63.645 16.656363
63.650 15.841722
63.655 15.922151
63.660 16.008381
63.665 16.294275
63.670 16.495941
63.675 16.545416
63.680 17.004946
63.685 17.867819
63.690 18.2227
63.695 18.43705
63.700 18.484898
63.705 18.221939
63.710 17.621515
63.715 17.387102
63.720 17.073092
63.725 16.191595
63.730 15.748983
63.735 15.407344
63.740 16.181105
63.745 16.761995
63.750 17.193422
63.755 17.060287
63.760 17.21406
63.765 17.456114
63.770 17.723631
63.775 17.438684
63.780 17.444567
63.785 17.194675
63.790 17.750185
63.795 18.114325
63.800 18.196821
63.805 18.609909
63.810 18.26849
63.815 18.160057
63.820 18.008486
63.825 17.767824
63.830 18.009926
63.835 18.067844
63.840 18.034372
63.845 18.224817
63.850 18.518833
63.855 18.748404
63.860 18.360556
63.865 18.474997
63.870 18.389465
63.875 17.797735
63.880 17.465317
63.885 17.468735
63.890 17.433895
63.895 17.600185
63.900 17.085037
63.905 16.557669
63.910 16.663174
63.915 17.334797
63.920 17.63373
63.925 18.028923
63.930 18.175045
63.935 18.03747
63.940 18.634075
63.945 19.23395
63.950 19.015858
63.955 18.549932
63.960 18.415661
63.965 18.438715
63.970 19.109936
63.975 19.052731
63.980 18.819252
63.985 18.891945
63.990 18.750759
63.995 18.789816
64.000 19.17622
64.005 18.870182
64.010 19.142687
64.015 19.20326
64.020 19.237152
64.025 19.654119
64.030 19.334829
64.035 18.9268
64.040 18.907206
64.045 19.169401
64.050 19.673695
64.055 19.096552
64.060 18.829659
64.065 19.118309
64.070 19.212484
64.075 18.999163
64.080 18.639032
64.085 18.360334
64.090 19.072212
64.095 19.48415
64.100 18.987659
64.105 18.878418
64.110 18.732719
64.115 18.510258
64.120 18.128819
64.125 17.786921
64.130 17.527477
64.135 17.683224
64.140 18.15184
64.145 18.343422
64.150 18.120754
64.155 18.044258
64.160 17.819717
64.165 17.730589
64.170 18.043171
64.175 17.498671
64.180 17.724413
64.185 18.16872
64.190 18.855762
64.195 19.134953
64.200 18.89102
64.205 18.976091
64.210 19.287336
64.215 18.976217
64.220 18.56118
64.225 18.182535
64.230 18.225069
64.235 18.600632
64.240 18.217009
64.245 17.991447
64.250 17.941843
64.255 18.107168
64.260 17.89822
64.265 17.592192
64.270 17.301386
64.275 17.053099
64.280 16.647173
64.285 17.010471
64.290 17.493774
64.295 17.248432
64.300 17.808346
64.305 17.998775
64.310 17.916304
64.315 18.307898
64.320 18.070362
64.325 17.9093
64.330 17.81621
64.335 17.759104
64.340 17.492855
64.345 17.931093
64.350 17.860641
64.355 18.503578
64.360 19.294003
64.365 19.202272
64.370 19.186535
64.375 19.642321
64.380 19.968513
64.385 20.263731
64.390 19.852486
64.395 19.300354
64.400 19.554911
64.405 18.887638
64.410 18.895126
64.415 18.465197
64.420 17.827818
64.425 18.130011
64.430 18.484875
64.435 18.827475
64.440 19.480839
64.445 19.226711
64.450 19.805183
64.455 20.114439
64.460 19.951096
64.465 19.849075
64.470 20.00806
64.475 20.253731
64.480 20.336159
64.485 20.419041
64.490 20.519407
64.495 20.458174
64.500 20.34668
64.505 20.609612
64.510 20.498161
64.515 20.412966
64.520 20.021147
64.525 19.553305
64.530 19.194729
64.535 19.025438
64.540 18.506454
64.545 18.069696
64.550 18.202446
64.555 18.545029
64.560 18.888588
64.565 18.654356
64.570 18.490162
64.575 18.817453
64.580 19.121052
64.585 19.328981
64.590 19.334507
64.595 19.043367
64.600 19.248079
64.605 19.168633
64.610 18.752726
64.615 18.702518
64.620 18.684364
64.625 18.509939
64.630 18.206476
64.635 18.133839
64.640 18.349142
64.645 18.118237
64.650 17.885759
64.655 17.335922
64.660 17.045942
64.665 17.370289
64.670 17.705324
64.675 18.238749
64.680 18.801218
64.685 19.07476
64.690 19.229412
64.695 19.913755
64.700 19.64378
64.705 19.789202
64.710 19.333776
64.715 19.278893
64.720 19.121367
64.725 18.84532
64.730 18.849472
64.735 18.884472
64.740 18.090086
64.745 18.153326
64.750 18.260166
64.755 18.346292
64.760 18.654018
64.765 18.436396
64.770 18.77693
64.775 18.859356
64.780 19.121204
64.785 18.764925
64.790 18.374128
64.795 18.087629
64.800 18.566988
64.805 19.205008
64.810 19.212992
64.815 18.779566
64.820 18.990448
64.825 19.384428
64.830 19.165136
64.835 19.139462
64.840 18.865788
64.845 20.005909
64.850 20.659527
64.855 20.764259
64.860 20.767765
64.865 21.364658
64.870 21.136757
64.875 21.280327
64.880 20.315094
64.885 19.980556
64.890 20.398237
64.895 20.683542
64.900 20.541006
64.905 20.878771
64.910 20.712879
64.915 21.186445
64.920 21.364145
64.925 21.174654
64.930 20.875338
64.935 20.694506
64.940 20.525513
64.945 20.772501
64.950 20.882574
64.955 20.174204
64.960 20.455997
64.965 20.624836
64.970 21.231703
64.975 21.500923
64.980 21.540533
64.985 21.46624
64.990 22.124895
64.995 22.198196
65.000 22.344631
65.005 21.977425
65.010 21.804779
65.015 21.452314
65.020 21.858974
65.025 21.269573
65.030 21.220984
65.035 21.112013
65.040 21.300009
65.045 21.51963
65.050 21.958422
65.055 21.342464
65.060 21.547401
65.065 21.255091
65.070 21.892225
65.075 22.210585
65.080 21.979134
65.085 21.741026
65.090 22.030561
65.095 21.996881
65.100 21.884953
65.105 21.786652
65.110 21.821947
65.115 22.086046
65.120 21.882919
65.125 22.132221
65.130 23.222406
65.135 23.062124
65.140 22.537069
65.145 21.866127
65.150 21.451197
65.155 21.547575
65.160 21.617573
65.165 21.702999
65.170 22.677572
65.175 22.846882
65.180 23.169418
65.185 23.412996
65.190 23.465448
65.195 23.09877
65.200 22.346464
65.205 22.11005
65.210 21.964195
65.215 22.172905
65.220 22.794916
65.225 22.592142
65.230 22.985714
65.235 23.197462
65.240 22.976973
65.245 23.346912
65.250 22.976641
65.255 22.179028
65.260 22.414621
65.265 21.82551
65.270 21.81394
65.275 21.67849
65.280 21.42432
65.285 21.501982
65.290 21.685558
65.295 21.674919
65.300 21.788227
65.305 22.071922
65.310 22.385263
65.315 22.760313
65.320 22.286194
65.325 22.155714
65.330 22.360315
65.335 21.783293
65.340 21.744339
65.345 22.137699
65.350 22.164585
65.355 22.600134
65.360 22.95274
65.365 22.761744
65.370 23.53628
65.375 23.151001
65.380 22.534786
65.385 22.553946
65.390 22.630184
65.395 22.935982
65.400 23.746376
65.405 24.097256
65.410 23.773258
65.415 23.928707
65.420 23.873251
65.425 23.551846
65.430 22.575907
65.435 22.392668
65.440 22.137342
65.445 22.750999
65.450 22.834606
65.455 22.714632
65.460 23.629374
65.465 24.418814
65.470 24.167425
65.475 24.189926
65.480 23.839975
65.485 23.493429
65.490 23.764511
65.495 23.655508
65.500 23.674442
65.505 24.322079
65.510 25.389805
65.515 26.307537
65.520 26.713636
65.525 27.023922
65.530 27.292831
65.535 27.718386
65.540 27.776766
65.545 28.08857
65.550 28.073484
65.555 28.133976
65.560 27.386614
65.565 27.55349
65.570 27.879457
65.575 27.78322
65.580 27.664328
65.585 28.233362
65.590 28.780401
65.595 29.568665
65.600 29.882683
65.605 30.038876
65.610 30.704624
65.615 30.456335
65.620 30.877401
65.625 31.516598
65.630 31.847446
65.635 31.572535
65.640 31.718809
65.645 31.732069
65.650 32.357822
65.655 31.930655
65.660 32.004467
65.665 31.816372
65.670 32.082314
65.675 31.831062
65.680 31.365503
65.685 30.870007
65.690 31.074968
65.695 31.02644
65.700 30.966799
65.705 30.936739
65.710 31.115789
65.715 31.290516
65.720 31.254217
65.725 31.364227
65.730 32.137611
65.735 32.461906
65.740 32.749866
65.745 32.980762
65.750 32.985088
65.755 33.46714
65.760 33.907692
65.765 34.432457
65.770 34.773533
65.775 35.009552
65.780 34.858089
65.785 36.205261
65.790 36.582504
65.795 36.139626
65.800 35.314754
65.805 35.453545
65.810 35.319019
65.815 35.656544
65.820 35.836807
65.825 36.434155
65.830 36.496086
65.835 36.701458
65.840 36.744743
65.845 36.838558
65.850 37.165291
65.855 37.341251
65.860 37.818485
65.865 37.956551
65.870 38.6922
65.875 38.400631
65.880 39.051971
65.885 39.75005
65.890 38.9664
65.895 38.852398
65.900 39.043549
65.905 38.518459
65.910 38.604111
65.915 38.655247
65.920 38.282524
65.925 37.656139
65.930 36.777008
65.935 36.723003
65.940 36.910336
65.945 37.382866
65.950 37.667465
65.955 37.955025
65.960 38.948971
65.965 39.401421
65.970 40.065907
65.975 39.892406
65.980 39.510288
65.985 39.526154
65.990 39.731438
65.995 40.206673
66.000 40.654472
66.005 39.990211
66.010 40.026405
66.015 40.434135
66.020 40.243206
66.025 39.497925
66.030 39.081413
66.035 38.992886
66.040 40.022919
66.045 40.033257
66.050 39.59182
66.055 39.594414
66.060 39.572544
66.065 39.259583
66.070 38.891064
66.075 38.333008
66.080 38.763783
66.085 38.459175
66.090 38.383759
66.095 38.34272
66.100 38.453133
66.105 38.379986
66.110 38.335342
66.115 38.537128
66.120 39.06461
66.125 39.265442
66.130 39.0863
66.135 38.835457
66.140 39.002258
66.145 38.795609
66.150 38.468586
66.155 38.062672
66.160 38.459114
66.165 39.572121
66.170 40.322765
66.175 40.276577
66.180 41.24511
66.185 41.563416
66.190 40.788204
66.195 39.708221
66.200 38.516289
66.205 38.566593
66.210 38.311192
66.215 36.871799
66.220 36.780643
66.225 37.09164
66.230 37.414436
66.235 37.68639
66.240 37.369164
66.245 37.276855
66.250 37.523254
66.255 36.912136
66.260 37.035789
66.265 37.016171
66.270 36.835293
66.275 36.749313
66.280 36.81213
66.285 36.520077
66.290 36.367481
66.295 36.293255
66.300 36.241695
66.305 36.084759
66.310 35.260727
66.315 34.662102
66.320 34.783783
66.325 34.659996
66.330 34.370296
66.335 33.758224
66.340 33.687557
66.345 34.216122
66.350 34.585308
66.355 34.713657
66.360 34.811378
66.365 35.061787
66.370 34.903229
66.375 34.848511
66.380 34.456272
66.385 33.98896
66.390 33.549061
66.395 33.206417
66.400 32.490067
66.405 32.065475
66.410 31.267441
66.415 31.221432
66.420 31.487165
66.425 31.493818
66.430 31.812109
66.435 31.926508
66.440 31.830057
66.445 31.074108
66.450 30.570524
66.455 29.538485
66.460 28.770378
66.465 28.093542
66.470 28.32304
66.475 28.669409
66.480 29.167135
66.485 29.113367
66.490 29.528292
66.495 29.499676
66.500 29.450043
66.505 28.864227
66.510 28.442455
66.515 28.346004
66.520 28.1465
66.525 27.943893
66.530 28.766609
66.535 29.181866
66.540 29.477314
66.545 30.127434
66.550 29.200981
66.555 28.687243
66.560 28.22036
66.565 27.626049
66.570 26.886122
66.575 26.113647
66.580 25.169325
66.585 24.847416
66.590 25.27203
66.595 25.360781
66.600 25.482815
66.605 26.104458
66.610 26.000626
66.615 26.102722
66.620 26.339945
66.625 26.469315
66.630 26.463259
66.635 26.203615
66.640 26.309889
66.645 26.414328
66.650 26.500675
66.655 27.2658
66.660 27.029602
66.665 26.681852
66.670 25.859304
66.675 25.482836
66.680 25.275286
66.685 25.119099
66.690 24.623587
66.695 24.358974
66.700 24.57963
66.705 24.894144
66.710 25.065527
66.715 25.255201
66.720 25.049717
66.725 25.340235
66.730 24.721319
66.735 24.402197
66.740 24.182936
66.745 23.490091
66.750 23.139498
66.755 22.408091
66.760 21.869164
66.765 22.546928
66.770 23.023829
66.775 22.668949
66.780 22.634901
66.785 22.994162
66.790 22.85494
66.795 22.220194
66.800 22.244768
66.805 21.966286
66.810 21.928946
66.815 21.896511
66.820 21.575661
66.825 22.547564
66.830 23.043013
66.835 22.715836
66.840 23.31072
66.845 23.631659
66.850 23.536179
66.855 23.213699
66.860 22.750387
66.865 22.381041
66.870 22.142044
66.875 21.664677
66.880 21.316511
66.885 21.907974
66.890 22.232864
66.895 22.32029
66.900 22.181057
66.905 21.723219
66.910 21.687626
66.915 21.715851
66.920 21.631422
66.925 21.847351
66.930 22.425482
66.935 23.117006
66.940 23.345804
66.945 23.068005
66.950 23.069929
66.955 23.014364
66.960 22.790688
66.965 22.570656
66.970 21.941854
66.975 21.747587
66.980 21.541561
66.985 21.475407
66.990 21.317694
66.995 21.338337
67.000 21.222841
67.005 21.627834
67.010 21.720446
67.015 21.763859
67.020 21.660328
67.025 21.672758
67.030 21.586645
67.035 21.639639
67.040 21.58239
67.045 21.574936
67.050 21.696878
67.055 21.567814
67.060 21.601896
67.065 21.540991
67.070 21.295038
67.075 21.921717
67.080 22.472799
67.085 23.444191
67.090 23.715267
67.095 23.559565
67.100 23.743193
67.105 23.806669
67.110 22.694548
67.115 22.642792
67.120 22.312527
67.125 22.660757
67.130 22.623547
67.135 22.44544
67.140 22.636967
67.145 22.371386
67.150 21.995083
67.155 21.360172
67.160 21.119968
67.165 21.387882
67.170 21.158821
67.175 21.116358
67.180 21.608595
67.185 21.00543
67.190 21.094572
67.195 20.741848
67.200 20.513115
67.205 20.095047
67.210 20.344772
67.215 20.392963
67.220 20.795147
67.225 21.004503
67.230 21.344011
67.235 21.664167
67.240 22.171951
67.245 22.789331
67.250 22.735209
67.255 22.805532
67.260 22.842459
67.265 22.846052
67.270 22.797192
67.275 22.202719
67.280 21.5357
67.285 21.681911
67.290 21.511791
67.295 21.395672
67.300 21.227703
67.305 21.422789
67.310 21.647999
67.315 21.065159
67.320 21.21578
67.325 21.692444
67.330 21.818455
67.335 21.605286
67.340 21.54109
67.345 21.388914
67.350 21.683479
67.355 21.129965
67.360 20.494913
67.365 20.386032
67.370 20.588318
67.375 20.69306
67.380 20.471914
67.385 20.261375
67.390 20.049429
67.395 19.624582
67.400 18.881355
67.405 18.802811
67.410 19.108137
67.415 19.518379
67.420 19.714226
67.425 20.107864
67.430 20.603176
67.435 20.762007
67.440 20.321503
67.445 19.848471
67.450 19.50104
67.455 20.23876
67.460 20.704802
67.465 21.084976
67.470 21.742485
67.475 21.832186
67.480 21.870237
67.485 22.410633
67.490 22.325222
67.495 22.47056
67.500 22.52216
67.505 22.125877
67.510 22.118399
67.515 22.352402
67.520 22.253439
67.525 21.393055
67.530 21.35829
67.535 21.266542
67.540 21.612919
67.545 21.561588
67.550 21.485096
67.555 21.46398
67.560 21.434658
67.565 20.980453
67.570 21.100899
67.575 20.717848
67.580 20.551748
67.585 20.729843
67.590 20.561506
67.595 20.57378
67.600 20.338146
67.605 19.848572
67.610 20.223415
67.615 20.781206
67.620 20.217617
67.625 20.329144
67.630 20.203192
67.635 20.665266
67.640 20.924744
67.645 20.854715
67.650 20.897949
67.655 20.994301
67.660 21.126686
67.665 20.673929
67.670 20.408506
67.675 20.192907
67.680 20.110449
67.685 19.697653
67.690 19.944969
67.695 20.077332
67.700 20.798756
67.705 21.133667
67.710 21.415203
67.715 21.09272
67.720 21.192167
67.725 21.002701
67.730 21.174072
67.735 21.237951
67.740 21.551052
67.745 21.913271
67.750 22.234392
67.755 22.332138
67.760 22.473324
67.765 22.571527
67.770 22.299818
67.775 21.143845
67.780 20.688915
67.785 21.412579
67.790 21.838625
67.795 21.44191
67.800 20.577271
67.805 20.856062
67.810 21.37818
67.815 21.317307
67.820 20.434366
67.825 19.830708
67.830 20.352179
67.835 20.463432
67.840 19.90387
67.845 20.304375
67.850 19.774082
67.855 19.759306
67.860 20.105291
67.865 19.691481
67.870 20.537668
67.875 21.023106
67.880 21.187788
67.885 21.719004
67.890 21.815514
67.895 21.789293
67.900 22.265343
67.905 22.130302
67.910 22.299612
67.915 22.237991
67.920 22.05323
67.925 21.835154
67.930 21.786863
67.935 21.946768
67.940 21.408741
67.945 20.971241
67.950 20.898094
67.955 20.713072
67.960 20.472446
67.965 20.888433
67.970 20.904205
67.975 21.330149
67.980 21.565001
67.985 21.361235
67.990 21.483755
67.995 21.878986
68.000 21.265348
68.005 20.64431
68.010 20.455954
68.015 19.83996
68.020 20.061939
68.025 19.731264
68.030 19.6168
68.035 19.690708
68.040 19.893248
68.045 20.154154
68.050 20.315371
68.055 20.764208
68.060 21.064455
68.065 21.317066
68.070 21.455688
68.075 21.702755
68.080 21.233934
68.085 21.862514
68.090 21.475607
68.095 21.371578
68.100 20.721516
68.105 21.075653
68.110 20.796896
68.115 21.009281
68.120 20.684078
68.125 20.692207
68.130 20.584026
68.135 20.367781
68.140 20.107214
68.145 20.572227
68.150 21.119818
68.155 21.213099
68.160 21.19475
68.165 21.142462
68.170 21.247835
68.175 20.865644
68.180 19.946117
68.185 19.151037
68.190 19.369345
68.195 19.352602
68.200 19.227396
68.205 19.230482
68.210 19.567154
68.215 20.08382
68.220 19.797947
68.225 19.456007
68.230 19.0453
68.235 19.214901
68.240 19.681854
68.245 19.710876
68.250 20.000633
68.255 20.645164
68.260 20.847368
68.265 21.450205
68.270 22.309105
68.275 22.289978
68.280 22.211288
68.285 22.529356
68.290 22.661163
68.295 22.593048
68.300 22.500385
68.305 21.911934
68.310 21.39789
68.315 20.67448
68.320 20.603952
68.325 20.359221
68.330 20.58754
68.335 20.645386
68.340 20.728062
68.345 21.245497
68.350 21.942476
68.355 21.431894
68.360 20.934402
68.365 20.780113
68.370 20.478363
68.375 20.319565
68.380 20.035522
68.385 19.98328
68.390 20.572222
68.395 21.445108
68.400 21.360207
68.405 21.070631
68.410 21.228477
68.415 21.376102
68.420 21.30707
68.425 21.284214
68.430 21.102797
68.435 22.29261
68.440 22.626068
68.445 22.907158
68.450 22.747974
68.455 22.275312
68.460 21.815075
68.465 21.493109
68.470 20.58996
68.475 20.961136
68.480 20.831739
68.485 20.587162
68.490 20.230001
68.495 20.785854
68.500 21.02335
68.505 21.3241
68.510 20.831892
68.515 20.53882
68.520 20.205292
68.525 20.999664
68.530 20.897633
68.535 20.374817
68.540 20.350292
68.545 20.422491
68.550 20.60367
68.555 21.296278
68.560 21.449629
68.565 21.116606
68.570 21.548697
68.575 21.506765
68.580 21.451443
68.585 21.877047
68.590 21.864742
68.595 22.050352
68.600 23.018137
68.605 22.938719
68.610 22.432074
68.615 22.007198
68.620 21.266224
68.625 21.021336
68.630 19.808744
68.635 19.491987
68.640 19.988291
68.645 20.467211
68.650 20.925266
68.655 21.198183
68.660 21.3104
68.665 21.955006
68.670 22.216177
68.675 22.198242
68.680 22.430401
68.685 22.546299
68.690 22.921957
68.695 23.70616
68.700 23.07733
68.705 22.19627
68.710 22.126137
68.715 21.833607
68.720 21.474525
68.725 22.037868
68.730 22.031391
68.735 22.592037
68.740 22.47117
68.745 22.601082
68.750 23.339153
68.755 23.644987
68.760 22.598934
68.765 22.105719
68.770 22.015062
68.775 22.395798
68.780 21.889071
68.785 21.139263
68.790 21.409197
68.795 21.900442
68.800 21.693375
68.805 22.032635
68.810 21.895588
68.815 22.339725
68.820 22.759773
68.825 22.721844
68.830 22.593914
68.835 22.422628
68.840 22.812841
68.845 23.238766
68.850 23.556646
68.855 23.432205
68.860 23.208408
68.865 22.365683
68.870 22.216465
68.875 21.635628
68.880 21.161253
68.885 21.804842
68.890 21.887417
68.895 22.436451
68.900 23.523655
68.905 23.899315
68.910 24.142982
68.915 24.172699
68.920 23.321117
68.925 23.689135
68.930 23.749271
68.935 23.603546
68.940 23.437193
68.945 23.591146
68.950 23.757746
68.955 24.03553
68.960 23.63324
68.965 23.348291
68.970 23.910696
68.975 24.160389
68.980 23.841885
68.985 23.584019
68.990 22.89073
68.995 23.491699
69.000 24.082457
69.005 23.875175
69.010 23.953888
69.015 23.692314
69.020 23.989235
69.025 24.793249
69.030 24.30216
69.035 24.030907
69.040 24.075626
69.045 24.581484
69.050 25.686193
69.055 26.256786
69.060 26.351837
69.065 26.425318
69.070 25.824621
69.075 25.463099
69.080 24.950327
69.085 24.09173
69.090 24.008291
69.095 23.883152
69.100 24.267031
69.105 25.252779
69.110 25.768911
69.115 26.518129
69.120 26.974699
69.125 26.968103
69.130 27.432024
69.135 27.213459
69.140 27.928488
69.145 27.69412
69.150 27.365833
69.155 27.278332
69.160 27.444942
69.165 26.693708
69.170 25.816572
69.175 24.949923
69.180 25.212509
69.185 25.545746
69.190 25.49292
69.195 25.428331
69.200 26.232965
69.205 27.233896
69.210 27.462297
69.215 27.339289
69.220 27.549801
69.225 27.246017
69.230 27.369413
69.235 26.983315
69.240 26.90411
69.245 26.646366
69.250 26.608158
69.255 26.685562
69.260 27.111038
69.265 26.871044
69.270 26.639988
69.275 26.283741
69.280 25.600121
69.285 25.580967
69.290 25.790346
69.295 26.276266
69.300 27.063005
69.305 27.119968
69.310 27.034159
69.315 27.29604
69.320 26.873674
69.325 26.029497
69.330 25.121361
69.335 25.480923
69.340 25.931635
69.345 26.717928
69.350 27.03668
69.355 27.265858
69.360 27.443363
69.365 27.683537
69.370 26.904003
69.375 26.846949
69.380 26.539589
69.385 27.51116
69.390 28.160681
69.395 28.589998
69.400 29.046165
69.405 29.950703
69.410 30.272764
69.415 30.087397
69.420 29.978487
69.425 29.333826
69.430 29.066227
69.435 29.166878
69.440 28.787924
69.445 28.92754
69.450 29.391232
69.455 28.768492
69.460 28.433695
69.465 28.240788
69.470 28.160719
69.475 28.328991
69.480 28.24855
69.485 28.230297
69.490 28.267662
69.495 28.92252
69.500 28.972103
69.505 29.236372
69.510 29.539059
69.515 30.051697
69.520 30.869671
69.525 30.678541
69.530 30.403397
69.535 30.100527
69.540 29.518267
69.545 29.557785
69.550 28.788177
69.555 28.495638
69.560 29.427958
69.565 29.778419
69.570 29.988335
69.575 30.100176
69.580 29.897772
69.585 30.056486
69.590 29.956774
69.595 29.574829
69.600 29.677324
69.605 29.204117
69.610 28.652136
69.615 28.414862
69.620 27.514578
69.625 27.0509
69.630 27.640209
69.635 26.867863
69.640 27.444736
69.645 28.262367
69.650 28.884155
69.655 30.062521
69.660 29.853704
69.665 29.440689
69.670 29.52663
69.675 30.109377
69.680 29.9561
69.685 29.613241
69.690 30.102579
69.695 30.724358
69.700 31.285398
69.705 31.418139
69.710 30.384535
69.715 30.042465
69.720 30.558546
69.725 30.081436
69.730 29.722818
69.735 29.506136
69.740 29.791475
69.745 30.411154
69.750 30.260818
69.755 29.686428
69.760 28.744614
69.765 29.029842
69.770 28.62669
69.775 27.662245
69.780 26.993393
69.785 27.094305
69.790 26.595491
69.795 26.273962
69.800 25.759607
69.805 25.439671
69.810 25.151472
69.815 25.481045
69.820 24.917204
69.825 25.454752
69.830 26.400335
69.835 26.684462
69.840 26.796665
69.845 26.807346
69.850 25.823612
69.855 25.561777
69.860 25.321114
69.865 24.338787
69.870 24.410595
69.875 24.52561
69.880 25.06889
69.885 25.421316
69.890 25.083921
69.895 25.095425
69.900 25.417614
69.905 25.38817
69.910 24.83357
69.915 24.256687
69.920 24.241463
69.925 24.489737
69.930 23.690748
69.935 23.197083
69.940 23.453825
69.945 24.209135
69.950 24.380478
69.955 24.397894
69.960 24.450455
69.965 24.323299
69.970 23.590109
69.975 22.555393
69.980 21.787003
69.985 22.274349
69.990 22.482227
69.995 22.070053
70.000 22.205441
70.005 22.588047
70.010 23.577168
70.015 23.918755
70.020 23.473675
70.025 23.576406
70.030 23.578588
70.035 23.616741
70.040 22.846405
70.045 21.82313
70.050 21.565626
70.055 21.245552
70.060 20.895853
70.065 20.631102
70.070 21.07716
70.075 21.952459
70.080 22.478601
70.085 22.472027
70.090 22.420414
70.095 22.302549
70.100 22.23674
70.105 21.339571
70.110 21.172386
70.115 21.134489
70.120 21.350241
70.125 21.819632
70.130 22.447741
70.135 23.338682
70.140 23.529993
70.145 23.576525
70.150 23.05196
70.155 22.733459
70.160 22.389818
70.165 22.296347
70.170 21.636703
70.175 21.637735
70.180 21.399124
70.185 21.708506
70.190 21.784351
70.195 21.597605
70.200 21.306932
70.205 21.417618
70.210 21.204189
70.215 20.722536
70.220 19.844547
70.225 19.611853
70.230 19.664839
70.235 19.759737
70.240 19.445398
70.245 20.113947
70.250 21.171427
70.255 21.726435
70.260 21.385988
70.265 21.273844
70.270 21.423695
70.275 21.421957
70.280 20.562944
70.285 20.523825
70.290 20.503313
70.295 20.586407
70.300 20.392046
70.305 20.108122
70.310 20.131592
70.315 19.995014
70.320 19.505184
70.325 19.200655
70.330 19.454126
70.335 19.665287
70.340 19.933775
70.345 19.797483
70.350 19.616215
70.355 19.78742
70.360 19.843508
70.365 19.945055
70.370 19.827116
70.375 19.43437
70.380 20.347918
70.385 20.372982
70.390 20.936562
70.395 21.37076
70.400 21.033138
70.405 21.363756
70.410 21.008726
70.415 20.070194
70.420 19.953938
70.425 18.844122
70.430 18.839985
70.435 19.100151
70.440 18.829651
70.445 19.211857
70.450 19.50177
70.455 19.40065
70.460 19.527925
70.465 19.111904
70.470 18.849092
70.475 19.153212
70.480 18.998268
70.485 18.994526
70.490 19.429665
70.495 19.830641
70.500 19.658394
70.505 19.958387
70.510 19.704512
70.515 20.191753
70.520 20.494396
70.525 20.764374
70.530 20.556253
70.535 20.531944
70.540 20.237726
70.545 20.20467
70.550 19.610891
70.555 19.140499
70.560 19.128481
70.565 19.603346
70.570 20.116905
70.575 20.343275
70.580 20.659296
70.585 20.643478
70.590 20.779715
70.595 21.222322
70.600 21.573391
70.605 20.874269
70.610 20.516792
70.615 20.197193
70.620 19.803301
70.625 19.131123
70.630 18.380135
70.635 18.289364
70.640 18.238894
70.645 18.937519
70.650 19.567276
70.655 20.030722
70.660 20.831678
70.665 21.126751
70.670 21.078974
70.675 21.28768
70.680 21.204481
70.685 21.149363
70.690 21.419687
70.695 21.13978
70.700 20.398504
70.705 20.102573
70.710 19.649956
70.715 19.036516
70.720 18.564148
70.725 18.291639
70.730 18.258764
70.735 18.81074
70.740 19.204979
70.745 18.968149
70.750 19.328493
70.755 20.192152
70.760 20.497335
70.765 20.006729
70.770 19.406019
70.775 19.791084
70.780 20.518017
70.785 19.545372
70.790 18.72681
70.795 18.390825
70.800 18.595755
70.805 18.511112
70.810 17.582935
70.815 17.305664
70.820 18.163542
70.825 18.387016
70.830 18.403364
70.835 18.973766
70.840 19.012426
70.845 19.289133
70.850 19.405439
70.855 19.378744
70.860 19.109247
70.865 18.973402
70.870 18.516857
70.875 18.499392
70.880 18.409754
70.885 18.164654
70.890 17.912441
70.895 18.587357
70.900 19.26413
70.905 19.644417
70.910 19.894943
70.915 20.142538
70.920 20.277758
70.925 19.896948
70.930 19.727625
70.935 19.835262
70.940 19.968435
70.945 20.277321
70.950 19.981337
70.955 20.298935
70.960 20.524103
70.965 20.567619
70.970 19.860353
70.975 19.731974
70.980 19.568033
70.985 20.021261
70.990 19.935369
70.995 19.865612
71.000 19.438473
71.005 19.479372
71.010 19.1035
71.015 18.651203
71.020 18.492659
71.025 18.340321
71.030 17.910738
71.035 18.180244
71.040 18.716389
71.045 18.985132
71.050 19.101366
71.055 19.32427
71.060 19.108366
71.065 19.473938
71.070 19.20756
71.075 18.857964
71.080 19.272694
71.085 19.40177
71.090 19.620089
71.095 19.761322
71.100 20.066376
71.105 19.954628
71.110 19.282557
71.115 18.558443
71.120 18.288759
71.125 18.023167
71.130 17.905201
71.135 17.777916
71.140 18.250414
71.145 18.578718
71.150 18.5299
71.155 18.896521
71.160 19.17057
71.165 19.396626
71.170 19.43816
71.175 19.392986
71.180 19.76688
71.185 20.052776
71.190 19.703505
71.195 19.908722
71.200 19.851599
71.205 20.191959
71.210 20.392212
71.215 20.231159
71.220 19.958979
71.225 19.947741
71.230 19.186024
71.235 19.321573
71.240 18.819313
71.245 18.95994
71.250 18.868292
71.255 19.130119
71.260 19.258011
71.265 19.28796
71.270 19.226685
71.275 19.08116
71.280 18.602762
71.285 18.824514
71.290 18.585077
71.295 18.380041
71.300 17.865294
71.305 17.730207
71.310 17.794607
71.315 17.481321
71.320 17.708134
71.325 17.947945
71.330 18.034878
71.335 18.127396
71.340 17.683031
71.345 18.133749
71.350 18.534698
71.355 18.295361
71.360 18.87952
71.365 19.004274
71.370 19.165472
71.375 19.488714
71.380 19.060678
71.385 19.029896
71.390 18.78586
71.395 18.454912
71.400 19.21821
71.405 19.259209
71.410 19.772648
71.415 19.649584
71.420 19.271477
71.425 18.691547
71.430 18.169069
71.435 18.379795
71.440 18.333981
71.445 18.129988
71.450 18.609922
71.455 18.85635
71.460 19.602242
71.465 19.740444
71.470 18.886602
71.475 18.925621
71.480 18.440025
71.485 17.937683
71.490 17.77725
71.495 17.421701
71.500 17.134182
71.505 17.125534
71.510 17.138863
71.515 17.487759
71.520 17.795416
71.525 18.224619
71.530 18.284735
71.535 18.333679
71.540 18.701895
71.545 18.576826
71.550 18.086439
71.555 17.942873
71.560 18.091349
71.565 17.834578
71.570 18.007973
71.575 17.883797
71.580 17.980316
71.585 18.227798
71.590 18.337637
71.595 18.757261
71.600 19.000628
71.605 18.526129
71.610 17.980824
71.615 17.780094
71.620 17.900154
71.625 17.921606
71.630 17.178432
71.635 16.563757
71.640 16.639946
71.645 16.813465
71.650 17.089397
71.655 16.962587
71.660 16.679806
71.665 16.779985
71.670 17.559294
71.675 17.981195
71.680 18.52128
71.685 18.690163
71.690 18.740826
71.695 19.875467
71.700 20.587378
71.705 20.425037
71.710 20.478548
71.715 20.082306
71.720 19.867371
71.725 19.628912
71.730 18.967226
71.735 19.266567
71.740 20.172611
71.745 19.924229
71.750 20.000225
71.755 20.10618
71.760 19.820545
71.765 19.615866
71.770 18.943609
71.775 18.965921
71.780 19.267546
71.785 19.063162
71.790 18.470295
71.795 18.938778
71.800 18.79805
71.805 18.101164
71.810 17.185249
71.815 17.24527
71.820 17.322086
71.825 17.707006
71.830 17.974424
71.835 18.16547
71.840 18.552328
71.845 18.950186
71.850 19.192116
71.855 19.567106
71.860 19.439774
71.865 19.015335
71.870 19.08387
71.875 19.026268
71.880 18.712025
71.885 18.503265
71.890 17.748394
71.895 17.672026
71.900 17.830385
71.905 18.066807
71.910 18.12554
71.915 18.223083
71.920 18.630547
71.925 19.132813
71.930 19.316322
71.935 19.447342
71.940 19.654858
71.945 19.111202
71.950 19.15868
71.955 19.627052
71.960 19.815474
71.965 19.972509
71.970 19.883316
71.975 20.119961
71.980 20.559847
71.985 20.516535
71.990 19.864834
71.995 18.978199
72.000 18.581316
72.005 18.45536
72.010 18.071308
72.015 18.00374
72.020 18.181103
72.025 18.469023
72.030 18.4328
72.035 17.96419
72.040 18.306463
72.045 18.378386
72.050 17.858164
72.055 17.506758
72.060 17.712839
72.065 18.101492
72.070 18.488785
72.075 18.146416
72.080 18.647001
72.085 19.308176
72.090 19.116276
72.095 19.331493
72.100 19.549345
72.105 19.396019
72.110 19.476416
72.115 18.992712
72.120 18.722746
72.125 19.18976
72.130 19.031902
72.135 18.984058
72.140 18.665554
72.145 19.091042
72.150 19.157488
72.155 18.979679
72.160 18.823462
72.165 18.900652
72.170 18.974182
72.175 19.214102
72.180 18.845085
72.185 18.392942
72.190 18.381041
72.195 18.272264
72.200 18.455452
72.205 18.639826
72.210 18.839348
72.215 19.108498
72.220 19.353878
72.225 19.349089
72.230 19.663233
72.235 19.410156
72.240 19.365566
72.245 19.508568
72.250 18.869572
72.255 18.879774
72.260 18.446522
72.265 18.451279
72.270 18.528723
72.275 18.265182
72.280 18.283491
72.285 18.895086
72.290 19.13962
72.295 19.19039
72.300 18.800665
72.305 18.540415
72.310 18.338718
72.315 18.269741
72.320 17.674591
72.325 17.255558
72.330 17.185616
72.335 17.114342
72.340 17.161127
72.345 17.056988
72.350 17.087788
72.355 17.413834
72.360 18.118969
72.365 18.669149
72.370 18.315811
72.375 17.933155
72.380 18.277504
72.385 17.908934
72.390 17.426544
72.395 16.62995
72.400 15.940614
72.405 16.087284
72.410 16.547461
72.415 17.152813
72.420 17.477057
72.425 17.453548
72.430 17.830667
72.435 18.459988
72.440 18.283175
72.445 17.525417
72.450 17.457024
72.455 17.765862
72.460 17.634226
72.465 17.412714
72.470 17.922075
72.475 18.505283
72.480 18.932192
72.485 18.16432
72.490 18.514185
72.495 19.122595
72.500 19.070665
72.505 18.758291
72.510 18.683735
72.515 18.556166
72.520 18.629059
72.525 18.588543
72.530 18.098743
72.535 17.726391
72.540 17.46022
72.545 17.720177
72.550 18.168871
72.555 18.336826
72.560 18.409174
72.565 18.280348
72.570 17.989075
72.575 18.109097
72.580 18.140627
72.585 17.951046
72.590 18.302197
72.595 18.540476
72.600 18.78364
72.605 19.112064
72.610 18.214911
72.615 18.154671
72.620 18.220072
72.625 18.082331
72.630 17.709255
72.635 17.29052
72.640 17.30048
72.645 17.532272
72.650 17.575914
72.655 17.264284
72.660 17.513552
72.665 18.044701
72.670 18.377253
72.675 18.212971
72.680 17.989021
72.685 17.464285
72.690 17.799892
72.695 17.701832
72.700 17.086056
72.705 16.604471
72.710 16.60438
72.715 16.756248
72.720 16.659143
72.725 16.50466
72.730 16.635283
72.735 17.622154
72.740 18.22982
72.745 17.989714
72.750 18.45628
72.755 18.404646
72.760 18.23674
72.765 18.451675
72.770 17.922071
72.775 17.983253
72.780 18.092592
72.785 17.859188
72.790 17.134592
72.795 17.107328
72.800 16.92993
72.805 16.968269
72.810 16.765598
72.815 16.879953
72.820 17.256821
72.825 17.957451
72.830 17.868172
72.835 17.894688
72.840 18.15218
72.845 18.090517
72.850 17.686813
72.855 17.175066
72.860 16.881205
72.865 16.442648
72.870 16.474398
72.875 16.118999
72.880 16.15243
72.885 16.326986
72.890 16.221052
72.895 16.134481
72.900 16.30554
72.905 16.673311
72.910 17.288994
72.915 17.17322
72.920 17.025196
72.925 16.682735
72.930 16.411293
72.935 16.198814
72.940 16.011744
72.945 15.624375
72.950 15.439305
72.955 15.548327
72.960 16.47365
72.965 16.802988
72.970 17.180826
72.975 17.125523
72.980 17.520433
72.985 17.996294
72.990 18.068699
72.995 17.318188
73.000 17.060171
