!@!!GADDS PLOTSO FILE: Chi integration type
!@!!Title/SampleName: map-4
!@!!Comment: ?
!@!!User: Bruker Instrument Administrator
!@!!Site: University of Illinois Chicago
!@!!Frame: map-4_01_000.gfrm
!@!!Wavelengths    1.54184   1.54056   1.54439
!@!!Frame angles: 2Theta: 63.000 Omega: 50.000 Phi: 0.000 Chi: 90.000
!@!!Integration range: 2Theta: 53.000 to 73.000  Gamma: -105.000 to -75.000
!@!!Integration method: bin normalized
!@!N
!@!SS
!@!M
!@!L 0.0 0.0 0.0 0.0
!@!XDegrees
!@!YCounts
53.000 7.389094
53.005 7.486291
53.010 7.87601
53.015 8.330626
53.020 8.925843
53.025 9.307816
53.030 9.114045
53.035 8.970295
53.040 8.37759
53.045 7.92518
53.050 7.088253
53.055 6.637107
53.060 6.492593
53.065 6.6678
53.070 6.939592
53.075 7.217493
53.080 7.63166
53.085 8.309918
53.090 8.59418
53.095 8.769844
53.100 8.470191
53.105 8.197464
53.110 8.070436
53.115 7.786207
53.120 7.57884
53.125 7.403675
53.130 7.355351
53.135 7.727691
53.140 7.916449
53.145 8.301181
53.150 8.323536
53.155 8.16223
53.160 8.396646
53.165 8.943297
53.170 8.943165
53.175 8.634698
53.180 8.511915
53.185 8.55444
53.190 8.626454
53.195 8.115266
53.200 7.50019
53.205 7.462662
53.210 7.48124
53.215 7.517017
53.220 7.666323
53.225 8.312188
53.230 8.71139
53.235 9.074721
53.240 9.165151
53.245 9.078743
53.250 8.888922
53.255 8.544332
53.260 7.664766
53.265 7.121591
53.270 6.846198
53.275 6.721996
53.280 6.893961
53.285 6.95581
53.290 7.422698
53.295 7.619233
53.300 8.147507
53.305 8.634823
53.310 8.882206
53.315 8.99691
53.320 8.797549
53.325 8.9924
53.330 9.185867
53.335 8.703868
53.340 8.980095
53.345 9.001375
53.350 8.979509
53.355 9.054526
53.360 9.074034
53.365 9.348646
53.370 9.403359
53.375 8.884251
53.380 8.864544
53.385 9.006948
53.390 9.094205
53.395 8.896557
53.400 8.93057
53.405 8.953586
53.410 9.098486
53.415 9.253878
53.420 9.089566
53.425 8.651403
53.430 8.590005
53.435 8.296033
53.440 8.339567
53.445 8.134312
53.450 7.799596
53.455 7.766775
53.460 7.959685
53.465 7.841661
53.470 7.703465
53.475 7.896513
53.480 8.480227
53.485 8.820053
53.490 9.229822
53.495 9.321745
53.500 10.030358
53.505 10.298102
53.510 10.296613
53.515 10.191803
53.520 10.137109
53.525 9.890858
53.530 10.043739
53.535 9.63169
53.540 9.573925
53.545 9.372127
53.550 9.299551
53.555 9.214425
53.560 9.327316
53.565 9.287016
53.570 9.441451
53.575 9.544932
53.580 9.775902
53.585 9.637201
53.590 9.629432
53.595 8.99757
53.600 8.326132
53.605 8.104377
53.610 8.062677
53.615 8.054037
53.620 8.2955
53.625 8.298223
53.630 8.599955
53.635 8.728841
53.640 8.481384
53.645 7.999215
53.650 7.552062
53.655 7.546309
53.660 7.8868
53.665 8.009738
53.670 8.566492
53.675 8.817385
53.680 9.201897
53.685 9.578949
53.690 9.32763
53.695 9.269135
53.700 9.768327
53.705 9.61756
53.710 10.085313
53.715 10.115278
53.720 10.239315
53.725 10.31697
53.730 10.206391
53.735 10.366894
53.740 10.19556
53.745 9.737041
53.750 9.754525
53.755 9.542252
53.760 9.634737
53.765 9.40896
53.770 9.025595
53.775 9.224545
53.780 9.16099
53.785 9.257046
53.790 9.584107
53.795 9.745646
53.800 9.802781
53.805 9.945242
53.810 9.954072
53.815 9.816657
53.820 9.041588
53.825 8.467913
53.830 8.055079
53.835 8.039177
53.840 8.185182
53.845 8.510742
53.850 8.853743
53.855 9.360878
53.860 9.44977
53.865 9.729982
53.870 9.432784
53.875 9.033792
53.880 8.806623
53.885 8.742748
53.890 8.58691
53.895 8.68519
53.900 8.850554
53.905 9.248585
53.910 8.961226
53.915 9.006724
53.920 9.133385
53.925 9.410722
53.930 9.459573
53.935 8.951632
53.940 9.016534
53.945 9.516609
53.950 9.56671
53.955 9.718688
53.960 9.469475
53.965 9.920463
53.970 10.183058
53.975 9.900781
53.980 9.479568
53.985 9.10397
53.990 8.819677
53.995 8.605505
54.000 8.630502
54.005 8.961057
54.010 9.253395
54.015 9.805516
54.020 10.363411
54.025 10.723701
54.030 10.232338
54.035 9.462588
54.040 9.560448
54.045 9.975063
54.050 9.743863
54.055 9.48674
54.060 9.38763
54.065 10.368188
54.070 10.949133
54.075 10.863385
54.080 10.753428
54.085 10.554397
54.090 10.493694
54.095 10.944726
54.100 10.70459
54.105 10.280499
54.110 9.963773
54.115 9.733042
54.120 9.851715
54.125 9.80694
54.130 9.529017
54.135 9.749207
54.140 9.832787
54.145 9.519905
54.150 9.625034
54.155 9.993172
54.160 10.49588
54.165 10.380325
54.170 10.451355
54.175 10.599048
54.180 10.767097
54.185 10.662462
54.190 10.517518
54.195 10.066207
54.200 10.267465
54.205 10.28462
54.210 10.132151
54.215 10.280819
54.220 10.240777
54.225 10.239861
54.230 10.148713
54.235 10.926159
54.240 10.762397
54.245 10.774827
54.250 10.629699
54.255 10.502045
54.260 10.463724
54.265 10.10361
54.270 8.863893
54.275 8.927727
54.280 8.848533
54.285 8.603897
54.290 8.606417
54.295 8.57324
54.300 8.830004
54.305 8.738377
54.310 8.777662
54.315 8.900493
54.320 8.897146
54.325 8.954568
54.330 9.283657
54.335 9.943039
54.340 10.533402
54.345 10.749565
54.350 11.162125
54.355 11.863273
54.360 11.777957
54.365 11.577746
54.370 11.115215
54.375 10.808854
54.380 10.818049
54.385 10.515035
54.390 10.033273
54.395 10.372101
54.400 10.144815
54.405 10.21524
54.410 10.368793
54.415 10.499535
54.420 10.917173
54.425 10.816615
54.430 10.441907
54.435 10.655559
54.440 10.498223
54.445 10.5521
54.450 10.278585
54.455 10.042666
54.460 10.362507
54.465 9.967448
54.470 9.720372
54.475 10.049584
54.480 9.821563
54.485 9.887552
54.490 10.079145
54.495 10.098477
54.500 10.410853
54.505 10.35404
54.510 9.848518
54.515 9.586499
54.520 9.166475
54.525 9.139642
54.530 9.159002
54.535 9.214143
54.540 9.715415
54.545 10.16441
54.550 10.555056
54.555 10.488534
54.560 10.102193
54.565 9.858145
54.570 9.508397
54.575 8.794276
54.580 8.62534
54.585 8.403955
54.590 8.442719
54.595 8.856958
54.600 9.164345
54.605 9.364652
54.610 9.536061
54.615 9.512539
54.620 9.820219
54.625 9.658586
54.630 9.532621
54.635 9.597694
54.640 10.116575
54.645 10.980695
54.650 11.015444
54.655 10.924744
54.660 11.536168
54.665 11.468138
54.670 11.625549
54.675 11.187178
54.680 10.715436
54.685 10.752276
54.690 10.673178
54.695 10.339694
54.700 10.365933
54.705 10.245537
54.710 9.652586
54.715 9.574576
54.720 9.64849
54.725 10.060385
54.730 10.742407
54.735 10.482933
54.740 10.41674
54.745 10.303302
54.750 10.145282
54.755 10.340025
54.760 10.168422
54.765 9.794534
54.770 10.132922
54.775 10.609572
54.780 10.813055
54.785 10.892962
54.790 10.758142
54.795 10.378676
54.800 10.451774
54.805 9.958557
54.810 9.582129
54.815 9.810464
54.820 9.682484
54.825 9.815234
54.830 10.314096
54.835 10.477505
54.840 10.306025
54.845 10.257864
54.850 10.295016
54.855 10.248446
54.860 9.757607
54.865 9.23862
54.870 9.128796
54.875 9.478767
54.880 9.55613
54.885 9.439796
54.890 9.253183
54.895 9.256768
54.900 9.238389
54.905 9.272414
54.910 9.299334
54.915 9.028122
54.920 9.343469
54.925 9.878421
54.930 10.280476
54.935 10.429563
54.940 10.850238
54.945 11.527758
54.950 11.523195
54.955 11.460449
54.960 11.33973
54.965 11.309088
54.970 11.076127
54.975 10.409189
54.980 9.8617
54.985 10.115989
54.990 9.738409
54.995 9.239663
55.000 9.277596
55.005 9.421836
55.010 9.478674
55.015 9.249027
55.020 9.480869
55.025 9.760801
55.030 10.129573
55.035 10.241522
55.040 10.334662
55.045 10.568886
55.050 10.672238
55.055 10.58434
55.060 10.544385
55.065 10.325311
55.070 10.291741
55.075 10.331033
55.080 10.730939
55.085 10.893694
55.090 10.743792
55.095 11.050693
55.100 11.430818
55.105 11.591087
55.110 11.738821
55.115 11.956709
55.120 12.272795
55.125 12.386499
55.130 12.166017
55.135 11.94164
55.140 11.541101
55.145 11.165967
55.150 10.647935
55.155 10.291965
55.160 10.077329
55.165 9.744699
55.170 9.991805
55.175 10.427528
55.180 10.641688
55.185 10.891253
55.190 11.151847
55.195 11.531585
55.200 11.733721
55.205 11.374167
55.210 11.355984
55.215 11.597577
55.220 11.895683
55.225 11.363493
55.230 10.808816
55.235 10.770339
55.240 10.966248
55.245 10.696598
55.250 10.214615
55.255 9.960231
55.260 10.399453
55.265 10.909514
55.270 11.183388
55.275 11.445187
55.280 11.617663
55.285 11.930773
55.290 12.266444
55.295 12.234027
55.300 12.458982
55.305 12.645322
55.310 12.479099
55.315 12.521959
55.320 12.32678
55.325 12.346889
55.330 12.559026
55.335 12.090435
55.340 11.77188
55.345 11.481763
55.350 11.286489
55.355 11.052574
55.360 10.956322
55.365 10.949783
55.370 10.638747
55.375 11.02072
55.380 11.223478
55.385 11.453914
55.390 11.994875
55.395 11.866241
55.400 11.917892
55.405 11.842834
55.410 11.410792
55.415 11.357018
55.420 11.587339
55.425 11.489148
55.430 11.489222
55.435 11.218613
55.440 11.491756
55.445 11.961985
55.450 11.947172
55.455 11.771893
55.460 11.806396
55.465 12.091364
55.470 12.692039
55.475 12.788373
55.480 12.650337
55.485 12.404961
55.490 12.280456
55.495 11.746531
55.500 11.335767
55.505 10.93082
55.510 10.46641
55.515 10.576728
55.520 10.812836
55.525 11.054671
55.530 11.254045
55.535 11.370662
55.540 11.480568
55.545 11.227975
55.550 11.422075
55.555 11.518984
55.560 11.93734
55.565 12.226947
55.570 12.464922
55.575 12.876596
55.580 12.862006
55.585 12.147779
55.590 12.296786
55.595 11.81883
55.600 11.842262
55.605 11.045918
55.610 11.3318
55.615 11.436529
55.620 11.669879
55.625 11.197133
55.630 11.365521
55.635 11.58661
55.640 11.814498
55.645 11.150043
55.650 11.504656
55.655 11.68005
55.660 11.620769
55.665 11.575861
55.670 11.719375
55.675 12.153932
55.680 12.620633
55.685 12.550564
55.690 12.311586
55.695 12.266675
55.700 11.652776
55.705 11.503699
55.710 11.185595
55.715 10.83963
55.720 10.328908
55.725 10.439388
55.730 10.204594
55.735 10.036622
55.740 9.929214
55.745 9.432454
55.750 9.730339
55.755 9.890278
55.760 9.815732
55.765 10.475046
55.770 11.07405
55.775 11.127213
55.780 11.426776
55.785 11.291242
55.790 11.539881
55.795 11.202347
55.800 10.715798
55.805 10.550375
55.810 10.345165
55.815 10.3604
55.820 10.612714
55.825 10.834962
55.830 11.106797
55.835 11.152027
55.840 11.099519
55.845 11.581359
55.850 11.216504
55.855 11.008678
55.860 10.944479
55.865 11.095824
55.870 11.634766
55.875 12.1234
55.880 12.104901
55.885 12.421404
55.890 12.234219
55.895 12.554159
55.900 12.632362
55.905 12.407378
55.910 12.381786
55.915 12.565471
55.920 13.17466
55.925 13.656342
55.930 13.453665
55.935 14.051616
55.940 13.77172
55.945 13.819738
55.950 13.565753
55.955 13.123068
55.960 12.423162
55.965 11.872254
55.970 11.38471
55.975 11.174867
55.980 11.384258
55.985 11.772718
55.990 11.272852
55.995 11.405201
56.000 11.514495
56.005 11.968426
56.010 12.051199
56.015 11.310092
56.020 11.257742
56.025 11.857102
56.030 12.144153
56.035 12.503628
56.040 12.444604
56.045 12.847959
56.050 12.871289
56.055 12.860029
56.060 12.542126
56.065 11.856841
56.070 11.314505
56.075 10.887258
56.080 10.755571
56.085 10.574145
56.090 10.059834
56.095 10.274549
56.100 11.044457
56.105 10.716066
56.110 10.308805
56.115 10.425311
56.120 11.01951
56.125 11.646252
56.130 11.291178
56.135 11.214817
56.140 11.693624
56.145 11.540182
56.150 11.303244
56.155 10.582382
56.160 10.550044
56.165 10.971842
56.170 10.766696
56.175 11.141985
56.180 11.500483
56.185 11.43405
56.190 11.835766
56.195 11.721854
56.200 11.179095
56.205 10.961744
56.210 11.122455
56.215 11.654472
56.220 11.971918
56.225 11.980709
56.230 12.098767
56.235 12.914864
56.240 13.078161
56.245 12.619289
56.250 12.33322
56.255 12.354779
56.260 12.785778
56.265 13.145262
56.270 13.085533
56.275 13.081781
56.280 13.369663
56.285 13.649902
56.290 13.787384
56.295 13.672685
56.300 13.522168
56.305 13.531733
56.310 13.505922
56.315 13.386037
56.320 12.903657
56.325 12.608332
56.330 12.790065
56.335 12.928192
56.340 13.075152
56.345 12.994143
56.350 12.32045
56.355 12.626062
56.360 12.421535
56.365 11.733847
56.370 11.012788
56.375 10.855941
56.380 10.873334
56.385 11.428285
56.390 11.126364
56.395 11.340572
56.400 11.591999
56.405 11.322353
56.410 11.304793
56.415 11.828714
56.420 12.19193
56.425 12.273837
56.430 12.466392
56.435 12.41689
56.440 12.187484
56.445 12.059531
56.450 11.195857
56.455 10.829765
56.460 10.758264
56.465 10.655401
56.470 10.611423
56.475 11.044851
56.480 11.407943
56.485 11.95088
56.490 12.292879
56.495 12.799199
56.500 12.927011
56.505 13.126318
56.510 13.226266
56.515 12.783088
56.520 12.498837
56.525 11.983674
56.530 11.280618
56.535 10.680618
56.540 10.443036
56.545 9.998659
56.550 10.347328
56.555 10.132773
56.560 9.846281
56.565 10.057801
56.570 10.180971
56.575 10.353906
56.580 10.650528
56.585 11.094511
56.590 11.437351
56.595 12.049175
56.600 12.153646
56.605 12.8947
56.610 13.212764
56.615 13.464063
56.620 13.082447
56.625 13.413236
56.630 13.205175
56.635 13.059431
56.640 12.808416
56.645 12.792406
56.650 12.296925
56.655 12.189456
56.660 11.864285
56.665 11.987117
56.670 12.468394
56.675 12.721096
56.680 12.860621
56.685 12.960261
56.690 13.046407
56.695 13.291669
56.700 13.349951
56.705 13.003163
56.710 13.17372
56.715 13.269246
56.720 13.45074
56.725 13.636051
56.730 13.46115
56.735 13.106896
56.740 12.783752
56.745 12.855681
56.750 12.74803
56.755 12.67784
56.760 12.741748
56.765 13.406857
56.770 13.709386
56.775 13.887635
56.780 13.858453
56.785 14.231702
56.790 14.274822
56.795 13.952461
56.800 13.315619
56.805 13.677188
56.810 13.616452
56.815 13.399783
56.820 13.105781
56.825 13.146438
56.830 13.700932
56.835 14.650243
56.840 15.096717
56.845 15.101442
56.850 15.046165
56.855 14.87212
56.860 14.751887
56.865 14.206947
56.870 13.254046
56.875 12.801344
56.880 12.66923
56.885 12.221521
56.890 12.349518
56.895 12.71859
56.900 12.972385
56.905 12.848584
56.910 12.317539
56.915 12.27463
56.920 12.514685
56.925 12.44223
56.930 12.302825
56.935 12.235473
56.940 12.350899
56.945 13.144854
56.950 13.553225
56.955 13.7432
56.960 13.506664
56.965 13.677745
56.970 13.806852
56.975 14.401601
56.980 13.854196
56.985 13.994287
56.990 14.114218
56.995 14.105916
57.000 13.74116
57.005 13.400889
57.010 12.943781
57.015 13.000989
57.020 12.897018
57.025 12.974231
57.030 12.986199
57.035 13.002577
57.040 12.661538
57.045 12.79407
57.050 13.085014
57.055 12.968945
57.060 12.733815
57.065 12.810585
57.070 13.068344
57.075 13.416419
57.080 13.489639
57.085 13.678369
57.090 14.208321
57.095 14.584903
57.100 14.377333
57.105 14.668096
57.110 14.596631
57.115 14.74705
57.120 14.808192
57.125 14.486653
57.130 13.926004
57.135 13.60389
57.140 13.391061
57.145 13.387234
57.150 12.719625
57.155 12.035774
57.160 12.435337
57.165 12.836905
57.170 13.028975
57.175 12.793654
57.180 12.853962
57.185 12.868666
57.190 12.786484
57.195 12.648018
57.200 13.176143
57.205 13.370443
57.210 13.566699
57.215 13.272687
57.220 13.561295
57.225 13.716864
57.230 13.456634
57.235 12.923684
57.240 12.842965
57.245 13.310894
57.250 13.336813
57.255 13.726035
57.260 14.1084
57.265 14.202493
57.270 14.341352
57.275 14.201391
57.280 14.00661
57.285 14.308068
57.290 13.98923
57.295 14.048691
57.300 14.552058
57.305 14.622555
57.310 14.959838
57.315 15.472746
57.320 15.996081
57.325 16.065451
57.330 15.753237
57.335 15.734924
57.340 15.939964
57.345 15.763136
57.350 15.161155
57.355 14.668183
57.360 14.694734
57.365 14.531996
57.370 14.004103
57.375 13.865226
57.380 13.735555
57.385 13.757493
57.390 13.3168
57.395 13.574581
57.400 13.728375
57.405 14.18924
57.410 14.669641
57.415 14.816903
57.420 15.046146
57.425 15.285037
57.430 14.935541
57.435 14.86863
57.440 14.905343
57.445 14.671537
57.450 14.91004
57.455 14.785089
57.460 14.6185
57.465 14.957071
57.470 15.064313
57.475 14.58643
57.480 14.472885
57.485 14.429744
57.490 14.375771
57.495 14.221124
57.500 13.743787
57.505 13.486794
57.510 13.723652
57.515 13.866581
57.520 13.723781
57.525 13.49707
57.530 13.769876
57.535 14.055195
57.540 14.064329
57.545 14.230412
57.550 14.223366
57.555 14.489436
57.560 14.886403
57.565 14.712389
57.570 14.564178
57.575 14.796978
57.580 14.750234
57.585 14.745743
57.590 14.828803
57.595 14.67771
57.600 14.475298
57.605 14.269155
57.610 13.917521
57.615 13.813861
57.620 13.61966
57.625 13.907459
57.630 14.499899
57.635 14.769052
57.640 14.804668
57.645 14.7915
57.650 14.676411
57.655 14.690801
57.660 14.158908
57.665 13.569786
57.670 13.748625
57.675 14.033015
57.680 14.065639
57.685 14.154584
57.690 13.908117
57.695 13.186052
57.700 12.691519
57.705 12.594017
57.710 11.673903
57.715 11.778867
57.720 12.031343
57.725 12.282297
57.730 12.816556
57.735 13.256886
57.740 13.332636
57.745 13.489091
57.750 13.370131
57.755 12.953703
57.760 12.844812
57.765 12.912905
57.770 12.477829
57.775 12.283486
57.780 12.953242
57.785 12.853484
57.790 12.775925
57.795 13.221037
57.800 13.493701
57.805 14.09808
57.810 14.129456
57.815 14.174129
57.820 14.927123
57.825 15.648485
57.830 15.169234
57.835 14.759085
57.840 14.809897
57.845 14.652624
57.850 14.2578
57.855 13.420113
57.860 12.807691
57.865 13.001528
57.870 13.034732
57.875 12.980449
57.880 13.250381
57.885 13.617615
57.890 13.694732
57.895 13.964515
57.900 13.941195
57.905 14.134453
57.910 14.070492
57.915 14.148859
57.920 13.607767
57.925 13.57515
57.930 13.87755
57.935 14.071596
57.940 14.26864
57.945 14.14408
57.950 14.549997
57.955 14.855617
57.960 14.601234
57.965 14.140309
57.970 14.499867
57.975 14.630197
57.980 14.483532
57.985 14.460543
57.990 14.619411
57.995 14.685245
58.000 14.589022
58.005 14.387933
58.010 14.503287
58.015 14.765761
58.020 14.671946
58.025 14.463243
58.030 14.424467
58.035 14.84547
58.040 14.770922
58.045 14.886312
58.050 15.315892
58.055 15.544093
58.060 15.41877
58.065 15.438576
58.070 15.344213
58.075 15.05309
58.080 14.640973
58.085 13.728978
58.090 13.508657
58.095 13.837306
58.100 14.020775
58.105 13.833723
58.110 13.771754
58.115 13.691533
58.120 13.766338
58.125 13.734875
58.130 13.884378
58.135 14.125744
58.140 13.792604
58.145 13.574964
58.150 13.539292
58.155 13.119198
58.160 12.866895
58.165 12.264528
58.170 11.837646
58.175 12.176688
58.180 12.410921
58.185 12.195604
58.190 12.711938
58.195 13.042313
58.200 13.638844
58.205 14.321124
58.210 14.46157
58.215 14.79559
58.220 15.561769
58.225 15.620871
58.230 15.451253
58.235 15.064765
58.240 14.564836
58.245 14.183455
58.250 13.9731
58.255 13.636169
58.260 13.603651
58.265 13.607728
58.270 13.548601
58.275 13.831029
58.280 13.727165
58.285 13.489813
58.290 13.14959
58.295 13.093691
58.300 13.401827
58.305 13.616545
58.310 13.637854
58.315 13.544222
58.320 13.628044
58.325 14.252388
58.330 14.603222
58.335 14.26581
58.340 13.985792
58.345 13.590397
58.350 13.89249
58.355 13.77898
58.360 12.915059
58.365 12.791177
58.370 13.135905
58.375 13.30181
58.380 13.478835
58.385 13.925217
58.390 14.203458
58.395 14.813346
58.400 14.791724
58.405 14.745545
58.410 14.879004
58.415 14.963466
58.420 14.236099
58.425 14.486708
58.430 14.291335
58.435 14.133934
58.440 14.428165
58.445 14.484784
58.450 14.639038
58.455 15.237937
58.460 15.058113
58.465 15.082478
58.470 15.282751
58.475 14.876418
58.480 14.629343
58.485 14.497573
58.490 14.326992
58.495 14.631309
58.500 15.041224
58.505 15.132885
58.510 15.190553
58.515 15.698672
58.520 15.169001
58.525 14.789352
58.530 14.586537
58.535 14.650029
58.540 14.618936
58.545 14.618775
58.550 14.36995
58.555 14.892829
58.560 15.109726
58.565 14.697356
58.570 13.927387
58.575 13.666938
58.580 13.700852
58.585 13.686059
58.590 13.724125
58.595 13.872309
58.600 13.99113
58.605 14.114813
58.610 14.076271
58.615 13.904237
58.620 14.197464
58.625 14.567643
58.630 14.919374
58.635 14.807758
58.640 15.063423
58.645 15.044093
58.650 14.863563
58.655 14.523142
58.660 14.452849
58.665 14.299222
58.670 14.926445
58.675 14.99279
58.680 15.304157
58.685 15.517754
58.690 15.50549
58.695 15.347741
58.700 15.758859
58.705 15.401909
58.710 15.462294
58.715 15.674794
58.720 16.131599
58.725 16.37262
58.730 16.314165
58.735 15.73523
58.740 15.675332
58.745 15.378755
58.750 14.856287
58.755 14.660319
58.760 14.553263
58.765 14.328466
58.770 14.566305
58.775 15.014329
58.780 15.535829
58.785 15.519371
58.790 15.646889
58.795 15.495935
58.800 16.061049
58.805 16.31867
58.810 16.522417
58.815 16.607374
58.820 16.655201
58.825 16.508734
58.830 16.61157
58.835 16.109888
58.840 15.693628
58.845 15.358765
58.850 14.932939
58.855 14.873185
58.860 15.143535
58.865 15.502549
58.870 15.510952
58.875 15.485418
58.880 15.684977
58.885 15.660989
58.890 15.495142
58.895 15.434429
58.900 14.979865
58.905 14.91931
58.910 15.060497
58.915 14.689145
58.920 14.609681
58.925 14.793463
58.930 15.179523
58.935 15.324681
58.940 15.874472
58.945 16.046343
58.950 15.915169
58.955 16.346392
58.960 16.408541
58.965 16.758753
58.970 17.133753
58.975 17.075539
58.980 17.041452
58.985 17.371326
58.990 17.524479
58.995 17.438042
59.000 16.450438
59.005 16.411903
59.010 16.15082
59.015 15.723612
59.020 15.069633
59.025 14.828338
59.030 14.402081
59.035 14.509307
59.040 14.424296
59.045 14.025533
59.050 14.447631
59.055 14.798074
59.060 14.883874
59.065 15.044895
59.070 14.772199
59.075 15.306492
59.080 15.856338
59.085 15.808743
59.090 15.818107
59.095 16.135639
59.100 16.161465
59.105 16.683527
59.110 16.145084
59.115 15.647897
59.120 15.892606
59.125 16.011889
59.130 16.162048
59.135 16.357424
59.140 15.883884
59.145 15.838931
59.150 15.828157
59.155 15.701475
59.160 15.458732
59.165 15.329428
59.170 15.653228
59.175 15.792431
59.180 15.637491
59.185 15.546745
59.190 15.710009
59.195 15.912777
59.200 15.403756
59.205 14.755654
59.210 14.636319
59.215 14.74182
59.220 14.903879
59.225 14.957491
59.230 14.387984
59.235 14.60049
59.240 14.843637
59.245 15.715916
59.250 16.296297
59.255 16.028908
59.260 15.855761
59.265 15.628086
59.270 15.415538
59.275 15.460037
59.280 14.777897
59.285 14.895567
59.290 15.445398
59.295 15.808948
59.300 16.382799
59.305 16.837229
59.310 16.605642
59.315 16.413729
59.320 15.98337
59.325 16.090532
59.330 16.151587
59.335 15.927325
59.340 16.09375
59.345 16.336811
59.350 16.099012
59.355 16.197199
59.360 16.570513
59.365 16.703407
59.370 16.65102
59.375 16.577925
59.380 16.652308
59.385 17.035246
59.390 17.365685
59.395 17.165375
59.400 17.246027
59.405 17.033239
59.410 17.130558
59.415 17.349392
59.420 17.232775
59.425 16.838026
59.430 16.454634
59.435 16.907722
59.440 17.253292
59.445 16.880079
59.450 16.663115
59.455 16.657074
59.460 16.717566
59.465 16.292786
59.470 15.942063
59.475 15.991915
59.480 15.942397
59.485 15.800261
59.490 16.095926
59.495 15.695236
59.500 15.446791
59.505 15.705726
59.510 15.64971
59.515 15.832227
59.520 15.507534
59.525 15.585461
59.530 15.984505
59.535 16.463484
59.540 16.250029
59.545 16.462244
59.550 16.415989
59.555 16.808144
59.560 16.827341
59.565 17.219894
59.570 17.274889
59.575 17.376295
59.580 17.01589
59.585 17.465923
59.590 17.717005
59.595 17.561298
59.600 17.773317
59.605 18.174623
59.610 18.419722
59.615 18.654144
59.620 18.392653
59.625 18.358936
59.630 18.070175
59.635 16.883224
59.640 16.297062
59.645 16.564236
59.650 16.593857
59.655 16.349672
59.660 16.251637
59.665 17.042814
59.670 17.889275
59.675 18.047291
59.680 17.785625
59.685 17.758495
59.690 18.615955
59.695 19.076368
59.700 19.53056
59.705 19.653147
59.710 19.66139
59.715 19.79228
59.720 19.988569
59.725 19.684088
59.730 19.46274
59.735 18.682922
59.740 18.756935
59.745 18.855268
59.750 18.913321
59.755 18.787857
59.760 18.075386
59.765 17.640301
59.770 17.128151
59.775 16.640497
59.780 16.575485
59.785 16.528105
59.790 16.744919
59.795 17.073322
59.800 17.672016
59.805 17.968246
59.810 17.903103
59.815 18.001932
59.820 18.412107
59.825 18.494574
59.830 18.576647
59.835 18.382957
59.840 18.878288
59.845 19.811495
59.850 19.568787
59.855 19.124672
59.860 19.104975
59.865 19.267591
59.870 19.27663
59.875 19.276165
59.880 18.673944
59.885 18.364288
59.890 18.494093
59.895 18.515602
59.900 18.486065
59.905 18.541813
59.910 18.559778
59.915 18.812248
59.920 19.188812
59.925 20.106449
59.930 20.59716
59.935 20.846672
59.940 20.248804
59.945 19.493057
59.950 19.812073
59.955 20.020899
59.960 19.495863
59.965 19.368586
59.970 19.075968
59.975 19.837439
59.980 20.184565
59.985 19.707048
59.990 19.195717
59.995 19.011467
60.000 18.851566
60.005 19.354673
60.010 19.607609
60.015 20.094736
60.020 20.406681
60.025 20.578009
60.030 20.647696
60.035 20.903824
60.040 20.195736
60.045 20.140322
60.050 20.865414
60.055 21.032368
60.060 20.871531
60.065 20.341866
60.070 19.768034
60.075 20.405207
60.080 20.46089
60.085 20.489243
60.090 21.122221
60.095 21.450911
60.100 21.537817
60.105 22.038668
60.110 21.8333
60.115 21.669535
60.120 21.373354
60.125 20.86656
60.130 20.634033
60.135 20.927647
60.140 20.246035
60.145 20.213718
60.150 20.223476
60.155 19.719332
60.160 20.070627
60.165 20.592136
60.170 20.963339
60.175 21.662146
60.180 21.680866
60.185 21.29644
60.190 21.011457
60.195 20.576836
60.200 20.625097
60.205 20.221325
60.210 20.140373
60.215 20.077665
60.220 19.627966
60.225 20.215353
60.230 20.169695
60.235 19.634188
60.240 19.136297
60.245 19.261341
60.250 19.290871
60.255 19.578016
60.260 19.495733
60.265 20.133785
60.270 20.475222
60.275 20.748085
60.280 20.471048
60.285 20.380777
60.290 20.50864
60.295 20.051752
60.300 18.99295
60.305 18.259439
60.310 18.473286
60.315 18.294895
60.320 18.217121
60.325 18.023029
60.330 18.056992
60.335 18.593136
60.340 19.227768
60.345 19.220324
60.350 19.768873
60.355 20.180269
60.360 20.175425
60.365 19.994453
60.370 19.984663
60.375 19.910322
60.380 20.34292
60.385 20.299461
60.390 20.45241
60.395 20.752703
60.400 21.148079
60.405 21.678362
60.410 21.880121
60.415 21.642277
60.420 21.392498
60.425 21.412325
60.430 21.455204
60.435 21.265387
60.440 20.909414
60.445 21.046402
60.450 21.297953
60.455 21.099428
60.460 20.891327
60.465 20.915277
60.470 20.446381
60.475 20.285379
60.480 19.497282
60.485 18.903214
60.490 18.86396
60.495 18.728598
60.500 18.507463
60.505 18.652788
60.510 18.56712
60.515 18.77276
60.520 19.160564
60.525 19.404942
60.530 19.359999
60.535 19.672512
60.540 19.892105
60.545 20.162193
60.550 20.213173
60.555 19.584669
60.560 19.31369
60.565 19.167601
60.570 19.051296
60.575 19.120659
60.580 18.810869
60.585 18.823957
60.590 18.753582
60.595 18.876211
60.600 18.592112
60.605 18.024847
60.610 17.840891
60.615 17.58802
60.620 17.3041
60.625 17.927597
60.630 17.829605
60.635 18.230663
60.640 18.299673
60.645 18.603487
60.650 19.382755
60.655 19.373302
60.660 18.830746
60.665 18.385559
60.670 17.954813
60.675 18.0788
60.680 17.390215
60.685 17.262636
60.690 17.897043
60.695 18.547207
60.700 18.897543
60.705 19.420061
60.710 19.253958
60.715 18.93786
60.720 18.525175
60.725 18.166847
60.730 18.071817
60.735 18.043341
60.740 18.256937
60.745 18.210432
60.750 18.603989
60.755 19.377047
60.760 19.490437
60.765 19.455826
60.770 19.544262
60.775 19.063782
60.780 18.985695
60.785 18.645798
60.790 17.75692
60.795 17.519611
60.800 17.158173
60.805 17.380276
60.810 17.869461
60.815 18.439718
60.820 18.661444
60.825 18.329237
60.830 18.697939
60.835 19.135817
60.840 19.073971
60.845 18.866718
60.850 18.386585
60.855 18.191505
60.860 18.709387
60.865 17.79722
60.870 17.49958
60.875 16.836819
60.880 16.324772
60.885 16.246925
60.890 15.739466
60.895 15.409336
60.900 15.846006
60.905 16.087374
60.910 16.596323
60.915 17.086098
60.920 17.528614
60.925 18.189537
60.930 18.284004
60.935 17.850405
60.940 17.32024
60.945 16.904871
60.950 16.723618
60.955 16.944244
60.960 16.93598
60.965 17.26375
60.970 17.695684
60.975 17.710094
60.980 18.333881
60.985 19.33161
60.990 19.602041
60.995 19.86614
61.000 19.689705
61.005 19.633406
61.010 19.613016
61.015 19.496941
61.020 18.888424
61.025 18.330206
61.030 17.347012
61.035 17.543156
61.040 17.631041
61.045 17.480942
61.050 17.209936
61.055 16.158541
61.060 16.364264
61.065 17.374033
61.070 17.033264
61.075 16.803616
61.080 16.79686
61.085 16.378242
61.090 16.964674
61.095 16.295799
61.100 15.692187
61.105 15.985056
61.110 16.279726
61.115 16.616978
61.120 16.752466
61.125 16.460978
61.130 16.982738
61.135 17.618557
61.140 17.935213
61.145 17.438736
61.150 16.927067
61.155 16.950666
61.160 16.751764
61.165 16.417801
61.170 15.881731
61.175 15.866508
61.180 16.071875
61.185 16.468998
61.190 16.827383
61.195 17.378574
61.200 18.24778
61.205 18.306799
61.210 18.216228
61.215 18.624708
61.220 19.136679
61.225 18.917309
61.230 18.480497
61.235 17.586239
61.240 17.052233
61.245 16.820396
61.250 16.344015
61.255 15.891863
61.260 16.027395
61.265 16.267427
61.270 15.76135
61.275 15.430752
61.280 15.176997
61.285 14.629268
61.290 14.452033
61.295 14.5076
61.300 14.541876
61.305 14.943415
61.310 15.40949
61.315 15.803389
61.320 16.247133
61.325 16.655704
61.330 16.870771
61.335 17.266888
61.340 17.487823
61.345 17.563292
61.350 17.610458
61.355 18.102749
61.360 18.229494
61.365 18.310093
61.370 18.191339
61.375 18.147093
61.380 18.244301
61.385 18.26236
61.390 17.82906
61.395 17.303389
61.400 16.73502
61.405 17.054722
61.410 16.902039
61.415 16.452383
61.420 16.543755
61.425 17.193735
61.430 17.425909
61.435 17.600344
61.440 16.564877
61.445 16.612381
61.450 16.788736
61.455 16.923401
61.460 16.46228
61.465 16.47575
61.470 16.476379
61.475 17.033932
61.480 16.916523
61.485 17.079193
61.490 17.048254
61.495 17.264908
61.500 17.112478
61.505 17.201494
61.510 17.053284
61.515 17.737331
61.520 17.833876
61.525 17.822289
61.530 17.229635
61.535 17.241396
61.540 17.291153
61.545 17.501251
61.550 17.347563
61.555 16.857252
61.560 16.68186
61.565 16.647318
61.570 16.945717
61.575 17.761473
61.580 18.002466
61.585 17.939953
61.590 18.239399
61.595 18.023754
61.600 17.956032
61.605 17.440113
61.610 16.807749
61.615 16.34668
61.620 15.87863
61.625 15.413374
61.630 15.996908
61.635 16.136974
61.640 16.305006
61.645 16.322397
61.650 16.150669
61.655 16.816729
61.660 17.041155
61.665 16.742218
61.670 16.39554
61.675 16.623026
61.680 16.370422
61.685 17.025497
61.690 16.782244
61.695 16.901892
61.700 17.166061
61.705 17.282396
61.710 16.997381
61.715 16.773722
61.720 15.791416
61.725 15.419284
61.730 15.008694
61.735 14.882448
61.740 14.87439
61.745 14.480311
61.750 14.196517
61.755 14.596074
61.760 14.710537
61.765 15.060393
61.770 15.25141
61.775 15.454837
61.780 15.813129
61.785 16.065939
61.790 15.821573
61.795 16.454596
61.800 16.410946
61.805 16.623278
61.810 16.979603
61.815 16.740894
61.820 17.469948
61.825 18.149858
61.830 17.760782
61.835 17.424463
61.840 17.325083
61.845 16.807547
61.850 16.402149
61.855 15.800118
61.860 15.963763
61.865 16.160639
61.870 16.605114
61.875 16.582245
61.880 17.522079
61.885 18.261013
61.890 18.714424
61.895 18.635258
61.900 18.901245
61.905 18.684557
61.910 18.733015
61.915 18.185043
61.920 18.009594
61.925 17.870617
61.930 17.215282
61.935 17.050142
61.940 16.969425
61.945 16.718662
61.950 16.685884
61.955 16.581249
61.960 16.040361
61.965 15.971265
61.970 15.702587
61.975 15.948398
61.980 15.407455
61.985 15.327639
61.990 15.28877
61.995 15.250693
62.000 15.354177
62.005 15.381063
62.010 15.773342
62.015 16.327198
62.020 16.530596
62.025 17.103815
62.030 17.352467
62.035 17.337372
62.040 17.377731
62.045 16.598219
62.050 16.605968
62.055 17.10079
62.060 16.518768
62.065 16.008989
62.070 15.603316
62.075 15.575546
62.080 16.871592
62.085 17.284332
62.090 16.678122
62.095 16.649017
62.100 17.100468
62.105 16.975903
62.110 17.047178
62.115 16.421461
62.120 16.482647
62.125 16.847795
62.130 17.244362
62.135 17.789928
62.140 18.720299
62.145 18.737921
62.150 18.452747
62.155 17.915068
62.160 17.726688
62.165 17.761438
62.170 17.727234
62.175 17.847736
62.180 18.15831
62.185 17.956221
62.190 17.998615
62.195 17.949371
62.200 17.863886
62.205 17.171543
62.210 16.555599
62.215 16.005302
62.220 15.637595
62.225 15.612024
62.230 15.797406
62.235 15.729954
62.240 15.902414
62.245 15.691689
62.250 16.009111
62.255 16.061436
62.260 16.424343
62.265 16.898115
62.270 17.024061
62.275 16.621778
62.280 16.046291
62.285 15.370653
62.290 15.317492
62.295 14.608167
62.300 13.897504
62.305 14.178232
62.310 14.481415
62.315 15.05162
62.320 15.551469
62.325 15.886095
62.330 15.803802
62.335 15.559169
62.340 15.202794
62.345 15.41272
62.350 15.541795
62.355 15.462918
62.360 15.759814
62.365 16.243467
62.370 16.333416
62.375 16.847359
62.380 17.163528
62.385 17.353884
62.390 17.353628
62.395 17.2321
62.400 17.585167
62.405 17.883423
62.410 17.324884
62.415 16.427906
62.420 16.407261
62.425 16.164013
62.430 16.075066
62.435 16.065689
62.440 16.296289
62.445 16.740808
62.450 17.770882
62.455 18.149181
62.460 18.694586
62.465 18.977734
62.470 18.912863
62.475 18.565584
62.480 18.392179
62.485 17.768751
62.490 17.251595
62.495 17.380709
62.500 17.151091
62.505 17.111362
62.510 16.864302
62.515 17.32518
62.520 17.738821
62.525 17.697411
62.530 17.437166
62.535 16.922182
62.540 17.231256
62.545 17.889961
62.550 17.118114
62.555 16.709055
62.560 17.228001
62.565 17.058338
62.570 17.056929
62.575 16.573095
62.580 16.040569
62.585 16.037457
62.590 16.451939
62.595 15.963262
62.600 16.378157
62.605 16.330894
62.610 16.121742
62.615 16.430656
62.620 16.851242
62.625 16.516811
62.630 16.596151
62.635 16.469055
62.640 16.890072
62.645 17.397455
62.650 17.501797
62.655 17.602615
62.660 17.61706
62.665 17.840031
62.670 18.211916
62.675 18.423601
62.680 18.181637
62.685 17.983496
62.690 17.835621
62.695 17.842937
62.700 17.397142
62.705 17.278404
62.710 16.808201
62.715 16.965799
62.720 17.114189
62.725 17.300991
62.730 17.507198
62.735 17.384212
62.740 16.729273
62.745 17.016489
62.750 16.782459
62.755 16.560879
62.760 16.730211
62.765 16.400984
62.770 16.593344
62.775 16.779001
62.780 16.474478
62.785 16.228735
62.790 15.825089
62.795 15.269962
62.800 15.51913
62.805 16.063711
62.810 16.627831
62.815 17.009689
62.820 16.990002
62.825 17.068783
62.830 17.215498
62.835 17.392183
62.840 16.695374
62.845 16.383572
62.850 16.240561
62.855 16.946171
62.860 17.262329
62.865 17.108515
62.870 16.728144
62.875 17.395327
62.880 17.771708
62.885 17.870817
62.890 17.771948
62.895 17.56871
62.900 17.362391
62.905 16.873795
62.910 16.316881
62.915 15.646502
62.920 15.570042
62.925 15.332092
62.930 15.350978
62.935 15.972255
62.940 16.4373
62.945 16.660898
62.950 16.80106
62.955 16.678661
62.960 16.553097
62.965 16.722122
62.970 16.594501
62.975 16.940784
62.980 16.775047
62.985 16.824995
62.990 16.977348
62.995 17.372969
63.000 17.304976
63.005 16.915091
63.010 16.926676
63.015 17.123009
63.020 17.186876
63.025 17.02549
63.030 16.88443
63.035 16.692953
63.040 16.830322
63.045 16.972534
63.050 16.480932
63.055 16.293839
63.060 16.185904
63.065 15.682476
63.070 15.622095
63.075 15.175396
63.080 14.671748
63.085 15.134345
63.090 15.222619
63.095 15.437273
63.100 15.689567
63.105 15.715969
63.110 16.087309
63.115 16.164852
63.120 16.014772
63.125 16.331024
63.130 16.513535
63.135 16.201059
63.140 16.650795
63.145 16.817396
63.150 16.798183
63.155 17.190008
63.160 17.19692
63.165 17.349451
63.170 17.849817
63.175 17.999992
63.180 17.858597
63.185 18.148392
63.190 18.408232
63.195 18.222284
63.200 18.430256
63.205 18.502691
63.210 18.359669
63.215 18.26409
63.220 17.720545
63.225 17.038265
63.230 16.954121
63.235 16.395803
63.240 16.190596
63.245 15.622597
63.250 16.290884
63.255 16.564402
63.260 16.693058
63.265 16.88928
63.270 16.951887
63.275 17.354534
63.280 17.756111
63.285 17.814625
63.290 17.616909
63.295 18.144573
63.300 17.764708
63.305 17.500862
63.310 17.375998
63.315 17.301439
63.320 17.546154
63.325 18.03883
63.330 17.618988
63.335 18.458954
63.340 18.716597
63.345 18.723116
63.350 18.657715
63.355 18.522821
63.360 18.654182
63.365 18.69869
63.370 18.191557
63.375 18.456261
63.380 18.668438
63.385 18.742815
63.390 18.487349
63.395 18.172688
63.400 17.782488
63.405 17.979288
63.410 17.788744
63.415 17.580015
63.420 17.281408
63.425 17.000917
63.430 17.498806
63.435 18.155653
63.440 17.849268
63.445 17.66527
63.450 17.257397
63.455 17.393515
63.460 17.064688
63.465 16.433731
63.470 16.221222
63.475 16.53727
63.480 16.132708
63.485 16.412127
63.490 16.489578
63.495 17.121914
63.500 17.521561
63.505 18.138441
63.510 18.23753
63.515 18.376066
63.520 18.392179
63.525 18.497654
63.530 18.483194
63.535 18.090759
63.540 17.576458
63.545 17.244514
63.550 17.230673
63.555 17.469656
63.560 17.410206
63.565 17.497852
63.570 17.426514
63.575 17.207113
63.580 17.52216
63.585 17.732533
63.590 17.878447
63.595 17.66485
63.600 17.713556
63.605 17.739075
63.610 17.9153
63.615 18.164637
63.620 18.46509
63.625 18.084393
63.630 18.235086
63.635 17.968204
63.640 18.044222
63.645 18.25585
63.650 18.302393
63.655 18.218668
63.660 18.712715
63.665 18.871498
63.670 18.978659
63.675 18.83477
63.680 18.48027
63.685 18.302206
63.690 18.232914
63.695 17.579548
63.700 17.192953
63.705 17.477057
63.710 17.587904
63.715 17.317833
63.720 16.845045
63.725 16.697584
63.730 17.132008
63.735 17.359161
63.740 17.612513
63.745 17.46384
63.750 17.520617
63.755 17.519037
63.760 17.086214
63.765 16.38789
63.770 16.042799
63.775 15.928589
63.780 16.644068
63.785 17.428881
63.790 17.337084
63.795 17.58333
63.800 17.932148
63.805 18.180349
63.810 18.271212
63.815 17.936079
63.820 17.572376
63.825 18.158241
63.830 18.622711
63.835 18.102945
63.840 17.91374
63.845 17.803167
63.850 17.616945
63.855 17.446396
63.860 17.484753
63.865 17.375954
63.870 17.685286
63.875 17.446342
63.880 17.478735
63.885 17.498678
63.890 17.602461
63.895 17.74176
63.900 18.072447
63.905 18.292904
63.910 18.534285
63.915 18.277824
63.920 18.399733
63.925 18.428217
63.930 17.914349
63.935 18.214832
63.940 18.791784
63.945 18.831919
63.950 18.748007
63.955 19.230585
63.960 19.407978
63.965 19.560652
63.970 19.169312
63.975 18.638983
63.980 18.7279
63.985 19.191496
63.990 19.095722
63.995 19.252014
64.000 19.34613
64.005 19.256039
64.010 19.235168
64.015 19.668312
64.020 19.673719
64.025 20.08456
64.030 20.237606
64.035 20.277699
64.040 20.377882
64.045 20.541882
64.050 19.967125
64.055 20.014359
64.060 19.515806
64.065 19.437248
64.070 19.622173
64.075 19.639721
64.080 19.766153
64.085 19.80587
64.090 19.417913
64.095 18.936876
64.100 18.403427
64.105 18.459854
64.110 18.178837
64.115 18.003691
64.120 18.109303
64.125 17.987396
64.130 17.994209
64.135 17.982086
64.140 17.571627
64.145 17.79104
64.150 17.054863
64.155 16.661282
64.160 17.121788
64.165 17.394123
64.170 17.499189
64.175 17.530867
64.180 17.216747
64.185 17.04076
64.190 16.969122
64.195 16.292349
64.200 15.928916
64.205 15.691667
64.210 16.112164
64.215 16.675125
64.220 16.990871
64.225 17.605379
64.230 17.944407
64.235 18.119045
64.240 18.30158
64.245 17.762348
64.250 17.192833
64.255 17.614376
64.260 17.565651
64.265 18.122118
64.270 18.219313
64.275 18.172064
64.280 18.604105
64.285 18.669144
64.290 18.193062
64.295 18.134911
64.300 17.656416
64.305 17.762663
64.310 18.378189
64.315 18.790003
64.320 19.15411
64.325 19.3262
64.330 19.476877
64.335 19.696178
64.340 19.413929
64.345 18.767773
64.350 18.427624
64.355 18.235516
64.360 17.93951
64.365 17.983114
64.370 18.077967
64.375 17.815025
64.380 17.447752
64.385 17.073212
64.390 17.257633
64.395 17.234764
64.400 16.98628
64.405 16.738817
64.410 17.329409
64.415 18.004377
64.420 18.733164
64.425 18.668692
64.430 19.572435
64.435 20.012283
64.440 20.306114
64.445 20.34491
64.450 20.394337
64.455 20.565443
64.460 20.720398
64.465 19.884224
64.470 19.472267
64.475 19.875978
64.480 19.664604
64.485 19.467049
64.490 19.550989
64.495 19.521946
64.500 19.461065
64.505 18.602837
64.510 18.189243
64.515 18.572592
64.520 18.525187
64.525 18.214006
64.530 17.998093
64.535 17.850498
64.540 18.834076
64.545 17.976048
64.550 17.670202
64.555 17.321936
64.560 16.692553
64.565 17.044107
64.570 17.216869
64.575 17.302288
64.580 17.758039
64.585 18.169352
64.590 18.6066
64.595 19.032581
64.600 19.132832
64.605 19.266109
64.610 19.154325
64.615 19.827868
64.620 19.305601
64.625 19.087425
64.630 19.158499
64.635 19.241575
64.640 18.893208
64.645 18.995682
64.650 18.550631
64.655 19.035151
64.660 19.351768
64.665 18.957348
64.670 19.103662
64.675 20.158529
64.680 20.256918
64.685 20.42614
64.690 19.834545
64.695 19.606497
64.700 19.746786
64.705 19.04084
64.710 18.459192
64.715 18.395388
64.720 18.534096
64.725 19.122845
64.730 19.54941
64.735 19.53054
64.740 19.729061
64.745 19.532761
64.750 19.368191
64.755 19.057707
64.760 19.05081
64.765 19.115578
64.770 19.397581
64.775 18.880733
64.780 19.058353
64.785 19.49601
64.790 19.940193
64.795 19.717424
64.800 19.91637
64.805 19.554331
64.810 19.996059
64.815 20.184177
64.820 20.07933
64.825 20.01687
64.830 20.359449
64.835 20.445549
64.840 21.20953
64.845 21.572922
64.850 20.948637
64.855 20.395605
64.860 20.298233
64.865 19.839712
64.870 19.413321
64.875 19.356663
64.880 19.65085
64.885 19.652506
64.890 19.637238
64.895 19.705969
64.900 19.611153
64.905 19.491505
64.910 18.984056
64.915 18.726917
64.920 19.800814
64.925 19.81048
64.930 19.634192
64.935 19.750355
64.940 19.354744
64.945 19.24847
64.950 19.162437
64.955 18.926163
64.960 19.313301
64.965 19.378435
64.970 19.56439
64.975 19.681593
64.980 19.903786
64.985 20.268162
64.990 20.35046
64.995 20.773136
65.000 21.042982
65.005 21.342735
65.010 21.835142
65.015 22.216028
65.020 22.207966
65.025 22.302763
65.030 22.211332
65.035 22.081839
65.040 21.823233
65.045 21.684025
65.050 21.784201
65.055 21.727634
65.060 22.459656
65.065 22.375607
65.070 22.19754
65.075 21.807217
65.080 21.981443
65.085 21.445816
65.090 20.900093
65.095 20.105682
65.100 20.291206
65.105 20.726963
65.110 21.116013
65.115 21.267054
65.120 22.098885
65.125 22.456148
65.130 22.410925
65.135 22.337507
65.140 22.903053
65.145 22.974184
65.150 22.956141
65.155 22.96751
65.160 23.206057
65.165 22.971445
65.170 22.614037
65.175 22.586487
65.180 23.070122
65.185 22.835844
65.190 22.564524
65.195 22.942427
65.200 23.692635
65.205 24.305731
65.210 23.846458
65.215 23.479183
65.220 23.721916
65.225 24.034866
65.230 23.94698
65.235 23.282583
65.240 22.790558
65.245 22.856941
65.250 23.249727
65.255 23.317482
65.260 22.945917
65.265 22.896545
65.270 23.000505
65.275 23.194147
65.280 23.436287
65.285 23.828594
65.290 23.758028
65.295 23.303978
65.300 23.470865
65.305 23.088491
65.310 23.588598
65.315 23.028584
65.320 22.482559
65.325 22.260571
65.330 22.419445
65.335 22.036655
65.340 22.534275
65.345 22.111511
65.350 22.335007
65.355 22.925066
65.360 23.260735
65.365 22.74836
65.370 22.418169
65.375 22.348701
65.380 22.56838
65.385 22.270494
65.390 21.701363
65.395 22.001701
65.400 22.765606
65.405 23.34882
65.410 23.393366
65.415 23.947832
65.420 24.473017
65.425 24.41037
65.430 24.991156
65.435 25.23007
65.440 25.095577
65.445 24.957809
65.450 24.094954
65.455 24.247997
65.460 24.818872
65.465 24.1478
65.470 24.151199
65.475 24.55298
65.480 24.381098
65.485 24.132469
65.490 24.327009
65.495 24.112209
65.500 24.322733
65.505 24.607149
65.510 24.870476
65.515 25.742249
65.520 26.615103
65.525 26.186031
65.530 25.697367
65.535 25.981579
65.540 26.748209
65.545 27.524736
65.550 28.303185
65.555 29.017115
65.560 29.51021
65.565 29.975578
65.570 30.23579
65.575 29.79612
65.580 29.733768
65.585 29.025784
65.590 28.649553
65.595 28.710798
65.600 29.254538
65.605 29.426022
65.610 29.235258
65.615 29.069927
65.620 29.949158
65.625 30.555086
65.630 30.736731
65.635 30.490931
65.640 29.764807
65.645 30.178061
65.650 30.072655
65.655 29.504122
65.660 29.438879
65.665 29.596115
65.670 29.810614
65.675 30.592411
65.680 31.085598
65.685 30.792311
65.690 30.668083
65.695 30.741615
65.700 31.378635
65.705 31.613701
65.710 31.864088
65.715 32.779842
65.720 33.97298
65.725 34.541077
65.730 35.585102
65.735 35.585331
65.740 35.692486
65.745 36.00967
65.750 36.256901
65.755 35.86607
65.760 35.316334
65.765 34.376892
65.770 34.871441
65.775 35.183468
65.780 34.781509
65.785 33.852341
65.790 34.156551
65.795 35.134544
65.800 36.171223
65.805 36.309776
65.810 36.077206
65.815 36.919067
65.820 38.367447
65.825 38.45108
65.830 38.519703
65.835 38.434082
65.840 38.27047
65.845 38.543419
65.850 38.571297
65.855 38.14576
65.860 38.373936
65.865 38.674778
65.870 38.847668
65.875 39.328308
65.880 39.439606
65.885 39.043892
65.890 38.960274
65.895 39.38681
65.900 39.211033
65.905 38.30468
65.910 38.172279
65.915 37.83342
65.920 37.913734
65.925 38.301605
65.930 37.3909
65.935 37.105709
65.940 37.124142
65.945 37.851669
65.950 37.932571
65.955 38.046555
65.960 38.260616
65.965 38.601524
65.970 39.214359
65.975 39.699905
65.980 39.492115
65.985 39.626789
65.990 39.628567
65.995 39.340866
66.000 40.198967
66.005 40.077934
66.010 39.746445
66.015 39.578976
66.020 39.705494
66.025 39.755962
66.030 39.770565
66.035 38.444431
66.040 38.262756
66.045 38.422829
66.050 38.528919
66.055 38.138012
66.060 37.310863
66.065 37.093204
66.070 37.773514
66.075 37.498081
66.080 37.428677
66.085 37.277546
66.090 36.907837
66.095 36.804638
66.100 37.293854
66.105 36.870647
66.110 36.994255
66.115 37.035236
66.120 36.878788
66.125 37.009987
66.130 37.594818
66.135 36.77964
66.140 37.091686
66.145 36.698536
66.150 35.84198
66.155 36.019287
66.160 36.399155
66.165 36.117359
66.170 36.045998
66.175 35.691372
66.180 36.049995
66.185 36.780117
66.190 36.957951
66.195 36.427792
66.200 36.696838
66.205 37.19133
66.210 37.296757
66.215 36.93523
66.220 36.623447
66.225 36.595524
66.230 36.987473
66.235 36.191269
66.240 35.353333
66.245 35.048058
66.250 34.747581
66.255 34.910263
66.260 34.591526
66.265 34.23909
66.270 33.055725
66.275 32.45792
66.280 32.83448
66.285 33.045113
66.290 32.35223
66.295 32.012974
66.300 33.136971
66.305 34.44593
66.310 34.709675
66.315 34.452053
66.320 34.562717
66.325 34.246323
66.330 33.720741
66.335 32.361004
66.340 32.274548
66.345 31.940287
66.350 30.924585
66.355 29.980934
66.360 30.873249
66.365 31.618292
66.370 32.066044
66.375 31.802176
66.380 31.817583
66.385 32.6227
66.390 32.491245
66.395 31.680489
66.400 30.748489
66.405 30.671465
66.410 30.21138
66.415 29.94961
66.420 29.358856
66.425 29.615471
66.430 28.843092
66.435 28.853973
66.440 28.716608
66.445 29.033489
66.450 28.984142
66.455 28.539904
66.460 28.554642
66.465 29.23278
66.470 29.613394
66.475 30.099646
66.480 30.407022
66.485 30.755651
66.490 31.030222
66.495 30.939972
66.500 31.048119
66.505 30.890331
66.510 30.240408
66.515 29.740314
66.520 29.354126
66.525 28.95756
66.530 28.976603
66.535 28.3664
66.540 27.395044
66.545 26.566427
66.550 26.522787
66.555 26.438679
66.560 26.313692
66.565 26.291565
66.570 26.590153
66.575 26.466951
66.580 26.528748
66.585 25.657927
66.590 25.593857
66.595 25.440992
66.600 24.728188
66.605 24.155388
66.610 24.498932
66.615 24.808662
66.620 25.534779
66.625 25.306795
66.630 25.598755
66.635 26.378088
66.640 26.849945
66.645 26.90126
66.650 26.95034
66.655 26.279278
66.660 26.17499
66.665 26.188908
66.670 25.945354
66.675 25.917099
66.680 25.547865
66.685 25.356493
66.690 25.18457
66.695 24.572155
66.700 23.59763
66.705 22.96805
66.710 22.76775
66.715 22.123615
66.720 21.72521
66.725 22.559414
66.730 23.100897
66.735 23.837111
66.740 24.361769
66.745 24.643429
66.750 25.618469
66.755 25.989727
66.760 25.377953
66.765 24.974051
66.770 25.209568
66.775 24.719099
66.780 24.639341
66.785 24.518398
66.790 24.077154
66.795 24.666933
66.800 24.252502
66.805 23.652336
66.810 23.618101
66.815 22.842352
66.820 22.136934
66.825 22.08354
66.830 21.842861
66.835 21.882725
66.840 21.872
66.845 22.326801
66.850 22.463131
66.855 22.404476
66.860 22.226093
66.865 22.221704
66.870 22.502974
66.875 22.45282
66.880 21.730446
66.885 21.345236
66.890 20.836901
66.895 20.77281
66.900 21.007195
66.905 21.65159
66.910 21.399269
66.915 21.969099
66.920 22.682913
66.925 22.986736
66.930 23.734116
66.935 23.248566
66.940 22.730576
66.945 22.764643
66.950 22.225359
66.955 22.009609
66.960 21.945581
66.965 21.4256
66.970 21.841667
66.975 21.718882
66.980 21.933517
66.985 21.969393
66.990 21.802553
66.995 22.220764
67.000 22.358015
67.005 22.313931
67.010 22.256178
67.015 22.224846
67.020 22.556139
67.025 22.714115
67.030 22.53685
67.035 23.170605
67.040 22.906689
67.045 22.855429
67.050 22.83333
67.055 22.807247
67.060 22.66494
67.065 22.096462
67.070 21.025909
67.075 20.761135
67.080 21.078115
67.085 20.644266
67.090 20.512337
67.095 20.260895
67.100 20.807617
67.105 21.4125
67.110 21.900606
67.115 21.137024
67.120 21.158295
67.125 21.319542
67.130 21.450476
67.135 20.777437
67.140 20.734123
67.145 20.445736
67.150 20.950638
67.155 20.854746
67.160 21.066727
67.165 21.510563
67.170 21.609682
67.175 21.682102
67.180 21.68605
67.185 21.272125
67.190 21.157904
67.195 20.782015
67.200 20.957354
67.205 21.555744
67.210 21.37388
67.215 21.646521
67.220 21.53595
67.225 21.669506
67.230 21.402647
67.235 21.20175
67.240 21.112917
67.245 21.454796
67.250 21.902954
67.255 22.393097
67.260 22.551826
67.265 23.060268
67.270 22.93379
67.275 22.52924
67.280 21.938915
67.285 21.886944
67.290 22.127232
67.295 21.880379
67.300 21.873621
67.305 21.736897
67.310 22.037443
67.315 22.042091
67.320 21.298676
67.325 20.998343
67.330 21.46875
67.335 21.309446
67.340 21.466145
67.345 21.375753
67.350 22.105747
67.355 22.603582
67.360 22.725159
67.365 22.212101
67.370 21.577974
67.375 21.567957
67.380 21.839272
67.385 22.112886
67.390 22.482588
67.395 22.34215
67.400 22.297316
67.405 22.50456
67.410 22.287073
67.415 21.758894
67.420 20.762238
67.425 20.24637
67.430 20.043066
67.435 20.638126
67.440 20.710398
67.445 20.502211
67.450 21.024931
67.455 20.927273
67.460 20.905903
67.465 20.408735
67.470 20.402466
67.475 20.700884
67.480 21.011803
67.485 20.655296
67.490 20.588606
67.495 20.265432
67.500 20.779697
67.505 20.416199
67.510 20.021902
67.515 20.221939
67.520 20.690434
67.525 21.112906
67.530 21.88658
67.535 21.919422
67.540 22.26479
67.545 22.347786
67.550 22.337679
67.555 21.845922
67.560 21.668295
67.565 21.652843
67.570 21.901505
67.575 21.650627
67.580 21.424589
67.585 21.074938
67.590 20.592815
67.595 20.812019
67.600 20.892471
67.605 20.914642
67.610 21.611252
67.615 21.615223
67.620 21.733665
67.625 22.278418
67.630 22.292181
67.635 21.966135
67.640 21.795166
67.645 21.115387
67.650 20.76045
67.655 21.083124
67.660 21.022488
67.665 21.065464
67.670 20.776062
67.675 20.81662
67.680 21.57863
67.685 22.34075
67.690 22.147339
67.695 22.139904
67.700 22.30896
67.705 22.544189
67.710 22.560354
67.715 22.606075
67.720 22.231518
67.725 22.148289
67.730 21.706783
67.735 21.645058
67.740 21.779776
67.745 21.484722
67.750 21.15704
67.755 21.151657
67.760 20.953125
67.765 21.700516
67.770 21.666271
67.775 21.069326
67.780 20.901157
67.785 21.336163
67.790 21.339815
67.795 21.284857
67.800 20.256998
67.805 20.176205
67.810 19.902128
67.815 19.699968
67.820 18.749874
67.825 18.785007
67.830 19.081163
67.835 19.334738
67.840 19.153843
67.845 19.300703
67.850 19.038649
67.855 18.885248
67.860 18.994751
67.865 19.155983
67.870 19.610826
67.875 19.712069
67.880 20.110634
67.885 20.506765
67.890 21.046434
67.895 20.577419
67.900 20.092995
67.905 20.508999
67.910 20.728346
67.915 20.951384
67.920 20.988321
67.925 20.993416
67.930 21.116129
67.935 20.799824
67.940 20.207491
67.945 20.277298
67.950 20.034603
67.955 19.931515
67.960 19.762033
67.965 19.934082
67.970 19.517281
67.975 19.431196
67.980 18.752405
67.985 18.823929
67.990 19.036339
67.995 19.381353
68.000 19.348274
68.005 20.439163
68.010 20.85944
68.015 20.793533
68.020 20.537163
68.025 21.139177
68.030 21.271545
68.035 20.936146
68.040 19.967726
68.045 19.937241
68.050 20.222645
68.055 20.358257
68.060 20.246923
68.065 20.015844
68.070 20.189848
68.075 20.074398
68.080 20.070208
68.085 19.956165
68.090 19.617336
68.095 19.369928
68.100 19.069483
68.105 19.638163
68.110 20.133934
68.115 20.307224
68.120 20.414312
68.125 20.575912
68.130 21.008198
68.135 21.840082
68.140 21.881092
68.145 21.85232
68.150 22.170792
68.155 22.502081
68.160 22.684908
68.165 22.465004
68.170 22.652712
68.175 21.79952
68.180 21.151289
68.185 20.88876
68.190 20.985479
68.195 20.72472
68.200 20.311531
68.205 20.552486
68.210 21.364668
68.215 21.302816
68.220 20.405407
68.225 19.429991
68.230 19.455614
68.235 19.775791
68.240 20.00798
68.245 20.100687
68.250 20.179171
68.255 20.705767
68.260 21.70923
68.265 21.953739
68.270 22.037327
68.275 21.730497
68.280 21.523088
68.285 21.400656
68.290 21.252941
68.295 20.929304
68.300 20.537779
68.305 20.110971
68.310 19.537338
68.315 19.457529
68.320 19.583824
68.325 19.821379
68.330 19.689449
68.335 19.526257
68.340 19.14156
68.345 19.869108
68.350 20.782722
68.355 20.391315
68.360 20.279888
68.365 19.923969
68.370 19.976849
68.375 20.353655
68.380 19.63806
68.385 19.856321
68.390 21.009918
68.395 21.175911
68.400 22.013468
68.405 22.219862
68.410 22.413836
68.415 22.076746
68.420 21.745863
68.425 21.751877
68.430 21.830141
68.435 21.236486
68.440 21.068302
68.445 21.237553
68.450 22.491262
68.455 22.391632
68.460 22.387024
68.465 22.08758
68.470 22.095375
68.475 21.413063
68.480 21.057745
68.485 20.235184
68.490 20.250614
68.495 20.045364
68.500 19.871527
68.505 20.042984
68.510 20.633928
68.515 20.420639
68.520 20.591209
68.525 20.699221
68.530 20.598507
68.535 21.203981
68.540 21.431999
68.545 21.645002
68.550 21.910267
68.555 21.491465
68.560 21.402145
68.565 21.741343
68.570 21.564251
68.575 21.136497
68.580 20.890429
68.585 21.242838
68.590 21.535721
68.595 21.216829
68.600 20.777901
68.605 20.71628
68.610 20.66633
68.615 20.854574
68.620 20.499859
68.625 20.949413
68.630 21.833841
68.635 22.329727
68.640 22.530539
68.645 23.107758
68.650 22.937922
68.655 22.775867
68.660 22.135601
68.665 21.28145
68.670 21.735092
68.675 21.666477
68.680 21.102547
68.685 21.50704
68.690 22.119812
68.695 22.10235
68.700 22.191803
68.705 21.884859
68.710 22.247765
68.715 22.488783
68.720 22.0959
68.725 22.084694
68.730 22.721556
68.735 22.453342
68.740 21.948782
68.745 21.535227
68.750 21.696516
68.755 21.346397
68.760 21.142315
68.765 20.954517
68.770 21.171715
68.775 21.503391
68.780 21.303503
68.785 21.262352
68.790 22.390398
68.795 22.606169
68.800 22.517271
68.805 22.388655
68.810 22.414585
68.815 22.765585
68.820 23.064545
68.825 22.810986
68.830 23.339472
68.835 23.913342
68.840 23.955498
68.845 24.378633
68.850 24.317036
68.855 24.404163
68.860 23.917694
68.865 23.499823
68.870 23.848001
68.875 23.8503
68.880 23.479855
68.885 22.818983
68.890 22.692289
68.895 23.027536
68.900 22.770908
68.905 22.861799
68.910 23.368341
68.915 23.368631
68.920 23.408819
68.925 23.315935
68.930 23.880573
68.935 24.263802
68.940 23.182575
68.945 22.829105
68.950 23.179735
68.955 23.914513
68.960 23.727098
68.965 22.996618
68.970 22.868261
68.975 23.092245
68.980 23.277178
68.985 23.327721
68.990 23.200689
68.995 23.118343
69.000 22.746044
69.005 23.037479
69.010 23.758633
69.015 23.629827
69.020 23.244675
69.025 23.075022
69.030 23.464016
69.035 23.175182
69.040 23.128372
69.045 22.76405
69.050 22.9109
69.055 23.242537
69.060 23.115908
69.065 23.161306
69.070 23.851852
69.075 23.645279
69.080 23.857203
69.085 24.275724
69.090 24.386263
69.095 24.022814
69.100 24.229843
69.105 23.883459
69.110 23.904968
69.115 23.86384
69.120 23.587309
69.125 24.417107
69.130 24.862465
69.135 24.801613
69.140 25.572538
69.145 25.941973
69.150 26.095421
69.155 25.234272
69.160 24.151295
69.165 23.844006
69.170 23.067965
69.175 22.785677
69.180 22.964346
69.185 23.184433
69.190 23.892672
69.195 24.486431
69.200 24.809542
69.205 26.117649
69.210 25.563673
69.215 25.152311
69.220 25.240232
69.225 25.676657
69.230 25.886736
69.235 26.342325
69.240 25.837492
69.245 26.353739
69.250 26.59951
69.255 26.724848
69.260 26.99633
69.265 26.974695
69.270 27.274149
69.275 27.919964
69.280 28.748777
69.285 28.004396
69.290 28.199863
69.295 27.872469
69.300 27.459055
69.305 26.984518
69.310 26.810379
69.315 27.304695
69.320 27.829725
69.325 27.418316
69.330 27.610235
69.335 27.081753
69.340 26.418585
69.345 25.970785
69.350 26.043467
69.355 25.906818
69.360 25.910501
69.365 26.416824
69.370 27.010769
69.375 27.771452
69.380 29.102261
69.385 29.440598
69.390 30.120319
69.395 30.692533
69.400 31.512838
69.405 32.01693
69.410 31.63291
69.415 30.498894
69.420 29.994442
69.425 30.380678
69.430 29.950933
69.435 29.203806
69.440 29.254269
69.445 29.155691
69.450 29.583546
69.455 29.844101
69.460 28.920567
69.465 29.167618
69.470 29.055723
69.475 29.066111
69.480 28.827106
69.485 28.713907
69.490 28.648676
69.495 28.774624
69.500 28.636526
69.505 28.508568
69.510 27.963722
69.515 28.288481
69.520 27.969086
69.525 27.17016
69.530 27.012779
69.535 27.149611
69.540 27.627321
69.545 27.213888
69.550 26.926207
69.555 27.265141
69.560 28.209129
69.565 28.660938
69.570 28.332666
69.575 27.782251
69.580 28.96649
69.585 29.177851
69.590 28.949921
69.595 28.664654
69.600 28.372509
69.605 28.41478
69.610 28.800114
69.615 28.685505
69.620 28.868235
69.625 29.062262
69.630 29.102068
69.635 28.587555
69.640 28.197657
69.645 28.257881
69.650 28.480644
69.655 28.176748
69.660 27.74012
69.665 27.360182
69.670 27.8249
69.675 27.717257
69.680 27.15349
69.685 26.908405
69.690 27.644468
69.695 28.743664
69.700 29.031498
69.705 28.774109
69.710 28.38155
69.715 27.997578
69.720 27.687113
69.725 27.091579
69.730 25.889986
69.735 25.503723
69.740 25.752428
69.745 26.059099
69.750 26.279667
69.755 26.13488
69.760 26.100586
69.765 26.673147
69.770 26.778454
69.775 26.540077
69.780 26.579891
69.785 26.753384
69.790 26.472721
69.795 26.347797
69.800 26.471828
69.805 26.482708
69.810 26.31303
69.815 26.115803
69.820 25.506989
69.825 25.589724
69.830 25.475836
69.835 25.468576
69.840 25.137117
69.845 24.83028
69.850 25.012888
69.855 24.936821
69.860 23.906382
69.865 23.302277
69.870 23.076702
69.875 23.479862
69.880 23.94368
69.885 24.131018
69.890 24.092703
69.895 24.843992
69.900 25.175016
69.905 24.840342
69.910 24.673176
69.915 24.620821
69.920 24.318031
69.925 24.60738
69.930 24.75532
69.935 24.615871
69.940 23.974121
69.945 23.957661
69.950 23.924738
69.955 23.204817
69.960 22.607759
69.965 21.587343
69.970 21.457708
69.975 22.190289
69.980 21.901163
69.985 21.58268
69.990 22.159765
69.995 22.197374
70.000 22.574095
70.005 22.252821
70.010 21.911055
70.015 21.877522
70.020 21.948406
70.025 21.624397
70.030 21.204552
70.035 20.42061
70.040 19.878122
70.045 19.682854
70.050 19.833975
70.055 19.677954
70.060 19.497934
70.065 20.069412
70.070 20.873363
70.075 21.549854
70.080 21.690706
70.085 21.447716
70.090 21.543512
70.095 21.567728
70.100 21.19022
70.105 20.886347
70.110 20.444151
70.115 19.881893
70.120 19.914434
70.125 20.445284
70.130 20.302752
70.135 20.873386
70.140 21.016306
70.145 21.354469
70.150 21.970497
70.155 21.985628
70.160 21.517021
70.165 21.410463
70.170 20.815617
70.175 20.365713
70.180 19.997017
70.185 19.38983
70.190 19.593132
70.195 19.317278
70.200 19.522099
70.205 19.397501
70.210 19.928923
70.215 20.112753
70.220 20.017078
70.225 19.261927
70.230 19.3137
70.235 19.425043
70.240 19.730801
70.245 19.783403
70.250 20.153915
70.255 20.217201
70.260 20.801693
70.265 21.059771
70.270 21.467962
70.275 21.270567
70.280 21.255913
70.285 21.426569
70.290 21.566202
70.295 21.890223
70.300 21.494303
70.305 21.3941
70.310 22.007593
70.315 21.926044
70.320 21.879768
70.325 21.939693
70.330 21.687918
70.335 21.370092
70.340 21.13188
70.345 20.756964
70.350 21.093155
70.355 20.851954
70.360 20.65053
70.365 20.602783
70.370 19.995609
70.375 19.353767
70.380 19.542248
70.385 19.471827
70.390 18.986048
70.395 18.886
70.400 19.598083
70.405 20.327026
70.410 20.124281
70.415 19.562891
70.420 19.20747
70.425 19.630619
70.430 19.757282
70.435 19.560541
70.440 19.463362
70.445 19.886145
70.450 19.610521
70.455 19.445253
70.460 19.017691
70.465 18.717293
70.470 18.915236
70.475 19.22929
70.480 19.007124
70.485 19.802366
70.490 20.293701
70.495 20.425785
70.500 20.485155
70.505 20.381708
70.510 20.142736
70.515 20.743315
70.520 20.526924
70.525 20.656532
70.530 21.194035
70.535 21.028042
70.540 21.251961
70.545 21.823078
70.550 21.416958
70.555 21.362837
70.560 20.766077
70.565 20.240063
70.570 20.788181
70.575 21.012207
70.580 19.893471
70.585 19.455673
70.590 19.014175
70.595 19.109112
70.600 18.790258
70.605 17.870768
70.610 17.825806
70.615 19.131666
70.620 19.419424
70.625 20.045401
70.630 20.458858
70.635 20.793751
70.640 21.002907
70.645 20.878897
70.650 20.700926
70.655 20.718353
70.660 20.286047
70.665 19.891356
70.670 19.916941
70.675 19.889984
70.680 19.65415
70.685 19.567928
70.690 19.53548
70.695 19.409662
70.700 19.461718
70.705 19.988691
70.710 19.400404
70.715 19.184769
70.720 18.972019
70.725 19.22126
70.730 19.234207
70.735 19.523911
70.740 19.459288
70.745 19.748638
70.750 19.700661
70.755 19.760422
70.760 20.173838
70.765 19.929731
70.770 20.292011
70.775 20.306381
70.780 20.275814
70.785 20.146975
70.790 20.346605
70.795 20.592497
70.800 19.949455
70.805 19.493706
70.810 19.287926
70.815 19.201305
70.820 19.974007
70.825 19.468813
70.830 19.324175
70.835 19.710772
70.840 19.356682
70.845 19.100361
70.850 19.023134
70.855 18.724243
70.860 18.54808
70.865 18.78521
70.870 18.85346
70.875 19.27784
70.880 19.594948
70.885 18.99761
70.890 18.921171
70.895 17.7752
70.900 17.400455
70.905 16.961849
70.910 16.675089
70.915 16.552404
70.920 16.238003
70.925 16.61421
70.930 17.566309
70.935 17.920103
70.940 17.989933
70.945 17.785009
70.950 18.269859
70.955 18.689489
70.960 18.654188
70.965 17.936258
70.970 17.602251
70.975 17.53898
70.980 17.723543
70.985 17.895754
70.990 17.795433
70.995 17.942863
71.000 18.715776
71.005 19.143055
71.010 19.428902
71.015 19.794403
71.020 19.586451
71.025 20.239765
71.030 19.794016
71.035 19.297024
71.040 19.335634
71.045 19.351469
71.050 19.14352
71.055 18.700924
71.060 18.63213
71.065 19.469931
71.070 19.598877
71.075 19.48646
71.080 19.261396
71.085 19.218275
71.090 18.75465
71.095 18.210625
71.100 17.78566
71.105 17.83042
71.110 18.063759
71.115 18.29397
71.120 18.146738
71.125 18.82798
71.130 19.549133
71.135 20.117693
71.140 19.669075
71.145 19.279942
71.150 19.179863
71.155 19.097361
71.160 18.666569
71.165 18.038464
71.170 17.917341
71.175 18.23172
71.180 18.461395
71.185 18.702557
71.190 19.307394
71.195 19.487356
71.200 19.372967
71.205 19.689339
71.210 20.310844
71.215 20.018641
71.220 19.881969
71.225 19.907217
71.230 19.837854
71.235 19.814188
71.240 19.411213
71.245 18.868225
71.250 18.897558
71.255 18.69031
71.260 18.408535
71.265 18.58741
71.270 18.429722
71.275 18.720112
71.280 19.412933
71.285 20.05386
71.290 19.49617
71.295 19.118042
71.300 19.441353
71.305 19.443201
71.310 18.5058
71.315 17.879744
71.320 17.481363
71.325 17.910112
71.330 17.407776
71.335 17.1532
71.340 17.246302
71.345 17.613478
71.350 17.740545
71.355 18.397154
71.360 18.473793
71.365 18.602367
71.370 18.424589
71.375 18.949434
71.380 19.20886
71.385 19.433849
71.390 19.206253
71.395 19.117168
71.400 19.134142
71.405 18.993351
71.410 18.714035
71.415 18.579563
71.420 18.565428
71.425 18.576254
71.430 19.161255
71.435 19.414762
71.440 19.189955
71.445 19.143225
71.450 19.025362
71.455 19.059572
71.460 19.084545
71.465 18.919285
71.470 19.626854
71.475 19.462112
71.480 19.704208
71.485 20.103508
71.490 19.903908
71.495 19.759365
71.500 19.776278
71.505 19.79586
71.510 20.574263
71.515 20.554226
71.520 20.152174
71.525 20.319891
71.530 20.331745
71.535 20.092499
71.540 19.571941
71.545 19.530857
71.550 19.895771
71.555 19.506275
71.560 18.718723
71.565 18.666498
71.570 18.09955
71.575 17.93469
71.580 17.215542
71.585 16.830868
71.590 17.618973
71.595 18.061813
71.600 17.892286
71.605 18.094635
71.610 17.757751
71.615 17.751465
71.620 18.053379
71.625 17.372133
71.630 17.184837
71.635 17.335426
71.640 17.77582
71.645 18.027803
71.650 17.859636
71.655 17.452404
71.660 17.347357
71.665 17.20096
71.670 17.35708
71.675 17.831774
71.680 18.578068
71.685 18.637289
71.690 19.294983
71.695 20.313631
71.700 21.186037
71.705 21.165232
71.710 20.963495
71.715 20.496622
71.720 20.501009
71.725 20.259048
71.730 20.3475
71.735 19.98385
71.740 19.185644
71.745 19.235596
71.750 19.541395
71.755 19.134857
71.760 19.143282
71.765 18.999554
71.770 19.220865
71.775 19.469881
71.780 19.207737
71.785 19.118404
71.790 19.24025
71.795 18.864941
71.800 18.353525
71.805 18.259323
71.810 18.645351
71.815 19.020054
71.820 19.093458
71.825 19.429955
71.830 19.714596
71.835 19.870783
71.840 20.117584
71.845 19.551939
71.850 18.923006
71.855 18.440687
71.860 18.023035
71.865 17.906216
71.870 17.463602
71.875 17.167892
71.880 17.086756
71.885 17.856457
71.890 17.892176
71.895 18.027391
71.900 18.294014
71.905 19.087357
71.910 19.669376
71.915 19.435183
71.920 19.635715
71.925 20.02397
71.930 20.131367
71.935 19.576933
71.940 18.880117
71.945 18.731152
71.950 18.812189
71.955 18.454336
71.960 18.33972
71.965 18.597614
71.970 19.562826
71.975 19.520082
71.980 19.233116
71.985 19.380564
71.990 19.31885
71.995 19.499897
72.000 19.055622
72.005 18.304642
72.010 18.654951
72.015 19.100006
72.020 18.669834
72.025 18.813021
72.030 18.32604
72.035 18.308256
72.040 18.536217
72.045 18.121651
72.050 17.794012
72.055 17.777752
72.060 17.80769
72.065 17.897211
72.070 17.958714
72.075 17.939955
72.080 18.006647
72.085 17.842127
72.090 18.011183
72.095 17.932568
72.100 17.998726
72.105 18.2957
72.110 18.198057
72.115 18.157583
72.120 18.634094
72.125 18.574492
72.130 18.454798
72.135 18.222467
72.140 18.437428
72.145 19.105259
72.150 19.142754
72.155 18.636375
72.160 18.804134
72.165 19.255682
72.170 19.389433
72.175 19.256365
72.180 19.093464
72.185 19.044729
72.190 19.236757
72.195 19.388872
72.200 19.913387
72.205 19.919249
72.210 19.757782
72.215 19.889187
72.220 19.942797
72.225 19.654848
72.230 19.649647
72.235 18.830517
72.240 18.922779
72.245 19.069115
72.250 18.481806
72.255 17.887573
72.260 17.152157
72.265 16.872576
72.270 17.288984
72.275 17.497171
72.280 17.785339
72.285 18.329506
72.290 18.817934
72.295 18.80934
72.300 18.93395
72.305 18.964645
72.310 19.132723
72.315 19.418177
72.320 19.585459
72.325 19.795555
72.330 20.540964
72.335 20.461981
72.340 20.066532
72.345 19.276615
72.350 18.584526
72.355 17.960684
72.360 18.112646
72.365 17.360548
72.370 17.418163
72.375 17.536066
72.380 17.918732
72.385 18.260153
72.390 18.702368
72.395 18.962746
72.400 19.033865
72.405 18.278715
72.410 17.820448
72.415 18.269934
72.420 18.5354
72.425 17.944601
72.430 17.486506
72.435 17.525177
72.440 17.987743
72.445 18.412685
72.450 18.094488
72.455 18.245481
72.460 18.968836
72.465 19.355888
72.470 19.540899
72.475 19.70104
72.480 19.684961
72.485 19.456034
72.490 19.835997
72.495 19.438953
72.500 19.130285
72.505 19.331709
72.510 19.273218
72.515 18.991308
72.520 18.298731
72.525 18.125137
72.530 18.184645
72.535 18.806391
72.540 19.071705
72.545 18.712627
72.550 19.091413
72.555 19.41132
72.560 19.286938
72.565 19.718468
72.570 19.229185
72.575 19.053837
72.580 19.354471
72.585 19.582897
72.590 19.624319
72.595 19.566214
72.600 18.731283
72.605 18.732826
72.610 18.342979
72.615 17.92367
72.620 18.031254
72.625 17.930323
72.630 17.559256
72.635 17.390484
72.640 17.35148
72.645 17.58688
72.650 17.200712
72.655 16.292871
72.660 16.069862
72.665 16.190935
72.670 16.362246
72.675 16.237177
72.680 15.967667
72.685 16.519842
72.690 17.721428
72.695 18.045023
72.700 18.300972
72.705 18.282845
72.710 18.683968
72.715 18.578197
72.720 18.010777
72.725 17.194618
72.730 17.42524
72.735 17.658499
72.740 17.613409
72.745 17.10644
72.750 17.045063
72.755 17.776049
72.760 18.782625
72.765 18.210369
72.770 18.011992
72.775 17.70046
72.780 18.044498
72.785 18.255882
72.790 17.884188
72.795 17.105402
72.800 17.414268
72.805 17.658522
72.810 18.372364
72.815 17.499088
72.820 16.738117
72.825 15.672112
72.830 15.467367
72.835 15.129368
72.840 15.728422
72.845 15.777678
72.850 16.888916
72.855 17.252304
72.860 17.310535
72.865 17.535707
72.870 17.130131
72.875 16.580992
72.880 16.06954
72.885 15.956991
72.890 16.131525
72.895 16.711414
72.900 16.756203
72.905 17.587908
72.910 18.305531
72.915 18.419781
72.920 18.221607
72.925 18.715771
72.930 18.792561
72.935 19.110258
72.940 18.183477
72.945 17.346144
72.950 17.475683
72.955 17.310749
72.960 16.73074
72.965 16.155939
72.970 15.709536
72.975 16.145805
72.980 16.331091
72.985 16.519051
72.990 16.890646
72.995 17.468945
73.000 17.446985
