!@!!GADDS PLOTSO FILE: Chi integration type
!@!!Title/SampleName: map-2b
!@!!Comment: ?
!@!!User: Bruker Instrument Administrator
!@!!Site: University of Illinois Chicago
!@!!Frame: map-2b_01_000.gfrm
!@!!Wavelengths    1.54184   1.54056   1.54439
!@!!Frame angles: 2Theta: 63.000 Omega: 50.000 Phi: 0.000 Chi: 90.000
!@!!Integration range: 2Theta: 53.000 to 73.000  Gamma: -105.000 to -75.000
!@!!Integration method: bin normalized
!@!N
!@!SS
!@!M
!@!L 0.0 0.0 0.0 0.0
!@!XDegrees
!@!YCounts
53.000 6.835518
53.005 6.946822
53.010 7.179785
53.015 7.22503
53.020 7.492576
53.025 7.780914
53.030 7.695925
53.035 7.734579
53.040 7.696464
53.045 7.835437
53.050 8.216849
53.055 8.071772
53.060 8.376843
53.065 8.818693
53.070 8.715489
53.075 8.841866
53.080 8.339158
53.085 7.956777
53.090 7.990793
53.095 7.692231
53.100 7.14685
53.105 7.191278
53.110 6.838457
53.115 7.521844
53.120 7.508131
53.125 7.602624
53.130 7.534417
53.135 7.61908
53.140 7.704827
53.145 7.818572
53.150 7.83809
53.155 7.854738
53.160 8.098516
53.165 8.424179
53.170 8.835714
53.175 9.040899
53.180 8.91066
53.185 8.787541
53.190 9.062679
53.195 9.054792
53.200 8.879568
53.205 8.800549
53.210 8.561271
53.215 8.743687
53.220 8.925489
53.225 8.92197
53.230 8.948044
53.235 8.742168
53.240 8.400476
53.245 8.447679
53.250 7.991707
53.255 7.674499
53.260 7.577365
53.265 7.414487
53.270 7.399039
53.275 7.065145
53.280 7.354897
53.285 7.917214
53.290 7.848656
53.295 8.139419
53.300 8.402369
53.305 8.884802
53.310 9.133327
53.315 8.756637
53.320 8.412194
53.325 8.779732
53.330 8.483569
53.335 8.424445
53.340 8.292061
53.345 8.341155
53.350 8.671781
53.355 8.846573
53.360 8.682146
53.365 8.70972
53.370 9.021858
53.375 9.141798
53.380 9.285935
53.385 9.206964
53.390 9.314404
53.395 8.807447
53.400 8.819583
53.405 8.97921
53.410 9.147436
53.415 9.338576
53.420 9.663359
53.425 9.789931
53.430 10.028641
53.435 9.886158
53.440 9.645929
53.445 9.725554
53.450 9.751527
53.455 9.935043
53.460 9.945077
53.465 10.037063
53.470 10.264849
53.475 10.315134
53.480 9.970582
53.485 9.875228
53.490 9.664021
53.495 9.703516
53.500 9.393573
53.505 9.076684
53.510 8.824718
53.515 8.67867
53.520 8.150981
53.525 7.750274
53.530 7.580766
53.535 7.701431
53.540 7.366338
53.545 7.918971
53.550 8.257725
53.555 8.538025
53.560 8.884509
53.565 9.037769
53.570 9.150558
53.575 9.634543
53.580 9.579258
53.585 9.040731
53.590 8.300789
53.595 7.936031
53.600 7.701061
53.605 7.580778
53.610 7.122447
53.615 7.141943
53.620 7.650904
53.625 8.517077
53.630 9.033994
53.635 9.386441
53.640 9.505754
53.645 9.476677
53.650 9.232179
53.655 9.184083
53.660 9.011996
53.665 9.011921
53.670 9.088037
53.675 9.109019
53.680 9.681051
53.685 10.141739
53.690 10.25022
53.695 10.277956
53.700 10.399527
53.705 10.673771
53.710 10.83014
53.715 10.44136
53.720 10.408234
53.725 10.085526
53.730 9.934202
53.735 9.559551
53.740 9.45141
53.745 9.619066
53.750 9.741561
53.755 9.647764
53.760 10.135115
53.765 9.785068
53.770 9.601802
53.775 9.404619
53.780 9.297612
53.785 9.426608
53.790 9.348588
53.795 9.241509
53.800 9.922786
53.805 10.190769
53.810 9.950825
53.815 9.73241
53.820 9.343575
53.825 9.326437
53.830 9.344083
53.835 8.991641
53.840 9.084978
53.845 9.089045
53.850 8.97191
53.855 9.372474
53.860 9.703539
53.865 9.809643
53.870 9.99344
53.875 9.860719
53.880 10.059188
53.885 10.414771
53.890 10.170635
53.895 9.919444
53.900 9.888522
53.905 9.942354
53.910 10.217503
53.915 10.393478
53.920 10.328125
53.925 10.432996
53.930 10.306923
53.935 10.003323
53.940 9.663618
53.945 9.754231
53.950 9.927745
53.955 9.786735
53.960 9.274695
53.965 9.227102
53.970 9.08701
53.975 8.821609
53.980 8.231805
53.985 8.060418
53.990 8.02399
53.995 8.791088
54.000 9.029867
54.005 9.336954
54.010 9.570562
54.015 9.81208
54.020 10.149259
54.025 10.185461
54.030 9.764035
54.035 9.943553
54.040 9.98306
54.045 9.940672
54.050 9.452834
54.055 9.278143
54.060 9.635708
54.065 9.722935
54.070 9.442862
54.075 9.342881
54.080 9.595915
54.085 9.994314
54.090 10.018835
54.095 10.052787
54.100 10.10719
54.105 10.080304
54.110 9.693949
54.115 9.444583
54.120 9.138435
54.125 8.957954
54.130 8.665887
54.135 8.865326
54.140 9.050435
54.145 9.77126
54.150 10.293853
54.155 10.611751
54.160 10.76927
54.165 10.646283
54.170 10.929159
54.175 10.720643
54.180 10.901935
54.185 10.952107
54.190 11.286299
54.195 11.164814
54.200 10.846889
54.205 10.83451
54.210 11.290358
54.215 10.712711
54.220 10.454709
54.225 10.176326
54.230 10.57624
54.235 10.883756
54.240 11.065822
54.245 10.971116
54.250 10.699952
54.255 10.049464
54.260 9.994959
54.265 10.289034
54.270 10.740556
54.275 10.300776
54.280 10.282952
54.285 10.391469
54.290 10.60062
54.295 10.440219
54.300 9.802858
54.305 9.075428
54.310 9.192196
54.315 9.642847
54.320 9.865729
54.325 9.976336
54.330 10.135171
54.335 10.191625
54.340 10.759082
54.345 10.285317
54.350 10.14025
54.355 9.843746
54.360 9.532248
54.365 9.764918
54.370 9.763149
54.375 9.350144
54.380 9.293449
54.385 9.11902
54.390 9.272286
54.395 9.350961
54.400 9.619782
54.405 9.53325
54.410 9.834839
54.415 10.05325
54.420 10.574921
54.425 10.65722
54.430 10.001992
54.435 9.575562
54.440 9.607458
54.445 9.443035
54.450 9.185622
54.455 8.859048
54.460 8.911328
54.465 9.256627
54.470 9.304747
54.475 9.31091
54.480 9.178052
54.485 9.037869
54.490 8.936398
54.495 8.992589
54.500 8.766723
54.505 8.683721
54.510 8.727213
54.515 8.932049
54.520 9.627971
54.525 9.93758
54.530 9.840225
54.535 10.057901
54.540 10.034184
54.545 9.699831
54.550 9.483302
54.555 9.315882
54.560 9.860031
54.565 10.323477
54.570 10.276061
54.575 10.695443
54.580 10.856996
54.585 10.927032
54.590 10.723633
54.595 10.097396
54.600 9.783659
54.605 9.694155
54.610 9.725619
54.615 9.856075
54.620 10.245811
54.625 10.142431
54.630 10.733693
54.635 11.170525
54.640 11.504565
54.645 11.47408
54.650 11.130107
54.655 10.857095
54.660 10.796639
54.665 10.364052
54.670 9.967312
54.675 9.187612
54.680 9.353293
54.685 9.506962
54.690 9.440447
54.695 9.44937
54.700 9.262313
54.705 9.18572
54.710 9.701325
54.715 9.914618
54.720 9.789835
54.725 9.58022
54.730 9.226474
54.735 9.216266
54.740 9.570675
54.745 8.99694
54.750 8.65389
54.755 9.372854
54.760 10.265988
54.765 10.848786
54.770 10.960893
54.775 11.248742
54.780 12.129323
54.785 12.626042
54.790 12.331157
54.795 12.067682
54.800 12.125526
54.805 12.491016
54.810 12.370219
54.815 12.359157
54.820 12.543482
54.825 12.491883
54.830 12.924003
54.835 12.884098
54.840 12.505186
54.845 12.229197
54.850 11.521517
54.855 11.076239
54.860 11.170689
54.865 10.422485
54.870 10.049174
54.875 10.243433
54.880 10.720901
54.885 10.95307
54.890 10.789754
54.895 10.907627
54.900 11.187373
54.905 11.503144
54.910 11.189937
54.915 11.097933
54.920 10.690458
54.925 10.847026
54.930 10.818512
54.935 10.875747
54.940 10.689245
54.945 10.964292
54.950 11.565762
54.955 11.457488
54.960 10.924379
54.965 10.700337
54.970 10.512359
54.975 10.623721
54.980 10.183386
54.985 10.050603
54.990 10.848634
54.995 11.08625
55.000 11.179303
55.005 11.535287
55.010 11.453841
55.015 11.494151
55.020 11.030285
55.025 10.828623
55.030 11.158596
55.035 11.136521
55.040 10.866284
55.045 11.234523
55.050 11.451304
55.055 11.643295
55.060 11.704426
55.065 11.338572
55.070 11.07054
55.075 10.839396
55.080 10.538609
55.085 10.360889
55.090 10.746337
55.095 10.766089
55.100 10.810503
55.105 11.165721
55.110 11.516395
55.115 10.869702
55.120 10.589454
55.125 9.967794
55.130 9.610826
55.135 9.621164
55.140 9.381342
55.145 9.733467
55.150 9.823195
55.155 9.858959
55.160 10.101445
55.165 10.742555
55.170 11.507811
55.175 11.551096
55.180 11.219672
55.185 11.535003
55.190 11.597342
55.195 11.603845
55.200 11.482672
55.205 11.156132
55.210 11.168209
55.215 11.497308
55.220 11.964144
55.225 12.487954
55.230 12.47384
55.235 11.646771
55.240 11.497369
55.245 11.080109
55.250 10.525153
55.255 10.234512
55.260 9.671425
55.265 9.461361
55.270 9.338037
55.275 9.215486
55.280 9.805045
55.285 9.372752
55.290 9.263251
55.295 9.350463
55.300 10.051201
55.305 10.945964
55.310 11.400992
55.315 11.41542
55.320 12.177761
55.325 12.17856
55.330 12.038816
55.335 11.516846
55.340 11.261457
55.345 10.870708
55.350 10.737232
55.355 10.911834
55.360 11.914594
55.365 12.069281
55.370 12.00149
55.375 11.441172
55.380 11.519986
55.385 11.408702
55.390 11.307708
55.395 11.077964
55.400 11.289817
55.405 11.293559
55.410 11.408551
55.415 11.019197
55.420 11.379431
55.425 10.813676
55.430 10.118132
55.435 10.129832
55.440 10.754776
55.445 10.965102
55.450 11.110849
55.455 10.621504
55.460 11.233195
55.465 11.54028
55.470 11.247877
55.475 10.94231
55.480 11.006167
55.485 11.46214
55.490 11.470997
55.495 11.555157
55.500 12.187965
55.505 12.561055
55.510 12.885149
55.515 13.104673
55.520 12.915939
55.525 12.88109
55.530 12.548282
55.535 11.942702
55.540 11.972976
55.545 11.802727
55.550 12.394799
55.555 12.984173
55.560 12.977531
55.565 12.779887
55.570 12.968034
55.575 12.985803
55.580 13.081713
55.585 12.839899
55.590 12.463818
55.595 12.856351
55.600 12.790074
55.605 12.479312
55.610 11.843168
55.615 10.937364
55.620 10.594882
55.625 10.625929
55.630 10.249491
55.635 9.552289
55.640 9.426691
55.645 9.964521
55.650 10.51463
55.655 10.601319
55.660 10.489728
55.665 11.387011
55.670 11.841446
55.675 12.201228
55.680 12.1755
55.685 11.878812
55.690 11.986545
55.695 12.099486
55.700 11.977818
55.705 12.551676
55.710 12.480776
55.715 12.41704
55.720 11.928503
55.725 12.101998
55.730 12.264798
55.735 11.516289
55.740 10.925495
55.745 10.855961
55.750 10.724833
55.755 10.81776
55.760 10.350927
55.765 9.926227
55.770 9.776255
55.775 9.812972
55.780 9.941295
55.785 10.445748
55.790 10.637815
55.795 10.517197
55.800 10.984079
55.805 11.317788
55.810 11.164681
55.815 11.719995
55.820 12.186941
55.825 12.803671
55.830 12.939239
55.835 13.030065
55.840 13.552353
55.845 13.442399
55.850 12.86589
55.855 12.490005
55.860 11.822794
55.865 11.634749
55.870 11.748347
55.875 11.573425
55.880 11.936323
55.885 12.146926
55.890 12.510892
55.895 12.543491
55.900 12.217674
55.905 11.89648
55.910 12.229498
55.915 12.388031
55.920 12.313012
55.925 12.170815
55.930 12.335607
55.935 12.705328
55.940 12.175778
55.945 12.123484
55.950 12.339923
55.955 12.334246
55.960 12.306376
55.965 12.402441
55.970 12.538824
55.975 12.258759
55.980 12.456712
55.985 12.492835
55.990 12.514622
55.995 12.1526
56.000 11.984176
56.005 12.112418
56.010 12.780203
56.015 12.088897
56.020 11.891687
56.025 11.707381
56.030 12.039516
56.035 12.287084
56.040 12.123163
56.045 12.015275
56.050 12.05347
56.055 11.835947
56.060 11.878481
56.065 11.855998
56.070 11.577925
56.075 11.718866
56.080 12.248834
56.085 12.131276
56.090 12.079484
56.095 12.18751
56.100 12.251396
56.105 12.697955
56.110 12.164238
56.115 11.683796
56.120 12.335894
56.125 12.385345
56.130 12.332992
56.135 12.264957
56.140 12.111542
56.145 12.322887
56.150 12.173484
56.155 11.834931
56.160 11.838707
56.165 11.648552
56.170 11.599075
56.175 11.576007
56.180 11.612901
56.185 11.42711
56.190 11.759083
56.195 11.731386
56.200 11.885473
56.205 11.808228
56.210 11.782576
56.215 11.938859
56.220 11.89332
56.225 11.784301
56.230 11.862869
56.235 11.923263
56.240 12.444227
56.245 12.996354
56.250 13.316651
56.255 13.426645
56.260 13.537286
56.265 14.013484
56.270 13.953108
56.275 13.594849
56.280 12.849124
56.285 12.834592
56.290 12.577
56.295 12.499434
56.300 12.359365
56.305 12.402831
56.310 12.858671
56.315 13.331037
56.320 13.302293
56.325 13.831921
56.330 13.39327
56.335 13.093925
56.340 13.054325
56.345 12.542092
56.350 12.138591
56.355 12.045135
56.360 11.900196
56.365 12.491558
56.370 12.434111
56.375 12.017663
56.380 11.763917
56.385 12.05555
56.390 11.814027
56.395 12.074734
56.400 12.174001
56.405 12.697812
56.410 13.245158
56.415 13.179497
56.420 12.27898
56.425 12.411024
56.430 12.105973
56.435 11.241287
56.440 10.540275
56.445 10.600131
56.450 10.743916
56.455 11.08255
56.460 10.823243
56.465 10.586212
56.470 10.971987
56.475 11.035724
56.480 10.959461
56.485 11.041451
56.490 11.800352
56.495 12.270268
56.500 12.276559
56.505 12.231634
56.510 12.25651
56.515 12.017963
56.520 12.219726
56.525 11.770013
56.530 11.785853
56.535 11.945964
56.540 11.859262
56.545 11.911736
56.550 12.534618
56.555 12.652181
56.560 13.029563
56.565 13.125278
56.570 13.316837
56.575 13.483306
56.580 13.607419
56.585 13.278198
56.590 12.842138
56.595 12.113154
56.600 11.724903
56.605 11.874357
56.610 11.706658
56.615 12.129265
56.620 12.305326
56.625 12.275143
56.630 12.367336
56.635 12.696325
56.640 12.695553
56.645 12.613911
56.650 11.777429
56.655 11.647143
56.660 12.154914
56.665 12.223069
56.670 11.811205
56.675 11.70676
56.680 11.997717
56.685 12.469615
56.690 12.442896
56.695 12.468521
56.700 13.108377
56.705 13.846745
56.710 14.265344
56.715 14.354115
56.720 14.119601
56.725 13.924235
56.730 14.218013
56.735 13.815266
56.740 13.262088
56.745 13.299227
56.750 13.778045
56.755 13.759219
56.760 13.888935
56.765 13.185729
56.770 12.794242
56.775 13.062394
56.780 12.927794
56.785 12.567163
56.790 12.448277
56.795 12.828281
56.800 13.552241
56.805 13.718994
56.810 13.617733
56.815 13.221924
56.820 13.019701
56.825 12.917138
56.830 12.411302
56.835 12.081866
56.840 12.380893
56.845 12.230772
56.850 12.236997
56.855 12.08379
56.860 11.95142
56.865 12.197316
56.870 12.095298
56.875 11.97775
56.880 12.009502
56.885 12.158855
56.890 12.448476
56.895 12.420465
56.900 12.213309
56.905 12.79584
56.910 12.833548
56.915 12.860011
56.920 13.007226
56.925 13.038298
56.930 13.577918
56.935 13.694558
56.940 13.387182
56.945 13.350371
56.950 13.7617
56.955 13.821978
56.960 14.116556
56.965 14.160231
56.970 13.553158
56.975 13.488626
56.980 13.202941
56.985 12.459426
56.990 12.308907
56.995 11.931533
57.000 11.791695
57.005 11.970798
57.010 11.568732
57.015 11.934774
57.020 12.236622
57.025 12.369317
57.030 12.554855
57.035 12.325634
57.040 12.130484
57.045 12.325517
57.050 12.071746
57.055 12.1145
57.060 12.680176
57.065 12.7214
57.070 12.885712
57.075 13.748516
57.080 13.953174
57.085 14.395661
57.090 14.390925
57.095 13.930471
57.100 13.610439
57.105 13.209037
57.110 12.178029
57.115 12.067533
57.120 11.706807
57.125 11.657046
57.130 11.437546
57.135 11.643126
57.140 11.961373
57.145 11.918651
57.150 12.196952
57.155 12.103148
57.160 11.993692
57.165 12.096616
57.170 11.990664
57.175 11.973861
57.180 12.162153
57.185 11.460167
57.190 11.597755
57.195 11.566424
57.200 11.927842
57.205 11.984871
57.210 12.164425
57.215 12.243986
57.220 12.803012
57.225 12.722707
57.230 12.735781
57.235 12.742786
57.240 13.00234
57.245 13.641929
57.250 13.878697
57.255 14.059645
57.260 14.258807
57.265 14.125263
57.270 13.90051
57.275 13.626298
57.280 13.588921
57.285 13.905429
57.290 14.003914
57.295 14.08279
57.300 14.026546
57.305 14.302617
57.310 14.407267
57.315 14.1616
57.320 13.839205
57.325 13.472912
57.330 13.859278
57.335 14.428319
57.340 14.440078
57.345 14.300535
57.350 14.177564
57.355 13.761109
57.360 13.508574
57.365 13.147911
57.370 12.907878
57.375 12.870665
57.380 12.989812
57.385 13.364731
57.390 13.304258
57.395 13.651436
57.400 14.041787
57.405 13.942876
57.410 13.833328
57.415 13.486917
57.420 12.995143
57.425 13.683214
57.430 14.146027
57.435 14.35738
57.440 14.351729
57.445 14.33928
57.450 14.831881
57.455 14.697979
57.460 13.955219
57.465 13.309678
57.470 13.483562
57.475 13.837358
57.480 14.201163
57.485 14.180659
57.490 14.896368
57.495 15.363663
57.500 15.208574
57.505 14.86759
57.510 14.992189
57.515 14.678603
57.520 14.770027
57.525 14.765914
57.530 14.739143
57.535 14.795571
57.540 14.531041
57.545 14.258354
57.550 14.139866
57.555 14.052803
57.560 14.144849
57.565 14.541966
57.570 14.509833
57.575 14.165932
57.580 13.802495
57.585 13.624168
57.590 13.080614
57.595 12.616149
57.600 12.475081
57.605 12.47893
57.610 13.460165
57.615 14.097477
57.620 14.517961
57.625 15.400532
57.630 15.848068
57.635 15.296671
57.640 15.207411
57.645 14.890966
57.650 15.133927
57.655 15.531559
57.660 14.891205
57.665 14.269107
57.670 14.161722
57.675 14.551688
57.680 14.218946
57.685 13.360415
57.690 12.981168
57.695 13.504694
57.700 14.231722
57.705 15.010662
57.710 14.624415
57.715 15.325919
57.720 15.527713
57.725 15.731885
57.730 15.447323
57.735 14.803478
57.740 14.504105
57.745 14.21651
57.750 13.81246
57.755 13.828485
57.760 13.515932
57.765 13.624292
57.770 13.640381
57.775 13.668562
57.780 13.750418
57.785 13.983944
57.790 14.026399
57.795 13.700829
57.800 13.469016
57.805 13.493917
57.810 13.211173
57.815 12.828109
57.820 12.43154
57.825 12.406996
57.830 12.775178
57.835 12.645995
57.840 13.294847
57.845 13.72867
57.850 13.469238
57.855 13.623568
57.860 13.547726
57.865 13.645776
57.870 13.804467
57.875 13.680088
57.880 13.910484
57.885 14.982148
57.890 15.597945
57.895 15.894835
57.900 16.008682
57.905 15.612206
57.910 15.207045
57.915 15.326929
57.920 15.325473
57.925 14.878001
57.930 14.759479
57.935 15.28054
57.940 15.836546
57.945 15.845772
57.950 15.745201
57.955 15.226978
57.960 15.483855
57.965 15.447138
57.970 15.385419
57.975 14.995516
57.980 14.838245
57.985 14.727359
57.990 14.802365
57.995 14.150519
58.000 13.838093
58.005 13.832175
58.010 13.941185
58.015 13.697519
58.020 13.970933
58.025 14.327263
58.030 14.903762
58.035 14.941581
58.040 15.033252
58.045 15.160556
58.050 15.792223
58.055 15.717209
58.060 15.759148
58.065 16.140713
58.070 16.185328
58.075 16.683331
58.080 17.225584
58.085 16.452593
58.090 16.32435
58.095 15.683698
58.100 15.241194
58.105 15.00321
58.110 14.259651
58.115 14.968004
58.120 15.873206
58.125 16.278803
58.130 16.894728
58.135 17.16297
58.140 17.319525
58.145 17.155975
58.150 16.260868
58.155 16.037228
58.160 15.072813
58.165 14.711643
58.170 15.018723
58.175 14.890663
58.180 15.052638
58.185 15.26191
58.190 14.959182
58.195 15.422482
58.200 15.288762
58.205 15.193752
58.210 15.701431
58.215 16.02865
58.220 15.964
58.225 16.173944
58.230 16.814909
58.235 17.10574
58.240 17.048094
58.245 16.444321
58.250 15.745461
58.255 15.767311
58.260 15.787452
58.265 15.366336
58.270 15.482133
58.275 15.541623
58.280 15.589752
58.285 16.009283
58.290 16.369257
58.295 16.617428
58.300 16.908735
58.305 16.613169
58.310 16.907942
58.315 17.033226
58.320 17.172268
58.325 16.66288
58.330 16.366894
58.335 16.12911
58.340 16.190825
58.345 15.847894
58.350 15.916524
58.355 15.880703
58.360 15.710659
58.365 15.745078
58.370 15.486604
58.375 15.261938
58.380 14.647386
58.385 14.590461
58.390 15.096252
58.395 15.645425
58.400 16.31321
58.405 16.742998
58.410 17.137081
58.415 17.771624
58.420 18.101221
58.425 17.800388
58.430 17.35462
58.435 16.881199
58.440 16.952068
58.445 17.267689
58.450 17.139748
58.455 16.612226
58.460 16.511814
58.465 17.161461
58.470 17.607698
58.475 17.670193
58.480 17.549894
58.485 17.800865
58.490 17.566231
58.495 17.734764
58.500 17.47105
58.505 17.602308
58.510 17.612617
58.515 17.921162
58.520 18.066547
58.525 18.453897
58.530 18.505634
58.535 18.480867
58.540 18.336403
58.545 17.949789
58.550 17.6127
58.555 17.651896
58.560 18.107555
58.565 17.947327
58.570 18.206854
58.575 18.625847
58.580 19.200397
58.585 19.316454
58.590 19.009829
58.595 18.669012
58.600 18.61278
58.605 18.50049
58.610 18.158524
58.615 18.037039
58.620 17.673544
58.625 18.077887
58.630 18.554476
58.635 18.453615
58.640 17.622841
58.645 17.182507
58.650 16.595306
58.655 17.001999
58.660 16.382627
58.665 16.104879
58.670 16.411533
58.675 17.333179
58.680 17.758804
58.685 18.060356
58.690 17.983047
58.695 18.681911
58.700 18.451515
58.705 18.246635
58.710 18.075542
58.715 18.305614
58.720 18.841928
58.725 18.512564
58.730 17.917665
58.735 18.467487
58.740 18.428583
58.745 18.103365
58.750 18.003811
58.755 18.053385
58.760 18.224173
58.765 19.043839
58.770 18.752199
58.775 18.625988
58.780 18.210106
58.785 17.990635
58.790 17.422237
58.795 17.44442
58.800 16.576494
58.805 16.893919
58.810 16.973774
58.815 17.358372
58.820 17.604351
58.825 17.491932
58.830 17.533539
58.835 16.959349
58.840 16.479376
58.845 16.772673
58.850 16.43442
58.855 15.997791
58.860 16.25033
58.865 16.734247
58.870 17.827724
58.875 18.299574
58.880 18.067404
58.885 18.124731
58.890 18.813278
58.895 18.798273
58.900 18.569708
58.905 18.343241
58.910 17.530045
58.915 17.274866
58.920 17.044714
58.925 16.49357
58.930 16.46546
58.935 15.792924
58.940 15.430717
58.945 15.855016
58.950 16.330229
58.955 16.637035
58.960 17.093016
58.965 17.503178
58.970 18.284399
58.975 18.551014
58.980 18.606604
58.985 18.016914
58.990 17.443258
58.995 17.161417
59.000 16.818958
59.005 16.529554
59.010 16.459061
59.015 16.634127
59.020 17.178122
59.025 17.236616
59.030 17.785254
59.035 18.246046
59.040 18.28817
59.045 18.51787
59.050 18.90346
59.055 19.241211
59.060 19.459076
59.065 19.476767
59.070 19.016514
59.075 18.631491
59.080 18.398249
59.085 18.149799
59.090 18.261995
59.095 18.070549
59.100 17.377449
59.105 17.565161
59.110 17.577164
59.115 18.125444
59.120 17.923376
59.125 17.97036
59.130 18.273438
59.135 18.761164
59.140 19.458273
59.145 19.710987
59.150 19.176073
59.155 19.111267
59.160 18.928282
59.165 18.361149
59.170 18.3643
59.175 18.180159
59.180 18.937302
59.185 19.354177
59.190 19.319231
59.195 19.119652
59.200 19.44742
59.205 19.185837
59.210 19.244671
59.215 17.998896
59.220 17.899649
59.225 18.298054
59.230 18.579494
59.235 18.445765
59.240 18.207541
59.245 18.518181
59.250 18.747147
59.255 18.40193
59.260 18.566429
59.265 19.040764
59.270 19.545807
59.275 19.48267
59.280 19.044567
59.285 19.180677
59.290 18.873474
59.295 18.637562
59.300 18.111803
59.305 17.338043
59.310 17.546646
59.315 17.660686
59.320 17.806309
59.325 18.172453
59.330 18.376169
59.335 18.547211
59.340 18.90349
59.345 18.464687
59.350 18.038942
59.355 18.152426
59.360 17.807158
59.365 17.424212
59.370 17.058569
59.375 17.015574
59.380 17.425644
59.385 17.906101
59.390 18.934013
59.395 18.986963
59.400 19.037502
59.405 19.158997
59.410 18.918209
59.415 18.690046
59.420 18.408552
59.425 18.08102
59.430 18.297871
59.435 17.770033
59.440 18.081362
59.445 18.664665
59.450 18.693254
59.455 18.41437
59.460 18.333805
59.465 18.634756
59.470 19.191589
59.475 18.940334
59.480 18.40008
59.485 18.678047
59.490 19.272583
59.495 19.42392
59.500 19.245995
59.505 19.466841
59.510 19.947741
59.515 19.597372
59.520 19.437683
59.525 19.352205
59.530 19.050978
59.535 19.094061
59.540 19.296236
59.545 19.428366
59.550 19.760729
59.555 19.466793
59.560 18.684072
59.565 18.565361
59.570 18.004135
59.575 17.774729
59.580 17.539474
59.585 17.906172
59.590 18.293968
59.595 18.879444
59.600 19.124565
59.605 19.611898
59.610 19.909224
59.615 20.368248
59.620 20.106604
59.625 19.666918
59.630 19.189337
59.635 19.078848
59.640 19.009083
59.645 18.660131
59.650 18.058323
59.655 18.128958
59.660 17.89653
59.665 17.496479
59.670 17.384436
59.675 18.055134
59.680 18.724821
59.685 19.321678
59.690 19.983562
59.695 20.581392
59.700 21.701399
59.705 22.227018
59.710 21.56506
59.715 20.765646
59.720 20.209791
59.725 19.947403
59.730 19.637609
59.735 19.321974
59.740 19.289068
59.745 19.440498
59.750 19.626326
59.755 19.983698
59.760 20.729464
59.765 21.180285
59.770 20.681566
59.775 20.42325
59.780 20.092615
59.785 20.07538
59.790 19.541136
59.795 18.527506
59.800 18.994293
59.805 19.173334
59.810 19.425337
59.815 19.585766
59.820 19.857321
59.825 20.096647
59.830 20.411682
59.835 20.074884
59.840 19.953775
59.845 19.85944
59.850 19.393869
59.855 19.963053
59.860 20.28706
59.865 20.188192
59.870 19.93643
59.875 19.882517
59.880 19.874588
59.885 19.850554
59.890 19.277807
59.895 18.718126
59.900 18.416161
59.905 18.498234
59.910 18.216913
59.915 18.313339
59.920 18.787457
59.925 18.616697
59.930 18.847073
59.935 18.831825
59.940 18.990837
59.945 19.254251
59.950 19.115921
59.955 19.731773
59.960 20.476116
59.965 21.021799
59.970 20.747171
59.975 20.480326
59.980 20.570116
59.985 20.763889
59.990 20.037066
59.995 19.728588
60.000 19.453066
60.005 20.047087
60.010 19.924276
60.015 19.993525
60.020 20.134037
60.025 20.0324
60.030 19.927206
60.035 20.23591
60.040 20.475977
60.045 21.030249
60.050 20.683239
60.055 20.627455
60.060 20.409147
60.065 20.514397
60.070 20.531034
60.075 21.021517
60.080 20.994276
60.085 21.234756
60.090 20.956245
60.095 21.151194
60.100 20.920969
60.105 20.476173
60.110 19.340431
60.115 18.209179
60.120 18.222256
60.125 18.560022
60.130 18.303539
60.135 18.259809
60.140 18.286453
60.145 18.409853
60.150 18.986277
60.155 18.816298
60.160 18.308578
60.165 18.16781
60.170 18.228138
60.175 18.009857
60.180 17.823692
60.185 17.540014
60.190 17.499563
60.195 18.155691
60.200 18.228277
60.205 17.420412
60.210 17.498562
60.215 17.975422
60.220 18.276443
60.225 18.213095
60.230 18.025064
60.235 17.754847
60.240 18.084324
60.245 18.197233
60.250 17.837492
60.255 17.345839
60.260 16.648449
60.265 16.14992
60.270 16.148655
60.275 16.251574
60.280 16.120493
60.285 16.046484
60.290 16.473127
60.295 16.921598
60.300 16.963152
60.305 17.333134
60.310 17.356373
60.315 17.594282
60.320 18.029329
60.325 18.233189
60.330 18.383169
60.335 18.680914
60.340 18.318188
60.345 18.603298
60.350 18.309292
60.355 17.770981
60.360 17.356474
60.365 17.325979
60.370 17.150675
60.375 16.988125
60.380 17.435831
60.385 18.013395
60.390 18.193644
60.395 18.294308
60.400 17.919064
60.405 17.999344
60.410 18.122568
60.415 17.059475
60.420 16.6625
60.425 16.493769
60.430 16.329115
60.435 16.386478
60.440 16.267836
60.445 16.396217
60.450 16.614033
60.455 16.825901
60.460 16.931591
60.465 17.491165
60.470 17.820988
60.475 18.470041
60.480 18.832294
60.485 18.561626
60.490 18.567749
60.495 18.645014
60.500 18.187252
60.505 18.400978
60.510 18.207397
60.515 17.643038
60.520 17.510996
60.525 17.810181
60.530 17.782248
60.535 17.630495
60.540 17.292416
60.545 16.997194
60.550 17.439138
60.555 18.005344
60.560 17.716257
60.565 17.645515
60.570 17.69417
60.575 17.337341
60.580 17.113314
60.585 16.901102
60.590 16.445696
60.595 16.071621
60.600 15.651274
60.605 15.569961
60.610 15.833516
60.615 15.973267
60.620 16.323748
60.625 16.611107
60.630 16.970757
60.635 17.997992
60.640 18.195772
60.645 18.355495
60.650 18.013218
60.655 17.8409
60.660 17.665724
60.665 17.531355
60.670 17.09938
60.675 16.59787
60.680 16.62207
60.685 16.774446
60.690 16.556078
60.695 16.507925
60.700 16.384693
60.705 16.553329
60.710 16.525509
60.715 16.609436
60.720 16.22957
60.725 16.663223
60.730 16.754509
60.735 16.861523
60.740 16.885351
60.745 16.66201
60.750 16.748579
60.755 16.58835
60.760 16.243872
60.765 16.180061
60.770 16.330961
60.775 16.505112
60.780 16.864922
60.785 16.652149
60.790 16.963377
60.795 17.11005
60.800 17.41411
60.805 17.118528
60.810 16.811018
60.815 16.239416
60.820 15.683154
60.825 15.506739
60.830 14.619228
60.835 14.351263
60.840 14.118525
60.845 14.053419
60.850 15.183676
60.855 15.90319
60.860 16.367678
60.865 17.144718
60.870 17.060429
60.875 16.918005
60.880 17.042536
60.885 17.146263
60.890 16.981501
60.895 16.667416
60.900 16.740046
60.905 17.079863
60.910 17.187742
60.915 16.981441
60.920 16.65451
60.925 16.992672
60.930 17.102913
60.935 16.856897
60.940 16.507257
60.945 16.404106
60.950 16.540955
60.955 16.73847
60.960 16.180216
60.965 15.816805
60.970 15.834695
60.975 15.943744
60.980 16.097733
60.985 16.32641
60.990 16.203602
60.995 16.292566
61.000 16.914167
61.005 16.974537
61.010 16.960655
61.015 17.175852
61.020 16.795536
61.025 16.693363
61.030 17.085688
61.035 16.266361
61.040 16.255743
61.045 16.471319
61.050 15.804786
61.055 15.508879
61.060 14.97829
61.065 15.127071
61.070 16.058874
61.075 16.00139
61.080 15.848122
61.085 16.215076
61.090 16.525129
61.095 16.759674
61.100 16.633955
61.105 16.219801
61.110 16.13616
61.115 16.521738
61.120 16.975817
61.125 16.765953
61.130 16.513136
61.135 16.401709
61.140 16.623444
61.145 16.917393
61.150 16.682011
61.155 16.967665
61.160 16.971058
61.165 17.419676
61.170 17.042913
61.175 16.670952
61.180 16.325718
61.185 16.411377
61.190 15.821575
61.195 15.962049
61.200 16.286587
61.205 17.404488
61.210 17.980589
61.215 17.846689
61.220 17.53854
61.225 17.800423
61.230 18.086361
61.235 17.636951
61.240 16.788145
61.245 16.814037
61.250 16.548409
61.255 16.7721
61.260 16.726315
61.265 16.306797
61.270 16.157394
61.275 16.009159
61.280 15.699411
61.285 16.07202
61.290 16.379766
61.295 16.61212
61.300 16.514402
61.305 16.485361
61.310 16.52775
61.315 17.052168
61.320 17.046955
61.325 16.573997
61.330 16.519922
61.335 16.304255
61.340 16.68696
61.345 17.166656
61.350 17.06373
61.355 17.568727
61.360 17.61191
61.365 17.05685
61.370 17.510714
61.375 17.181803
61.380 16.599131
61.385 16.372755
61.390 16.689032
61.395 16.596552
61.400 16.96233
61.405 16.516129
61.410 16.435621
61.415 16.349689
61.420 16.046877
61.425 15.055456
61.430 15.086945
61.435 15.259304
61.440 15.802085
61.445 16.102034
61.450 16.339455
61.455 16.421724
61.460 16.208733
61.465 16.068192
61.470 15.95375
61.475 15.804144
61.480 16.126017
61.485 16.013689
61.490 16.062693
61.495 16.391407
61.500 16.345341
61.505 16.280771
61.510 16.606506
61.515 16.414814
61.520 16.548216
61.525 17.237089
61.530 17.347868
61.535 17.540943
61.540 17.50087
61.545 17.256115
61.550 17.456116
61.555 17.684244
61.560 16.887545
61.565 16.735502
61.570 16.689951
61.575 17.001528
61.580 16.542131
61.585 15.847119
61.590 15.828355
61.595 16.026005
61.600 15.914363
61.605 15.703038
61.610 15.779493
61.615 15.957793
61.620 16.064487
61.625 15.748258
61.630 15.550631
61.635 15.516859
61.640 15.376908
61.645 14.899149
61.650 15.54156
61.655 15.799772
61.660 16.208576
61.665 16.7948
61.670 16.935398
61.675 17.067612
61.680 17.405264
61.685 17.268093
61.690 17.260321
61.695 16.818012
61.700 16.833807
61.705 17.321869
61.710 17.526659
61.715 17.7332
61.720 18.158663
61.725 18.526854
61.730 18.366138
61.735 17.95199
61.740 17.579994
61.745 17.474276
61.750 17.526419
61.755 16.432482
61.760 15.594499
61.765 15.778788
61.770 16.079487
61.775 15.862677
61.780 15.571578
61.785 15.691674
61.790 16.425035
61.795 16.648678
61.800 16.814848
61.805 17.054596
61.810 17.740561
61.815 18.223238
61.820 17.538036
61.825 17.772532
61.830 18.355743
61.835 18.01145
61.840 17.180668
61.845 16.589884
61.850 16.316557
61.855 16.740009
61.860 16.896305
61.865 17.23842
61.870 17.47567
61.875 18.203703
61.880 18.692898
61.885 19.444912
61.890 19.725182
61.895 19.366873
61.900 19.028421
61.905 19.161051
61.910 19.078514
61.915 18.744394
61.920 17.813879
61.925 17.184101
61.930 17.094051
61.935 17.219574
61.940 16.822109
61.945 16.486105
61.950 15.979195
61.955 16.198521
61.960 15.906201
61.965 15.191028
61.970 14.861385
61.975 14.935729
61.980 14.906281
61.985 14.987391
61.990 14.655531
61.995 14.881339
62.000 15.376543
62.005 15.338985
62.010 15.774447
62.015 15.90581
62.020 16.369947
62.025 16.65646
62.030 17.052792
62.035 16.947281
62.040 16.78669
62.045 16.742611
62.050 16.554466
62.055 16.418278
62.060 16.096075
62.065 15.751628
62.070 16.004026
62.075 16.229462
62.080 16.557652
62.085 17.300262
62.090 17.292589
62.095 17.571081
62.100 17.359808
62.105 17.469559
62.110 17.415194
62.115 17.185122
62.120 16.883398
62.125 16.852886
62.130 17.03771
62.135 16.943596
62.140 16.793955
62.145 16.657314
62.150 15.935047
62.155 15.696141
62.160 16.218473
62.165 16.112305
62.170 16.454937
62.175 16.647182
62.180 17.240227
62.185 17.653378
62.190 17.539389
62.195 17.565931
62.200 17.425499
62.205 17.710531
62.210 17.827631
62.215 17.252201
62.220 17.66638
62.225 17.789953
62.230 17.092638
62.235 17.211746
62.240 16.689354
62.245 16.421764
62.250 16.713432
62.255 16.821617
62.260 17.146099
62.265 17.341314
62.270 17.585781
62.275 18.021832
62.280 17.793688
62.285 17.242966
62.290 16.425186
62.295 16.222769
62.300 16.79537
62.305 16.716116
62.310 16.081524
62.315 16.17098
62.320 16.716778
62.325 16.764647
62.330 16.010931
62.335 14.924452
62.340 14.695085
62.345 15.675103
62.350 15.966074
62.355 16.195385
62.360 16.709133
62.365 17.140619
62.370 17.898735
62.375 18.144136
62.380 17.502117
62.385 17.215996
62.390 16.687815
62.395 16.469406
62.400 16.783895
62.405 16.886772
62.410 16.615932
62.415 16.948875
62.420 17.130535
62.425 16.852631
62.430 16.836472
62.435 16.609829
62.440 16.693365
62.445 17.386003
62.450 17.825172
62.455 18.007084
62.460 18.737766
62.465 19.376667
62.470 19.253721
62.475 19.112
62.480 18.500975
62.485 17.737
62.490 17.619322
62.495 17.438505
62.500 17.461166
62.505 17.050997
62.510 16.547363
62.515 17.080154
62.520 17.45466
62.525 17.695984
62.530 17.317905
62.535 16.747717
62.540 16.962257
62.545 17.220169
62.550 16.661673
62.555 16.51845
62.560 16.324944
62.565 16.746984
62.570 17.104628
62.575 16.981371
62.580 16.767378
62.585 16.904087
62.590 17.189011
62.595 17.361593
62.600 17.102167
62.605 16.862137
62.610 17.3909
62.615 17.707787
62.620 17.919952
62.625 17.972727
62.630 18.146826
62.635 18.37134
62.640 18.51305
62.645 18.070381
62.650 18.134041
62.655 17.767155
62.660 17.023939
62.665 16.800396
62.670 17.093666
62.675 16.656687
62.680 16.717009
62.685 16.693377
62.690 16.77927
62.695 17.239521
62.700 16.573231
62.705 16.584351
62.710 17.067734
62.715 17.168686
62.720 17.209284
62.725 17.928593
62.730 18.713602
62.735 19.580345
62.740 19.177446
62.745 18.951639
62.750 19.311604
62.755 19.239061
62.760 18.008495
62.765 17.318111
62.770 16.918842
62.775 17.317446
62.780 17.161581
62.785 16.706305
62.790 16.747658
62.795 16.953764
62.800 16.600016
62.805 16.829777
62.810 16.270315
62.815 16.646439
62.820 16.563002
62.825 16.419811
62.830 16.815584
62.835 17.279293
62.840 17.373116
62.845 17.40019
62.850 17.030674
62.855 17.578217
62.860 18.014172
62.865 17.506945
62.870 17.04689
62.875 16.995596
62.880 17.211748
62.885 17.604774
62.890 17.012959
62.895 16.736193
62.900 17.28668
62.905 17.562523
62.910 18.129061
62.915 18.608269
62.920 18.695621
62.925 18.410763
62.930 18.019957
62.935 17.687252
62.940 18.099155
62.945 17.146257
62.950 16.870548
62.955 17.101299
62.960 16.709661
62.965 17.128157
62.970 17.140682
62.975 16.713814
62.980 16.838049
62.985 16.614845
62.990 16.430038
62.995 17.001493
63.000 16.874874
63.005 16.647451
63.010 16.565506
63.015 16.47456
63.020 16.473896
63.025 16.507374
63.030 16.250034
63.035 16.211435
63.040 16.744576
63.045 17.289343
63.050 17.962427
63.055 18.201666
63.060 18.085455
63.065 18.704533
63.070 18.871147
63.075 18.10438
63.080 17.449991
63.085 17.042288
63.090 17.047609
63.095 17.303778
63.100 16.995354
63.105 16.850439
63.110 16.975506
63.115 17.327301
63.120 17.819307
63.125 17.899681
63.130 17.884645
63.135 17.878942
63.140 17.777733
63.145 17.713661
63.150 17.754196
63.155 17.746885
63.160 17.756926
63.165 17.615959
63.170 17.314487
63.175 17.348658
63.180 17.297607
63.185 16.928839
63.190 16.468498
63.195 15.895408
63.200 15.841704
63.205 16.159883
63.210 16.127674
63.215 15.59945
63.220 15.074739
63.225 14.965703
63.230 15.470596
63.235 16.138279
63.240 16.339859
63.245 16.370396
63.250 17.489939
63.255 17.617392
63.260 17.610369
63.265 17.469812
63.270 17.395407
63.275 17.206108
63.280 17.438047
63.285 17.421225
63.290 17.825874
63.295 18.069538
63.300 18.169964
63.305 18.155712
63.310 18.471445
63.315 18.502886
63.320 18.609179
63.325 18.618868
63.330 18.685196
63.335 18.635675
63.340 17.774168
63.345 17.346117
63.350 16.622801
63.355 16.316422
63.360 16.413448
63.365 16.017406
63.370 15.488035
63.375 16.011623
63.380 16.762032
63.385 17.867168
63.390 18.005121
63.395 17.693653
63.400 17.712147
63.405 17.771379
63.410 17.354256
63.415 16.905792
63.420 16.969732
63.425 16.803549
63.430 17.161869
63.435 17.371317
63.440 17.795458
63.445 18.113283
63.450 18.126568
63.455 17.56892
63.460 17.718178
63.465 17.639545
63.470 17.70595
63.475 17.81176
63.480 17.793497
63.485 17.945761
63.490 18.331367
63.495 18.799532
63.500 19.121103
63.505 19.520027
63.510 19.549879
63.515 19.29841
63.520 18.883471
63.525 18.428238
63.530 18.035088
63.535 18.044161
63.540 17.50272
63.545 17.381496
63.550 17.853746
63.555 17.409384
63.560 17.1259
63.565 17.049959
63.570 16.944309
63.575 17.302753
63.580 17.184767
63.585 16.975773
63.590 17.577179
63.595 18.211121
63.600 18.346363
63.605 18.036823
63.610 17.408422
63.615 17.272837
63.620 17.437424
63.625 17.30114
63.630 16.761051
63.635 16.429049
63.640 16.931513
63.645 17.753242
63.650 18.306858
63.655 18.025208
63.660 17.887121
63.665 18.591366
63.670 19.005018
63.675 18.455475
63.680 18.357962
63.685 18.593288
63.690 19.379725
63.695 19.450212
63.700 19.071749
63.705 19.267242
63.710 19.418129
63.715 19.260048
63.720 18.980091
63.725 18.668352
63.730 19.176435
63.735 19.387218
63.740 18.992495
63.745 18.96723
63.750 18.765282
63.755 18.403128
63.760 19.048899
63.765 19.171747
63.770 19.123838
63.775 19.63846
63.780 20.149511
63.785 20.481588
63.790 20.820202
63.795 20.139242
63.800 20.194094
63.805 20.130375
63.810 19.57011
63.815 19.171976
63.820 19.426239
63.825 19.41235
63.830 19.287962
63.835 18.873442
63.840 19.53857
63.845 20.376007
63.850 21.044498
63.855 21.275597
63.860 21.692553
63.865 21.314644
63.870 21.232349
63.875 20.248539
63.880 19.874975
63.885 19.301519
63.890 18.443186
63.895 17.949505
63.900 18.206547
63.905 18.058464
63.910 18.39937
63.915 18.712542
63.920 18.913059
63.925 19.388016
63.930 19.555521
63.935 19.877199
63.940 19.771013
63.945 19.569715
63.950 19.563915
63.955 19.349007
63.960 19.741966
63.965 20.089027
63.970 19.91634
63.975 20.158392
63.980 20.491158
63.985 20.164259
63.990 20.606384
63.995 20.269934
64.000 20.432798
64.005 20.907047
64.010 21.196089
64.015 21.841034
64.020 22.328978
64.025 21.912767
64.030 21.890528
64.035 22.088566
64.040 22.510405
64.045 22.9627
64.050 22.740076
64.055 22.3599
64.060 22.737881
64.065 22.462643
64.070 22.093163
64.075 21.482695
64.080 20.51372
64.085 19.923429
64.090 20.408644
64.095 20.393261
64.100 20.926714
64.105 20.981321
64.110 21.068819
64.115 21.567183
64.120 21.912281
64.125 21.079992
64.130 21.082924
64.135 21.026331
64.140 20.859018
64.145 20.832415
64.150 20.259855
64.155 20.040415
64.160 20.278238
64.165 20.400734
64.170 20.434187
64.175 20.134239
64.180 20.257906
64.185 21.100269
64.190 21.190411
64.195 21.188494
64.200 20.371918
64.205 20.003828
64.210 20.320997
64.215 19.912943
64.220 20.457558
64.225 20.839615
64.230 21.07337
64.235 22.061029
64.240 22.61562
64.245 22.783863
64.250 22.824793
64.255 22.023079
64.260 22.212231
64.265 22.132225
64.270 21.545719
64.275 21.182482
64.280 21.483812
64.285 21.810385
64.290 22.187941
64.295 21.794399
64.300 21.822048
64.305 22.17388
64.310 21.877462
64.315 21.603428
64.320 21.049902
64.325 20.372715
64.330 20.140932
64.335 19.666632
64.340 19.362097
64.345 19.601337
64.350 20.009529
64.355 20.167471
64.360 20.171228
64.365 20.382721
64.370 20.400431
64.375 20.374269
64.380 20.546091
64.385 19.729523
64.390 19.528358
64.395 19.76083
64.400 20.094328
64.405 20.129351
64.410 19.992495
64.415 20.000917
64.420 20.757483
64.425 21.438459
64.430 21.661228
64.435 21.709452
64.440 22.082323
64.445 22.11643
64.450 22.19573
64.455 22.267963
64.460 22.053417
64.465 21.718941
64.470 21.209255
64.475 21.197124
64.480 21.410557
64.485 21.73333
64.490 21.984013
64.495 22.367611
64.500 23.448019
64.505 24.078701
64.510 23.885773
64.515 23.158443
64.520 22.517981
64.525 22.386436
64.530 21.503775
64.535 20.415646
64.540 20.067257
64.545 20.257805
64.550 20.446056
64.555 20.195255
64.560 20.518108
64.565 20.730547
64.570 20.545101
64.575 19.582546
64.580 19.910059
64.585 20.685734
64.590 20.931042
64.595 20.581778
64.600 21.042551
64.605 21.722128
64.610 22.621748
64.615 21.876842
64.620 21.480068
64.625 21.263844
64.630 20.565639
64.635 20.082933
64.640 20.124817
64.645 20.247276
64.650 20.724991
64.655 20.366392
64.660 20.564501
64.665 21.075035
64.670 21.246849
64.675 20.862036
64.680 21.062038
64.685 21.495672
64.690 21.575695
64.695 21.224987
64.700 21.233356
64.705 20.987904
64.710 21.023914
64.715 20.477844
64.720 20.481274
64.725 20.402578
64.730 20.397417
64.735 20.496382
64.740 20.575447
64.745 20.113253
64.750 20.00782
64.755 19.857944
64.760 20.211323
64.765 20.936726
64.770 20.971624
64.775 21.101021
64.780 21.790119
64.785 22.152853
64.790 22.020945
64.795 21.285309
64.800 20.58671
64.805 21.003275
64.810 21.179226
64.815 21.618202
64.820 22.023214
64.825 22.35603
64.830 23.233271
64.835 24.009928
64.840 23.943645
64.845 24.14431
64.850 23.823805
64.855 23.244167
64.860 23.540262
64.865 23.35751
64.870 23.204472
64.875 22.937038
64.880 22.464529
64.885 21.776661
64.890 21.988264
64.895 21.579075
64.900 21.164965
64.905 20.694078
64.910 20.517899
64.915 20.141867
64.920 20.471731
64.925 20.046886
64.930 20.015406
64.935 20.65172
64.940 21.538486
64.945 22.101986
64.950 22.945444
64.955 23.412195
64.960 23.69916
64.965 23.909491
64.970 23.80158
64.975 23.303019
64.980 23.282051
64.985 23.894747
64.990 23.657339
64.995 23.669119
65.000 24.283787
65.005 24.414785
65.010 24.290369
65.015 23.813766
65.020 22.714458
65.025 22.240013
65.030 22.566236
65.035 21.824186
65.040 21.913973
65.045 22.381613
65.050 22.852268
65.055 22.899166
65.060 22.773626
65.065 22.147621
65.070 22.394253
65.075 21.801521
65.080 21.376612
65.085 21.618982
65.090 22.375051
65.095 22.625458
65.100 22.821409
65.105 22.471365
65.110 23.199856
65.115 23.190216
65.120 22.764681
65.125 22.906494
65.130 23.746021
65.135 23.635321
65.140 23.489185
65.145 22.961149
65.150 23.433847
65.155 23.91996
65.160 23.729942
65.165 23.619524
65.170 23.516687
65.175 23.757528
65.180 23.962564
65.185 23.098282
65.190 22.578096
65.195 22.555538
65.200 22.754566
65.205 23.627781
65.210 23.245485
65.215 23.427639
65.220 23.960587
65.225 23.852346
65.230 23.373129
65.235 23.302517
65.240 23.338345
65.245 23.34997
65.250 23.425236
65.255 23.059845
65.260 23.006813
65.265 22.696989
65.270 22.336246
65.275 22.342186
65.280 22.722622
65.285 22.150434
65.290 22.683365
65.295 22.739658
65.300 23.121412
65.305 22.536919
65.310 22.270811
65.315 22.332884
65.320 22.596079
65.325 22.882391
65.330 23.069777
65.335 23.357439
65.340 23.806732
65.345 23.804121
65.350 23.573584
65.355 23.763224
65.360 23.394478
65.365 23.9231
65.370 23.965023
65.375 24.247772
65.380 24.221354
65.385 24.272221
65.390 24.426193
65.395 24.851202
65.400 23.836981
65.405 23.391224
65.410 23.677773
65.415 24.141838
65.420 24.240368
65.425 24.375301
65.430 24.510504
65.435 25.591763
65.440 26.335796
65.445 26.284107
65.450 26.019381
65.455 25.9998
65.460 26.11084
65.465 25.808031
65.470 25.276861
65.475 24.815893
65.480 24.408363
65.485 24.638258
65.490 24.568562
65.495 23.905237
65.500 23.708006
65.505 23.769451
65.510 23.651913
65.515 23.822149
65.520 23.517586
65.525 23.628534
65.530 23.581856
65.535 23.969055
65.540 24.65723
65.545 25.500702
65.550 26.279902
65.555 26.205427
65.560 26.403652
65.565 26.728718
65.570 26.689144
65.575 27.095665
65.580 27.667568
65.585 27.676382
65.590 28.361952
65.595 28.842548
65.600 28.844202
65.605 29.075062
65.610 28.912785
65.615 28.679592
65.620 28.636942
65.625 28.834139
65.630 28.439985
65.635 28.57914
65.640 28.205601
65.645 27.918283
65.650 27.449436
65.655 27.196714
65.660 27.38796
65.665 27.675585
65.670 27.31098
65.675 27.543953
65.680 27.214943
65.685 27.232662
65.690 26.961288
65.695 26.157078
65.700 25.964336
65.705 26.728889
65.710 26.641195
65.715 26.817209
65.720 27.049906
65.725 28.324747
65.730 28.945597
65.735 29.960005
65.740 30.435144
65.745 31.10969
65.750 32.354771
65.755 33.194859
65.760 33.067406
65.765 33.166485
65.770 33.183456
65.775 33.0853
65.780 33.384113
65.785 32.618977
65.790 32.417137
65.795 33.151096
65.800 33.17342
65.805 32.958809
65.810 32.917084
65.815 32.529846
65.820 33.264946
65.825 33.312771
65.830 32.885853
65.835 33.090164
65.840 32.984425
65.845 33.197243
65.850 33.898872
65.855 33.690151
65.860 33.400532
65.865 34.039352
65.870 34.477524
65.875 34.687321
65.880 34.616657
65.885 34.445995
65.890 35.078049
65.895 34.978226
65.900 34.519485
65.905 35.063904
65.910 35.396168
65.915 35.463551
65.920 35.077648
65.925 34.770126
65.930 36.071068
65.935 36.009258
65.940 35.279263
65.945 34.320801
65.950 34.476089
65.955 35.285851
65.960 35.314228
65.965 34.722927
65.970 35.693798
65.975 36.060173
65.980 36.319649
65.985 36.411617
65.990 35.856705
65.995 36.403191
66.000 36.874931
66.005 35.938702
66.010 36.485546
66.015 37.484249
66.020 37.446644
66.025 37.962101
66.030 37.691856
66.035 37.555828
66.040 38.162033
66.045 37.724728
66.050 37.659702
66.055 37.432861
66.060 36.475113
66.065 36.523167
66.070 36.686089
66.075 36.653572
66.080 36.551109
66.085 36.532688
66.090 36.663685
66.095 38.132881
66.100 38.485992
66.105 37.767761
66.110 38.034889
66.115 38.913418
66.120 38.714535
66.125 39.422153
66.130 39.818268
66.135 39.368916
66.140 39.441769
66.145 39.229275
66.150 38.100346
66.155 38.839878
66.160 38.83643
66.165 38.750877
66.170 39.65844
66.175 40.05579
66.180 39.947495
66.185 40.817074
66.190 40.298412
66.195 39.975201
66.200 40.046089
66.205 40.543091
66.210 40.7672
66.215 41.395473
66.220 40.982044
66.225 40.821228
66.230 40.844173
66.235 40.559292
66.240 41.084656
66.245 41.647511
66.250 42.209503
66.255 42.181206
66.260 41.598209
66.265 41.451988
66.270 41.329548
66.275 40.604553
66.280 39.694431
66.285 37.968807
66.290 37.496292
66.295 37.483402
66.300 37.829037
66.305 37.153118
66.310 36.3922
66.315 36.701454
66.320 37.598995
66.325 38.456234
66.330 38.384384
66.335 37.811363
66.340 37.332314
66.345 37.486366
66.350 37.25367
66.355 37.255024
66.360 37.045219
66.365 37.070625
66.370 37.156403
66.375 37.48362
66.380 35.915264
66.385 34.893593
66.390 33.641247
66.395 32.625351
66.400 32.223843
66.405 32.429607
66.410 32.291111
66.415 33.26543
66.420 33.431175
66.425 33.32951
66.430 34.067081
66.435 34.429577
66.440 33.444408
66.445 32.673923
66.450 32.209732
66.455 32.219604
66.460 32.20549
66.465 31.524094
66.470 30.891485
66.475 30.50663
66.480 29.955421
66.485 30.012102
66.490 30.485413
66.495 29.971016
66.500 29.880564
66.505 29.756975
66.510 30.339369
66.515 30.735451
66.520 30.172333
66.525 29.791021
66.530 29.681637
66.535 29.209112
66.540 29.325901
66.545 28.604263
66.550 28.419271
66.555 27.834555
66.560 27.663738
66.565 27.523767
66.570 27.692303
66.575 27.674173
66.580 27.209967
66.585 27.114532
66.590 26.938732
66.595 26.69474
66.600 26.840078
66.605 26.886229
66.610 26.774231
66.615 26.220373
66.620 25.281719
66.625 24.829144
66.630 24.71693
66.635 24.283354
66.640 23.730204
66.645 23.47805
66.650 23.838629
66.655 24.177053
66.660 24.020533
66.665 24.24044
66.670 24.633862
66.675 24.56279
66.680 24.243891
66.685 23.403685
66.690 23.339851
66.695 23.247112
66.700 22.305853
66.705 21.332151
66.710 21.144253
66.715 21.507618
66.720 22.345757
66.725 22.194374
66.730 22.180075
66.735 22.178118
66.740 22.72414
66.745 22.516956
66.750 21.989777
66.755 21.405752
66.760 21.239595
66.765 21.645691
66.770 22.32893
66.775 22.101616
66.780 21.624071
66.785 21.779097
66.790 22.028439
66.795 21.777218
66.800 20.97439
66.805 21.035608
66.810 20.851551
66.815 21.364027
66.820 21.611675
66.825 22.166536
66.830 22.703796
66.835 23.141855
66.840 22.290989
66.845 22.234642
66.850 21.619526
66.855 21.027761
66.860 20.531746
66.865 20.418526
66.870 20.001675
66.875 20.746099
66.880 21.004108
66.885 21.04661
66.890 21.757713
66.895 21.731726
66.900 21.803547
66.905 22.036058
66.910 22.027119
66.915 22.793871
66.920 23.23399
66.925 22.704271
66.930 22.958973
66.935 22.631681
66.940 22.413174
66.945 21.667864
66.950 21.092243
66.955 20.85944
66.960 20.528433
66.965 20.366016
66.970 21.130926
66.975 21.005032
66.980 21.767179
66.985 21.929783
66.990 21.87121
66.995 22.408403
67.000 22.277819
67.005 21.648363
67.010 21.316393
67.015 21.35667
67.020 21.331461
67.025 21.022203
67.030 20.878487
67.035 20.400421
67.040 21.112904
67.045 21.658167
67.050 21.511456
67.055 21.551413
67.060 21.67561
67.065 21.142231
67.070 21.308645
67.075 21.460888
67.080 21.270248
67.085 20.994093
67.090 21.084419
67.095 21.227074
67.100 21.098007
67.105 20.755636
67.110 20.147511
67.115 19.881128
67.120 19.659582
67.125 19.263447
67.130 19.125734
67.135 19.663097
67.140 20.136267
67.145 20.613941
67.150 21.024729
67.155 21.455477
67.160 22.233625
67.165 22.46332
67.170 22.496368
67.175 22.190609
67.180 21.527691
67.185 21.176971
67.190 21.006472
67.195 20.627115
67.200 20.565535
67.205 20.37319
67.210 20.805407
67.215 21.475752
67.220 21.496611
67.225 21.699305
67.230 21.959829
67.235 22.138023
67.240 22.052835
67.245 21.591888
67.250 21.644087
67.255 22.139681
67.260 21.717115
67.265 21.580435
67.270 21.307758
67.275 21.416428
67.280 21.25919
67.285 20.8857
67.290 20.962282
67.295 20.837738
67.300 20.863607
67.305 20.78879
67.310 21.226318
67.315 21.715004
67.320 21.381372
67.325 20.898094
67.330 20.586197
67.335 20.573633
67.340 21.072985
67.345 20.858589
67.350 20.576403
67.355 20.805098
67.360 20.976219
67.365 20.980173
67.370 20.78093
67.375 19.842672
67.380 19.149906
67.385 19.419577
67.390 19.056206
67.395 18.605066
67.400 18.540215
67.405 18.223255
67.410 18.778912
67.415 19.188059
67.420 18.847454
67.425 19.129095
67.430 19.317886
67.435 19.937271
67.440 19.944542
67.445 19.473253
67.450 19.116367
67.455 18.856493
67.460 18.937201
67.465 19.298811
67.470 19.421885
67.475 19.999304
67.480 20.346195
67.485 20.839062
67.490 20.432396
67.495 20.297344
67.500 20.403946
67.505 20.030655
67.510 19.69029
67.515 19.425293
67.520 18.87149
67.525 19.557968
67.530 19.105679
67.535 18.588106
67.540 18.361361
67.545 18.649189
67.550 19.096922
67.555 19.470573
67.560 19.428848
67.565 19.813133
67.570 20.41642
67.575 20.793856
67.580 20.041357
67.585 19.400021
67.590 20.17145
67.595 20.400084
67.600 20.696167
67.605 20.532452
67.610 20.621593
67.615 21.194887
67.620 21.354033
67.625 20.844196
67.630 20.741468
67.635 20.235445
67.640 20.350805
67.645 20.221308
67.650 19.872257
67.655 19.574209
67.660 19.768007
67.665 20.154915
67.670 20.71052
67.675 20.736412
67.680 20.662109
67.685 20.677429
67.690 20.634977
67.695 19.758163
67.700 19.300037
67.705 18.78174
67.710 18.730913
67.715 19.215456
67.720 20.257904
67.725 21.11252
67.730 21.855923
67.735 21.908247
67.740 21.755932
67.745 21.887543
67.750 21.524473
67.755 20.421909
67.760 20.407682
67.765 20.433743
67.770 20.880451
67.775 21.079618
67.780 20.319454
67.785 20.364517
67.790 20.610884
67.795 19.85684
67.800 19.092199
67.805 18.625067
67.810 19.188192
67.815 19.456747
67.820 19.627819
67.825 19.512852
67.830 19.548429
67.835 20.469093
67.840 19.703211
67.845 19.283127
67.850 19.40193
67.855 19.526009
67.860 19.707199
67.865 19.891117
67.870 19.705385
67.875 20.529095
67.880 20.625111
67.885 20.592989
67.890 20.381186
67.895 20.43903
67.900 21.057205
67.905 20.663181
67.910 20.658247
67.915 20.929434
67.920 21.28335
67.925 21.970387
67.930 21.502781
67.935 21.062641
67.940 21.16732
67.945 20.984524
67.950 20.914158
67.955 20.875593
67.960 20.370947
67.965 20.880068
67.970 20.977562
67.975 21.740738
67.980 21.550129
67.985 20.756784
67.990 19.941969
67.995 19.74651
68.000 19.4669
68.005 19.09399
68.010 18.916607
68.015 18.862696
68.020 19.01483
68.025 19.44561
68.030 19.337273
68.035 18.868259
68.040 18.739511
68.045 18.478289
68.050 18.399044
68.055 17.941601
68.060 18.026743
68.065 17.999113
68.070 18.245771
68.075 18.306328
68.080 18.467373
68.085 19.104342
68.090 19.639061
68.095 19.417707
68.100 19.657948
68.105 19.906908
68.110 20.452967
68.115 20.778891
68.120 20.678638
68.125 21.076588
68.130 21.218019
68.135 20.898905
68.140 20.443216
68.145 20.267076
68.150 20.178286
68.155 20.147974
68.160 19.310253
68.165 18.910757
68.170 18.788898
68.175 19.166761
68.180 18.476627
68.185 17.766741
68.190 17.951696
68.195 18.107466
68.200 18.537699
68.205 19.250814
68.210 18.646435
68.215 18.633934
68.220 19.411709
68.225 20.119131
68.230 20.859449
68.235 21.144375
68.240 20.757139
68.245 21.061924
68.250 21.493618
68.255 21.533966
68.260 20.75901
68.265 20.368444
68.270 20.306738
68.275 20.682917
68.280 20.556725
68.285 20.205801
68.290 20.005539
68.295 19.898891
68.300 19.710302
68.305 18.921995
68.310 19.19109
68.315 19.214264
68.320 19.071823
68.325 18.806604
68.330 18.929207
68.335 18.752214
68.340 18.885967
68.345 19.06311
68.350 18.971998
68.355 19.365843
68.360 19.417706
68.365 19.427046
68.370 19.699976
68.375 19.524975
68.380 19.206467
68.385 19.591665
68.390 19.059538
68.395 18.819464
68.400 18.870295
68.405 18.634989
68.410 18.586128
68.415 19.019548
68.420 18.876139
68.425 19.425709
68.430 19.564775
68.435 19.421316
68.440 19.356012
68.445 19.433807
68.450 18.697805
68.455 18.654016
68.460 18.597065
68.465 18.600468
68.470 18.781162
68.475 18.690742
68.480 18.141022
68.485 18.341417
68.490 18.614584
68.495 18.769676
68.500 19.186941
68.505 19.349867
68.510 19.950317
68.515 20.700907
68.520 21.09783
68.525 20.950121
68.530 20.745384
68.535 20.605604
68.540 20.476862
68.545 19.974823
68.550 20.110756
68.555 19.66013
68.560 20.071339
68.565 20.242142
68.570 20.385693
68.575 20.952602
68.580 20.950306
68.585 20.549173
68.590 20.656597
68.595 20.031487
68.600 20.401308
68.605 20.650875
68.610 20.847687
68.615 21.186487
68.620 20.931829
68.625 20.509958
68.630 21.144249
68.635 21.286058
68.640 21.300564
68.645 20.964058
68.650 20.923096
68.655 21.60359
68.660 22.224314
68.665 22.183538
68.670 21.272097
68.675 21.349049
68.680 21.594646
68.685 21.634239
68.690 22.179268
68.695 22.029795
68.700 21.933832
68.705 22.208408
68.710 22.228645
68.715 22.479742
68.720 22.650471
68.725 21.833635
68.730 21.401323
68.735 21.386129
68.740 21.255489
68.745 20.610201
68.750 20.45821
68.755 20.315758
68.760 20.654737
68.765 20.928526
68.770 21.090357
68.775 21.868387
68.780 22.095768
68.785 21.807226
68.790 21.013462
68.795 20.001804
68.800 20.352606
68.805 19.837854
68.810 19.317459
68.815 19.400478
68.820 20.245451
68.825 21.240656
68.830 22.0105
68.835 21.542458
68.840 21.589708
68.845 21.90782
68.850 22.05513
68.855 21.802435
68.860 22.344604
68.865 22.863947
68.870 22.881538
68.875 22.975277
68.880 22.640266
68.885 22.012495
68.890 21.910723
68.895 21.444414
68.900 21.350948
68.905 21.539909
68.910 22.01959
68.915 22.192696
68.920 22.401249
68.925 22.490629
68.930 22.177456
68.935 21.928144
68.940 22.46789
68.945 21.753443
68.950 21.410589
68.955 21.26722
68.960 21.79846
68.965 22.239902
68.970 22.485989
68.975 22.094336
68.980 22.461332
68.985 22.368006
68.990 22.554955
68.995 22.145655
69.000 22.414915
69.005 22.972008
69.010 23.575262
69.015 23.87635
69.020 24.197004
69.025 24.104486
69.030 24.069969
69.035 23.751722
69.040 23.12327
69.045 22.777651
69.050 22.58354
69.055 22.236622
69.060 22.123037
69.065 21.891966
69.070 21.961884
69.075 22.035837
69.080 22.669859
69.085 23.607605
69.090 24.424246
69.095 25.273489
69.100 25.910349
69.105 25.840055
69.110 25.766581
69.115 25.263664
69.120 25.519516
69.125 25.137379
69.130 25.074362
69.135 24.783901
69.140 25.581049
69.145 26.146353
69.150 25.987101
69.155 26.430809
69.160 26.624983
69.165 26.670856
69.170 27.259096
69.175 26.961109
69.180 26.944084
69.185 27.811783
69.190 27.792604
69.195 27.996355
69.200 28.143795
69.205 27.89579
69.210 28.75086
69.215 29.357733
69.220 28.944912
69.225 28.585949
69.230 28.701263
69.235 29.306669
69.240 29.663284
69.245 30.510748
69.250 30.468657
69.255 30.258677
69.260 30.036589
69.265 29.633707
69.270 29.499033
69.275 30.146736
69.280 29.399023
69.285 29.620468
69.290 30.383932
69.295 30.546618
69.300 30.972111
69.305 30.521595
69.310 30.183083
69.315 30.231754
69.320 29.643532
69.325 29.865784
69.330 30.734993
69.335 31.227993
69.340 31.412703
69.345 30.902475
69.350 31.1045
69.355 31.029861
69.360 31.159842
69.365 31.13394
69.370 30.623228
69.375 30.67889
69.380 29.918009
69.385 30.202892
69.390 30.824656
69.395 30.704535
69.400 30.909201
69.405 30.996271
69.410 31.312284
69.415 32.779465
69.420 32.982792
69.425 33.511566
69.430 34.478962
69.435 34.322517
69.440 34.842949
69.445 34.395939
69.450 33.981831
69.455 33.854649
69.460 33.246273
69.465 32.298786
69.470 32.128269
69.475 31.773844
69.480 31.924477
69.485 31.701103
69.490 31.408298
69.495 31.334108
69.500 31.045847
69.505 31.307436
69.510 31.815889
69.515 32.262825
69.520 32.724873
69.525 32.488731
69.530 32.243664
69.535 32.607124
69.540 32.797245
69.545 32.574276
69.550 32.200481
69.555 32.249939
69.560 32.511684
69.565 32.728794
69.570 32.831226
69.575 32.954334
69.580 32.893253
69.585 33.030594
69.590 33.827072
69.595 34.388653
69.600 34.452286
69.605 34.2183
69.610 33.772106
69.615 33.836739
69.620 34.176693
69.625 33.258667
69.630 32.853127
69.635 32.909721
69.640 33.241314
69.645 33.09454
69.650 32.916832
69.655 32.096798
69.660 32.352688
69.665 32.440067
69.670 31.607195
69.675 31.135809
69.680 31.485605
69.685 31.405554
69.690 31.540894
69.695 30.317469
69.700 30.096937
69.705 30.201813
69.710 30.199667
69.715 30.074619
69.720 29.743803
69.725 29.658171
69.730 30.549038
69.735 30.542444
69.740 30.517813
69.745 30.041632
69.750 29.249382
69.755 28.814301
69.760 29.137409
69.765 28.979919
69.770 28.666197
69.775 28.719454
69.780 29.091639
69.785 29.500305
69.790 29.766525
69.795 29.325338
69.800 29.170321
69.805 29.192944
69.810 29.570168
69.815 29.437088
69.820 29.016535
69.825 28.957144
69.830 28.729326
69.835 28.705866
69.840 28.466661
69.845 28.115982
69.850 27.882523
69.855 27.45064
69.860 27.230568
69.865 26.499344
69.870 26.248713
69.875 25.922735
69.880 25.980976
69.885 26.285519
69.890 26.619051
69.895 26.632755
69.900 26.578686
69.905 26.36302
69.910 26.249426
69.915 25.566721
69.920 25.342062
69.925 24.875704
69.930 23.417919
69.935 22.954384
69.940 22.178186
69.945 21.799278
69.950 21.640205
69.955 21.569887
69.960 22.307625
69.965 23.615618
69.970 23.960655
69.975 24.275169
69.980 24.700039
69.985 25.109159
69.990 24.809301
69.995 24.280516
70.000 23.287069
70.005 23.070932
70.010 22.442284
70.015 21.561239
70.020 21.336681
70.025 21.424448
70.030 21.043106
70.035 21.274244
70.040 21.159473
70.045 22.035774
70.050 22.135216
70.055 21.622854
70.060 21.605398
70.065 21.45742
70.070 21.619892
70.075 21.777617
70.080 21.671627
70.085 21.802364
70.090 21.871868
70.095 21.896008
70.100 21.737076
70.105 21.364985
70.110 21.083956
70.115 20.663254
70.120 20.611322
70.125 20.459162
70.130 20.389233
70.135 20.39489
70.140 20.53598
70.145 20.727459
70.150 20.212542
70.155 19.942419
70.160 20.033466
70.165 20.304411
70.170 20.498253
70.175 20.338959
70.180 20.61132
70.185 20.905445
70.190 21.553333
70.195 21.039511
70.200 21.064394
70.205 20.696634
70.210 20.580687
70.215 20.442507
70.220 20.272381
70.225 20.007593
70.230 19.866495
70.235 20.232313
70.240 20.746168
70.245 20.422361
70.250 20.512125
70.255 20.359461
70.260 20.535439
70.265 20.47052
70.270 19.830532
70.275 19.764435
70.280 19.972605
70.285 19.841162
70.290 19.837885
70.295 19.778719
70.300 19.778646
70.305 19.684439
70.310 18.93215
70.315 19.083601
70.320 19.60252
70.325 19.894278
70.330 19.753952
70.335 19.875366
70.340 20.669434
70.345 20.452721
70.350 20.205875
70.355 19.911741
70.360 20.139822
70.365 20.179068
70.370 19.953388
70.375 19.918032
70.380 20.306549
70.385 20.525229
70.390 20.300058
70.395 20.002407
70.400 20.056448
70.405 19.813299
70.410 19.095881
70.415 18.553801
70.420 18.25478
70.425 18.191353
70.430 17.972685
70.435 18.024048
70.440 17.799927
70.445 18.174932
70.450 18.571854
70.455 18.522573
70.460 19.20071
70.465 19.763332
70.470 19.93384
70.475 20.453259
70.480 20.400145
70.485 20.562572
70.490 20.110888
70.495 19.216928
70.500 18.740473
70.505 18.96052
70.510 18.91629
70.515 19.061283
70.520 18.93762
70.525 19.675436
70.530 20.156908
70.535 20.579115
70.540 20.174906
70.545 20.123999
70.550 20.459389
70.555 20.399618
70.560 20.052856
70.565 19.500055
70.570 19.702698
70.575 19.316072
70.580 19.22608
70.585 18.701778
70.590 19.150629
70.595 19.597313
70.600 19.282249
70.605 19.384089
70.610 20.248934
70.615 19.994383
70.620 20.296242
70.625 19.849752
70.630 19.703588
70.635 19.964558
70.640 19.6278
70.645 18.89724
70.650 18.815468
70.655 18.474041
70.660 18.306082
70.665 18.134405
70.670 17.984615
70.675 18.334991
70.680 18.690289
70.685 18.822224
70.690 19.07398
70.695 19.027754
70.700 18.657396
70.705 18.555515
70.710 18.181881
70.715 18.082159
70.720 18.549677
70.725 18.302774
70.730 17.971607
70.735 17.958044
70.740 17.538647
70.745 18.033386
70.750 18.502079
70.755 18.39753
70.760 18.94573
70.765 19.329504
70.770 19.927841
70.775 20.48653
70.780 20.119131
70.785 19.883181
70.790 19.496973
70.795 18.861088
70.800 18.41515
70.805 18.229507
70.810 17.876663
70.815 17.722361
70.820 18.016096
70.825 18.084181
70.830 18.377769
70.835 18.807077
70.840 18.436476
70.845 18.756115
70.850 19.303816
70.855 19.121344
70.860 19.911911
70.865 20.382202
70.870 20.682734
70.875 20.788858
70.880 20.651274
70.885 19.791201
70.890 19.464634
70.895 19.013638
70.900 18.511688
70.905 18.578382
70.910 18.888037
70.915 19.273653
70.920 19.28627
70.925 19.696886
70.930 19.727304
70.935 19.641747
70.940 18.99514
70.945 18.415371
70.950 18.062859
70.955 18.069086
70.960 17.728086
70.965 17.643616
70.970 17.625473
70.975 18.043026
70.980 18.254187
70.985 18.074327
70.990 17.852444
70.995 17.974201
71.000 18.466583
71.005 18.42787
71.010 18.542555
71.015 18.60598
71.020 19.236996
71.025 19.57836
71.030 19.670704
71.035 19.036499
71.040 18.721279
71.045 18.42934
71.050 18.452463
71.055 18.162586
71.060 17.883652
71.065 17.766998
71.070 17.923256
71.075 18.437056
71.080 18.412237
71.085 17.965824
71.090 18.373711
71.095 18.630171
71.100 18.542643
71.105 18.339907
71.110 17.874767
71.115 17.814936
71.120 18.350893
71.125 18.384047
71.130 18.111038
71.135 18.348965
71.140 18.735573
71.145 18.283112
71.150 18.438927
71.155 17.784445
71.160 17.480394
71.165 17.053299
71.170 16.909521
71.175 16.778826
71.180 17.12723
71.185 16.924755
71.190 17.42411
71.195 18.658487
71.200 19.222733
71.205 19.899853
71.210 20.453279
71.215 20.816406
71.220 20.78392
71.225 20.238317
71.230 19.146353
71.235 18.511078
71.240 17.891989
71.245 17.69067
71.250 17.893581
71.255 18.201946
71.260 17.832664
71.265 18.348576
71.270 18.753216
71.275 19.373621
71.280 19.083622
71.285 18.100336
71.290 17.868652
71.295 17.869802
71.300 17.515409
71.305 17.236593
71.310 16.986513
71.315 16.981668
71.320 17.756033
71.325 18.031338
71.330 17.984308
71.335 18.618938
71.340 18.370609
71.345 18.542269
71.350 18.672771
71.355 19.067627
71.360 19.245605
71.365 18.946859
71.370 18.782522
71.375 19.084785
71.380 19.100508
71.385 19.052273
71.390 18.840286
71.395 18.810419
71.400 19.330532
71.405 19.350883
71.410 19.482565
71.415 19.497046
71.420 19.550156
71.425 19.597317
71.430 19.54772
71.435 19.387768
71.440 19.093157
71.445 18.423801
71.450 18.362883
71.455 18.048735
71.460 17.667521
71.465 17.687456
71.470 17.863617
71.475 18.242756
71.480 19.328035
71.485 19.299267
71.490 19.771143
71.495 20.26285
71.500 19.774641
71.505 19.689583
71.510 18.947645
71.515 17.701843
71.520 17.108116
71.525 16.448961
71.530 16.05139
71.535 16.180256
71.540 16.087414
71.545 16.829241
71.550 16.993917
71.555 17.444717
71.560 17.583477
71.565 17.736097
71.570 17.58074
71.575 17.603821
71.580 17.850607
71.585 17.938404
71.590 17.660021
71.595 18.21673
71.600 18.701105
71.605 18.563261
71.610 18.522985
71.615 18.776352
71.620 19.009825
71.625 19.254627
71.630 18.788912
71.635 18.272038
71.640 18.586805
71.645 18.299725
71.650 18.243067
71.655 17.990442
71.660 18.31356
71.665 18.653229
71.670 19.140453
71.675 19.591421
71.680 19.458708
71.685 19.698706
71.690 20.258337
71.695 20.351583
71.700 20.092073
71.705 20.081408
71.710 19.53195
71.715 19.740688
71.720 19.590176
71.725 19.62784
71.730 19.560875
71.735 19.530704
71.740 19.052002
71.745 18.891249
71.750 18.299086
71.755 17.640881
71.760 17.527756
71.765 17.506117
71.770 17.094137
71.775 17.107765
71.780 17.5861
71.785 17.987053
71.790 18.203808
71.795 17.690226
71.800 18.146887
71.805 18.465515
71.810 18.732864
71.815 18.888781
71.820 18.810081
71.825 18.894878
71.830 18.620861
71.835 18.553873
71.840 18.932442
71.845 19.186596
71.850 18.692917
71.855 18.407753
71.860 18.3498
71.865 18.930756
71.870 18.609285
71.875 18.691339
71.880 18.347471
71.885 18.410313
71.890 19.197819
71.895 19.426775
71.900 19.375315
71.905 19.137194
71.910 18.843225
71.915 18.845476
71.920 18.985975
71.925 17.863075
71.930 17.240904
71.935 17.135014
71.940 17.500347
71.945 17.972389
71.950 18.007563
71.955 18.206402
71.960 18.615547
71.965 18.905287
71.970 19.044703
71.975 18.888617
71.980 18.157366
71.985 18.117954
71.990 17.980927
71.995 18.193737
72.000 17.939255
72.005 17.171164
72.010 16.777155
72.015 17.393917
72.020 17.099426
72.025 16.504818
72.030 16.593052
72.035 16.774435
72.040 16.936926
72.045 17.321663
72.050 17.733406
72.055 18.139627
72.060 18.151913
72.065 17.813202
72.070 18.371605
72.075 19.431246
72.080 20.057833
72.085 19.737791
72.090 20.582439
72.095 21.186714
72.100 21.356939
72.105 21.210728
72.110 20.372614
72.115 19.790848
72.120 19.277779
72.125 19.0303
72.130 18.734566
72.135 18.859129
72.140 18.287601
72.145 18.037161
72.150 17.91518
72.155 17.683165
72.160 17.735153
72.165 18.163624
72.170 17.860958
72.175 18.202389
72.180 18.604443
72.185 18.734404
72.190 18.423458
72.195 18.132799
72.200 17.449511
72.205 17.510677
72.210 17.19141
72.215 17.135578
72.220 17.537912
72.225 17.821445
72.230 17.755125
72.235 17.731504
72.240 17.443029
72.245 17.633131
72.250 18.08338
72.255 18.587086
72.260 18.448839
72.265 18.559954
72.270 18.866037
72.275 19.33963
72.280 19.012794
72.285 18.780853
72.290 18.00351
72.295 18.068638
72.300 17.86179
72.305 18.212021
72.310 17.804743
72.315 17.997013
72.320 17.875853
72.325 17.657009
72.330 17.887356
72.335 17.746159
72.340 17.542667
72.345 17.495161
72.350 18.185099
72.355 18.494143
72.360 18.776369
72.365 18.569483
72.370 18.640217
72.375 18.856182
72.380 18.569044
72.385 17.937366
72.390 17.837269
72.395 17.400305
72.400 17.074188
72.405 17.622055
72.410 17.607824
72.415 18.149858
72.420 18.262053
72.425 17.862232
72.430 17.850365
72.435 17.864717
72.440 17.456951
72.445 17.997227
72.450 17.949726
72.455 17.577208
72.460 17.550373
72.465 17.666653
72.470 17.523634
72.475 17.325485
72.480 17.141726
72.485 16.989265
72.490 17.502947
72.495 18.103767
72.500 18.425049
72.505 18.891787
72.510 18.379013
72.515 18.108814
72.520 18.600121
72.525 18.663542
72.530 18.427872
72.535 18.195354
72.540 18.410147
72.545 18.514921
72.550 18.588261
72.555 18.49552
72.560 18.793608
72.565 19.154558
72.570 19.092772
72.575 19.174963
72.580 19.563454
72.585 19.394676
72.590 19.23468
72.595 18.865108
72.600 18.616386
72.605 18.372869
72.610 18.146349
72.615 18.076904
72.620 18.351458
72.625 18.132313
72.630 18.013721
72.635 17.809563
72.640 17.737442
72.645 17.535082
72.650 16.998289
72.655 16.471098
72.660 16.309748
72.665 16.605204
72.670 16.601675
72.675 16.582869
72.680 16.451191
72.685 16.875443
72.690 17.305286
72.695 17.178658
72.700 16.775757
72.705 17.111959
72.710 17.14012
72.715 17.020128
72.720 16.802874
72.725 16.784098
72.730 17.575539
72.735 17.785784
72.740 17.670868
72.745 17.614685
72.750 17.556
72.755 16.857466
72.760 16.801451
72.765 17.033302
72.770 17.106285
72.775 17.446524
72.780 17.799007
72.785 18.430117
72.790 18.110548
72.795 17.640331
72.800 16.898575
72.805 16.692055
72.810 15.994731
72.815 15.523895
72.820 15.361667
72.825 15.721705
72.830 15.699737
72.835 15.785259
72.840 15.700003
72.845 15.894008
72.850 15.798051
72.855 15.501836
72.860 15.769071
72.865 15.808479
72.870 16.164892
72.875 16.178938
72.880 16.63682
72.885 17.240129
72.890 18.182657
72.895 18.564203
72.900 18.037262
72.905 17.636023
72.910 17.93313
72.915 17.761522
72.920 17.099981
72.925 16.920063
72.930 17.015539
72.935 17.514523
72.940 17.448946
72.945 17.171202
72.950 17.036385
72.955 17.303835
72.960 16.917538
72.965 17.030283
72.970 17.179504
72.975 17.263248
72.980 17.491404
72.985 17.04591
72.990 16.544239
72.995 16.206692
73.000 16.219051
