!@!!GADDS PLOTSO FILE: Chi integration type
!@!!Title/SampleName: map-e2
!@!!Comment: ?
!@!!User: Bruker Instrument Administrator
!@!!Site: University of Illinois Chicago
!@!!Frame: map-e2_01_000.gfrm
!@!!Wavelengths    1.54184   1.54056   1.54439
!@!!Frame angles: 2Theta: 63.000 Omega: 50.000 Phi: 0.000 Chi: 90.000
!@!!Integration range: 2Theta: 53.000 to 73.000  Gamma: -105.000 to -75.000
!@!!Integration method: bin normalized
!@!N
!@!SS
!@!M
!@!L 0.0 0.0 0.0 0.0
!@!XDegrees
!@!YCounts
53.000 7.126426
53.005 7.347754
53.010 7.396301
53.015 7.026708
53.020 7.015062
53.025 6.6381
53.030 6.769293
53.035 6.61697
53.040 6.541619
53.045 6.505924
53.050 6.409756
53.055 6.491387
53.060 6.723357
53.065 6.822028
53.070 7.067159
53.075 7.287115
53.080 7.648814
53.085 7.616537
53.090 7.645778
53.095 7.36235
53.100 6.941029
53.105 6.87123
53.110 6.641706
53.115 6.255786
53.120 6.690639
53.125 6.592681
53.130 6.370723
53.135 6.484726
53.140 6.356705
53.145 6.305893
53.150 6.179075
53.155 5.693457
53.160 6.113033
53.165 6.230842
53.170 6.622223
53.175 7.14082
53.180 7.1851
53.185 7.287433
53.190 7.062559
53.195 7.05465
53.200 7.057571
53.205 6.433264
53.210 6.211073
53.215 6.282365
53.220 6.494332
53.225 6.445803
53.230 6.350144
53.235 6.199152
53.240 6.406143
53.245 6.415233
53.250 6.214356
53.255 6.46354
53.260 6.772176
53.265 6.574298
53.270 6.658358
53.275 6.736646
53.280 6.690926
53.285 6.792376
53.290 6.366546
53.295 6.356303
53.300 7.050895
53.305 7.331742
53.310 7.362376
53.315 7.669019
53.320 7.697357
53.325 7.937046
53.330 8.345588
53.335 7.969834
53.340 7.753355
53.345 7.690806
53.350 7.215409
53.355 7.452622
53.360 7.692447
53.365 7.515876
53.370 7.392454
53.375 7.52301
53.380 7.448356
53.385 7.619814
53.390 7.032359
53.395 6.523721
53.400 5.973491
53.405 6.264117
53.410 6.624473
53.415 6.73105
53.420 6.669072
53.425 7.075504
53.430 7.589782
53.435 7.776791
53.440 7.143317
53.445 6.922202
53.450 6.812816
53.455 6.734106
53.460 6.398717
53.465 6.092281
53.470 6.315781
53.475 6.449473
53.480 6.555963
53.485 6.818776
53.490 6.622764
53.495 6.454267
53.500 6.355115
53.505 6.704637
53.510 6.910011
53.515 7.292201
53.520 7.548157
53.525 7.793837
53.530 8.101489
53.535 8.055237
53.540 7.847549
53.545 7.313138
53.550 6.881033
53.555 6.920148
53.560 6.83329
53.565 6.688181
53.570 7.066658
53.575 7.142115
53.580 7.305413
53.585 7.311505
53.590 7.508524
53.595 7.577993
53.600 7.632269
53.605 7.257825
53.610 7.116395
53.615 7.24165
53.620 7.28187
53.625 6.717172
53.630 6.637161
53.635 6.943865
53.640 7.014015
53.645 7.385238
53.650 7.116831
53.655 7.209506
53.660 7.717847
53.665 7.705499
53.670 7.706101
53.675 7.958399
53.680 7.622997
53.685 7.582607
53.690 7.434739
53.695 7.492124
53.700 7.203768
53.705 6.75794
53.710 6.987238
53.715 7.077013
53.720 7.09833
53.725 7.119393
53.730 6.922391
53.735 6.982525
53.740 6.657568
53.745 6.265947
53.750 6.335976
53.755 6.218107
53.760 6.296485
53.765 6.606397
53.770 6.66215
53.775 6.934717
53.780 7.251964
53.785 7.440952
53.790 7.95942
53.795 8.144636
53.800 8.527458
53.805 8.594446
53.810 8.7304
53.815 8.724868
53.820 8.568994
53.825 8.326049
53.830 7.686017
53.835 7.514015
53.840 7.678908
53.845 7.481237
53.850 7.66207
53.855 7.621249
53.860 7.327599
53.865 7.744355
53.870 7.473811
53.875 7.583314
53.880 7.37461
53.885 7.002234
53.890 6.873267
53.895 6.341387
53.900 5.769248
53.905 6.002266
53.910 5.807801
53.915 5.626182
53.920 5.863575
53.925 6.415085
53.930 7.290491
53.935 7.555672
53.940 7.143188
53.945 7.179508
53.950 7.278703
53.955 7.182906
53.960 7.374193
53.965 7.091766
53.970 7.360097
53.975 8.052485
53.980 8.014373
53.985 8.008325
53.990 8.234253
53.995 7.721056
54.000 8.247562
54.005 7.894485
54.010 7.83384
54.015 8.061939
54.020 7.817273
54.025 7.745844
54.030 8.06055
54.035 7.736184
54.040 7.698852
54.045 7.368716
54.050 7.164171
54.055 7.477485
54.060 7.825043
54.065 7.710311
54.070 7.927212
54.075 8.283144
54.080 8.453125
54.085 8.413044
54.090 8.09798
54.095 7.847797
54.100 7.352344
54.105 7.030697
54.110 6.664892
54.115 7.039683
54.120 7.6828
54.125 7.938509
54.130 7.839963
54.135 8.105039
54.140 8.1028
54.145 8.396178
54.150 8.191917
54.155 8.049352
54.160 8.176126
54.165 8.146168
54.170 8.111537
54.175 8.179058
54.180 8.077883
54.185 7.909396
54.190 7.441084
54.195 7.630413
54.200 8.283745
54.205 8.68154
54.210 8.854546
54.215 8.599549
54.220 8.445159
54.225 8.530402
54.230 8.195222
54.235 7.908963
54.240 7.72214
54.245 7.673728
54.250 7.73714
54.255 8.347858
54.260 8.561358
54.265 9.051369
54.270 9.112041
54.275 9.045359
54.280 9.259403
54.285 9.736669
54.290 9.606608
54.295 9.066454
54.300 8.537047
54.305 8.438608
54.310 8.242946
54.315 7.570538
54.320 7.285079
54.325 7.422086
54.330 7.898416
54.335 8.155776
54.340 8.059884
54.345 8.173843
54.350 8.458965
54.355 8.107498
54.360 7.322015
54.365 6.805242
54.370 6.782732
54.375 6.828417
54.380 6.767527
54.385 6.656503
54.390 6.677295
54.395 7.116441
54.400 6.968302
54.405 7.202939
54.410 7.736987
54.415 8.025653
54.420 8.284713
54.425 8.418994
54.430 8.066364
54.435 7.904135
54.440 7.782252
54.445 8.088988
54.450 8.052652
54.455 7.947115
54.460 7.868201
54.465 8.039702
54.470 8.3175
54.475 7.844341
54.480 7.378952
54.485 7.157676
54.490 6.89422
54.495 7.381353
54.500 7.694766
54.505 7.860898
54.510 7.656338
54.515 7.592269
54.520 7.74637
54.525 7.932786
54.530 7.511913
54.535 7.454985
54.540 7.609065
54.545 7.531427
54.550 7.291447
54.555 7.21469
54.560 7.327626
54.565 7.46604
54.570 7.31521
54.575 7.345897
54.580 7.65932
54.585 7.827828
54.590 7.96667
54.595 8.159062
54.600 7.934881
54.605 7.893496
54.610 7.798798
54.615 7.90067
54.620 8.181646
54.625 8.020471
54.630 7.723935
54.635 7.826264
54.640 7.439552
54.645 7.528388
54.650 7.213855
54.655 7.191387
54.660 7.467525
54.665 7.739782
54.670 7.965209
54.675 7.946816
54.680 8.079026
54.685 8.662476
54.690 9.007264
54.695 9.512712
54.700 9.384546
54.705 9.262074
54.710 9.127789
54.715 8.352755
54.720 7.599145
54.725 7.025113
54.730 7.022507
54.735 7.532591
54.740 7.751863
54.745 8.176706
54.750 8.519423
54.755 8.870931
54.760 8.46901
54.765 7.826945
54.770 7.849453
54.775 8.127814
54.780 8.301771
54.785 8.262843
54.790 7.736517
54.795 7.687193
54.800 7.640487
54.805 7.472944
54.810 6.973957
54.815 6.724184
54.820 7.010437
54.825 7.363341
54.830 7.571505
54.835 7.708004
54.840 7.776874
54.845 8.386662
54.850 8.632405
54.855 8.806051
54.860 9.059013
54.865 9.100026
54.870 8.843513
54.875 8.688394
54.880 8.554738
54.885 8.489923
54.890 8.441851
54.895 8.263458
54.900 8.264769
54.905 8.642323
54.910 8.544443
54.915 8.576344
54.920 8.190449
54.925 7.890957
54.930 7.986804
54.935 8.193536
54.940 8.00176
54.945 8.328235
54.950 8.328527
54.955 8.62093
54.960 8.558236
54.965 8.447406
54.970 8.52779
54.975 8.562385
54.980 8.580622
54.985 9.219162
54.990 9.359307
54.995 9.65389
55.000 9.611271
55.005 9.412505
55.010 9.326053
55.015 9.029471
55.020 9.190896
55.025 9.107583
55.030 8.844958
55.035 8.940408
55.040 8.786173
55.045 8.915391
55.050 9.085617
55.055 8.606382
55.060 8.804318
55.065 9.066997
55.070 9.107126
55.075 9.275098
55.080 8.78049
55.085 8.269546
55.090 8.482267
55.095 8.700457
55.100 8.72781
55.105 8.510371
55.110 8.582046
55.115 9.100772
55.120 9.374727
55.125 8.956172
55.130 8.533382
55.135 8.774924
55.140 8.704533
55.145 8.472576
55.150 8.138911
55.155 7.782367
55.160 8.141467
55.165 8.139754
55.170 7.927561
55.175 8.043175
55.180 8.138675
55.185 8.298368
55.190 8.000789
55.195 7.311639
55.200 7.37336
55.205 7.659402
55.210 7.508971
55.215 7.402788
55.220 7.495553
55.225 8.081264
55.230 8.306082
55.235 8.185574
55.240 7.978644
55.245 8.088639
55.250 8.325603
55.255 8.694282
55.260 8.532424
55.265 8.808984
55.270 8.707509
55.275 8.442508
55.280 8.670633
55.285 8.67466
55.290 8.558405
55.295 8.871636
55.300 9.127046
55.305 9.391814
55.310 9.358648
55.315 8.898202
55.320 8.9592
55.325 9.33359
55.330 9.149205
55.335 8.803372
55.340 8.611263
55.345 8.625576
55.350 8.810842
55.355 8.70843
55.360 7.908543
55.365 7.988194
55.370 8.53698
55.375 8.791957
55.380 9.094636
55.385 9.045076
55.390 9.280286
55.395 9.607942
55.400 9.231344
55.405 9.179798
55.410 9.043369
55.415 8.868535
55.420 8.767129
55.425 8.418063
55.430 8.501894
55.435 8.509067
55.440 8.395108
55.445 9.134947
55.450 9.050811
55.455 8.942903
55.460 8.919427
55.465 9.394585
55.470 9.477214
55.475 9.364584
55.480 8.933951
55.485 9.256341
55.490 9.480978
55.495 9.442557
55.500 8.784476
55.505 8.697701
55.510 8.406898
55.515 8.6195
55.520 8.512936
55.525 8.350006
55.530 8.363566
55.535 8.670781
55.540 8.765317
55.545 8.523728
55.550 7.880378
55.555 7.998989
55.560 8.429388
55.565 8.39895
55.570 8.432417
55.575 8.319586
55.580 8.692443
55.585 8.999195
55.590 8.842095
55.595 8.518744
55.600 8.195533
55.605 8.065378
55.610 8.700399
55.615 8.9042
55.620 9.186646
55.625 9.2027
55.630 9.338154
55.635 9.477143
55.640 9.64077
55.645 9.335896
55.650 9.068355
55.655 8.824877
55.660 8.952129
55.665 9.036052
55.670 8.801128
55.675 8.766988
55.680 8.692216
55.685 8.988985
55.690 9.090592
55.695 9.245942
55.700 9.672125
55.705 10.017195
55.710 9.935333
55.715 10.152594
55.720 10.104579
55.725 9.908455
55.730 9.451235
55.735 9.346099
55.740 9.605626
55.745 9.528945
55.750 9.382181
55.755 9.238029
55.760 9.651492
55.765 9.657195
55.770 9.340766
55.775 9.525095
55.780 9.615948
55.785 9.818141
55.790 9.490924
55.795 9.087458
55.800 9.078343
55.805 8.937123
55.810 8.811831
55.815 8.602254
55.820 8.386343
55.825 9.016923
55.830 9.247067
55.835 9.500591
55.840 9.728791
55.845 9.444319
55.850 9.745402
55.855 9.791371
55.860 9.270945
55.865 9.206181
55.870 8.707226
55.875 8.502938
55.880 8.896202
55.885 8.744211
55.890 8.739517
55.895 8.58317
55.900 8.587976
55.905 8.806719
55.910 8.860573
55.915 9.036986
55.920 9.135953
55.925 9.196239
55.930 9.506003
55.935 9.486133
55.940 9.882418
55.945 10.082641
55.950 9.772379
55.955 9.509919
55.960 9.980525
55.965 9.958869
55.970 10.32309
55.975 10.238354
55.980 10.092299
55.985 9.861943
55.990 10.004007
55.995 9.744106
56.000 9.845682
56.005 9.121712
56.010 8.92522
56.015 8.749743
56.020 9.113753
56.025 8.883789
56.030 8.771783
56.035 8.884726
56.040 9.009439
56.045 8.9491
56.050 9.310125
56.055 9.168579
56.060 9.108576
56.065 8.865963
56.070 8.504503
56.075 8.742884
56.080 8.623239
56.085 8.411545
56.090 8.334423
56.095 8.421462
56.100 8.560047
56.105 8.537378
56.110 7.922727
56.115 8.084663
56.120 8.430603
56.125 8.627513
56.130 8.572102
56.135 8.982223
56.140 9.176584
56.145 9.787605
56.150 9.62956
56.155 9.660212
56.160 9.589217
56.165 9.765929
56.170 9.57939
56.175 9.500444
56.180 9.326292
56.185 9.446386
56.190 9.482497
56.195 9.847713
56.200 9.913543
56.205 10.050537
56.210 10.348462
56.215 10.887905
56.220 11.019995
56.225 10.797742
56.230 10.765445
56.235 10.84524
56.240 10.848957
56.245 10.973213
56.250 10.054925
56.255 9.41302
56.260 9.580466
56.265 9.776592
56.270 9.529778
56.275 9.311527
56.280 8.767229
56.285 8.835491
56.290 9.686864
56.295 9.764971
56.300 9.316104
56.305 9.732768
56.310 9.837035
56.315 10.475545
56.320 10.666429
56.325 10.107511
56.330 9.86007
56.335 9.958264
56.340 10.102569
56.345 10.372928
56.350 9.680479
56.355 9.137077
56.360 9.280453
56.365 9.635303
56.370 9.405517
56.375 9.287098
56.380 9.192804
56.385 9.736018
56.390 9.891954
56.395 9.899159
56.400 9.735668
56.405 10.17234
56.410 10.119345
56.415 10.073658
56.420 10.521505
56.425 10.98109
56.430 10.878504
56.435 10.831058
56.440 10.538192
56.445 10.472785
56.450 10.325314
56.455 10.408267
56.460 10.47738
56.465 10.617443
56.470 10.85353
56.475 11.008936
56.480 11.22025
56.485 11.457643
56.490 11.206878
56.495 11.102512
56.500 10.787699
56.505 10.538047
56.510 10.28506
56.515 10.404002
56.520 10.440373
56.525 10.196644
56.530 9.98347
56.535 9.889887
56.540 10.535447
56.545 10.65548
56.550 10.289814
56.555 9.649796
56.560 9.740575
56.565 9.804164
56.570 10.143839
56.575 9.313675
56.580 9.165388
56.585 9.587959
56.590 10.347395
56.595 10.678102
56.600 10.561324
56.605 10.331421
56.610 10.567058
56.615 10.867799
56.620 11.029805
56.625 11.14763
56.630 11.252661
56.635 11.351129
56.640 11.874668
56.645 11.776699
56.650 11.641683
56.655 11.337016
56.660 11.137022
56.665 11.080947
56.670 10.922949
56.675 10.544662
56.680 10.4592
56.685 10.463091
56.690 10.305799
56.695 9.969927
56.700 9.510229
56.705 9.71813
56.710 9.796702
56.715 10.104899
56.720 11.004438
56.725 11.473536
56.730 11.678909
56.735 11.991143
56.740 11.483047
56.745 11.114603
56.750 10.919989
56.755 10.029752
56.760 9.772961
56.765 9.727328
56.770 10.018197
56.775 11.216311
56.780 11.476698
56.785 11.420893
56.790 11.678919
56.795 11.740537
56.800 12.03031
56.805 11.998068
56.810 11.782873
56.815 11.726118
56.820 11.391142
56.825 11.042857
56.830 10.804661
56.835 10.599187
56.840 10.400193
56.845 10.180893
56.850 10.505405
56.855 10.617203
56.860 10.643938
56.865 11.129194
56.870 11.514929
56.875 11.035874
56.880 10.929485
56.885 10.740481
56.890 10.804737
56.895 10.847848
56.900 10.142252
56.905 9.892095
56.910 10.336159
56.915 10.114092
56.920 10.368988
56.925 10.626415
56.930 10.849253
56.935 10.795455
56.940 10.228436
56.945 10.005655
56.950 10.172626
56.955 9.799581
56.960 9.930565
56.965 10.196887
56.970 10.611058
56.975 11.159826
56.980 11.525816
56.985 11.579773
56.990 11.685384
56.995 11.271264
57.000 10.564217
57.005 10.26022
57.010 10.404854
57.015 10.346078
57.020 10.335203
57.025 10.572781
57.030 10.371216
57.035 10.682928
57.040 10.752544
57.045 10.428995
57.050 10.670782
57.055 10.494966
57.060 10.142982
57.065 10.767892
57.070 11.286463
57.075 11.756871
57.080 11.927831
57.085 11.664138
57.090 11.724099
57.095 11.662715
57.100 11.542256
57.105 11.220379
57.110 10.836019
57.115 10.773862
57.120 10.700322
57.125 10.839388
57.130 10.711236
57.135 10.539505
57.140 10.305097
57.145 10.356171
57.150 10.552255
57.155 10.402236
57.160 10.524066
57.165 10.540416
57.170 10.345553
57.175 10.601398
57.180 10.770918
57.185 10.797607
57.190 10.816974
57.195 10.73778
57.200 10.626438
57.205 10.240602
57.210 9.93998
57.215 9.924753
57.220 9.850239
57.225 10.076164
57.230 10.12111
57.235 10.110611
57.240 10.462832
57.245 10.50751
57.250 10.229495
57.255 10.190924
57.260 10.988381
57.265 11.521093
57.270 11.910219
57.275 11.711463
57.280 12.051552
57.285 12.738106
57.290 12.983795
57.295 12.502627
57.300 12.400475
57.305 12.712822
57.310 13.010405
57.315 12.610984
57.320 12.429057
57.325 11.791638
57.330 11.533092
57.335 11.120529
57.340 11.063142
57.345 11.057099
57.350 10.398625
57.355 10.446413
57.360 10.852076
57.365 10.880539
57.370 10.760795
57.375 10.346354
57.380 10.440177
57.385 10.270741
57.390 9.844971
57.395 10.048577
57.400 10.56714
57.405 10.73841
57.410 11.111277
57.415 11.217578
57.420 12.019019
57.425 12.643949
57.430 11.999897
57.435 12.006595
57.440 12.088979
57.445 12.240982
57.450 12.537745
57.455 12.431041
57.460 12.237445
57.465 12.210429
57.470 11.751926
57.475 11.577071
57.480 11.311329
57.485 11.014484
57.490 10.913066
57.495 10.558821
57.500 10.825145
57.505 11.065593
57.510 11.216267
57.515 11.217352
57.520 11.205251
57.525 11.12714
57.530 11.036305
57.535 10.924544
57.540 10.837276
57.545 10.809582
57.550 10.876101
57.555 11.074039
57.560 11.280297
57.565 11.59
57.570 11.905773
57.575 12.330407
57.580 12.083954
57.585 12.275202
57.590 12.299344
57.595 12.253019
57.600 11.954984
57.605 11.170712
57.610 11.122639
57.615 11.396749
57.620 11.557089
57.625 11.66866
57.630 11.493813
57.635 12.037531
57.640 12.402981
57.645 12.287365
57.650 12.451706
57.655 12.15753
57.660 12.519838
57.665 12.630727
57.670 12.353768
57.675 12.039582
57.680 11.941249
57.685 11.617046
57.690 11.757388
57.695 11.476152
57.700 11.770972
57.705 12.377165
57.710 12.89344
57.715 13.393692
57.720 13.647894
57.725 13.095908
57.730 13.258026
57.735 13.21865
57.740 12.567803
57.745 12.085
57.750 11.934221
57.755 12.160294
57.760 12.643711
57.765 11.682314
57.770 11.278466
57.775 11.323378
57.780 11.674639
57.785 11.403772
57.790 10.880263
57.795 10.289641
57.800 10.643403
57.805 10.76577
57.810 11.025697
57.815 11.316783
57.820 11.731011
57.825 12.239495
57.830 12.933549
57.835 13.19095
57.840 13.251371
57.845 12.753473
57.850 12.263049
57.855 11.820198
57.860 11.714626
57.865 11.718719
57.870 11.732172
57.875 11.983171
57.880 12.150966
57.885 12.69299
57.890 13.308881
57.895 13.210994
57.900 13.16959
57.905 13.431643
57.910 13.531118
57.915 13.264245
57.920 12.667071
57.925 11.804115
57.930 11.990932
57.935 12.082293
57.940 12.038824
57.945 12.098681
57.950 12.598131
57.955 12.661636
57.960 12.826248
57.965 13.037501
57.970 12.866337
57.975 12.905664
57.980 13.049586
57.985 13.316746
57.990 13.985767
57.995 14.184717
58.000 13.989471
58.005 13.986477
58.010 14.019567
58.015 13.812463
58.020 13.684043
58.025 13.333496
58.030 13.396413
58.035 13.648136
58.040 13.291575
58.045 12.5488
58.050 12.290867
58.055 12.198895
58.060 12.583327
58.065 12.420835
58.070 12.151853
58.075 12.220237
58.080 12.799648
58.085 12.814489
58.090 12.77125
58.095 12.512398
58.100 12.374277
58.105 12.332569
58.110 12.643653
58.115 12.36961
58.120 12.118395
58.125 11.916497
58.130 11.576298
58.135 12.394442
58.140 12.270041
58.145 12.347549
58.150 12.944755
58.155 13.333263
58.160 13.721818
58.165 14.123548
58.170 13.706917
58.175 14.068853
58.180 13.85772
58.185 13.572021
58.190 13.895928
58.195 13.778887
58.200 13.435618
58.205 13.36473
58.210 13.673478
58.215 13.523653
58.220 13.205746
58.225 12.835482
58.230 13.025278
58.235 13.163375
58.240 13.023618
58.245 12.912694
58.250 13.316466
58.255 13.693483
58.260 13.834429
58.265 13.904604
58.270 14.473823
58.275 14.423851
58.280 14.234184
58.285 14.414598
58.290 14.441523
58.295 14.335536
58.300 14.244998
58.305 14.303442
58.310 14.608562
58.315 14.953853
58.320 14.670558
58.325 14.661044
58.330 14.433492
58.335 14.625597
58.340 14.988798
58.345 15.414152
58.350 15.671885
58.355 15.83685
58.360 16.474218
58.365 17.199057
58.370 17.267517
58.375 17.080957
58.380 17.392588
58.385 17.588707
58.390 18.142809
58.395 17.973761
58.400 18.120512
58.405 18.336315
58.410 18.228418
58.415 18.301542
58.420 18.962091
58.425 18.504889
58.430 18.82976
58.435 18.643826
58.440 19.123362
58.445 19.324133
58.450 18.893433
58.455 18.418507
58.460 18.43399
58.465 18.487522
58.470 18.808271
58.475 19.148899
58.480 19.852489
58.485 20.555506
58.490 21.547087
58.495 22.433083
58.500 22.897322
58.505 22.821188
58.510 22.046455
58.515 21.53747
58.520 21.279713
58.525 21.244038
58.530 20.938192
58.535 20.974577
58.540 21.108349
58.545 21.796331
58.550 22.306093
58.555 22.426048
58.560 22.273254
58.565 21.94063
58.570 21.620504
58.575 21.750032
58.580 21.488672
58.585 21.372261
58.590 21.511921
58.595 21.717182
58.600 22.067724
58.605 22.856146
58.610 23.190508
58.615 23.289795
58.620 23.012188
58.625 23.550871
58.630 23.947989
58.635 23.692217
58.640 23.150787
58.645 23.191275
58.650 23.486671
58.655 23.759329
58.660 23.568495
58.665 24.005486
58.670 24.651794
58.675 24.914888
58.680 24.869249
58.685 24.829138
58.690 24.721519
58.695 24.184299
58.700 23.336111
58.705 22.94696
58.710 22.371098
58.715 21.773632
58.720 21.521587
58.725 21.51516
58.730 20.868792
58.735 19.755543
58.740 19.405455
58.745 19.144779
58.750 18.694958
58.755 18.237417
58.760 17.93309
58.765 18.488503
58.770 18.892603
58.775 18.362028
58.780 18.456264
58.785 18.824425
58.790 18.771467
58.795 18.866175
58.800 18.347124
58.805 18.232996
58.810 18.700525
58.815 18.537432
58.820 18.013214
58.825 17.847843
58.830 17.042103
58.835 16.745335
58.840 16.685019
58.845 16.713123
58.850 16.188665
58.855 16.043879
58.860 16.180229
58.865 16.906834
58.870 17.106625
58.875 16.93475
58.880 16.172117
58.885 16.066496
58.890 16.17466
58.895 16.220001
58.900 15.478601
58.905 15.468362
58.910 15.518488
58.915 15.374642
58.920 15.677124
58.925 15.633221
58.930 15.368753
58.935 15.401682
58.940 15.350972
58.945 15.358105
58.950 15.15186
58.955 14.66266
58.960 14.480844
58.965 14.792577
58.970 15.121018
58.975 15.119426
58.980 15.430994
58.985 15.741092
58.990 16.143927
58.995 15.662888
59.000 15.061789
59.005 14.808902
59.010 14.978316
59.015 14.875288
59.020 14.238756
59.025 13.884029
59.030 13.612845
59.035 13.2514
59.040 13.266415
59.045 12.467143
59.050 12.619185
59.055 13.187058
59.060 13.516925
59.065 14.011951
59.070 14.35502
59.075 14.021519
59.080 13.926093
59.085 13.470993
59.090 13.098013
59.095 12.95193
59.100 13.064121
59.105 13.308473
59.110 13.530121
59.115 13.199912
59.120 13.20592
59.125 13.418836
59.130 13.265038
59.135 12.680905
59.140 12.367805
59.145 12.484734
59.150 13.332218
59.155 13.468946
59.160 13.846786
59.165 14.212403
59.170 14.929068
59.175 14.944369
59.180 14.63822
59.185 14.246571
59.190 13.973597
59.195 13.71306
59.200 13.419932
59.205 13.258479
59.210 13.214507
59.215 13.159667
59.220 12.865687
59.225 13.109775
59.230 13.208767
59.235 13.05222
59.240 12.725567
59.245 12.844007
59.250 12.901307
59.255 13.395023
59.260 13.37679
59.265 13.195695
59.270 12.980971
59.275 12.836802
59.280 12.732639
59.285 12.814178
59.290 12.559343
59.295 12.582115
59.300 12.393635
59.305 12.314762
59.310 12.738746
59.315 12.603627
59.320 12.833783
59.325 13.14558
59.330 13.604504
59.335 13.706408
59.340 14.059256
59.345 14.10035
59.350 14.123284
59.355 13.86418
59.360 13.248189
59.365 12.638548
59.370 13.0821
59.375 13.004079
59.380 12.59339
59.385 12.264676
59.390 12.627698
59.395 12.906995
59.400 13.197809
59.405 13.197295
59.410 13.25093
59.415 13.388197
59.420 13.596704
59.425 13.521197
59.430 14.196746
59.435 14.474151
59.440 14.50509
59.445 14.597486
59.450 14.645572
59.455 14.548289
59.460 13.955028
59.465 13.231945
59.470 12.45809
59.475 12.153669
59.480 11.866259
59.485 11.738594
59.490 11.475852
59.495 11.105811
59.500 11.309516
59.505 11.759457
59.510 11.72955
59.515 11.693537
59.520 11.863523
59.525 12.099239
59.530 12.416034
59.535 12.371336
59.540 12.584751
59.545 13.083303
59.550 13.215897
59.555 13.084893
59.560 13.208233
59.565 13.479641
59.570 13.205867
59.575 12.41416
59.580 12.22222
59.585 12.30445
59.590 12.343669
59.595 12.381897
59.600 12.418081
59.605 12.746195
59.610 13.055147
59.615 13.034372
59.620 13.239151
59.625 13.451898
59.630 13.542169
59.635 13.356223
59.640 13.085241
59.645 13.700699
59.650 13.836334
59.655 13.480818
59.660 13.095239
59.665 13.271903
59.670 13.277698
59.675 13.373911
59.680 12.632003
59.685 12.442234
59.690 12.307088
59.695 12.659832
59.700 12.884052
59.705 12.673381
59.710 12.561534
59.715 12.54058
59.720 12.58568
59.725 13.257105
59.730 13.758989
59.735 13.803067
59.740 13.97351
59.745 14.302365
59.750 14.872369
59.755 14.946015
59.760 14.384809
59.765 13.78515
59.770 13.226317
59.775 13.502176
59.780 13.322952
59.785 13.065084
59.790 13.049631
59.795 13.38848
59.800 13.493359
59.805 13.804469
59.810 13.405843
59.815 13.584747
59.820 13.551884
59.825 13.138588
59.830 12.755562
59.835 12.528603
59.840 12.718683
59.845 13.021659
59.850 12.382115
59.855 12.307985
59.860 12.419801
59.865 12.848468
59.870 12.978806
59.875 12.993012
59.880 12.785122
59.885 12.881812
59.890 12.89784
59.895 12.670349
59.900 12.540993
59.905 12.466731
59.910 12.190933
59.915 12.049143
59.920 12.042796
59.925 12.144993
59.930 12.337127
59.935 12.412879
59.940 12.2579
59.945 11.957293
59.950 12.288846
59.955 12.423117
59.960 12.480375
59.965 12.712499
59.970 12.761875
59.975 12.559384
59.980 12.948162
59.985 13.409634
59.990 13.653716
59.995 13.833293
60.000 13.188558
60.005 12.970171
60.010 13.675967
60.015 13.940127
60.020 13.487282
60.025 13.476857
60.030 13.425205
60.035 13.307015
60.040 13.509826
60.045 13.655902
60.050 13.483473
60.055 12.896661
60.060 12.530378
60.065 12.345346
60.070 12.098853
60.075 11.928508
60.080 11.50163
60.085 11.451741
60.090 12.165501
60.095 12.093629
60.100 12.196157
60.105 12.965172
60.110 12.991916
60.115 12.870641
60.120 12.79945
60.125 12.527273
60.130 12.345656
60.135 12.300166
60.140 12.748793
60.145 12.715566
60.150 12.964987
60.155 13.28067
60.160 13.094256
60.165 13.075451
60.170 13.119567
60.175 12.835888
60.180 13.062876
60.185 12.799414
60.190 12.460511
60.195 12.681001
60.200 13.115133
60.205 12.813549
60.210 12.376285
60.215 11.950823
60.220 11.930896
60.225 12.313427
60.230 12.9363
60.235 12.973712
60.240 13.183579
60.245 13.475851
60.250 13.682192
60.255 13.758481
60.260 13.464673
60.265 12.804612
60.270 12.471737
60.275 12.706298
60.280 12.727505
60.285 12.72956
60.290 12.688067
60.295 13.213452
60.300 13.478965
60.305 13.678968
60.310 13.621767
60.315 13.566636
60.320 13.786358
60.325 13.967188
60.330 13.606945
60.335 13.866952
60.340 13.92017
60.345 13.508057
60.350 13.616384
60.355 13.118361
60.360 12.948558
60.365 12.629204
60.370 12.205421
60.375 12.176502
60.380 12.217875
60.385 12.426587
60.390 12.738546
60.395 12.885332
60.400 12.846432
60.405 12.502309
60.410 12.915824
60.415 13.054632
60.420 12.496179
60.425 12.087014
60.430 12.420182
60.435 12.842635
60.440 13.283009
60.445 13.182168
60.450 13.070135
60.455 13.15618
60.460 13.132297
60.465 12.354493
60.470 12.285187
60.475 12.021525
60.480 11.823563
60.485 12.112753
60.490 12.468476
60.495 12.833557
60.500 13.140996
60.505 12.983378
60.510 12.895098
60.515 13.000723
60.520 12.693655
60.525 12.264308
60.530 11.806765
60.535 11.880334
60.540 12.143593
60.545 12.708596
60.550 12.569263
60.555 12.549433
60.560 12.329263
60.565 12.806555
60.570 12.925079
60.575 12.884872
60.580 12.589612
60.585 12.824151
60.590 12.831849
60.595 13.140018
60.600 13.246255
60.605 13.123837
60.610 12.836499
60.615 12.834262
60.620 12.629601
60.625 12.784492
60.630 13.033094
60.635 12.737698
60.640 12.749281
60.645 13.211101
60.650 13.386129
60.655 13.735153
60.660 13.749387
60.665 13.815047
60.670 13.874907
60.675 13.807225
60.680 13.542172
60.685 13.145342
60.690 12.680217
60.695 12.752962
60.700 12.876538
60.705 12.893899
60.710 12.833891
60.715 12.466226
60.720 12.364006
60.725 12.703742
60.730 12.578408
60.735 12.30439
60.740 12.139471
60.745 12.216072
60.750 12.734204
60.755 13.608802
60.760 13.472211
60.765 13.298464
60.770 13.283497
60.775 13.320964
60.780 13.387245
60.785 13.053269
60.790 12.675915
60.795 12.345178
60.800 13.103806
60.805 13.652562
60.810 14.170023
60.815 14.193495
60.820 14.34836
60.825 14.443486
60.830 14.935956
60.835 14.297964
60.840 13.722284
60.845 13.597031
60.850 13.83325
60.855 13.51116
60.860 13.510924
60.865 13.343447
60.870 13.130192
60.875 13.291276
60.880 12.920352
60.885 12.418376
60.890 12.641906
60.895 12.30236
60.900 12.148139
60.905 12.471581
60.910 12.100504
60.915 12.218481
60.920 12.390649
60.925 12.13437
60.930 12.242197
60.935 12.217181
60.940 11.973662
60.945 12.339722
60.950 12.908213
60.955 13.098256
60.960 13.599448
60.965 13.681108
60.970 13.814245
60.975 14.150959
60.980 14.546397
60.985 14.540502
60.990 14.093419
60.995 13.442919
61.000 13.272367
61.005 13.394969
61.010 12.901096
61.015 11.867703
61.020 11.56333
61.025 12.097316
61.030 12.403169
61.035 12.476309
61.040 12.323627
61.045 12.473952
61.050 12.548003
61.055 12.296587
61.060 12.651369
61.065 13.094439
61.070 13.287209
61.075 13.505048
61.080 13.785179
61.085 14.082497
61.090 13.984911
61.095 13.515579
61.100 13.014735
61.105 13.045614
61.110 12.80808
61.115 12.90394
61.120 12.613748
61.125 13.488054
61.130 14.028861
61.135 14.207543
61.140 14.646583
61.145 14.899035
61.150 14.666501
61.155 14.575785
61.160 14.357074
61.165 13.639141
61.170 13.57871
61.175 12.938491
61.180 12.599372
61.185 12.722708
61.190 12.707037
61.195 12.948736
61.200 13.777956
61.205 14.26581
61.210 14.482045
61.215 14.709239
61.220 14.886938
61.225 15.316301
61.230 15.028722
61.235 14.375585
61.240 13.662584
61.245 13.693377
61.250 13.838621
61.255 14.128288
61.260 13.777522
61.265 13.486756
61.270 13.33785
61.275 13.312016
61.280 13.338579
61.285 13.134159
61.290 12.983947
61.295 13.088424
61.300 13.390628
61.305 13.992532
61.310 14.169326
61.315 14.10383
61.320 13.970318
61.325 14.039418
61.330 13.872809
61.335 13.921214
61.340 13.589164
61.345 13.261268
61.350 13.539083
61.355 14.044381
61.360 13.907542
61.365 13.959718
61.370 13.774287
61.375 13.894978
61.380 14.082331
61.385 13.910141
61.390 13.047767
61.395 12.723809
61.400 12.740242
61.405 13.209713
61.410 13.332522
61.415 13.526794
61.420 13.798731
61.425 14.36438
61.430 14.888189
61.435 14.845623
61.440 14.34334
61.445 13.848757
61.450 13.415946
61.455 13.064897
61.460 13.073748
61.465 12.845217
61.470 13.086618
61.475 13.394335
61.480 13.691398
61.485 13.914595
61.490 14.419912
61.495 14.698652
61.500 14.671642
61.505 14.700151
61.510 14.393065
61.515 14.648871
61.520 14.573503
61.525 14.336345
61.530 14.218204
61.535 14.314908
61.540 14.230811
61.545 14.114727
61.550 13.808426
61.555 13.778102
61.560 14.138198
61.565 14.4028
61.570 14.443854
61.575 14.642502
61.580 14.801059
61.585 14.832339
61.590 14.362087
61.595 13.572128
61.600 13.228184
61.605 13.254832
61.610 13.144397
61.615 13.016275
61.620 12.964811
61.625 13.669319
61.630 13.717314
61.635 13.769826
61.640 13.926675
61.645 13.918676
61.650 13.618919
61.655 13.057864
61.660 12.705175
61.665 12.745385
61.670 12.858335
61.675 13.036251
61.680 13.46684
61.685 13.838131
61.690 14.04707
61.695 14.49524
61.700 14.914028
61.705 14.852805
61.710 14.007217
61.715 13.074621
61.720 13.064668
61.725 12.925809
61.730 12.541716
61.735 12.623233
61.740 12.808593
61.745 13.482989
61.750 14.044785
61.755 14.466398
61.760 15.013825
61.765 14.767673
61.770 14.488058
61.775 13.960155
61.780 13.691522
61.785 13.843938
61.790 13.960422
61.795 14.083704
61.800 14.693455
61.805 14.811799
61.810 14.939757
61.815 15.036072
61.820 14.731668
61.825 14.071983
61.830 13.495078
61.835 13.238856
61.840 13.402534
61.845 13.124191
61.850 13.240937
61.855 13.860106
61.860 14.207133
61.865 14.209337
61.870 13.925757
61.875 13.6863
61.880 14.125627
61.885 13.870317
61.890 13.372679
61.895 13.453524
61.900 13.893144
61.905 14.289053
61.910 14.381721
61.915 13.896237
61.920 13.771827
61.925 13.984142
61.930 13.819738
61.935 13.420044
61.940 13.071979
61.945 12.722389
61.950 12.917132
61.955 13.060019
61.960 12.874494
61.965 12.717145
61.970 13.00845
61.975 13.460417
61.980 13.790209
61.985 14.086645
61.990 14.32474
61.995 14.911052
62.000 15.228663
62.005 14.970367
62.010 14.891648
62.015 15.038838
62.020 13.980922
62.025 13.444307
62.030 13.370008
62.035 12.881959
62.040 12.203606
62.045 11.530823
62.050 11.817454
62.055 12.942231
62.060 12.87559
62.065 12.485549
62.070 12.746854
62.075 13.304263
62.080 13.598391
62.085 13.446607
62.090 13.472229
62.095 13.41725
62.100 13.517901
62.105 13.79383
62.110 13.957127
62.115 14.574502
62.120 14.211876
62.125 14.432183
62.130 14.751905
62.135 15.306279
62.140 15.276309
62.145 14.943474
62.150 14.389998
62.155 14.655521
62.160 14.444337
62.165 14.10376
62.170 14.071989
62.175 14.897212
62.180 15.307982
62.185 15.571642
62.190 15.429488
62.195 15.502109
62.200 15.862991
62.205 15.700023
62.210 15.165758
62.215 14.837607
62.220 14.388028
62.225 14.013611
62.230 13.640059
62.235 13.356382
62.240 13.596292
62.245 13.71172
62.250 13.791437
62.255 13.868546
62.260 14.187538
62.265 14.722198
62.270 14.773252
62.275 14.063578
62.280 13.639521
62.285 13.744158
62.290 13.668867
62.295 13.901855
62.300 13.45594
62.305 13.109954
62.310 13.109262
62.315 13.425903
62.320 13.430949
62.325 13.403433
62.330 13.599932
62.335 14.363195
62.340 14.43271
62.345 13.742905
62.350 13.280467
62.355 13.188765
62.360 13.300316
62.365 12.644898
62.370 12.075383
62.375 12.897701
62.380 13.539901
62.385 13.669623
62.390 14.168154
62.395 14.331676
62.400 14.639207
62.405 14.368444
62.410 13.880221
62.415 14.020195
62.420 14.354606
62.425 14.164568
62.430 14.266362
62.435 15.049738
62.440 15.3393
62.445 15.400444
62.450 15.758535
62.455 15.84226
62.460 16.058466
62.465 16.355129
62.470 16.096489
62.475 16.711601
62.480 16.759542
62.485 16.416445
62.490 16.530043
62.495 16.018686
62.500 15.609628
62.505 15.427293
62.510 14.907009
62.515 14.981892
62.520 15.288737
62.525 14.758876
62.530 14.391112
62.535 14.15486
62.540 13.561859
62.545 13.659994
62.550 13.535315
62.555 12.982659
62.560 13.328368
62.565 13.900965
62.570 14.138986
62.575 14.334779
62.580 14.033073
62.585 14.167889
62.590 14.544698
62.595 14.499278
62.600 14.421417
62.605 14.597964
62.610 14.746436
62.615 14.989735
62.620 14.967107
62.625 14.880538
62.630 14.946437
62.635 15.059235
62.640 14.929601
62.645 14.72021
62.650 14.518161
62.655 14.840855
62.660 15.018552
62.665 14.819828
62.670 14.721005
62.675 14.769442
62.680 15.09911
62.685 15.34986
62.690 15.667965
62.695 15.726962
62.700 15.538585
62.705 15.234863
62.710 14.814893
62.715 14.737142
62.720 15.134505
62.725 14.283232
62.730 13.967031
62.735 14.104821
62.740 14.340198
62.745 14.61289
62.750 14.594152
62.755 14.383471
62.760 14.774111
62.765 14.728889
62.770 14.459129
62.775 14.433647
62.780 14.401365
62.785 14.152727
62.790 13.950196
62.795 14.331842
62.800 14.770527
62.805 15.774361
62.810 16.030497
62.815 16.060108
62.820 16.633289
62.825 16.963701
62.830 16.904812
62.835 17.081047
62.840 16.319403
62.845 15.772269
62.850 15.499583
62.855 15.074569
62.860 14.958048
62.865 14.351941
62.870 13.832506
62.875 13.434507
62.880 13.97466
62.885 14.039756
62.890 13.788959
62.895 13.590566
62.900 13.399851
62.905 13.590917
62.910 13.874364
62.915 14.21878
62.920 14.768466
62.925 14.340096
62.930 14.073382
62.935 14.262394
62.940 14.539049
62.945 14.957155
62.950 14.339963
62.955 13.762243
62.960 13.81122
62.965 13.766227
62.970 14.150434
62.975 13.886374
62.980 13.783857
62.985 14.051887
62.990 14.34485
62.995 15.131495
63.000 15.65388
63.005 15.57701
63.010 15.307927
63.015 15.359646
63.020 15.516012
63.025 15.003572
63.030 14.739452
63.035 14.734962
63.040 14.507405
63.045 14.389229
63.050 14.18722
63.055 14.00714
63.060 14.40202
63.065 14.192325
63.070 14.607627
63.075 14.759247
63.080 15.064631
63.085 15.076365
63.090 15.111839
63.095 14.858685
63.100 14.768418
63.105 13.905676
63.110 14.127379
63.115 14.867416
63.120 14.935342
63.125 14.934892
63.130 15.717737
63.135 16.170443
63.140 16.292568
63.145 16.059332
63.150 15.55021
63.155 14.927623
63.160 15.146292
63.165 14.944522
63.170 14.801281
63.175 15.14701
63.180 14.985606
63.185 15.135326
63.190 16.247961
63.195 16.206438
63.200 15.548627
63.205 15.306396
63.210 15.102376
63.215 15.051671
63.220 14.510456
63.225 14.101932
63.230 14.267302
63.235 14.883564
63.240 14.853263
63.245 14.381703
63.250 14.439554
63.255 14.615754
63.260 14.545362
63.265 14.028955
63.270 13.381078
63.275 13.932093
63.280 14.479744
63.285 14.684907
63.290 14.548401
63.295 14.117856
63.300 14.209082
63.305 14.420092
63.310 13.912498
63.315 13.757303
63.320 13.732056
63.325 13.676901
63.330 14.257145
63.335 14.622906
63.340 14.844014
63.345 15.242656
63.350 15.655872
63.355 15.627295
63.360 15.759929
63.365 15.638643
63.370 15.961153
63.375 15.882359
63.380 15.563521
63.385 14.819156
63.390 15.218524
63.395 15.55427
63.400 15.445639
63.405 14.965403
63.410 15.022716
63.415 15.285513
63.420 15.393932
63.425 14.72525
63.430 14.496739
63.435 14.436231
63.440 15.197594
63.445 15.104662
63.450 14.849491
63.455 15.47994
63.460 15.899779
63.465 16.370785
63.470 16.440836
63.475 16.182348
63.480 16.616148
63.485 17.278233
63.490 17.030045
63.495 17.320835
63.500 17.861286
63.505 18.193235
63.510 18.025064
63.515 17.535294
63.520 16.940859
63.525 16.68037
63.530 16.145782
63.535 15.616307
63.540 15.108067
63.545 15.106358
63.550 15.211394
63.555 15.568258
63.560 16.267641
63.565 16.104
63.570 15.919521
63.575 16.12377
63.580 15.760303
63.585 15.609233
63.590 15.600316
63.595 15.201875
63.600 15.418917
63.605 15.477985
63.610 15.419323
63.615 15.481212
63.620 15.750732
63.625 15.520626
63.630 15.312886
63.635 15.323223
63.640 15.336967
63.645 15.31776
63.650 15.518695
63.655 15.297998
63.660 15.667724
63.665 16.156223
63.670 16.439711
63.675 16.450195
63.680 16.474983
63.685 16.293789
63.690 16.215296
63.695 15.913543
63.700 14.987739
63.705 14.319594
63.710 14.213557
63.715 14.222813
63.720 14.519712
63.725 14.441549
63.730 14.684822
63.735 15.134317
63.740 15.630775
63.745 15.865661
63.750 16.069553
63.755 16.465199
63.760 17.12009
63.765 17.309223
63.770 17.132509
63.775 16.803915
63.780 17.118874
63.785 16.60383
63.790 16.535892
63.795 16.457541
63.800 16.356815
63.805 17.401573
63.810 17.557648
63.815 17.247541
63.820 17.540171
63.825 17.787518
63.830 17.905363
63.835 17.754723
63.840 17.473351
63.845 17.359331
63.850 17.545622
63.855 17.743811
63.860 17.469265
63.865 17.983929
63.870 18.554447
63.875 18.569454
63.880 18.60006
63.885 18.854561
63.890 19.095417
63.895 19.281593
63.900 18.643515
63.905 18.305359
63.910 18.818483
63.915 18.708075
63.920 18.810587
63.925 18.353344
63.930 18.300503
63.935 18.686275
63.940 18.937075
63.945 18.780298
63.950 19.24654
63.955 19.434603
63.960 19.952864
63.965 20.743519
63.970 21.566471
63.975 22.368933
63.980 22.922523
63.985 23.349337
63.990 23.930212
63.995 24.758106
64.000 24.84837
64.005 24.656679
64.010 25.382629
64.015 26.057392
64.020 26.182728
64.025 26.11454
64.030 26.093939
64.035 26.279181
64.040 26.476072
64.045 26.317099
64.050 26.96142
64.055 27.165426
64.060 27.223604
64.065 27.38452
64.070 27.81156
64.075 27.550055
64.080 26.955757
64.085 26.899637
64.090 27.189762
64.095 27.701107
64.100 27.917185
64.105 27.975821
64.110 28.374735
64.115 29.47366
64.120 29.661978
64.125 29.658293
64.130 29.753601
64.135 29.300493
64.140 28.987274
64.145 28.767677
64.150 29.036554
64.155 29.986837
64.160 30.782675
64.165 31.271088
64.170 32.159061
64.175 33.208817
64.180 33.870632
64.185 33.712669
64.190 33.761387
64.195 33.830788
64.200 33.715698
64.205 33.606052
64.210 33.843288
64.215 33.944439
64.220 33.732563
64.225 34.059887
64.230 34.092598
64.235 34.087399
64.240 33.934578
64.245 33.002674
64.250 33.203701
64.255 33.760742
64.260 33.167625
64.265 32.581074
64.270 32.434891
64.275 32.683628
64.280 33.479523
64.285 34.102047
64.290 33.77779
64.295 33.260551
64.300 33.749218
64.305 33.272335
64.310 33.117424
64.315 32.674633
64.320 31.950796
64.325 32.863831
64.330 33.27634
64.335 33.941864
64.340 34.369808
64.345 33.661705
64.350 32.948044
64.355 32.366806
64.360 31.365356
64.365 31.025057
64.370 30.458328
64.375 30.81349
64.380 32.175354
64.385 32.951984
64.390 32.527302
64.395 31.996658
64.400 32.080265
64.405 31.542828
64.410 31.135521
64.415 29.552727
64.420 29.333693
64.425 29.580263
64.430 29.464722
64.435 29.201424
64.440 29.266869
64.445 29.217798
64.450 29.976946
64.455 29.845356
64.460 29.461399
64.465 28.980448
64.470 28.65238
64.475 28.201727
64.480 27.831476
64.485 27.389521
64.490 27.269728
64.495 26.859293
64.500 26.730856
64.505 26.577724
64.510 25.915033
64.515 25.216095
64.520 24.466198
64.525 24.148279
64.530 23.904774
64.535 23.566177
64.540 23.416319
64.545 23.647213
64.550 23.425922
64.555 23.293081
64.560 22.969191
64.565 23.087923
64.570 23.070568
64.575 22.428164
64.580 22.555496
64.585 22.614088
64.590 22.991222
64.595 22.723148
64.600 22.760063
64.605 22.026945
64.610 21.836926
64.615 21.701548
64.620 21.479425
64.625 20.987953
64.630 20.924732
64.635 20.185211
64.640 20.933252
64.645 20.706301
64.650 19.893057
64.655 19.871014
64.660 20.005962
64.665 20.186834
64.670 20.514997
64.675 19.937586
64.680 19.9561
64.685 20.474501
64.690 20.127308
64.695 19.502399
64.700 19.373491
64.705 18.979925
64.710 18.557449
64.715 18.555
64.720 18.644733
64.725 19.086758
64.730 19.589121
64.735 19.316195
64.740 19.135689
64.745 18.948524
64.750 18.478727
64.755 18.130201
64.760 17.993565
64.765 18.094969
64.770 18.392817
64.775 18.864557
64.780 19.404423
64.785 19.751446
64.790 19.828432
64.795 20.042156
64.800 19.886028
64.805 19.986536
64.810 20.026449
64.815 20.271086
64.820 19.967802
64.825 19.919413
64.830 19.988922
64.835 19.638502
64.840 19.421249
64.845 19.042223
64.850 18.962757
64.855 19.182289
64.860 19.189444
64.865 19.188801
64.870 19.572205
64.875 19.310289
64.880 19.601019
64.885 19.31974
64.890 19.320934
64.895 18.783302
64.900 18.687435
64.905 19.235853
64.910 19.365864
64.915 18.871401
64.920 18.351851
64.925 18.081696
64.930 18.47278
64.935 18.595905
64.940 18.064054
64.945 18.287806
64.950 18.642973
64.955 18.539925
64.960 18.239603
64.965 17.892986
64.970 17.843641
64.975 17.932413
64.980 18.112093
64.985 18.993044
64.990 19.75643
64.995 19.951658
65.000 19.811522
65.005 19.623564
65.010 19.63505
65.015 19.481802
65.020 19.120893
65.025 19.91357
65.030 20.482924
65.035 21.103361
65.040 21.132854
65.045 21.563887
65.050 21.630817
65.055 21.082525
65.060 20.510056
65.065 20.542246
65.070 20.179312
65.075 20.871183
65.080 20.976765
65.085 21.201607
65.090 21.879202
65.095 22.198004
65.100 22.12274
65.105 21.78467
65.110 20.806675
65.115 20.39682
65.120 19.845564
65.125 19.973484
65.130 20.072289
65.135 20.059242
65.140 20.782906
65.145 21.386858
65.150 21.495832
65.155 21.441257
65.160 20.805384
65.165 20.590189
65.170 21.080624
65.175 20.852076
65.180 20.614525
65.185 20.509418
65.190 20.830717
65.195 21.086895
65.200 21.085411
65.205 21.049442
65.210 21.057362
65.215 21.002617
65.220 21.208303
65.225 20.975483
65.230 20.497795
65.235 20.214514
65.240 20.025354
65.245 19.915405
65.250 19.985065
65.255 20.167355
65.260 20.37989
65.265 20.372028
65.270 20.600496
65.275 20.618166
65.280 20.367764
65.285 20.618086
65.290 20.848528
65.295 20.341421
65.300 20.273598
65.305 19.917345
65.310 19.755365
65.315 19.973515
65.320 19.304253
65.325 18.944849
65.330 19.26548
65.335 20.213362
65.340 20.756294
65.345 21.209208
65.350 21.500187
65.355 21.829916
65.360 21.20833
65.365 20.716936
65.370 19.349632
65.375 18.94478
65.380 18.526789
65.385 18.216225
65.390 18.250729
65.395 19.017565
65.400 19.867241
65.405 20.816223
65.410 20.541882
65.415 20.864288
65.420 20.726095
65.425 20.997347
65.430 20.899656
65.435 20.311741
65.440 20.541254
65.445 21.042068
65.450 21.170223
65.455 21.674355
65.460 21.526878
65.465 21.756512
65.470 22.299864
65.475 21.904716
65.480 21.594946
65.485 21.008337
65.490 21.120546
65.495 21.657896
65.500 21.920343
65.505 22.502729
65.510 23.801071
65.515 24.950886
65.520 25.676376
65.525 26.06481
65.530 26.349974
65.535 26.148045
65.540 25.870789
65.545 25.715832
65.550 26.214792
65.555 26.505312
65.560 26.1812
65.565 26.287083
65.570 27.397638
65.575 27.925264
65.580 28.149984
65.585 28.31414
65.590 28.260757
65.595 28.987551
65.600 29.736334
65.605 29.92028
65.610 30.360012
65.615 30.297398
65.620 29.868517
65.625 30.387825
65.630 31.021229
65.635 30.623991
65.640 29.958475
65.645 30.211594
65.650 31.453257
65.655 32.739395
65.660 33.365215
65.665 32.861958
65.670 33.432919
65.675 34.471344
65.680 35.513069
65.685 35.50388
65.690 35.276543
65.695 35.358173
65.700 35.380959
65.705 35.165112
65.710 35.303562
65.715 34.682369
65.720 33.713692
65.725 34.096817
65.730 34.461071
65.735 35.403008
65.740 36.246883
65.745 35.475845
65.750 35.903912
65.755 35.986267
65.760 35.896553
65.765 35.775429
65.770 35.430996
65.775 35.031666
65.780 35.684738
65.785 35.819763
65.790 36.382713
65.795 36.206806
65.800 35.980614
65.805 35.426319
65.810 36.150131
65.815 35.96154
65.820 35.733849
65.825 35.963177
65.830 36.415386
65.835 36.805943
65.840 36.666935
65.845 36.400242
65.850 36.352325
65.855 36.263447
65.860 34.856804
65.865 34.467625
65.870 34.145363
65.875 34.122475
65.880 33.889473
65.885 34.109737
65.890 34.864792
65.895 35.332016
65.900 34.798695
65.905 35.515099
65.910 35.583858
65.915 34.97987
65.920 34.385578
65.925 33.886837
65.930 34.302044
65.935 34.108093
65.940 32.855759
65.945 31.961554
65.950 32.624519
65.955 32.856892
65.960 33.731339
65.965 33.787487
65.970 34.252876
65.975 34.489769
65.980 35.081821
65.985 33.9496
65.990 33.204594
65.995 31.920727
66.000 31.490421
66.005 31.080761
66.010 30.960178
66.015 30.174646
66.020 29.765825
66.025 29.722046
66.030 29.266533
66.035 28.078224
66.040 28.664927
66.045 29.024405
66.050 29.723354
66.055 29.71797
66.060 28.910969
66.065 28.921476
66.070 28.844017
66.075 27.47781
66.080 26.594973
66.085 26.257523
66.090 26.849619
66.095 27.899586
66.100 27.678244
66.105 27.733994
66.110 27.776035
66.115 27.70192
66.120 26.657907
66.125 25.822287
66.130 24.683624
66.135 24.51885
66.140 24.411396
66.145 24.259821
66.150 24.18416
66.155 24.762655
66.160 24.988791
66.165 24.803782
66.170 24.050266
66.175 23.663555
66.180 23.620804
66.185 23.706738
66.190 23.706825
66.195 23.459639
66.200 23.308784
66.205 22.60182
66.210 22.047119
66.215 21.649086
66.220 21.167873
66.225 20.376141
66.230 19.611097
66.235 19.596355
66.240 19.845356
66.245 20.313652
66.250 20.390324
66.255 20.021257
66.260 19.686422
66.265 20.026321
66.270 19.439972
66.275 19.174017
66.280 18.72191
66.285 18.660465
66.290 18.457197
66.295 18.058634
66.300 17.915596
66.305 17.91548
66.310 17.845444
66.315 17.621681
66.320 17.265127
66.325 17.793707
66.330 17.892586
66.335 17.381292
66.340 18.111486
66.345 18.216127
66.350 18.538368
66.355 18.690145
66.360 18.190542
66.365 17.657825
66.370 17.959826
66.375 17.487064
66.380 17.596247
66.385 17.834007
66.390 17.971935
66.395 18.535393
66.400 18.915672
66.405 18.798246
66.410 18.299292
66.415 17.598072
66.420 17.355175
66.425 17.456436
66.430 17.537355
66.435 17.669584
66.440 17.658379
66.445 17.833336
66.450 17.78035
66.455 17.504679
66.460 17.491615
66.465 17.481371
66.470 17.764236
66.475 17.858519
66.480 18.062401
66.485 18.687016
66.490 19.116356
66.495 18.97154
66.500 18.520599
66.505 17.791767
66.510 17.828516
66.515 17.706781
66.520 17.385483
66.525 16.862696
66.530 17.140038
66.535 16.963354
66.540 17.134182
66.545 17.644827
66.550 18.311117
66.555 18.544439
66.560 18.306795
66.565 18.088619
66.570 18.253056
66.575 18.286724
66.580 17.459196
66.585 16.493467
66.590 15.967775
66.595 15.755723
66.600 15.774966
66.605 16.431486
66.610 16.621769
66.615 16.898325
66.620 17.207527
66.625 17.714249
66.630 17.813114
66.635 17.51697
66.640 17.418951
66.645 17.194218
66.650 17.451702
66.655 17.380077
66.660 17.215994
66.665 17.513163
66.670 17.252792
66.675 17.245525
66.680 17.483982
66.685 17.028563
66.690 17.571186
66.695 17.383209
66.700 17.517052
66.705 17.849154
66.710 17.517414
66.715 17.291197
66.720 17.534456
66.725 17.339031
66.730 17.239435
66.735 17.002029
66.740 16.887484
66.745 16.916756
66.750 17.37817
66.755 17.255905
66.760 16.770664
66.765 17.042841
66.770 17.015684
66.775 17.117006
66.780 17.080797
66.785 16.815437
66.790 16.647633
66.795 17.114164
66.800 16.60508
66.805 16.529459
66.810 16.215244
66.815 16.148058
66.820 15.920345
66.825 16.178471
66.830 15.373547
66.835 14.875737
66.840 14.547345
66.845 14.51022
66.850 14.20903
66.855 14.088009
66.860 13.893758
66.865 14.719964
66.870 15.650131
66.875 15.695014
66.880 15.731577
66.885 16.136543
66.890 16.742142
66.895 17.175604
66.900 16.661718
66.905 16.415756
66.910 16.62705
66.915 16.527363
66.920 16.093201
66.925 15.392297
66.930 15.499744
66.935 16.014021
66.940 16.286629
66.945 16.189039
66.950 15.877775
66.955 15.797503
66.960 15.838911
66.965 15.417478
66.970 15.502975
66.975 15.115878
66.980 15.44263
66.985 16.033606
66.990 16.304043
66.995 16.156628
67.000 16.601793
67.005 17.141056
67.010 17.288181
67.015 17.306711
67.020 17.071804
67.025 17.036055
67.030 16.823296
67.035 15.943447
67.040 15.104869
67.045 15.359245
67.050 15.591375
67.055 16.020866
67.060 15.940171
67.065 16.002108
67.070 16.38179
67.075 16.537777
67.080 16.505716
67.085 16.430733
67.090 16.192986
67.095 16.56374
67.100 16.659378
67.105 16.064825
67.110 15.984077
67.115 16.054148
67.120 16.462229
67.125 16.705984
67.130 16.824696
67.135 16.598349
67.140 16.831017
67.145 17.217285
67.150 17.135302
67.155 16.687193
67.160 16.45079
67.165 16.118227
67.170 16.375086
67.175 16.853065
67.180 16.584724
67.185 16.39085
67.190 16.551422
67.195 16.148251
67.200 16.43667
67.205 16.565014
67.210 16.482746
67.215 16.472853
67.220 16.695805
67.225 16.414125
67.230 16.685835
67.235 16.576468
67.240 16.460066
67.245 16.690163
67.250 16.396172
67.255 15.923021
67.260 16.389839
67.265 16.211269
67.270 16.217367
67.275 15.77989
67.280 15.425625
67.285 15.592669
67.290 15.559537
67.295 15.022503
67.300 15.410703
67.305 15.871746
67.310 16.043125
67.315 15.582014
67.320 15.841379
67.325 15.831937
67.330 16.039549
67.335 15.942228
67.340 15.641185
67.345 15.320978
67.350 15.379319
67.355 15.541333
67.360 16.020948
67.365 15.627605
67.370 15.513968
67.375 15.562394
67.380 16.040339
67.385 16.143925
67.390 16.280279
67.395 16.611275
67.400 17.211042
67.405 17.014952
67.410 17.544643
67.415 18.244173
67.420 18.63102
67.425 17.823767
67.430 17.411221
67.435 16.996374
67.440 16.730825
67.445 16.277412
67.450 15.919475
67.455 15.605341
67.460 15.806057
67.465 15.919112
67.470 16.015575
67.475 16.189112
67.480 16.128698
67.485 16.047922
67.490 16.224216
67.495 15.886296
67.500 15.738811
67.505 16.06348
67.510 16.389982
67.515 16.795603
67.520 17.233301
67.525 17.630535
67.530 18.074829
67.535 18.367373
67.540 18.315725
67.545 17.671452
67.550 17.25606
67.555 17.222996
67.560 16.880873
67.565 16.911751
67.570 16.721331
67.575 16.284851
67.580 16.340115
67.585 16.256186
67.590 15.727858
67.595 15.390903
67.600 15.051224
67.605 14.833069
67.610 15.394839
67.615 16.171015
67.620 16.528315
67.625 16.86854
67.630 16.94206
67.635 16.984869
67.640 16.916803
67.645 16.9701
67.650 16.336285
67.655 16.289606
67.660 16.253185
67.665 16.918627
67.670 17.335535
67.675 17.562788
67.680 18.236336
67.685 18.452227
67.690 18.232983
67.695 18.142765
67.700 17.792366
67.705 17.291115
67.710 16.540312
67.715 15.730571
67.720 15.658033
67.725 16.001154
67.730 16.07382
67.735 15.756637
67.740 15.643909
67.745 15.796998
67.750 15.904498
67.755 15.966625
67.760 15.718549
67.765 15.591486
67.770 15.816989
67.775 16.125502
67.780 16.469633
67.785 16.256296
67.790 15.984994
67.795 16.333611
67.800 16.463139
67.805 16.993214
67.810 17.177298
67.815 16.442226
67.820 16.154285
67.825 16.334732
67.830 16.091679
67.835 15.764489
67.840 15.363818
67.845 15.640567
67.850 16.273214
67.855 17.231302
67.860 17.231804
67.865 17.3067
67.870 17.667892
67.875 17.940016
67.880 18.378521
67.885 18.334051
67.890 17.923645
67.895 17.768187
67.900 17.993706
67.905 18.523075
67.910 18.327887
67.915 18.227276
67.920 17.913622
67.925 18.092344
67.930 18.603994
67.935 18.108747
67.940 17.270096
67.945 17.090935
67.950 17.188656
67.955 17.183428
67.960 16.972691
67.965 16.838781
67.970 17.09898
67.975 17.496094
67.980 17.823757
67.985 17.593199
67.990 17.33293
67.995 17.05788
68.000 16.959314
68.005 16.953394
68.010 17.247501
68.015 17.15984
68.020 17.274185
68.025 17.74963
68.030 18.431332
68.035 18.096836
68.040 17.892027
68.045 17.312544
68.050 17.287621
68.055 17.163054
68.060 16.845713
68.065 16.567949
68.070 16.701471
68.075 16.820383
68.080 17.132027
68.085 17.14455
68.090 17.23373
68.095 17.434309
68.100 17.245155
68.105 17.397072
68.110 16.728878
68.115 16.615713
68.120 17.308199
68.125 17.481464
68.130 17.049109
68.135 17.27424
68.140 16.685633
68.145 16.701426
68.150 16.416569
68.155 15.681253
68.160 15.983319
68.165 16.769333
68.170 17.147345
68.175 17.504234
68.180 17.95298
68.185 18.189941
68.190 18.286936
68.195 17.750921
68.200 16.976404
68.205 16.842171
68.210 16.990433
68.215 17.199177
68.220 16.986954
68.225 17.283216
68.230 17.912111
68.235 18.363703
68.240 18.407711
68.245 18.778156
68.250 18.988914
68.255 18.373779
68.260 17.636063
68.265 17.263407
68.270 17.304497
68.275 17.606127
68.280 17.592009
68.285 17.998432
68.290 18.825445
68.295 19.097649
68.300 19.323208
68.305 18.595203
68.310 18.109404
68.315 17.292858
68.320 16.613251
68.325 16.005865
68.330 16.259985
68.335 16.089952
68.340 16.671124
68.345 16.907879
68.350 17.165834
68.355 17.611219
68.360 17.445051
68.365 17.061344
68.370 17.331913
68.375 17.247915
68.380 17.363319
68.385 17.663641
68.390 16.978552
68.395 17.579443
68.400 17.728149
68.405 17.835531
68.410 18.064583
68.415 18.638582
68.420 18.800123
68.425 19.420082
68.430 19.565685
68.435 19.489458
68.440 19.145893
68.445 19.26281
68.450 19.118847
68.455 19.392603
68.460 19.077736
68.465 18.599493
68.470 18.689535
68.475 18.887928
68.480 18.474239
68.485 17.833292
68.490 17.070313
68.495 17.013088
68.500 17.285105
68.505 17.639366
68.510 17.517872
68.515 17.359842
68.520 17.463266
68.525 18.649473
68.530 19.24188
68.535 19.535639
68.540 19.45359
68.545 19.316122
68.550 19.558477
68.555 19.586618
68.560 18.901142
68.565 19.618662
68.570 18.782217
68.575 18.21965
68.580 18.385546
68.585 18.604286
68.590 19.262619
68.595 19.525261
68.600 19.121141
68.605 19.607567
68.610 20.342525
68.615 20.460537
68.620 20.167274
68.625 20.200439
68.630 19.592855
68.635 19.483345
68.640 19.357914
68.645 18.751745
68.650 18.678032
68.655 18.898222
68.660 18.388494
68.665 18.295061
68.670 18.603897
68.675 18.931026
68.680 19.532778
68.685 19.551641
68.690 19.531321
68.695 20.290602
68.700 20.498428
68.705 20.701534
68.710 21.286303
68.715 21.659513
68.720 22.468048
68.725 22.666639
68.730 23.310556
68.735 23.714222
68.740 23.642229
68.745 23.409985
68.750 23.52409
68.755 23.725307
68.760 23.591854
68.765 23.578773
68.770 24.121384
68.775 24.248972
68.780 24.497622
68.785 24.439217
68.790 24.609247
68.795 24.805723
68.800 24.659071
68.805 24.602589
68.810 24.851849
68.815 25.117868
68.820 25.002882
68.825 24.839888
68.830 25.214127
68.835 25.619614
68.840 25.67907
68.845 25.196617
68.850 25.672262
68.855 26.428461
68.860 26.746916
68.865 26.870495
68.870 26.73579
68.875 26.985266
68.880 27.564865
68.885 27.374834
68.890 28.12476
68.895 29.093849
68.900 30.18705
68.905 30.47201
68.910 31.267786
68.915 31.735699
68.920 31.736088
68.925 31.572403
68.930 31.340254
68.935 31.875347
68.940 31.905897
68.945 31.670084
68.950 31.368269
68.955 31.390491
68.960 31.293386
68.965 32.071926
68.970 32.858288
68.975 33.818203
68.980 33.567623
68.985 34.23719
68.990 34.262272
68.995 34.171757
69.000 33.728573
69.005 32.761642
69.010 32.330654
69.015 32.940716
69.020 33.400845
69.025 34.204857
69.030 34.139511
69.035 33.729462
69.040 34.405972
69.045 35.807632
69.050 36.704742
69.055 36.128506
69.060 35.889526
69.065 35.69693
69.070 35.443676
69.075 35.052994
69.080 34.284073
69.085 33.850803
69.090 34.233238
69.095 34.281246
69.100 35.445667
69.105 36.496151
69.110 36.647865
69.115 36.502846
69.120 35.766144
69.125 35.063923
69.130 34.257774
69.135 33.234894
69.140 31.991095
69.145 31.01037
69.150 30.692896
69.155 30.744116
69.160 31.130899
69.165 30.996849
69.170 30.729229
69.175 31.279915
69.180 31.225792
69.185 31.873859
69.190 31.832706
69.195 31.343229
69.200 31.17178
69.205 30.901567
69.210 31.133524
69.215 30.998865
69.220 30.228708
69.225 29.697058
69.230 30.150038
69.235 30.462114
69.240 30.108114
69.245 29.313019
69.250 28.618418
69.255 28.744932
69.260 28.782585
69.265 28.131418
69.270 28.193428
69.275 28.045925
69.280 27.384426
69.285 27.159689
69.290 27.078272
69.295 26.37561
69.300 26.152899
69.305 26.214125
69.310 26.538111
69.315 26.909407
69.320 26.380066
69.325 25.74045
69.330 26.043856
69.335 26.302004
69.340 25.565733
69.345 25.299133
69.350 25.220222
69.355 25.494156
69.360 25.538519
69.365 24.831778
69.370 23.956123
69.375 24.12162
69.380 23.504356
69.385 23.344273
69.390 22.467316
69.395 22.039324
69.400 22.052958
69.405 21.552488
69.410 21.154419
69.415 20.892738
69.420 20.746401
69.425 21.323353
69.430 21.327051
69.435 21.43676
69.440 21.809242
69.445 21.75388
69.450 21.87278
69.455 22.026026
69.460 22.022181
69.465 22.6015
69.470 22.670008
69.475 22.545078
69.480 22.42004
69.485 22.244043
69.490 21.507687
69.495 20.826199
69.500 19.840626
69.505 19.650038
69.510 19.378349
69.515 19.694553
69.520 19.96299
69.525 20.526262
69.530 20.927711
69.535 21.414259
69.540 21.324903
69.545 20.677439
69.550 20.073774
69.555 19.333466
69.560 18.844894
69.565 18.258591
69.570 17.40864
69.575 17.330957
69.580 17.883045
69.585 17.174959
69.590 16.89996
69.595 16.680752
69.600 16.841635
69.605 17.275419
69.610 17.211842
69.615 17.045321
69.620 17.401232
69.625 17.066254
69.630 17.581423
69.635 17.676653
69.640 17.661253
69.645 18.075174
69.650 18.142984
69.655 18.712934
69.660 18.906996
69.665 18.780695
69.670 18.516241
69.675 18.226608
69.680 17.782896
69.685 17.331226
69.690 16.81407
69.695 16.253082
69.700 16.500034
69.705 16.525419
69.710 16.112684
69.715 16.320272
69.720 16.668613
69.725 16.4729
69.730 16.42823
69.735 16.460077
69.740 16.979673
69.745 17.669485
69.750 17.215796
69.755 16.56365
69.760 16.886206
69.765 16.448835
69.770 16.202656
69.775 15.918697
69.780 15.113696
69.785 15.414661
69.790 15.827495
69.795 16.257328
69.800 16.724022
69.805 16.498297
69.810 16.755388
69.815 17.363337
69.820 17.404512
69.825 17.513508
69.830 17.31411
69.835 18.037376
69.840 18.424137
69.845 18.512766
69.850 19.298515
69.855 19.492397
69.860 19.242201
69.865 19.165668
69.870 18.639576
69.875 18.637661
69.880 18.277491
69.885 17.716276
69.890 17.604013
69.895 17.654873
69.900 17.635239
69.905 17.630592
69.910 17.207645
69.915 16.846292
69.920 16.760559
69.925 17.053982
69.930 17.355713
69.935 17.25951
69.940 17.603804
69.945 18.048388
69.950 17.889633
69.955 17.859909
69.960 17.582483
69.965 17.671247
69.970 17.756025
69.975 17.398727
69.980 17.280682
69.985 17.577787
69.990 17.332792
69.995 16.819771
70.000 16.394712
70.005 16.306561
70.010 15.826959
70.015 15.590848
70.020 14.896064
70.025 15.346452
70.030 15.608479
70.035 15.635148
70.040 15.651815
70.045 16.006882
70.050 16.578053
70.055 17.110163
70.060 17.233978
70.065 17.133795
70.070 17.177586
70.075 16.934711
70.080 16.844601
70.085 16.472897
70.090 16.484476
70.095 16.633486
70.100 17.14958
70.105 17.548513
70.110 18.148224
70.115 17.944197
70.120 18.162909
70.125 18.049011
70.130 18.240587
70.135 18.383385
70.140 18.388168
70.145 18.399769
70.150 18.58814
70.155 18.389032
70.160 18.012011
70.165 17.464092
70.170 17.003366
70.175 16.713148
70.180 16.238749
70.185 16.438009
70.190 16.917524
70.195 17.400053
70.200 17.097803
70.205 17.188828
70.210 16.96287
70.215 17.096327
70.220 16.712091
70.225 16.06308
70.230 15.918048
70.235 16.389135
70.240 16.874374
70.245 17.171497
70.250 17.360275
70.255 18.279884
70.260 19.348949
70.265 19.780455
70.270 19.806822
70.275 19.677153
70.280 19.402039
70.285 18.885992
70.290 17.910217
70.295 17.288874
70.300 17.134552
70.305 16.759407
70.310 16.869032
70.315 17.378334
70.320 17.643938
70.325 17.776901
70.330 17.24176
70.335 16.735014
70.340 17.343811
70.345 17.553362
70.350 17.355986
70.355 17.086227
70.360 16.687206
70.365 17.195272
70.370 17.504927
70.375 16.56078
70.380 16.298738
70.385 16.21887
70.390 16.802124
70.395 17.279398
70.400 17.055508
70.405 16.902582
70.410 17.601683
70.415 17.453903
70.420 17.072519
70.425 16.319656
70.430 16.343374
70.435 16.347502
70.440 16.428541
70.445 16.222263
70.450 16.380272
70.455 17.311272
70.460 17.114717
70.465 17.154196
70.470 17.643923
70.475 17.773958
70.480 18.127878
70.485 18.096285
70.490 17.999794
70.495 18.3964
70.500 18.161283
70.505 17.587475
70.510 17.570885
70.515 16.936394
70.520 16.763748
70.525 16.556997
70.530 16.231928
70.535 16.423426
70.540 16.511442
70.545 16.560272
70.550 16.389212
70.555 16.598595
70.560 16.89596
70.565 17.182346
70.570 17.462814
70.575 17.466719
70.580 17.190012
70.585 17.323595
70.590 17.33466
70.595 17.56115
70.600 17.263809
70.605 16.864882
70.610 16.598185
70.615 16.183331
70.620 16.429743
70.625 15.661707
70.630 15.517066
70.635 15.652163
70.640 15.450376
70.645 15.257585
70.650 15.341802
70.655 15.673477
70.660 15.63312
70.665 15.514193
70.670 15.628891
70.675 16.152876
70.680 16.42873
70.685 16.259026
70.690 15.762623
70.695 16.251936
70.700 16.102339
70.705 16.128452
70.710 15.909298
70.715 16.116495
70.720 16.055719
70.725 15.911904
70.730 15.658046
70.735 15.308428
70.740 15.284978
70.745 15.148209
70.750 15.137929
70.755 15.63687
70.760 16.06213
70.765 15.897486
70.770 15.844048
70.775 15.657082
70.780 15.619924
70.785 15.156962
70.790 15.395415
70.795 15.283049
70.800 15.915909
70.805 16.816906
70.810 17.180798
70.815 16.846386
70.820 16.749325
70.825 16.508863
70.830 16.721882
70.835 15.938134
70.840 16.081392
70.845 16.872768
70.850 17.117069
70.855 17.303041
70.860 17.063202
70.865 17.371004
70.870 17.442305
70.875 16.80942
70.880 16.870743
70.885 17.21677
70.890 17.388262
70.895 17.689177
70.900 17.426592
70.905 17.261541
70.910 17.220474
70.915 16.779701
70.920 16.233454
70.925 16.847902
70.930 16.475803
70.935 16.683817
70.940 16.665867
70.945 16.484774
70.950 16.792309
70.955 16.845175
70.960 16.269026
70.965 16.609501
70.970 16.561493
70.975 16.475212
70.980 16.583321
70.985 16.342052
70.990 15.998569
70.995 15.937035
71.000 15.616639
71.005 15.436179
71.010 15.275195
71.015 15.106569
71.020 15.405279
71.025 15.319263
71.030 15.127731
71.035 15.138225
71.040 15.777415
71.045 15.800575
71.050 15.654953
71.055 15.486085
71.060 15.580082
71.065 15.589582
71.070 15.274375
71.075 14.641544
71.080 14.848357
71.085 15.376003
71.090 16.199844
71.095 16.403753
71.100 17.129644
71.105 17.294502
71.110 17.937965
71.115 18.208113
71.120 18.23654
71.125 18.292429
71.130 18.275251
71.135 17.971594
71.140 17.758055
71.145 17.4111
71.150 16.912737
71.155 16.528456
71.160 15.877391
71.165 16.093061
71.170 16.820036
71.175 17.312262
71.180 17.131489
71.185 17.218691
71.190 18.0007
71.195 18.181465
71.200 17.631847
71.205 16.988569
71.210 16.845345
71.215 17.008966
71.220 16.654303
71.225 16.26968
71.230 16.031574
71.235 15.779116
71.240 15.877233
71.245 14.968788
71.250 14.909596
71.255 15.073406
71.260 14.894927
71.265 15.130219
71.270 15.023403
71.275 15.371836
71.280 15.882132
71.285 16.239368
71.290 15.959311
71.295 15.537306
71.300 15.721492
71.305 15.435066
71.310 15.423666
71.315 15.821247
71.320 15.754302
71.325 16.14476
71.330 16.879755
71.335 17.46203
71.340 17.894003
71.345 18.031488
71.350 18.168789
71.355 18.067957
71.360 17.344687
71.365 17.042553
71.370 17.060785
71.375 17.290085
71.380 16.934509
71.385 16.220949
71.390 16.067242
71.395 16.370258
71.400 16.242786
71.405 16.407694
71.410 16.719732
71.415 16.815592
71.420 17.016973
71.425 17.17886
71.430 17.099756
71.435 16.306343
71.440 15.720112
71.445 15.374003
71.450 15.61025
71.455 16.44043
71.460 16.596367
71.465 16.959711
71.470 17.375965
71.475 17.330095
71.480 17.295805
71.485 17.407862
71.490 16.679718
71.495 16.786379
71.500 17.120403
71.505 17.515402
71.510 17.530924
71.515 17.507946
71.520 17.680054
71.525 18.105116
71.530 18.161726
71.535 18.196129
71.540 17.955145
71.545 18.057308
71.550 17.824062
71.555 16.938858
71.560 16.363377
71.565 15.855063
71.570 15.143852
71.575 15.038124
71.580 14.950545
71.585 15.634704
71.590 15.874907
71.595 16.544065
71.600 16.798962
71.605 17.250553
71.610 17.539242
71.615 17.298878
71.620 16.637354
71.625 16.722473
71.630 16.665298
71.635 16.589445
71.640 16.668291
71.645 16.2908
71.650 16.526348
71.655 16.416641
71.660 15.375175
71.665 15.498465
71.670 15.898204
71.675 15.563453
71.680 15.913014
71.685 15.72112
71.690 16.151964
71.695 17.235556
71.700 16.874275
71.705 16.591228
71.710 16.811213
71.715 16.713331
71.720 17.012796
71.725 16.879314
71.730 16.246218
71.735 16.479109
71.740 16.795586
71.745 16.502203
71.750 16.338404
71.755 16.5865
71.760 16.892082
71.765 16.95562
71.770 16.775455
71.775 17.353352
71.780 17.496338
71.785 17.893837
71.790 17.919497
71.795 17.623648
71.800 18.033966
71.805 17.91296
71.810 17.248787
71.815 17.351789
71.820 16.62933
71.825 16.316429
71.830 16.45112
71.835 16.345306
71.840 16.941849
71.845 17.144989
71.850 17.125544
71.855 17.365965
71.860 16.969076
71.865 16.687401
71.870 16.839264
71.875 16.840668
71.880 17.285452
71.885 17.218132
71.890 16.887674
71.895 16.897083
71.900 17.408289
71.905 16.906477
71.910 17.073854
71.915 16.512733
71.920 16.184242
71.925 16.962776
71.930 17.090952
71.935 16.527645
71.940 16.721266
71.945 16.079994
71.950 16.048508
71.955 16.156181
71.960 15.712506
71.965 15.63842
71.970 15.917781
71.975 15.651836
71.980 15.979156
71.985 16.194508
71.990 16.611153
71.995 16.515015
72.000 16.231552
72.005 15.882357
72.010 15.630672
72.015 15.508465
72.020 15.343375
72.025 14.668936
72.030 14.845093
72.035 15.246602
72.040 15.875818
72.045 16.389322
72.050 16.754992
72.055 17.123974
72.060 17.526304
72.065 17.594748
72.070 17.832851
72.075 17.388617
72.080 16.876842
72.085 16.643095
72.090 17.007265
72.095 17.200226
72.100 17.068933
72.105 16.342674
72.110 16.48382
72.115 17.212009
72.120 17.086624
72.125 17.050797
72.130 16.877192
72.135 16.58742
72.140 16.623627
72.145 16.533869
72.150 16.108591
72.155 15.691314
72.160 16.009062
72.165 16.359459
72.170 16.677696
72.175 16.790449
72.180 16.901278
72.185 17.477985
72.190 17.912611
72.195 17.610628
72.200 17.219521
72.205 17.313414
72.210 17.616856
72.215 16.821604
72.220 16.997318
72.225 17.001081
72.230 16.745108
72.235 17.235865
72.240 17.549236
72.245 18.146662
72.250 18.116558
72.255 17.535261
72.260 17.317329
72.265 17.234402
72.270 16.947901
72.275 16.329895
72.280 16.256851
72.285 16.874283
72.290 17.820412
72.295 18.363478
72.300 18.480143
72.305 18.482325
72.310 18.627073
72.315 18.018017
72.320 17.526062
72.325 16.797369
72.330 16.814726
72.335 16.966906
72.340 17.189396
72.345 17.145641
72.350 17.76708
72.355 17.468628
72.360 17.50441
72.365 17.703842
72.370 17.625813
72.375 17.85541
72.380 18.100355
72.385 17.825754
72.390 17.881853
72.395 18.057468
72.400 17.871861
72.405 17.565582
72.410 17.148718
72.415 17.178373
72.420 16.815969
72.425 16.861013
72.430 16.344969
72.435 16.48897
72.440 16.242504
72.445 16.287569
72.450 16.06605
72.455 15.907335
72.460 15.51349
72.465 16.146402
72.470 16.411917
72.475 16.157455
72.480 15.904982
72.485 16.586557
72.490 17.371521
72.495 17.797689
72.500 17.29298
72.505 16.969007
72.510 17.14555
72.515 17.201296
72.520 17.062471
72.525 16.182243
72.530 15.584929
72.535 15.891391
72.540 16.109873
72.545 15.8539
72.550 15.850959
72.555 15.872302
72.560 16.298155
72.565 16.140282
72.570 16.160179
72.575 16.83992
72.580 17.295851
72.585 17.249212
72.590 17.345034
72.595 17.499187
72.600 18.043032
72.605 17.74073
72.610 17.423662
72.615 17.789265
72.620 17.328964
72.625 17.169363
72.630 17.321472
72.635 17.088871
72.640 16.711905
72.645 16.363314
72.650 15.493525
72.655 15.705097
72.660 15.808898
72.665 15.328367
72.670 15.358861
72.675 15.851279
72.680 16.017599
72.685 16.218452
72.690 16.858618
72.695 17.000643
72.700 17.243378
72.705 17.251499
72.710 16.709995
72.715 16.264732
72.720 16.128735
72.725 15.669009
72.730 15.658532
72.735 15.774099
72.740 15.675753
72.745 16.134281
72.750 16.298267
72.755 15.835867
72.760 15.656939
72.765 15.679996
72.770 15.516929
72.775 15.780192
72.780 16.021585
72.785 16.258526
72.790 15.994189
72.795 15.566397
72.800 15.088053
72.805 14.788998
72.810 14.639083
72.815 14.374188
72.820 14.491416
72.825 14.709323
72.830 14.780075
72.835 15.131117
72.840 15.300117
72.845 15.175127
72.850 15.381143
72.855 14.960362
72.860 15.092265
72.865 15.127698
72.870 15.107633
72.875 14.877104
72.880 15.172792
72.885 15.356148
72.890 15.998061
72.895 16.375952
72.900 16.509636
72.905 16.786997
72.910 16.88892
72.915 16.409281
72.920 16.47784
72.925 16.46582
72.930 16.352543
72.935 15.466982
72.940 15.827744
72.945 15.430932
72.950 15.552923
72.955 15.045214
72.960 14.763234
72.965 14.772954
72.970 14.996976
72.975 14.565401
72.980 14.931145
72.985 15.231153
72.990 15.798454
72.995 15.322724
73.000 15.079233
