!@!!GADDS PLOTSO FILE: Chi integration type
!@!!Title/SampleName: map-f1
!@!!Comment: ?
!@!!User: Bruker Instrument Administrator
!@!!Site: University of Illinois Chicago
!@!!Frame: map-f1_01_000.gfrm
!@!!Wavelengths    1.54184   1.54056   1.54439
!@!!Frame angles: 2Theta: 63.000 Omega: 50.000 Phi: 0.000 Chi: 90.000
!@!!Integration range: 2Theta: 53.000 to 73.000  Gamma: -105.000 to -75.000
!@!!Integration method: bin normalized
!@!N
!@!SS
!@!M
!@!L 0.0 0.0 0.0 0.0
!@!XDegrees
!@!YCounts
53.000 6.761776
53.005 6.509374
53.010 5.990515
53.015 6.403015
53.020 6.663652
53.025 6.366765
53.030 6.532761
53.035 6.873449
53.040 7.16456
53.045 7.33056
53.050 7.23814
53.055 7.332821
53.060 7.545816
53.065 7.218263
53.070 7.106396
53.075 7.18634
53.080 7.191031
53.085 7.439162
53.090 7.607181
53.095 7.466902
53.100 7.478048
53.105 7.482277
53.110 7.380842
53.115 7.250416
53.120 7.108869
53.125 7.231069
53.130 7.472507
53.135 7.544646
53.140 7.770968
53.145 7.93569
53.150 7.746953
53.155 7.957872
53.160 7.835103
53.165 7.639682
53.170 7.469827
53.175 7.259896
53.180 7.364306
53.185 7.595852
53.190 7.400872
53.195 7.263859
53.200 7.442461
53.205 7.693981
53.210 7.72188
53.215 7.331165
53.220 7.372141
53.225 7.039697
53.230 6.918402
53.235 6.793797
53.240 7.072423
53.245 6.766245
53.250 6.513261
53.255 6.048155
53.260 5.939275
53.265 6.077349
53.270 5.549626
53.275 5.357055
53.280 5.620139
53.285 5.645416
53.290 6.104758
53.295 6.042175
53.300 6.219044
53.305 6.466996
53.310 6.383283
53.315 6.55918
53.320 7.023183
53.325 7.110344
53.330 7.565312
53.335 7.853499
53.340 8.090656
53.345 8.700671
53.350 8.726552
53.355 8.965049
53.360 9.252285
53.365 9.33083
53.370 9.021028
53.375 8.697543
53.380 8.307159
53.385 8.056476
53.390 7.868687
53.395 7.42292
53.400 7.082682
53.405 6.951343
53.410 7.315315
53.415 7.628537
53.420 7.581076
53.425 7.798275
53.430 7.541378
53.435 7.490599
53.440 7.469464
53.445 7.4241
53.450 7.348117
53.455 7.664778
53.460 7.683685
53.465 7.56289
53.470 7.64518
53.475 7.901353
53.480 7.765839
53.485 7.732698
53.490 7.232923
53.495 7.159626
53.500 7.517207
53.505 7.482045
53.510 7.058291
53.515 6.856099
53.520 7.37954
53.525 7.32644
53.530 7.215676
53.535 6.884427
53.540 6.941782
53.545 6.932077
53.550 6.821728
53.555 6.4512
53.560 6.338041
53.565 6.315948
53.570 6.194977
53.575 6.274677
53.580 6.392325
53.585 6.503857
53.590 6.584363
53.595 6.948359
53.600 7.345515
53.605 7.696191
53.610 7.749377
53.615 8.11054
53.620 8.234
53.625 8.490637
53.630 8.731497
53.635 8.807672
53.640 8.724328
53.645 8.630486
53.650 8.612657
53.655 8.767159
53.660 8.660572
53.665 8.221086
53.670 8.344742
53.675 8.934219
53.680 8.998836
53.685 8.547965
53.690 8.204863
53.695 8.243994
53.700 8.314795
53.705 8.017305
53.710 7.645458
53.715 7.651045
53.720 7.628244
53.725 7.470893
53.730 7.258773
53.735 7.272247
53.740 7.411267
53.745 7.130227
53.750 7.254095
53.755 7.72697
53.760 7.740658
53.765 7.736306
53.770 7.461388
53.775 7.000846
53.780 6.933839
53.785 6.797709
53.790 6.89569
53.795 6.873878
53.800 6.851727
53.805 6.680025
53.810 7.381515
53.815 7.970569
53.820 8.344438
53.825 8.664831
53.830 9.134169
53.835 9.465023
53.840 9.798631
53.845 9.365449
53.850 9.100593
53.855 8.467403
53.860 8.496215
53.865 8.339572
53.870 8.346185
53.875 8.349538
53.880 8.02253
53.885 8.109088
53.890 8.271851
53.895 7.643755
53.900 7.703721
53.905 7.67269
53.910 7.814127
53.915 7.715374
53.920 7.584392
53.925 7.520044
53.930 7.918334
53.935 7.897114
53.940 7.861116
53.945 8.366393
53.950 9.002788
53.955 8.837649
53.960 8.869866
53.965 8.664913
53.970 8.89571
53.975 8.982046
53.980 8.617236
53.985 8.135452
53.990 8.344956
53.995 8.705827
54.000 8.341365
54.005 8.261367
54.010 8.115247
54.015 8.12901
54.020 8.167942
54.025 7.995194
54.030 7.840159
54.035 8.552368
54.040 8.630035
54.045 8.785249
54.050 8.956523
54.055 8.852553
54.060 8.798077
54.065 9.134959
54.070 8.817046
54.075 8.961371
54.080 9.085322
54.085 9.074177
54.090 8.992065
54.095 9.232552
54.100 8.984757
54.105 8.882618
54.110 9.061419
54.115 8.911395
54.120 9.086858
54.125 9.06425
54.130 8.6381
54.135 8.701416
54.140 8.494192
54.145 8.086331
54.150 7.641535
54.155 7.524855
54.160 7.780941
54.165 8.181927
54.170 7.969532
54.175 7.804318
54.180 8.057608
54.185 8.34382
54.190 8.309954
54.195 8.07823
54.200 7.763
54.205 7.521171
54.210 7.339389
54.215 7.33376
54.220 7.705005
54.225 7.84752
54.230 7.960483
54.235 8.027006
54.240 8.486219
54.245 8.204829
54.250 7.739339
54.255 7.605298
54.260 7.821408
54.265 7.707162
54.270 8.02889
54.275 8.544966
54.280 9.118708
54.285 9.468291
54.290 9.341229
54.295 9.143049
54.300 8.954738
54.305 8.509114
54.310 8.298246
54.315 7.937434
54.320 8.021646
54.325 7.651297
54.330 7.483819
54.335 7.467445
54.340 7.922184
54.345 8.190748
54.350 7.997616
54.355 7.972916
54.360 8.037547
54.365 8.149993
54.370 9.001616
54.375 8.57636
54.380 8.488513
54.385 8.415956
54.390 8.55708
54.395 9.002527
54.400 9.034588
54.405 8.556107
54.410 8.125217
54.415 8.290248
54.420 8.659846
54.425 8.667367
54.430 8.626796
54.435 8.79061
54.440 8.985525
54.445 8.819789
54.450 8.473132
54.455 7.982334
54.460 7.883493
54.465 8.097163
54.470 7.546009
54.475 7.256985
54.480 7.522282
54.485 7.664021
54.490 7.66933
54.495 7.332531
54.500 7.275823
54.505 7.314548
54.510 7.394261
54.515 7.899283
54.520 8.024459
54.525 8.244383
54.530 7.838562
54.535 7.640902
54.540 7.802895
54.545 7.577445
54.550 7.331331
54.555 7.345235
54.560 7.34881
54.565 7.58184
54.570 7.799051
54.575 7.992828
54.580 7.95773
54.585 7.962288
54.590 7.975124
54.595 8.014256
54.600 8.106112
54.605 8.128636
54.610 8.399144
54.615 8.54968
54.620 8.613328
54.625 9.030489
54.630 9.30235
54.635 9.514855
54.640 9.622767
54.645 9.580628
54.650 9.934639
54.655 10.039614
54.660 9.71401
54.665 9.40941
54.670 8.926538
54.675 9.187258
54.680 9.031665
54.685 8.672686
54.690 8.932179
54.695 9.399426
54.700 9.846651
54.705 9.696531
54.710 9.220962
54.715 9.273623
54.720 9.560942
54.725 9.426697
54.730 9.265809
54.735 9.522983
54.740 9.756536
54.745 9.828084
54.750 10.084864
54.755 9.663961
54.760 9.263453
54.765 9.100642
54.770 8.748828
54.775 8.722033
54.780 8.933648
54.785 8.708523
54.790 8.971507
54.795 8.960351
54.800 9.228405
54.805 9.362058
54.810 9.346102
54.815 8.864166
54.820 9.098828
54.825 9.148771
54.830 9.34252
54.835 9.267083
54.840 9.482487
54.845 9.262738
54.850 9.303428
54.855 9.032484
54.860 9.510166
54.865 9.539173
54.870 9.606045
54.875 9.675102
54.880 9.935501
54.885 10.289486
54.890 10.110353
54.895 9.522131
54.900 9.513853
54.905 9.276026
54.910 9.306264
54.915 9.400757
54.920 9.369383
54.925 9.597974
54.930 9.907943
54.935 9.917007
54.940 10.157896
54.945 10.120102
54.950 9.70505
54.955 9.542465
54.960 9.456244
54.965 8.945045
54.970 8.77894
54.975 8.640713
54.980 8.795939
54.985 8.912093
54.990 8.853065
54.995 8.600338
55.000 8.980232
55.005 8.952765
55.010 8.902514
55.015 8.964008
55.020 9.161147
55.025 9.397738
55.030 9.371768
55.035 8.847747
55.040 9.015034
55.045 9.351143
55.050 9.670267
55.055 9.747541
55.060 9.732818
55.065 9.918552
55.070 10.267817
55.075 10.115602
55.080 9.80864
55.085 9.368058
55.090 9.084656
55.095 9.402862
55.100 10.148657
55.105 10.361866
55.110 9.886394
55.115 9.45225
55.120 9.88804
55.125 9.591058
55.130 8.96864
55.135 8.277716
55.140 8.289796
55.145 8.865893
55.150 8.874683
55.155 8.580379
55.160 8.775908
55.165 8.984202
55.170 9.278893
55.175 8.701648
55.180 8.596873
55.185 8.738064
55.190 8.685465
55.195 8.804701
55.200 8.198294
55.205 7.878376
55.210 8.05372
55.215 7.848
55.220 8.230433
55.225 8.376559
55.230 8.119312
55.235 8.856237
55.240 9.146242
55.245 9.36584
55.250 9.665379
55.255 9.248858
55.260 9.425777
55.265 9.913787
55.270 9.916386
55.275 10.180527
55.280 10.036208
55.285 9.94189
55.290 9.750372
55.295 9.002439
55.300 8.492601
55.305 8.454271
55.310 8.357255
55.315 8.020846
55.320 7.982466
55.325 8.753209
55.330 9.339036
55.335 9.148479
55.340 9.478653
55.345 9.914772
55.350 10.046474
55.355 10.054698
55.360 9.649624
55.365 9.611105
55.370 9.763018
55.375 9.080609
55.380 9.096626
55.385 9.309966
55.390 9.067999
55.395 8.942605
55.400 8.668639
55.405 8.710982
55.410 8.677928
55.415 8.651093
55.420 8.63763
55.425 9.303877
55.430 9.674253
55.435 10.070934
55.440 10.290503
55.445 10.498083
55.450 10.203109
55.455 10.383475
55.460 9.695837
55.465 9.771411
55.470 9.704896
55.475 9.655556
55.480 10.004412
55.485 10.074221
55.490 9.831773
55.495 9.683482
55.500 10.24193
55.505 10.27767
55.510 9.742271
55.515 9.524144
55.520 9.539682
55.525 10.103904
55.530 9.774185
55.535 8.71276
55.540 8.867111
55.545 9.215451
55.550 9.361468
55.555 9.349103
55.560 9.114844
55.565 9.597845
55.570 9.740819
55.575 9.195476
55.580 9.014209
55.585 8.69398
55.590 8.652506
55.595 8.739497
55.600 8.625159
55.605 8.953969
55.610 8.99681
55.615 8.935465
55.620 9.180179
55.625 9.296936
55.630 9.298389
55.635 9.573582
55.640 9.116036
55.645 9.06345
55.650 8.937524
55.655 8.62648
55.660 8.116325
55.665 8.092484
55.670 8.157255
55.675 8.633435
55.680 9.127234
55.685 9.334159
55.690 9.705027
55.695 9.81656
55.700 9.528419
55.705 9.723337
55.710 9.797838
55.715 9.588249
55.720 9.494004
55.725 9.22009
55.730 9.110312
55.735 8.963993
55.740 8.744586
55.745 8.752315
55.750 9.046696
55.755 9.308303
55.760 9.468397
55.765 9.340114
55.770 9.308962
55.775 9.606968
55.780 9.644629
55.785 9.215123
55.790 8.586411
55.795 8.592331
55.800 9.042114
55.805 8.93851
55.810 8.452341
55.815 8.508309
55.820 8.738654
55.825 8.858582
55.830 8.893007
55.835 8.586349
55.840 8.624084
55.845 8.471785
55.850 8.841106
55.855 8.940075
55.860 8.730568
55.865 9.021292
55.870 9.444039
55.875 10.158007
55.880 10.672624
55.885 10.322986
55.890 10.214815
55.895 10.711266
55.900 10.81231
55.905 10.535779
55.910 10.327159
55.915 9.809037
55.920 9.939991
55.925 10.220336
55.930 10.384645
55.935 10.53047
55.940 10.282032
55.945 10.560933
55.950 10.752416
55.955 10.729432
55.960 10.394387
55.965 9.663756
55.970 9.603134
55.975 9.586642
55.980 9.105569
55.985 8.96161
55.990 8.991858
55.995 9.239459
56.000 9.433015
56.005 9.530895
56.010 10.119629
56.015 9.981872
56.020 9.803068
56.025 9.622811
56.030 10.211891
56.035 10.156712
56.040 10.167294
56.045 9.332002
56.050 9.209785
56.055 9.206717
56.060 8.932497
56.065 8.81263
56.070 8.964347
56.075 8.861987
56.080 9.554754
56.085 9.770262
56.090 10.001474
56.095 10.359433
56.100 10.135313
56.105 9.962307
56.110 9.66645
56.115 9.190661
56.120 9.109551
56.125 9.320957
56.130 9.508411
56.135 9.575871
56.140 9.675874
56.145 9.942751
56.150 10.295017
56.155 10.713748
56.160 10.496137
56.165 10.026652
56.170 9.710242
56.175 9.69343
56.180 9.975728
56.185 10.076964
56.190 9.458552
56.195 9.351952
56.200 9.653511
56.205 9.90108
56.210 10.081821
56.215 9.985365
56.220 9.565156
56.225 10.158405
56.230 10.366279
56.235 10.513759
56.240 10.470437
56.245 10.325094
56.250 10.125253
56.255 10.274538
56.260 9.764625
56.265 9.431459
56.270 9.154452
56.275 9.364684
56.280 9.36592
56.285 9.672517
56.290 9.445733
56.295 9.664783
56.300 9.690257
56.305 9.335196
56.310 9.07736
56.315 8.923669
56.320 9.10156
56.325 9.611757
56.330 9.868551
56.335 10.581488
56.340 11.019854
56.345 11.258524
56.350 11.534472
56.355 11.692101
56.360 11.361191
56.365 10.501067
56.370 9.950195
56.375 9.62951
56.380 9.361386
56.385 8.78344
56.390 8.289773
56.395 8.856724
56.400 9.246967
56.405 9.50461
56.410 9.773674
56.415 10.162423
56.420 10.611557
56.425 10.971969
56.430 10.821518
56.435 10.567894
56.440 10.367225
56.445 10.544545
56.450 10.558348
56.455 10.049029
56.460 10.079605
56.465 9.967598
56.470 9.901919
56.475 9.857557
56.480 9.53977
56.485 9.311921
56.490 9.806759
56.495 9.416346
56.500 9.527053
56.505 9.951701
56.510 9.737056
56.515 9.491667
56.520 9.360579
56.525 9.250624
56.530 9.584608
56.535 9.800232
56.540 9.798153
56.545 10.123649
56.550 10.406899
56.555 10.743979
56.560 10.271796
56.565 9.861705
56.570 9.847899
56.575 9.638663
56.580 9.541162
56.585 9.638516
56.590 9.590667
56.595 9.701623
56.600 9.885948
56.605 9.604207
56.610 9.785663
56.615 10.228833
56.620 10.283164
56.625 10.691268
56.630 10.719661
56.635 10.738462
56.640 11.010288
56.645 11.148312
56.650 10.956688
56.655 10.665326
56.660 10.184443
56.665 10.695442
56.670 10.954182
56.675 11.307715
56.680 11.016883
56.685 11.105977
56.690 11.631326
56.695 11.715891
56.700 11.547724
56.705 11.595441
56.710 11.10551
56.715 11.084326
56.720 10.940792
56.725 10.69943
56.730 11.036744
56.735 11.076351
56.740 10.965087
56.745 11.040277
56.750 10.956852
56.755 10.996916
56.760 11.050908
56.765 10.50478
56.770 9.938034
56.775 9.767243
56.780 9.755231
56.785 10.152822
56.790 10.414652
56.795 10.752709
56.800 11.2409
56.805 12.041183
56.810 12.316129
56.815 12.333857
56.820 11.96914
56.825 11.952537
56.830 11.862409
56.835 11.566003
56.840 10.908061
56.845 10.783754
56.850 11.034738
56.855 11.045429
56.860 10.797064
56.865 10.885468
56.870 11.09269
56.875 11.078364
56.880 11.239097
56.885 11.248282
56.890 11.190021
56.895 11.217661
56.900 11.237404
56.905 11.232655
56.910 11.105462
56.915 11.205067
56.920 11.198137
56.925 11.302636
56.930 11.243024
56.935 11.235964
56.940 11.625342
56.945 11.688652
56.950 11.488565
56.955 11.439495
56.960 11.197568
56.965 11.085923
56.970 10.694305
56.975 10.761851
56.980 11.121367
56.985 11.460331
56.990 11.572617
56.995 12.245504
57.000 12.667933
57.005 12.967107
57.010 12.875206
57.015 12.844978
57.020 12.720926
57.025 12.532703
57.030 11.743564
57.035 11.68203
57.040 11.216449
57.045 10.843853
57.050 11.048757
57.055 10.999476
57.060 10.994098
57.065 11.401286
57.070 11.272313
57.075 11.658286
57.080 11.631341
57.085 10.99974
57.090 10.579578
57.095 10.728004
57.100 10.942569
57.105 10.91106
57.110 10.391478
57.115 10.086958
57.120 10.274406
57.125 10.432175
57.130 10.21069
57.135 9.893806
57.140 10.335394
57.145 10.848547
57.150 11.463027
57.155 11.886619
57.160 11.721156
57.165 11.312453
57.170 11.328352
57.175 10.663846
57.180 10.349327
57.185 10.064996
57.190 9.83567
57.195 10.082942
57.200 10.163658
57.205 10.038507
57.210 10.243385
57.215 10.432081
57.220 10.380821
57.225 10.289163
57.230 10.151857
57.235 10.536533
57.240 10.479725
57.245 10.462046
57.250 10.548068
57.255 10.63954
57.260 11.234824
57.265 11.482333
57.270 11.511477
57.275 11.72643
57.280 11.604249
57.285 11.350243
57.290 11.352519
57.295 11.03548
57.300 10.821923
57.305 10.424551
57.310 10.361254
57.315 10.476126
57.320 10.755381
57.325 10.627301
57.330 10.359483
57.335 10.541115
57.340 10.699953
57.345 11.076668
57.350 11.491838
57.355 11.535963
57.360 12.11278
57.365 12.163267
57.370 12.176356
57.375 12.576376
57.380 12.569379
57.385 12.230886
57.390 11.648239
57.395 11.33486
57.400 11.635918
57.405 11.565397
57.410 11.352171
57.415 11.378827
57.420 11.627684
57.425 11.973462
57.430 11.858364
57.435 12.177171
57.440 12.334625
57.445 12.294969
57.450 12.128118
57.455 11.989962
57.460 12.315352
57.465 12.255099
57.470 11.85445
57.475 11.676857
57.480 11.599289
57.485 11.53399
57.490 11.458455
57.495 11.379833
57.500 11.627929
57.505 11.698233
57.510 11.884731
57.515 12.079854
57.520 12.290658
57.525 12.145551
57.530 12.015162
57.535 11.984704
57.540 11.924235
57.545 11.789396
57.550 12.274683
57.555 12.052124
57.560 12.434331
57.565 12.260344
57.570 12.346177
57.575 12.732681
57.580 12.728385
57.585 11.871504
57.590 11.895778
57.595 11.789832
57.600 12.108253
57.605 11.963907
57.610 11.834466
57.615 11.922934
57.620 12.09047
57.625 12.363305
57.630 12.362663
57.635 11.753942
57.640 11.865469
57.645 11.642006
57.650 11.604452
57.655 11.63322
57.660 11.750582
57.665 11.418002
57.670 11.326306
57.675 11.068996
57.680 11.241978
57.685 11.520687
57.690 11.659522
57.695 11.492385
57.700 11.845396
57.705 12.098837
57.710 12.298794
57.715 12.266901
57.720 12.079111
57.725 12.151298
57.730 12.530735
57.735 12.584158
57.740 12.356196
57.745 12.126081
57.750 11.652031
57.755 11.12952
57.760 10.935781
57.765 10.505336
57.770 10.232364
57.775 10.482573
57.780 10.374622
57.785 10.702222
57.790 10.934525
57.795 11.124102
57.800 10.956989
57.805 11.518441
57.810 11.778274
57.815 12.019741
57.820 12.259024
57.825 12.427934
57.830 12.213405
57.835 12.229492
57.840 11.726493
57.845 11.770627
57.850 11.99809
57.855 11.830639
57.860 11.632367
57.865 12.051767
57.870 12.861233
57.875 12.730032
57.880 12.083851
57.885 11.789655
57.890 11.867089
57.895 11.839505
57.900 11.39441
57.905 10.917504
57.910 11.595791
57.915 11.930175
57.920 12.237019
57.925 12.230547
57.930 12.389515
57.935 12.691977
57.940 12.581058
57.945 12.118016
57.950 12.288735
57.955 12.497573
57.960 12.699207
57.965 12.516282
57.970 12.490069
57.975 12.665754
57.980 13.015656
57.985 13.054134
57.990 12.741898
57.995 12.52091
58.000 12.663958
58.005 12.796257
58.010 12.947642
58.015 12.485623
58.020 12.087445
58.025 12.11709
58.030 12.143154
58.035 11.890991
58.040 11.598214
58.045 11.497624
58.050 12.033128
58.055 12.301341
58.060 12.556761
58.065 12.718928
58.070 13.482483
58.075 13.876046
58.080 14.328818
58.085 14.223155
58.090 14.185843
58.095 14.047496
58.100 14.114416
58.105 13.801364
58.110 13.092339
58.115 12.513308
58.120 12.65628
58.125 12.925884
58.130 13.001101
58.135 12.87993
58.140 13.006674
58.145 13.47994
58.150 13.689751
58.155 13.574976
58.160 13.192331
58.165 13.032143
58.170 12.494855
58.175 12.611251
58.180 12.897613
58.185 12.853691
58.190 12.815197
58.195 12.973476
58.200 13.374739
58.205 13.845572
58.210 13.49251
58.215 13.191549
58.220 13.127787
58.225 13.262681
58.230 12.837108
58.235 12.354559
58.240 12.100039
58.245 12.145404
58.250 11.43856
58.255 11.765455
58.260 11.947421
58.265 12.991411
58.270 13.777352
58.275 14.10189
58.280 14.839126
58.285 15.660017
58.290 15.363952
58.295 15.22609
58.300 15.409833
58.305 15.553559
58.310 15.75269
58.315 15.268704
58.320 15.539273
58.325 15.632358
58.330 15.804725
58.335 15.298299
58.340 15.260488
58.345 15.408587
58.350 16.242126
58.355 16.153114
58.360 16.65572
58.365 16.490009
58.370 16.552395
58.375 16.615961
58.380 15.847847
58.385 15.101834
58.390 15.56187
58.395 15.508738
58.400 15.622873
58.405 15.991261
58.410 16.44128
58.415 16.695211
58.420 17.504482
58.425 17.417248
58.430 17.546156
58.435 17.667246
58.440 17.097486
58.445 16.693798
58.450 16.877493
58.455 16.574907
58.460 16.666542
58.465 17.295044
58.470 17.705015
58.475 18.167198
58.480 19.085468
58.485 19.792429
58.490 20.854202
58.495 20.840124
58.500 20.525366
58.505 20.929914
58.510 20.826504
58.515 20.420057
58.520 20.216009
58.525 19.986868
58.530 20.538074
58.535 20.553549
58.540 20.633101
58.545 21.122028
58.550 21.41308
58.555 21.360394
58.560 21.92807
58.565 22.714409
58.570 23.295475
58.575 24.159342
58.580 24.409931
58.585 25.050936
58.590 25.958065
58.595 26.904932
58.600 26.747545
58.605 27.21841
58.610 27.218203
58.615 28.062899
58.620 28.456345
58.625 29.059755
58.630 29.358366
58.635 29.642885
58.640 29.993549
58.645 29.937796
58.650 29.777109
58.655 29.426603
58.660 28.91646
58.665 28.511469
58.670 27.25535
58.675 26.818924
58.680 26.826326
58.685 27.032175
58.690 27.164171
58.695 27.33514
58.700 27.682081
58.705 29.238361
58.710 29.138132
58.715 28.996122
58.720 28.826143
58.725 29.352154
58.730 29.051512
58.735 29.75234
58.740 29.55353
58.745 30.109335
58.750 30.188316
58.755 30.197264
58.760 30.312675
58.765 29.228474
58.770 28.038332
58.775 27.482491
58.780 26.387646
58.785 25.697523
58.790 25.087122
58.795 24.127403
58.800 24.387936
58.805 24.355719
58.810 24.377659
58.815 24.406656
58.820 24.341003
58.825 24.100004
58.830 23.637131
58.835 22.534161
58.840 22.601904
58.845 22.346455
58.850 22.708471
58.855 22.580839
58.860 22.513544
58.865 23.103025
58.870 23.535421
58.875 23.020224
58.880 22.614891
58.885 21.690098
58.890 21.091642
58.895 20.506744
58.900 19.855343
58.905 18.897047
58.910 18.110683
58.915 18.026146
58.920 17.865526
58.925 17.941296
58.930 17.810389
58.935 17.475956
58.940 17.281996
58.945 16.741261
58.950 16.613934
58.955 16.240232
58.960 16.467545
58.965 16.852859
58.970 16.936417
58.975 16.843971
58.980 17.565012
58.985 17.096392
58.990 16.738371
58.995 16.169788
59.000 15.469825
59.005 15.411242
59.010 15.190839
59.015 14.603104
59.020 14.779361
59.025 14.830104
59.030 14.311647
59.035 14.13881
59.040 14.328509
59.045 14.768663
59.050 14.543162
59.055 14.828797
59.060 14.982965
59.065 15.370069
59.070 15.332891
59.075 14.478191
59.080 14.211562
59.085 14.140086
59.090 13.999512
59.095 14.021373
59.100 14.060981
59.105 14.090686
59.110 14.254423
59.115 13.657765
59.120 13.348186
59.125 12.907299
59.130 12.413102
59.135 12.71029
59.140 12.55653
59.145 12.525426
59.150 12.770341
59.155 12.767047
59.160 12.71538
59.165 12.909384
59.170 12.821897
59.175 12.852962
59.180 13.102388
59.185 13.157131
59.190 12.830869
59.195 12.65565
59.200 12.99072
59.205 12.516494
59.210 12.432705
59.215 11.880792
59.220 11.751496
59.225 12.304557
59.230 12.764703
59.235 12.619585
59.240 12.879396
59.245 13.223966
59.250 14.187468
59.255 14.135062
59.260 14.388725
59.265 14.136784
59.270 13.845594
59.275 14.000307
59.280 13.630669
59.285 12.613822
59.290 13.073854
59.295 12.862678
59.300 13.189364
59.305 13.323256
59.310 12.963264
59.315 12.966424
59.320 13.330112
59.325 12.893569
59.330 12.563265
59.335 12.282141
59.340 12.317776
59.345 12.556225
59.350 12.731824
59.355 12.393527
59.360 12.363995
59.365 12.748792
59.370 12.363714
59.375 11.947684
59.380 11.668138
59.385 11.30416
59.390 11.738905
59.395 11.702312
59.400 11.886151
59.405 12.323888
59.410 12.594829
59.415 13.284855
59.420 14.314103
59.425 14.426042
59.430 14.396678
59.435 14.466909
59.440 14.804111
59.445 14.714252
59.450 14.679966
59.455 14.162871
59.460 14.418908
59.465 14.425401
59.470 14.117853
59.475 13.967712
59.480 13.952833
59.485 13.518236
59.490 13.157665
59.495 12.839887
59.500 12.657855
59.505 12.570953
59.510 12.539139
59.515 12.746005
59.520 13.046544
59.525 12.889925
59.530 12.680662
59.535 13.069805
59.540 13.12456
59.545 13.204402
59.550 12.769626
59.555 12.690143
59.560 13.245378
59.565 12.848003
59.570 12.091507
59.575 11.755637
59.580 11.397973
59.585 11.600013
59.590 11.295562
59.595 11.445234
59.600 11.946911
59.605 12.120672
59.610 12.123856
59.615 12.239742
59.620 11.813155
59.625 11.833837
59.630 11.472399
59.635 11.642942
59.640 11.918433
59.645 11.846085
59.650 11.872694
59.655 12.211864
59.660 11.904202
59.665 12.081487
59.670 11.845444
59.675 11.676216
59.680 11.705757
59.685 11.431284
59.690 11.233291
59.695 11.958188
59.700 12.149675
59.705 12.203935
59.710 12.359439
59.715 12.650939
59.720 12.986356
59.725 13.463429
59.730 13.090206
59.735 12.725363
59.740 12.985596
59.745 12.924988
59.750 12.620376
59.755 12.607046
59.760 12.291941
59.765 12.315183
59.770 12.259729
59.775 12.508241
59.780 12.633053
59.785 12.450081
59.790 12.223397
59.795 12.090273
59.800 12.178456
59.805 12.331486
59.810 12.304212
59.815 12.636583
59.820 13.271672
59.825 13.28045
59.830 13.389753
59.835 13.275934
59.840 13.036631
59.845 12.647004
59.850 12.010415
59.855 12.073287
59.860 12.08764
59.865 11.808623
59.870 11.896458
59.875 11.880913
59.880 11.886928
59.885 12.309554
59.890 12.587687
59.895 12.875622
59.900 13.082973
59.905 12.892892
59.910 12.722876
59.915 13.100133
59.920 13.13837
59.925 12.901547
59.930 12.478552
59.935 12.405677
59.940 12.486238
59.945 12.728602
59.950 12.324319
59.955 12.473238
59.960 12.475702
59.965 12.466613
59.970 12.759853
59.975 12.97756
59.980 13.128863
59.985 13.481576
59.990 13.743662
59.995 13.904604
60.000 14.250298
60.005 14.206037
60.010 14.106588
60.015 14.132162
60.020 13.730494
60.025 13.259207
60.030 13.268603
60.035 13.285387
60.040 13.010981
60.045 12.910143
60.050 12.529192
60.055 12.366577
60.060 12.314814
60.065 11.989468
60.070 11.669747
60.075 11.853856
60.080 11.875713
60.085 12.408252
60.090 12.326209
60.095 12.577792
60.100 12.984295
60.105 13.187585
60.110 12.948512
60.115 12.732553
60.120 12.523331
60.125 12.677911
60.130 12.720025
60.135 12.536218
60.140 12.691418
60.145 12.539847
60.150 12.48828
60.155 12.378427
60.160 12.474742
60.165 12.2047
60.170 12.230684
60.175 12.52877
60.180 12.987093
60.185 12.879845
60.190 13.235332
60.195 13.232492
60.200 13.154089
60.205 12.988949
60.210 12.543237
60.215 12.030046
60.220 12.186758
60.225 11.715359
60.230 11.579959
60.235 11.877108
60.240 11.891671
60.245 12.343011
60.250 12.804132
60.255 12.759976
60.260 13.138231
60.265 13.597713
60.270 13.718045
60.275 13.570167
60.280 13.172432
60.285 13.163432
60.290 13.211586
60.295 13.179631
60.300 12.68654
60.305 12.339456
60.310 12.793736
60.315 12.46524
60.320 12.611171
60.325 12.436163
60.330 12.643853
60.335 12.933762
60.340 12.749382
60.345 12.478875
60.350 12.610002
60.355 12.31951
60.360 12.267443
60.365 11.873748
60.370 11.916659
60.375 12.391444
60.380 12.687669
60.385 12.79723
60.390 13.075457
60.395 13.497847
60.400 13.842913
60.405 14.220877
60.410 14.057389
60.415 14.104156
60.420 14.171185
60.425 14.180266
60.430 14.09868
60.435 13.642062
60.440 13.283646
60.445 13.008642
60.450 12.608734
60.455 12.751735
60.460 12.973229
60.465 12.714894
60.470 12.411201
60.475 11.845387
60.480 11.722554
60.485 12.165303
60.490 12.259703
60.495 12.624857
60.500 13.149288
60.505 13.843103
60.510 14.324412
60.515 14.739245
60.520 14.474018
60.525 14.018522
60.530 13.448853
60.535 12.668693
60.540 12.302542
60.545 12.375735
60.550 12.110066
60.555 12.170447
60.560 12.199581
60.565 12.152166
60.570 12.018119
60.575 11.904896
60.580 11.781365
60.585 11.663019
60.590 12.073847
60.595 12.125365
60.600 12.38111
60.605 12.563045
60.610 12.887108
60.615 13.206056
60.620 13.631831
60.625 13.265758
60.630 13.148992
60.635 12.928529
60.640 13.256462
60.645 13.407433
60.650 13.462067
60.655 13.263958
60.660 13.72984
60.665 13.928063
60.670 13.994847
60.675 13.959053
60.680 13.767796
60.685 14.29522
60.690 14.359931
60.695 13.891735
60.700 13.940577
60.705 13.642101
60.710 13.260279
60.715 12.663923
60.720 11.625292
60.725 11.262968
60.730 10.942454
60.735 10.814785
60.740 10.857855
60.745 11.210567
60.750 11.859641
60.755 12.195638
60.760 12.595953
60.765 13.681651
60.770 13.908471
60.775 13.906191
60.780 13.424527
60.785 13.018473
60.790 13.196243
60.795 12.799952
60.800 12.148088
60.805 11.99086
60.810 12.493423
60.815 12.752935
60.820 12.783063
60.825 12.28103
60.830 12.487514
60.835 12.424645
60.840 12.324383
60.845 12.288043
60.850 12.301565
60.855 12.175953
60.860 12.264914
60.865 12.169777
60.870 12.017509
60.875 12.037761
60.880 11.624152
60.885 11.960309
60.890 12.14614
60.895 12.106759
60.900 12.203582
60.905 11.980932
60.910 12.131726
60.915 12.179956
60.920 12.052206
60.925 12.136162
60.930 12.338195
60.935 12.349119
60.940 12.694818
60.945 12.49253
60.950 12.685967
60.955 12.636839
60.960 12.503386
60.965 12.346825
60.970 12.474253
60.975 12.890405
60.980 13.33973
60.985 13.171753
60.990 12.929507
60.995 13.227633
61.000 12.998006
61.005 13.027106
61.010 12.655363
61.015 12.393814
61.020 12.846454
61.025 13.11575
61.030 13.564754
61.035 14.066297
61.040 13.830431
61.045 14.104196
61.050 14.054021
61.055 13.624632
61.060 13.220015
61.065 12.85915
61.070 13.002414
61.075 13.031627
61.080 13.150606
61.085 12.904488
61.090 13.128915
61.095 13.136968
61.100 13.177629
61.105 13.009891
61.110 12.987554
61.115 12.819757
61.120 12.933208
61.125 12.6416
61.130 12.804356
61.135 12.532864
61.140 12.511872
61.145 12.412497
61.150 12.36059
61.155 12.470125
61.160 13.11037
61.165 13.466846
61.170 13.636943
61.175 13.870478
61.180 14.176007
61.185 14.315143
61.190 14.318394
61.195 14.501568
61.200 14.200219
61.205 14.225016
61.210 13.738942
61.215 13.632646
61.220 13.88845
61.225 14.198752
61.230 13.69206
61.235 13.42837
61.240 13.164796
61.245 13.172837
61.250 13.012056
61.255 12.66814
61.260 12.390658
61.265 12.344951
61.270 12.326182
61.275 12.357241
61.280 12.468167
61.285 12.924546
61.290 13.124624
61.295 12.761805
61.300 12.930665
61.305 13.857908
61.310 14.45315
61.315 14.494028
61.320 13.954698
61.325 13.833596
61.330 14.26479
61.335 14.19099
61.340 13.567235
61.345 12.966257
61.350 13.001897
61.355 13.566607
61.360 14.106253
61.365 14.072551
61.370 14.033089
61.375 14.239889
61.380 14.64099
61.385 14.083785
61.390 13.469894
61.395 12.891579
61.400 13.130997
61.405 13.544722
61.410 13.629462
61.415 13.672838
61.420 14.018199
61.425 14.162512
61.430 14.80579
61.435 14.690639
61.440 14.345473
61.445 13.792255
61.450 13.657077
61.455 14.017813
61.460 13.73909
61.465 12.978729
61.470 12.366072
61.475 12.535367
61.480 13.233709
61.485 13.49895
61.490 13.652711
61.495 13.995403
61.500 14.411551
61.505 15.064676
61.510 14.987455
61.515 14.940976
61.520 14.697075
61.525 14.268125
61.530 14.198372
61.535 13.947311
61.540 13.939971
61.545 14.020566
61.550 14.081553
61.555 14.309886
61.560 14.606689
61.565 14.827211
61.570 14.951525
61.575 14.953609
61.580 14.444798
61.585 14.256043
61.590 14.540627
61.595 14.30594
61.600 13.759721
61.605 13.886938
61.610 13.819227
61.615 14.446744
61.620 14.097589
61.625 13.207965
61.630 13.141213
61.635 13.81427
61.640 14.026155
61.645 13.968196
61.650 13.717972
61.655 13.811757
61.660 14.353528
61.665 14.443904
61.670 14.157475
61.675 13.42144
61.680 13.413259
61.685 13.305181
61.690 13.091685
61.695 12.758202
61.700 12.584627
61.705 12.469577
61.710 12.539904
61.715 12.48046
61.720 12.589389
61.725 12.730302
61.730 12.917469
61.735 12.83779
61.740 13.33213
61.745 13.152017
61.750 13.045586
61.755 13.098215
61.760 13.155232
61.765 13.165621
61.770 13.322831
61.775 13.096086
61.780 13.130933
61.785 13.456237
61.790 13.58443
61.795 13.831025
61.800 13.821324
61.805 13.764732
61.810 14.151081
61.815 14.767584
61.820 14.98235
61.825 15.047728
61.830 14.892784
61.835 15.204765
61.840 15.385139
61.845 15.008296
61.850 14.806497
61.855 14.598939
61.860 14.643275
61.865 14.255568
61.870 14.041693
61.875 14.131673
61.880 14.510668
61.885 14.939652
61.890 14.874503
61.895 14.81991
61.900 15.182183
61.905 15.560734
61.910 15.471969
61.915 15.357981
61.920 14.94769
61.925 14.889646
61.930 14.504881
61.935 14.290248
61.940 14.025818
61.945 13.943208
61.950 13.902599
61.955 13.546237
61.960 13.248432
61.965 13.678623
61.970 14.430357
61.975 14.936035
61.980 14.663507
61.985 14.34523
61.990 15.012997
61.995 15.71074
62.000 15.774329
62.005 15.011921
62.010 14.406396
62.015 14.423935
62.020 14.671328
62.025 14.431726
62.030 13.730651
62.035 13.23324
62.040 13.04846
62.045 13.256406
62.050 13.587271
62.055 13.238688
62.060 12.959538
62.065 12.980891
62.070 12.959892
62.075 13.020569
62.080 12.762874
62.085 12.50839
62.090 13.115479
62.095 13.492071
62.100 13.56904
62.105 13.883821
62.110 14.064693
62.115 14.468438
62.120 14.475776
62.125 14.244453
62.130 14.026278
62.135 14.241219
62.140 14.177313
62.145 14.361424
62.150 14.247097
62.155 14.230126
62.160 14.052817
62.165 14.275594
62.170 14.548634
62.175 14.66904
62.180 14.165927
62.185 13.48076
62.190 13.577443
62.195 13.492225
62.200 13.548205
62.205 13.531431
62.210 13.008327
62.215 13.090854
62.220 13.888898
62.225 13.659409
62.230 13.967345
62.235 13.396008
62.240 13.467978
62.245 13.928142
62.250 13.740919
62.255 13.883919
62.260 13.671926
62.265 13.435842
62.270 13.45826
62.275 13.352363
62.280 13.1607
62.285 13.374125
62.290 12.804126
62.295 13.232415
62.300 13.471176
62.305 13.294097
62.310 13.054388
62.315 13.724838
62.320 13.889132
62.325 14.068536
62.330 13.929403
62.335 13.924949
62.340 14.453443
62.345 14.582895
62.350 14.457376
62.355 14.518417
62.360 14.276839
62.365 14.684144
62.370 14.697424
62.375 14.940127
62.380 15.01384
62.385 14.383018
62.390 14.193952
62.395 14.125056
62.400 13.209019
62.405 12.948271
62.410 12.883563
62.415 12.848478
62.420 13.056299
62.425 12.962644
62.430 13.327236
62.435 13.965748
62.440 13.949887
62.445 13.618635
62.450 13.702305
62.455 14.113298
62.460 14.495272
62.465 14.331993
62.470 14.195437
62.475 14.703827
62.480 14.703001
62.485 14.334083
62.490 14.225752
62.495 14.240964
62.500 14.392791
62.505 13.929244
62.510 13.634269
62.515 13.858267
62.520 14.039635
62.525 14.388891
62.530 14.277187
62.535 14.394189
62.540 14.767418
62.545 14.945709
62.550 15.222054
62.555 14.836234
62.560 14.603515
62.565 14.464025
62.570 14.468451
62.575 14.235589
62.580 13.689588
62.585 13.4692
62.590 13.962271
62.595 13.888453
62.600 13.720737
62.605 13.743438
62.610 13.657282
62.615 14.104303
62.620 13.979765
62.625 13.578385
62.630 13.719552
62.635 13.945738
62.640 14.112288
62.645 13.925448
62.650 13.997418
62.655 14.578005
62.660 14.593869
62.665 14.147414
62.670 13.80827
62.675 13.94332
62.680 14.069241
62.685 13.924528
62.690 13.576588
62.695 13.674186
62.700 13.861303
62.705 14.153336
62.710 14.161594
62.715 14.257868
62.720 14.177231
62.725 13.900373
62.730 14.20188
62.735 14.540891
62.740 14.68004
62.745 14.660207
62.750 14.675142
62.755 14.606856
62.760 14.67841
62.765 14.733888
62.770 14.826098
62.775 14.566931
62.780 14.497477
62.785 14.546111
62.790 14.373477
62.795 14.073316
62.800 13.509659
62.805 13.276557
62.810 13.680289
62.815 13.662191
62.820 14.092814
62.825 14.749942
62.830 15.073531
62.835 15.100788
62.840 15.132745
62.845 15.162233
62.850 15.450565
62.855 15.05362
62.860 15.369853
62.865 15.747777
62.870 15.970843
62.875 15.726695
62.880 15.105248
62.885 14.813134
62.890 14.588126
62.895 14.101423
62.900 14.008066
62.905 13.741229
62.910 13.730157
62.915 13.976885
62.920 14.097132
62.925 13.744867
62.930 13.648226
62.935 13.442484
62.940 13.79215
62.945 13.866668
62.950 13.718498
62.955 14.31995
62.960 14.71413
62.965 14.775519
62.970 15.346399
62.975 14.946518
62.980 14.585502
62.985 14.323322
62.990 13.903318
62.995 14.168596
63.000 14.099928
63.005 13.818935
63.010 13.983605
63.015 14.261739
63.020 14.85898
63.025 14.5723
63.030 14.082177
63.035 14.468019
63.040 14.262748
63.045 14.122406
63.050 14.246038
63.055 13.379213
63.060 13.793497
63.065 13.893906
63.070 13.855382
63.075 14.231987
63.080 14.521853
63.085 14.328099
63.090 14.73779
63.095 14.82147
63.100 14.880779
63.105 14.773738
63.110 14.486161
63.115 14.789324
63.120 14.873001
63.125 14.868093
63.130 14.595791
63.135 14.601794
63.140 14.493768
63.145 14.415882
63.150 13.876496
63.155 14.081957
63.160 14.359956
63.165 14.087566
63.170 14.315745
63.175 14.569211
63.180 14.312206
63.185 14.549426
63.190 14.418394
63.195 14.486254
63.200 15.017332
63.205 14.82163
63.210 14.483123
63.215 14.858789
63.220 14.877796
63.225 15.022178
63.230 14.890398
63.235 14.421445
63.240 14.767133
63.245 15.030622
63.250 15.373862
63.255 15.469473
63.260 15.094499
63.265 14.688867
63.270 14.465523
63.275 14.148379
63.280 13.711586
63.285 13.423691
63.290 13.777781
63.295 13.973503
63.300 14.621657
63.305 15.284146
63.310 15.08118
63.315 15.118637
63.320 14.950319
63.325 14.732268
63.330 15.368897
63.335 15.060881
63.340 14.59629
63.345 14.77704
63.350 14.558812
63.355 14.598203
63.360 14.40342
63.365 13.578203
63.370 13.420714
63.375 13.421599
63.380 14.014141
63.385 15.360295
63.390 15.881928
63.395 15.938067
63.400 15.723117
63.405 15.730312
63.410 15.710096
63.415 15.76623
63.420 14.93268
63.425 14.455302
63.430 14.911896
63.435 15.196934
63.440 15.643473
63.445 16.021698
63.450 15.467484
63.455 14.881283
63.460 14.989215
63.465 14.691812
63.470 15.374465
63.475 15.020075
63.480 14.518489
63.485 14.550146
63.490 14.885194
63.495 15.126462
63.500 14.941065
63.505 14.408485
63.510 14.715062
63.515 14.747034
63.520 15.399211
63.525 15.8713
63.530 15.93111
63.535 16.448833
63.540 17.024323
63.545 17.226292
63.550 17.148655
63.555 16.934107
63.560 17.004879
63.565 16.927176
63.570 16.268652
63.575 15.855577
63.580 15.815107
63.585 15.605004
63.590 15.108869
63.595 14.90451
63.600 14.802672
63.605 15.162647
63.610 14.79851
63.615 14.641753
63.620 14.940366
63.625 15.06168
63.630 15.418597
63.635 15.171228
63.640 14.855292
63.645 14.946341
63.650 14.767306
63.655 14.443689
63.660 14.518837
63.665 14.048399
63.670 14.119896
63.675 14.522239
63.680 14.984118
63.685 15.247377
63.690 16.140915
63.695 16.019411
63.700 16.02949
63.705 16.259855
63.710 16.365442
63.715 16.756828
63.720 16.606031
63.725 16.217396
63.730 16.187576
63.735 16.023882
63.740 16.064627
63.745 16.310278
63.750 16.224195
63.755 16.244162
63.760 15.818785
63.765 16.063843
63.770 16.294701
63.775 16.404594
63.780 16.469114
63.785 16.610502
63.790 16.369606
63.795 16.668919
63.800 17.112062
63.805 16.838036
63.810 16.074781
63.815 15.703612
63.820 15.445116
63.825 15.625834
63.830 15.709759
63.835 15.755657
63.840 16.202557
63.845 16.639355
63.850 16.221479
63.855 16.089706
63.860 16.465807
63.865 16.762985
63.870 16.434088
63.875 15.851732
63.880 15.778881
63.885 16.187042
63.890 16.597752
63.895 16.728525
63.900 16.663517
63.905 16.535038
63.910 16.56745
63.915 15.826966
63.920 15.345013
63.925 14.953719
63.930 14.905291
63.935 14.982791
63.940 15.510426
63.945 16.46735
63.950 17.049561
63.955 17.439371
63.960 17.578753
63.965 18.052231
63.970 17.977066
63.975 17.58366
63.980 17.08671
63.985 17.276215
63.990 17.676641
63.995 18.450968
64.000 18.175812
64.005 18.245567
64.010 18.920979
64.015 19.839996
64.020 20.471397
64.025 20.450806
64.030 19.739861
64.035 19.694735
64.040 19.466373
64.045 19.600464
64.050 19.312233
64.055 18.730417
64.060 18.495831
64.065 18.956066
64.070 18.976999
64.075 19.207037
64.080 19.137611
64.085 19.494738
64.090 19.206171
64.095 19.1471
64.100 18.992609
64.105 19.483324
64.110 19.478977
64.115 19.168299
64.120 19.244059
64.125 19.920427
64.130 20.757635
64.135 20.968351
64.140 20.910202
64.145 20.839783
64.150 21.052631
64.155 21.079456
64.160 21.137493
64.165 21.217751
64.170 21.325621
64.175 21.992826
64.180 22.976809
64.185 24.267645
64.190 24.970047
64.195 25.409521
64.200 25.6161
64.205 26.029335
64.210 25.88699
64.215 25.847729
64.220 25.384628
64.225 25.848366
64.230 26.724049
64.235 27.492838
64.240 28.043392
64.245 28.468559
64.250 29.331825
64.255 31.085291
64.260 31.924885
64.265 31.615532
64.270 31.628719
64.275 31.891346
64.280 31.895824
64.285 31.651661
64.290 30.951742
64.295 30.6875
64.300 30.815624
64.305 30.782093
64.310 31.19038
64.315 31.376677
64.320 32.097748
64.325 33.349522
64.330 34.540287
64.335 35.214031
64.340 36.516159
64.345 37.185814
64.350 37.750248
64.355 37.825481
64.360 38.496902
64.365 39.222076
64.370 40.148117
64.375 39.929989
64.380 40.913929
64.385 41.560936
64.390 42.314358
64.395 42.359367
64.400 42.537231
64.405 42.701248
64.410 43.31591
64.415 42.415722
64.420 43.080254
64.425 43.47221
64.430 43.633945
64.435 43.245438
64.440 43.682938
64.445 43.671459
64.450 44.052483
64.455 43.080414
64.460 42.187508
64.465 42.360115
64.470 42.727562
64.475 42.28199
64.480 43.053997
64.485 43.157394
64.490 43.53928
64.495 44.045147
64.500 43.798916
64.505 43.604282
64.510 42.896427
64.515 41.585697
64.520 41.291565
64.525 40.539368
64.530 39.406261
64.535 38.623955
64.540 38.476887
64.545 38.436127
64.550 38.081596
64.555 38.023304
64.560 37.350475
64.565 36.975121
64.570 36.257683
64.575 35.512737
64.580 34.604031
64.585 33.860664
64.590 32.87207
64.595 32.751217
64.600 32.880005
64.605 32.503693
64.610 32.330208
64.615 32.539234
64.620 32.351589
64.625 32.447243
64.630 32.267548
64.635 32.032394
64.640 31.84734
64.645 31.546726
64.650 31.107023
64.655 31.085091
64.660 30.121044
64.665 29.625675
64.670 28.573767
64.675 28.08724
64.680 27.437977
64.685 27.147781
64.690 27.216539
64.695 27.5161
64.700 27.621695
64.705 27.786945
64.710 27.647238
64.715 27.033356
64.720 26.097727
64.725 25.383862
64.730 25.181795
64.735 24.899382
64.740 24.3505
64.745 23.616413
64.750 23.266186
64.755 23.291407
64.760 22.299809
64.765 21.997368
64.770 22.104153
64.775 22.429016
64.780 22.700912
64.785 22.560759
64.790 22.727325
64.795 23.347607
64.800 22.948259
64.805 22.319317
64.810 21.527018
64.815 21.067568
64.820 20.753925
64.825 20.630943
64.830 20.280056
64.835 20.254341
64.840 20.27854
64.845 20.665867
64.850 20.510521
64.855 20.731026
64.860 20.444958
64.865 20.599979
64.870 20.109385
64.875 20.142838
64.880 19.862844
64.885 19.547733
64.890 20.220106
64.895 20.895296
64.900 20.942966
64.905 21.034801
64.910 20.496653
64.915 20.447788
64.920 20.343414
64.925 19.438353
64.930 19.18222
64.935 19.663654
64.940 20.060577
64.945 20.213079
64.950 20.241484
64.955 20.126915
64.960 20.643747
64.965 21.170927
64.970 21.286785
64.975 21.892916
64.980 22.018951
64.985 23.023386
64.990 24.088446
64.995 24.177225
65.000 23.927778
65.005 23.817316
65.010 23.730286
65.015 24.208071
65.020 25.036964
65.025 25.026783
65.030 25.229555
65.035 25.203001
65.040 25.718086
65.045 26.741684
65.050 27.239101
65.055 26.831665
65.060 26.888199
65.065 27.001472
65.070 27.828468
65.075 28.00824
65.080 27.440836
65.085 27.03632
65.090 28.10684
65.095 29.41387
65.100 30.085661
65.105 29.979445
65.110 30.541653
65.115 30.996595
65.120 31.667585
65.125 30.92284
65.130 30.413773
65.135 31.050034
65.140 31.143309
65.145 30.691183
65.150 30.729223
65.155 30.496761
65.160 30.711084
65.165 31.228619
65.170 31.45269
65.175 31.974943
65.180 32.403103
65.185 33.400223
65.190 33.845959
65.195 34.756866
65.200 34.107513
65.205 33.466244
65.210 33.478458
65.215 32.82251
65.220 32.409122
65.225 32.182919
65.230 31.876793
65.235 32.446693
65.240 32.664997
65.245 32.428711
65.250 33.6973
65.255 34.10078
65.260 34.688435
65.265 34.950493
65.270 34.897594
65.275 34.709206
65.280 34.698395
65.285 33.581692
65.290 33.439465
65.295 33.535812
65.300 33.191364
65.305 33.549782
65.310 34.02758
65.315 33.89822
65.320 34.164921
65.325 34.486126
65.330 33.845032
65.335 33.127029
65.340 32.543789
65.345 31.830145
65.350 32.10701
65.355 31.961342
65.360 31.832018
65.365 32.03421
65.370 32.158218
65.375 31.99028
65.380 32.644585
65.385 32.641903
65.390 32.968987
65.395 33.12476
65.400 33.307499
65.405 33.713177
65.410 33.998795
65.415 33.815804
65.420 33.382561
65.425 33.513771
65.430 33.292809
65.435 33.91227
65.440 34.541363
65.445 34.746071
65.450 35.230133
65.455 35.531242
65.460 34.950905
65.465 34.334251
65.470 33.975208
65.475 33.15192
65.480 33.203545
65.485 33.01516
65.490 33.661552
65.495 34.014118
65.500 33.935333
65.505 33.451302
65.510 33.640728
65.515 33.384636
65.520 32.671398
65.525 31.869776
65.530 32.071491
65.535 32.446434
65.540 33.102253
65.545 33.419941
65.550 33.517902
65.555 34.496616
65.560 34.791988
65.565 34.119904
65.570 33.895935
65.575 32.77956
65.580 32.328434
65.585 31.452896
65.590 30.432007
65.595 30.471729
65.600 30.109013
65.605 29.857143
65.610 29.64995
65.615 29.249184
65.620 29.510197
65.625 29.768906
65.630 29.671577
65.635 29.807386
65.640 29.612701
65.645 29.931314
65.650 30.295221
65.655 30.597033
65.660 30.862587
65.665 30.571966
65.670 30.734982
65.675 30.691118
65.680 29.676088
65.685 29.086317
65.690 28.543093
65.695 27.772102
65.700 28.144503
65.705 28.2099
65.710 28.84528
65.715 28.362829
65.720 28.370743
65.725 28.582449
65.730 29.090387
65.735 29.471704
65.740 29.34687
65.745 28.958401
65.750 29.240053
65.755 28.682436
65.760 28.388662
65.765 27.020405
65.770 26.061588
65.775 25.641933
65.780 25.959469
65.785 25.855217
65.790 25.823746
65.795 25.128448
65.800 25.363827
65.805 24.772169
65.810 23.936199
65.815 23.278791
65.820 23.356159
65.825 23.785131
65.830 23.9844
65.835 24.383068
65.840 24.685869
65.845 25.25367
65.850 25.55258
65.855 25.046129
65.860 24.839966
65.865 25.050016
65.870 24.457722
65.875 24.270267
65.880 24.153378
65.885 23.694851
65.890 23.888571
65.895 23.675602
65.900 23.407644
65.905 22.868917
65.910 22.713457
65.915 22.659634
65.920 22.592543
65.925 22.722326
65.930 22.529987
65.935 22.868959
65.940 22.669632
65.945 22.111185
65.950 21.611921
65.955 21.085241
65.960 20.088083
65.965 19.151434
65.970 18.925459
65.975 19.390551
65.980 19.271399
65.985 19.011978
65.990 18.842941
65.995 18.789194
66.000 18.951893
66.005 18.879101
66.010 18.627903
66.015 18.28285
66.020 18.412216
66.025 18.762463
66.030 18.455482
66.035 18.736856
66.040 18.1798
66.045 17.854204
66.050 18.087488
66.055 18.423212
66.060 18.118
66.065 17.964483
66.070 17.847593
66.075 18.441593
66.080 18.841209
66.085 18.689451
66.090 18.108227
66.095 18.124489
66.100 18.073277
66.105 17.675774
66.110 17.521009
66.115 17.453005
66.120 17.640902
66.125 17.720942
66.130 18.192015
66.135 18.400829
66.140 18.17848
66.145 17.935337
66.150 18.057575
66.155 18.168219
66.160 17.909254
66.165 17.568113
66.170 17.218559
66.175 17.438965
66.180 17.252653
66.185 16.990637
66.190 16.705206
66.195 17.030609
66.200 16.583399
66.205 16.334871
66.210 16.72072
66.215 16.943401
66.220 16.600281
66.225 16.9333
66.230 16.7775
66.235 16.8407
66.240 16.813314
66.245 16.259819
66.250 16.219719
66.255 16.485285
66.260 16.424637
66.265 16.493126
66.270 16.868229
66.275 17.187216
66.280 17.157488
66.285 17.016823
66.290 17.193897
66.295 17.431498
66.300 17.377771
66.305 17.211437
66.310 16.929419
66.315 16.873938
66.320 16.504858
66.325 16.097588
66.330 16.47266
66.335 16.50643
66.340 16.66135
66.345 16.999083
66.350 17.158289
66.355 17.32477
66.360 16.837524
66.365 15.865936
66.370 15.582189
66.375 14.799219
66.380 14.187342
66.385 14.239192
66.390 14.623359
66.395 15.350864
66.400 15.376931
66.405 16.164688
66.410 17.267332
66.415 17.381577
66.420 17.115259
66.425 16.951157
66.430 16.721308
66.435 16.515575
66.440 16.191755
66.445 15.98068
66.450 16.253204
66.455 15.970934
66.460 15.680532
66.465 15.997597
66.470 16.786264
66.475 16.387081
66.480 16.360731
66.485 16.236095
66.490 16.334232
66.495 16.677591
66.500 16.270512
66.505 15.85733
66.510 16.056332
66.515 16.091696
66.520 16.751976
66.525 17.010387
66.530 16.770033
66.535 16.857403
66.540 16.604187
66.545 16.422529
66.550 16.308735
66.555 15.55699
66.560 15.012851
66.565 15.261182
66.570 15.960433
66.575 16.345552
66.580 16.142181
66.585 15.793255
66.590 15.883387
66.595 16.077995
66.600 16.168421
66.605 15.996999
66.610 15.7306
66.615 16.165174
66.620 16.251396
66.625 16.414103
66.630 16.811602
66.635 16.8347
66.640 16.742283
66.645 16.764063
66.650 16.439425
66.655 16.898554
66.660 16.986084
66.665 16.93704
66.670 16.832399
66.675 16.719692
66.680 16.642521
66.685 17.130152
66.690 17.173233
66.695 16.974466
66.700 16.621014
66.705 16.172087
66.710 16.154573
66.715 15.92433
66.720 15.539516
66.725 14.922636
66.730 14.77339
66.735 15.088356
66.740 15.503252
66.745 15.132074
66.750 15.507789
66.755 15.483062
66.760 15.698541
66.765 15.893958
66.770 15.45693
66.775 15.510244
66.780 15.784091
66.785 15.317952
66.790 15.712621
66.795 15.923289
66.800 15.676545
66.805 15.682939
66.810 15.206805
66.815 15.470819
66.820 15.923676
66.825 15.753698
66.830 15.794875
66.835 16.20731
66.840 16.861361
66.845 16.862028
66.850 16.330673
66.855 15.683501
66.860 15.308999
66.865 15.295321
66.870 15.217271
66.875 14.909286
66.880 15.090431
66.885 15.853646
66.890 16.349665
66.895 16.630285
66.900 16.178612
66.905 15.351696
66.910 15.155091
66.915 15.002544
66.920 15.006844
66.925 15.092484
66.930 15.325452
66.935 15.176357
66.940 15.354976
66.945 16.23362
66.950 16.507235
66.955 16.222847
66.960 16.061052
66.965 16.289583
66.970 17.295965
66.975 17.299421
66.980 17.215824
66.985 17.485411
66.990 17.806656
66.995 17.845621
67.000 17.610018
67.005 17.584053
67.010 17.784779
67.015 17.196943
67.020 16.97826
67.025 16.61797
67.030 16.479616
67.035 16.391022
67.040 16.033007
67.045 15.926127
67.050 16.05261
67.055 15.963975
67.060 15.901178
67.065 15.804616
67.070 15.679392
67.075 16.223051
67.080 16.508375
67.085 16.318783
67.090 16.094847
67.095 16.150606
67.100 15.822324
67.105 15.752885
67.110 15.384668
67.115 15.330704
67.120 15.547224
67.125 15.751685
67.130 15.84156
67.135 15.808322
67.140 15.154591
67.145 15.20246
67.150 15.360003
67.155 15.270979
67.160 15.020773
67.165 15.279203
67.170 15.896569
67.175 16.226875
67.180 16.237476
67.185 15.719179
67.190 15.908105
67.195 16.263517
67.200 16.121313
67.205 16.101257
67.210 15.842829
67.215 15.56653
67.220 15.881714
67.225 15.728701
67.230 15.788073
67.235 15.481681
67.240 15.375325
67.245 15.287988
67.250 15.292435
67.255 15.596389
67.260 15.459083
67.265 15.154352
67.270 15.14959
67.275 15.70737
67.280 16.095812
67.285 16.316973
67.290 15.724463
67.295 15.090058
67.300 15.277202
67.305 15.616854
67.310 15.581037
67.315 16.003174
67.320 15.399003
67.325 15.724715
67.330 16.594353
67.335 16.622829
67.340 16.31757
67.345 16.146248
67.350 16.203516
67.355 16.711971
67.360 16.599216
67.365 16.331509
67.370 16.156441
67.375 15.942486
67.380 15.546312
67.385 15.107394
67.390 15.104067
67.395 15.281574
67.400 15.596128
67.405 16.078249
67.410 16.624992
67.415 17.480078
67.420 17.621506
67.425 17.486635
67.430 17.399284
67.435 16.859707
67.440 16.806602
67.445 16.442766
67.450 15.659931
67.455 15.471788
67.460 15.187575
67.465 15.396718
67.470 15.796544
67.475 15.460138
67.480 15.179642
67.485 15.672215
67.490 16.11113
67.495 16.354368
67.500 16.864061
67.505 16.477591
67.510 16.582392
67.515 16.923586
67.520 17.110718
67.525 16.941227
67.530 17.046347
67.535 16.589214
67.540 16.934292
67.545 16.9676
67.550 16.757954
67.555 16.483234
67.560 16.315554
67.565 16.225306
67.570 16.157425
67.575 15.952178
67.580 16.150301
67.585 15.961257
67.590 15.33565
67.595 15.384479
67.600 15.063615
67.605 14.890552
67.610 15.064996
67.615 15.29634
67.620 15.552732
67.625 15.899571
67.630 15.744262
67.635 15.879611
67.640 15.635479
67.645 15.58103
67.650 15.626266
67.655 16.161682
67.660 16.581362
67.665 17.154568
67.670 17.816755
67.675 18.108267
67.680 17.993788
67.685 17.806175
67.690 17.248543
67.695 16.865583
67.700 16.09741
67.705 15.627229
67.710 15.415864
67.715 15.778796
67.720 16.277786
67.725 16.67293
67.730 17.044216
67.735 17.415346
67.740 17.359966
67.745 17.724958
67.750 17.777565
67.755 17.470041
67.760 17.443363
67.765 17.823452
67.770 17.90691
67.775 18.021814
67.780 17.601583
67.785 17.092508
67.790 16.907581
67.795 17.019396
67.800 17.288351
67.805 17.605726
67.810 18.241129
67.815 18.826817
67.820 18.659418
67.825 18.482994
67.830 17.968729
67.835 17.590248
67.840 17.250526
67.845 16.840534
67.850 16.226553
67.855 16.872448
67.860 17.217735
67.865 17.918991
67.870 17.992495
67.875 17.94672
67.880 17.789684
67.885 17.794245
67.890 17.074209
67.895 16.851789
67.900 16.608381
67.905 16.674395
67.910 16.702038
67.915 16.710379
67.920 16.931341
67.925 17.138865
67.930 16.869926
67.935 16.666399
67.940 16.621119
67.945 17.236814
67.950 17.29776
67.955 17.456444
67.960 17.697836
67.965 18.174124
67.970 18.237019
67.975 17.98904
67.980 18.024853
67.985 18.287464
67.990 17.95171
67.995 18.397833
68.000 18.62804
68.005 18.999619
68.010 19.14996
68.015 19.275597
68.020 19.202427
68.025 19.850138
68.030 18.919569
68.035 18.598875
68.040 17.752193
68.045 17.387831
68.050 16.759403
68.055 16.905319
68.060 16.674295
68.065 16.807384
68.070 16.398138
68.075 16.675499
68.080 16.625347
68.085 16.534252
68.090 16.296867
68.095 16.504667
68.100 16.556381
68.105 17.242233
68.110 17.366541
68.115 17.279013
68.120 17.469667
68.125 17.92157
68.130 17.850771
68.135 18.103767
68.140 18.456074
68.145 18.399715
68.150 18.951191
68.155 19.369164
68.160 19.338207
68.165 19.670567
68.170 19.99391
68.175 19.24457
68.180 19.182737
68.185 19.224056
68.190 19.096653
68.195 18.35515
68.200 17.645264
68.205 17.101604
68.210 17.376495
68.215 17.445213
68.220 16.740002
68.225 17.134653
68.230 17.777824
68.235 17.607836
68.240 17.899269
68.245 18.813576
68.250 19.310198
68.255 19.90159
68.260 19.923508
68.265 20.507778
68.270 21.668663
68.275 21.732218
68.280 21.760937
68.285 22.228081
68.290 22.400368
68.295 21.932196
68.300 22.071651
68.305 22.582497
68.310 22.915749
68.315 23.225248
68.320 23.306026
68.325 23.504448
68.330 23.632429
68.335 23.048765
68.340 22.812254
68.345 22.959606
68.350 23.018354
68.355 23.825382
68.360 24.262739
68.365 25.151806
68.370 25.388441
68.375 25.461498
68.380 26.236549
68.385 26.362446
68.390 25.879505
68.395 26.281385
68.400 26.749685
68.405 26.904419
68.410 26.804708
68.415 26.72974
68.420 27.745586
68.425 28.077551
68.430 27.94269
68.435 28.063005
68.440 28.248331
68.445 28.882429
68.450 28.815775
68.455 28.763506
68.460 28.724556
68.465 28.740238
68.470 28.62125
68.475 28.972826
68.480 29.000202
68.485 29.561888
68.490 29.111013
68.495 29.310835
68.500 29.374182
68.505 29.742783
68.510 29.241013
68.515 29.396416
68.520 29.265865
68.525 29.134167
68.530 29.699081
68.535 29.831148
68.540 29.733408
68.545 30.017239
68.550 29.422092
68.555 30.09894
68.560 30.410439
68.565 30.017551
68.570 30.744717
68.575 31.215071
68.580 32.481018
68.585 32.739643
68.590 32.196827
68.595 32.66954
68.600 32.297192
68.605 31.400665
68.610 31.01615
68.615 30.146011
68.620 29.416214
68.625 29.046824
68.630 29.153971
68.635 29.30998
68.640 29.997099
68.645 29.790981
68.650 29.691772
68.655 30.299274
68.660 30.826624
68.665 30.825914
68.670 31.072126
68.675 30.477621
68.680 30.750114
68.685 30.747797
68.690 31.11455
68.695 31.342422
68.700 30.480551
68.705 30.423658
68.710 30.636793
68.715 30.283485
68.720 30.068233
68.725 29.226046
68.730 28.967045
68.735 29.559391
68.740 29.552334
68.745 29.879221
68.750 29.700769
68.755 29.995029
68.760 30.677311
68.765 31.293928
68.770 31.259148
68.775 30.696562
68.780 30.470806
68.785 30.91209
68.790 31.135246
68.795 30.935856
68.800 30.597961
68.805 30.243567
68.810 30.585339
68.815 30.632648
68.820 30.516436
68.825 30.687683
68.830 30.536396
68.835 30.141481
68.840 30.191099
68.845 29.916965
68.850 30.136305
68.855 30.192148
68.860 29.416336
68.865 28.479031
68.870 28.70323
68.875 28.306089
68.880 27.95577
68.885 27.888569
68.890 27.132967
68.895 27.051407
68.900 27.459154
68.905 27.200672
68.910 27.235271
68.915 26.911217
68.920 26.271311
68.925 26.437769
68.930 26.564684
68.935 25.669409
68.940 25.15386
68.945 25.188639
68.950 25.63069
68.955 25.558754
68.960 25.678055
68.965 25.763674
68.970 26.027708
68.975 26.408045
68.980 26.36578
68.985 26.480072
68.990 26.879793
68.995 26.285299
69.000 26.024509
69.005 25.716156
69.010 25.748354
69.015 25.076557
69.020 24.575212
69.025 24.551619
69.030 24.688274
69.035 25.115715
69.040 25.38872
69.045 25.550928
69.050 26.200249
69.055 26.118126
69.060 25.579437
69.065 24.847153
69.070 24.379433
69.075 24.180529
69.080 24.351419
69.085 23.406813
69.090 23.239742
69.095 23.370125
69.100 23.543903
69.105 23.352392
69.110 23.071005
69.115 22.496916
69.120 21.974615
69.125 21.682108
69.130 21.948149
69.135 21.550072
69.140 20.872541
69.145 20.377481
69.150 20.858576
69.155 20.752016
69.160 20.264996
69.165 20.192945
69.170 20.482449
69.175 21.763006
69.180 22.13113
69.185 21.804319
69.190 22.310452
69.195 22.379328
69.200 22.525831
69.205 22.40424
69.210 20.930185
69.215 20.279295
69.220 20.427198
69.225 20.431112
69.230 20.401867
69.235 20.10091
69.240 19.815142
69.245 19.247105
69.250 19.215481
69.255 19.588322
69.260 20.000353
69.265 20.130903
69.270 20.113508
69.275 20.037657
69.280 20.092192
69.285 19.987091
69.290 19.379467
69.295 18.639147
69.300 18.46365
69.305 18.516758
69.310 18.868584
69.315 19.443712
69.320 19.213356
69.325 19.335079
69.330 19.362001
69.335 19.335049
69.340 19.039276
69.345 18.898876
69.350 17.962143
69.355 17.814167
69.360 17.855051
69.365 17.873772
69.370 17.984463
69.375 18.221689
69.380 18.642309
69.385 18.771046
69.390 18.681648
69.395 18.500799
69.400 18.438581
69.405 18.219982
69.410 17.804838
69.415 17.218346
69.420 17.07
69.425 17.522175
69.430 17.998775
69.435 17.96192
69.440 18.014637
69.445 18.442709
69.450 18.64262
69.455 18.684973
69.460 17.864239
69.465 17.049423
69.470 16.726732
69.475 16.414549
69.480 16.179449
69.485 15.908537
69.490 15.653701
69.495 15.663616
69.500 16.163033
69.505 16.421095
69.510 16.800575
69.515 16.670509
69.520 16.836672
69.525 17.228161
69.530 17.302088
69.535 17.251015
69.540 17.422674
69.545 17.575666
69.550 17.891428
69.555 18.311085
69.560 18.342855
69.565 18.39789
69.570 18.498123
69.575 18.29343
69.580 17.947247
69.585 17.743174
69.590 17.331156
69.595 16.874626
69.600 16.331966
69.605 15.507372
69.610 15.055394
69.615 15.152434
69.620 14.717697
69.625 14.296646
69.630 15.020909
69.635 15.447001
69.640 16.003624
69.645 15.892176
69.650 16.093212
69.655 16.828587
69.660 17.278887
69.665 17.783436
69.670 18.223228
69.675 18.333672
69.680 18.766306
69.685 18.689684
69.690 19.067461
69.695 18.562922
69.700 17.8771
69.705 17.694458
69.710 17.698931
69.715 17.802307
69.720 17.447752
69.725 16.90727
69.730 16.703503
69.735 16.939959
69.740 17.332195
69.745 17.279833
69.750 16.984465
69.755 16.771463
69.760 16.861374
69.765 16.498592
69.770 16.028786
69.775 15.43759
69.780 15.504204
69.785 15.789972
69.790 15.756377
69.795 15.861811
69.800 16.193676
69.805 16.348738
69.810 16.142073
69.815 16.288883
69.820 16.048298
69.825 16.570621
69.830 17.062588
69.835 17.562069
69.840 17.585211
69.845 17.463058
69.850 17.669582
69.855 17.593254
69.860 17.089737
69.865 16.603924
69.870 16.283834
69.875 16.686235
69.880 17.265219
69.885 17.084656
69.890 17.553637
69.895 17.620501
69.900 17.940481
69.905 17.866831
69.910 17.021137
69.915 16.089928
69.920 15.359669
69.925 15.348562
69.930 14.966578
69.935 14.488235
69.940 14.06589
69.945 14.076859
69.950 14.659905
69.955 15.515688
69.960 15.613535
69.965 15.886982
69.970 15.972582
69.975 16.199396
69.980 16.631279
69.985 16.772669
69.990 16.234465
69.995 16.208641
70.000 16.374296
70.005 15.853395
70.010 15.726893
70.015 15.377883
70.020 15.331
70.025 15.707079
70.030 15.67602
70.035 16.143555
70.040 16.453508
70.045 16.810232
70.050 16.994093
70.055 16.49699
70.060 16.533443
70.065 16.949612
70.070 17.424236
70.075 17.346001
70.080 17.532225
70.085 17.784601
70.090 17.887297
70.095 17.396055
70.100 16.714762
70.105 16.265081
70.110 16.596954
70.115 16.505434
70.120 16.789728
70.125 17.5893
70.130 18.145901
70.135 18.692024
70.140 19.071518
70.145 18.559671
70.150 18.26305
70.155 18.020611
70.160 17.370831
70.165 16.472553
70.170 16.205053
70.175 16.110842
70.180 16.084871
70.185 16.21422
70.190 16.139931
70.195 16.123144
70.200 16.049202
70.205 15.867846
70.210 16.283581
70.215 16.587765
70.220 16.763027
70.225 16.525917
70.230 16.860382
70.235 16.685656
70.240 16.107073
70.245 15.921329
70.250 16.192898
70.255 16.24917
70.260 16.354488
70.265 16.14917
70.270 16.367235
70.275 17.00527
70.280 17.436543
70.285 17.008015
70.290 16.690205
70.295 16.932463
70.300 17.107519
70.305 17.361946
70.310 16.829727
70.315 16.466072
70.320 16.322752
70.325 16.069582
70.330 15.966412
70.335 15.852095
70.340 15.745799
70.345 15.542333
70.350 15.304551
70.355 15.408346
70.360 15.278846
70.365 15.178249
70.370 15.453254
70.375 15.565214
70.380 15.502751
70.385 15.410302
70.390 15.787675
70.395 16.150036
70.400 16.871803
70.405 16.750511
70.410 16.639164
70.415 17.185703
70.420 17.973537
70.425 18.051636
70.430 17.928743
70.435 17.441807
70.440 17.547476
70.445 18.312481
70.450 17.82921
70.455 17.423319
70.460 16.812445
70.465 16.900076
70.470 17.051319
70.475 16.867558
70.480 16.55168
70.485 16.674919
70.490 16.720242
70.495 16.657053
70.500 16.686546
70.505 16.59293
70.510 17.142324
70.515 16.877708
70.520 16.704813
70.525 17.340618
70.530 17.778477
70.535 17.901558
70.540 17.9706
70.545 17.440039
70.550 17.489565
70.555 16.990351
70.560 16.249605
70.565 16.110456
70.570 15.980992
70.575 15.494006
70.580 15.061497
70.585 15.366854
70.590 15.603932
70.595 15.592251
70.600 15.19442
70.605 15.018524
70.610 15.43176
70.615 16.534834
70.620 16.520447
70.625 16.445669
70.630 16.636799
70.635 17.253561
70.640 17.069159
70.645 16.719576
70.650 16.502882
70.655 16.76314
70.660 16.995375
70.665 17.357496
70.670 17.43491
70.675 18.043753
70.680 18.239302
70.685 17.60762
70.690 17.369087
70.695 17.073578
70.700 16.325821
70.705 16.364637
70.710 15.938023
70.715 16.024338
70.720 16.224426
70.725 16.379818
70.730 17.006639
70.735 17.299261
70.740 17.101591
70.745 16.587107
70.750 15.749026
70.755 15.57742
70.760 15.319496
70.765 14.550843
70.770 14.32788
70.775 14.410776
70.780 14.873433
70.785 15.180939
70.790 15.706828
70.795 16.29323
70.800 16.51088
70.805 16.748392
70.810 16.711584
70.815 16.799326
70.820 17.470581
70.825 17.064505
70.830 17.070629
70.835 17.192368
70.840 16.707314
70.845 16.479576
70.850 16.580908
70.855 16.227095
70.860 16.102695
70.865 15.867461
70.870 16.105385
70.875 16.480673
70.880 16.832779
70.885 16.288538
70.890 15.559422
70.895 15.534359
70.900 15.369629
70.905 15.472731
70.910 15.34376
70.915 14.966033
70.920 15.344016
70.925 15.359325
70.930 15.326595
70.935 15.32065
70.940 14.757951
70.945 15.119983
70.950 15.660623
70.955 15.634629
70.960 15.575385
70.965 15.611903
70.970 16.09148
70.975 16.809668
70.980 17.043638
70.985 17.287804
70.990 17.955715
70.995 18.431873
71.000 18.274536
71.005 17.785141
71.010 17.376793
71.015 17.05274
71.020 16.391737
71.025 15.77908
71.030 15.955942
71.035 15.943678
71.040 16.126499
71.045 16.058086
71.050 15.897812
71.055 16.243866
71.060 16.108864
71.065 15.890121
71.070 15.664762
71.075 15.435502
71.080 15.523282
71.085 15.837849
71.090 16.295582
71.095 16.564497
71.100 16.730097
71.105 16.841501
71.110 16.545574
71.115 16.527355
71.120 16.256882
71.125 16.160284
71.130 16.199171
71.135 16.502056
71.140 16.264364
71.145 16.5245
71.150 16.189894
71.155 16.322588
71.160 15.818497
71.165 15.586086
71.170 15.826873
71.175 16.1446
71.180 16.028151
71.185 15.992867
71.190 16.131342
71.195 16.463379
71.200 16.74148
71.205 16.66003
71.210 16.672342
71.215 16.530239
71.220 16.47728
71.225 16.547354
71.230 16.467566
71.235 16.568562
71.240 16.345705
71.245 15.846045
71.250 15.942846
71.255 16.050545
71.260 15.847568
71.265 16.272238
71.270 15.764666
71.275 15.940774
71.280 16.150667
71.285 16.2342
71.290 16.70295
71.295 16.738867
71.300 16.421738
71.305 16.441505
71.310 16.384924
71.315 16.368732
71.320 16.138407
71.325 15.813293
71.330 16.011173
71.335 16.112223
71.340 16.488348
71.345 16.346066
71.350 16.319128
71.355 16.504839
71.360 16.247147
71.365 15.946609
71.370 15.908566
71.375 15.784969
71.380 16.038864
71.385 15.928327
71.390 15.676409
71.395 15.554646
71.400 15.122978
71.405 15.291886
71.410 15.473252
71.415 15.322459
71.420 15.322584
71.425 15.321943
71.430 15.343532
71.435 16.228355
71.440 15.988075
71.445 16.215504
71.450 16.477945
71.455 16.553312
71.460 16.795717
71.465 16.230289
71.470 15.956356
71.475 15.679306
71.480 15.762197
71.485 15.501209
71.490 15.54985
71.495 15.519387
71.500 16.205679
71.505 16.540129
71.510 16.869654
71.515 17.003899
71.520 17.253857
71.525 16.916752
71.530 16.621752
71.535 16.471712
71.540 16.175436
71.545 16.27916
71.550 16.334658
71.555 16.22123
71.560 16.745575
71.565 17.292799
71.570 16.616613
71.575 16.822163
71.580 16.623262
71.585 16.608006
71.590 16.959797
71.595 16.88933
71.600 17.124273
71.605 18.260916
71.610 17.465822
71.615 16.855713
71.620 16.680998
71.625 16.55595
71.630 16.262001
71.635 15.680069
71.640 14.937228
71.645 15.330394
71.650 15.529829
71.655 15.425185
71.660 15.411133
71.665 15.650097
71.670 16.031769
71.675 16.365889
71.680 16.581457
71.685 16.850269
71.690 16.578106
71.695 16.288269
71.700 16.034916
71.705 15.303507
71.710 15.23434
71.715 15.085464
71.720 15.647776
71.725 15.976789
71.730 16.17527
71.735 16.539034
71.740 16.755545
71.745 16.965857
71.750 16.972513
71.755 16.523144
71.760 16.942245
71.765 17.234518
71.770 17.491367
71.775 17.598541
71.780 17.494947
71.785 17.443047
71.790 17.136049
71.795 16.691145
71.800 15.735526
71.805 15.856374
71.810 15.970195
71.815 15.783255
71.820 15.517018
71.825 15.46286
71.830 15.874435
71.835 16.289579
71.840 15.85489
71.845 15.581812
71.850 15.720984
71.855 15.868641
71.860 15.870162
71.865 15.190938
71.870 14.837098
71.875 16.168047
71.880 16.117903
71.885 16.269503
71.890 16.300011
71.895 16.390696
71.900 17.003693
71.905 17.030766
71.910 16.678503
71.915 16.851271
71.920 17.012203
71.925 16.721863
71.930 16.535471
71.935 16.082729
71.940 15.985509
71.945 15.893469
71.950 15.807267
71.955 16.209517
71.960 16.713022
71.965 17.143593
71.970 17.246534
71.975 16.620249
71.980 16.240133
71.985 17.100872
71.990 17.187847
71.995 17.013968
72.000 16.61904
72.005 16.683056
72.010 16.668844
72.015 16.312279
72.020 14.864987
72.025 14.502578
72.030 14.781457
72.035 15.199004
72.040 15.26205
72.045 15.499132
72.050 16.407114
72.055 17.21986
72.060 17.055979
72.065 16.989202
72.070 16.541115
72.075 16.93004
72.080 17.335314
72.085 16.811243
72.090 15.858104
72.095 15.820322
72.100 15.993688
72.105 16.448988
72.110 16.237089
72.115 15.517736
72.120 15.515091
72.125 15.89187
72.130 15.190719
72.135 14.598535
72.140 14.347038
72.145 14.325728
72.150 14.713001
72.155 14.674521
72.160 15.389597
72.165 16.452864
72.170 16.623062
72.175 16.44684
72.180 16.854401
72.185 16.863688
72.190 17.632261
72.195 17.490534
72.200 17.244421
72.205 17.457874
72.210 17.530212
72.215 17.253609
72.220 17.153002
72.225 16.433041
72.230 16.59263
72.235 16.528515
72.240 16.545637
72.245 16.183117
72.250 16.304037
72.255 16.303837
72.260 16.14699
72.265 15.800839
72.270 15.967844
72.275 15.656184
72.280 15.91524
72.285 15.729774
72.290 16.097006
72.295 15.995398
72.300 16.122784
72.305 15.955902
72.310 16.279255
72.315 16.094963
72.320 16.079626
72.325 15.936709
72.330 16.459393
72.335 16.528326
72.340 16.896751
72.345 17.057209
72.350 17.412249
72.355 17.375748
72.360 17.265167
72.365 17.168741
72.370 16.705933
72.375 16.194405
72.380 16.020145
72.385 15.559366
72.390 15.711055
72.395 15.56227
72.400 15.250385
72.405 15.743978
72.410 15.893673
72.415 15.840627
72.420 15.500457
72.425 15.353539
72.430 15.557924
72.435 15.503007
72.440 15.29377
72.445 15.321537
72.450 15.810186
72.455 15.964947
72.460 15.83748
72.465 15.443329
72.470 15.408841
72.475 15.458443
72.480 15.433344
72.485 15.653677
72.490 16.120642
72.495 16.620695
72.500 16.74358
72.505 16.452637
72.510 16.680977
72.515 16.29674
72.520 15.705207
72.525 15.208313
72.530 15.205982
72.535 15.567121
72.540 15.742451
72.545 15.698581
72.550 15.632433
72.555 15.499706
72.560 15.654806
72.565 15.330781
72.570 14.779207
72.575 14.807156
72.580 15.261333
72.585 15.753296
72.590 15.872063
72.595 15.847857
72.600 16.222914
72.605 16.977694
72.610 16.393482
72.615 15.729146
72.620 15.284625
72.625 15.229217
72.630 14.705723
72.635 14.691634
72.640 14.160345
72.645 14.488005
72.650 15.023459
72.655 15.032139
72.660 15.440898
72.665 15.455656
72.670 15.028265
72.675 15.012799
72.680 14.428745
72.685 14.072803
72.690 13.721378
72.695 13.591905
72.700 13.226099
72.705 13.391252
72.710 13.886193
72.715 14.165116
72.720 14.374356
72.725 14.553876
72.730 14.720516
72.735 15.129322
72.740 15.432716
72.745 15.495484
72.750 15.097688
72.755 15.017383
72.760 15.18786
72.765 15.145342
72.770 15.195982
72.775 14.808476
72.780 14.54824
72.785 14.945328
72.790 14.484368
72.795 14.177502
72.800 14.234511
72.805 14.155645
72.810 14.150882
72.815 14.240777
72.820 14.206085
72.825 14.897617
72.830 15.078087
72.835 15.565531
72.840 15.282973
72.845 15.354023
72.850 15.300131
72.855 15.489773
72.860 15.05698
72.865 14.755806
72.870 14.598566
72.875 14.541576
72.880 14.572783
72.885 14.300916
72.890 14.453452
72.895 14.59866
72.900 14.542652
72.905 14.472852
72.910 14.590187
72.915 14.87789
72.920 14.746597
72.925 14.256054
72.930 14.329858
72.935 14.628172
72.940 15.489237
72.945 15.840172
72.950 15.777844
72.955 16.140743
72.960 16.524004
72.965 16.616419
72.970 16.667061
72.975 15.610291
72.980 15.074463
72.985 14.938148
72.990 14.620874
72.995 14.041964
73.000 13.818472
