!@!!GADDS PLOTSO FILE: Chi integration type
!@!!Title/SampleName: map-13f
!@!!Comment: ?
!@!!User: Bruker Instrument Administrator
!@!!Site: University of Illinois Chicago
!@!!Frame: map-13f_01_000.gfrm
!@!!Wavelengths    1.54184   1.54056   1.54439
!@!!Frame angles: 2Theta: 63.000 Omega: 50.000 Phi: 0.000 Chi: 90.000
!@!!Integration range: 2Theta: 53.000 to 73.000  Gamma: -105.000 to -75.000
!@!!Integration method: bin normalized
!@!N
!@!SS
!@!M
!@!L 0.0 0.0 0.0 0.0
!@!XDegrees
!@!YCounts
53.000 9.910727
53.005 10.008545
53.010 9.522161
53.015 9.528837
53.020 9.783595
53.025 9.757572
53.030 9.714762
53.035 9.789595
53.040 9.72667
53.045 9.974932
53.050 9.868222
53.055 9.799397
53.060 9.944635
53.065 9.62149
53.070 9.325341
53.075 9.296381
53.080 9.283517
53.085 9.550276
53.090 9.992874
53.095 10.427508
53.100 10.645452
53.105 11.083131
53.110 11.17553
53.115 11.302329
53.120 11.049823
53.125 10.482676
53.130 9.748036
53.135 9.701947
53.140 9.705637
53.145 9.587355
53.150 9.252945
53.155 9.240579
53.160 9.408217
53.165 9.675538
53.170 9.514705
53.175 9.517796
53.180 9.777567
53.185 9.757922
53.190 9.938174
53.195 10.029095
53.200 10.11983
53.205 9.781869
53.210 9.277778
53.215 9.276671
53.220 9.110493
53.225 9.070091
53.230 8.870619
53.235 9.110513
53.240 9.457428
53.245 9.407781
53.250 9.550204
53.255 9.320173
53.260 9.378724
53.265 9.567262
53.270 9.594334
53.275 9.254444
53.280 9.048246
53.285 9.030947
53.290 9.12909
53.295 8.819408
53.300 8.279296
53.305 8.59612
53.310 9.266037
53.315 9.78339
53.320 9.698202
53.325 9.453438
53.330 9.401913
53.335 9.963171
53.340 10.253604
53.345 9.915197
53.350 9.569254
53.355 9.851309
53.360 10.327675
53.365 10.0906
53.370 9.920187
53.375 9.700617
53.380 9.543917
53.385 9.46117
53.390 8.889227
53.395 8.668312
53.400 8.899719
53.405 8.911459
53.410 9.123675
53.415 9.620515
53.420 9.983121
53.425 10.402868
53.430 10.478137
53.435 10.541045
53.440 10.259798
53.445 10.448192
53.450 10.235539
53.455 9.838547
53.460 9.583109
53.465 9.587228
53.470 9.39269
53.475 9.056997
53.480 8.543112
53.485 8.729275
53.490 8.808926
53.495 9.336364
53.500 9.594916
53.505 9.633071
53.510 9.51783
53.515 9.468974
53.520 9.821955
53.525 10.205635
53.530 9.633015
53.535 9.584003
53.540 9.662032
53.545 9.928654
53.550 9.837145
53.555 9.531953
53.560 9.643852
53.565 9.858955
53.570 10.161576
53.575 10.375688
53.580 10.719255
53.585 11.071103
53.590 11.358501
53.595 11.3816
53.600 11.686894
53.605 11.821625
53.610 12.070231
53.615 11.884362
53.620 11.853441
53.625 11.398032
53.630 10.586587
53.635 9.936886
53.640 9.681179
53.645 9.275837
53.650 9.219337
53.655 8.979289
53.660 9.066706
53.665 9.573211
53.670 9.651289
53.675 10.093279
53.680 10.236142
53.685 11.213889
53.690 11.062014
53.695 11.149769
53.700 11.054154
53.705 11.082994
53.710 10.918374
53.715 10.526425
53.720 9.878581
53.725 9.926381
53.730 10.088047
53.735 10.148933
53.740 10.075211
53.745 10.085582
53.750 10.305159
53.755 10.450742
53.760 11.223633
53.765 11.676586
53.770 12.129002
53.775 12.335766
53.780 11.960135
53.785 12.110365
53.790 12.447672
53.795 12.327773
53.800 12.025061
53.805 11.509891
53.810 11.457049
53.815 11.232401
53.820 11.146881
53.825 10.616025
53.830 10.582368
53.835 10.668594
53.840 10.477542
53.845 10.672359
53.850 10.304479
53.855 9.79667
53.860 9.194242
53.865 8.842425
53.870 8.827694
53.875 9.29255
53.880 9.985069
53.885 10.716293
53.890 11.33529
53.895 11.34293
53.900 11.040761
53.905 10.811161
53.910 10.203647
53.915 9.391395
53.920 8.901171
53.925 9.267704
53.930 10.174616
53.935 10.370962
53.940 10.464776
53.945 10.574708
53.950 10.996961
53.955 10.944308
53.960 9.934833
53.965 9.350384
53.970 9.104738
53.975 9.287676
53.980 9.313997
53.985 9.170569
53.990 9.194181
53.995 9.780635
54.000 9.761687
54.005 10.168062
54.010 10.487282
54.015 10.699644
54.020 10.91029
54.025 10.926894
54.030 10.609666
54.035 10.787478
54.040 10.679407
54.045 10.075699
54.050 9.897095
54.055 9.560569
54.060 9.794822
54.065 10.10942
54.070 9.873191
54.075 9.840513
54.080 10.171319
54.085 10.325962
54.090 10.702623
54.095 10.472303
54.100 10.855585
54.105 11.140194
54.110 11.261285
54.115 11.244102
54.120 11.243169
54.125 11.604577
54.130 11.740494
54.135 11.810147
54.140 11.616119
54.145 11.538052
54.150 11.691008
54.155 11.939962
54.160 11.709582
54.165 12.143553
54.170 12.101213
54.175 11.861322
54.180 11.753249
54.185 11.405472
54.190 11.312556
54.195 11.337489
54.200 11.40662
54.205 11.406697
54.210 11.518513
54.215 11.281355
54.220 10.954796
54.225 11.103407
54.230 10.775265
54.235 10.850642
54.240 10.956716
54.245 10.97455
54.250 11.038191
54.255 11.152829
54.260 11.226501
54.265 11.089888
54.270 10.838262
54.275 10.849021
54.280 10.93936
54.285 11.307377
54.290 11.34478
54.295 11.002074
54.300 11.246819
54.305 11.474068
54.310 11.613631
54.315 11.888085
54.320 11.744792
54.325 11.992624
54.330 11.865016
54.335 11.925179
54.340 11.72589
54.345 12.133344
54.350 12.145176
54.355 11.977624
54.360 11.890034
54.365 12.150724
54.370 12.19224
54.375 12.298108
54.380 11.717154
54.385 11.866446
54.390 11.984922
54.395 11.805081
54.400 11.228279
54.405 11.018908
54.410 10.632299
54.415 10.701806
54.420 10.616085
54.425 10.627358
54.430 10.608541
54.435 10.614512
54.440 10.550267
54.445 10.830217
54.450 10.67473
54.455 10.322436
54.460 10.494438
54.465 11.043501
54.470 11.490959
54.475 11.538054
54.480 11.906052
54.485 12.200376
54.490 11.814101
54.495 11.468927
54.500 11.029966
54.505 10.242723
54.510 9.857636
54.515 9.485736
54.520 9.712512
54.525 10.481922
54.530 10.89928
54.535 11.386282
54.540 11.883558
54.545 11.999162
54.550 12.241987
54.555 12.223181
54.560 11.885856
54.565 11.624608
54.570 11.172741
54.575 11.605814
54.580 11.092743
54.585 10.560753
54.590 10.835388
54.595 11.214172
54.600 10.97702
54.605 10.76456
54.610 10.6638
54.615 11.005095
54.620 11.529314
54.625 11.106846
54.630 10.508643
54.635 10.414191
54.640 10.532321
54.645 10.72489
54.650 10.619963
54.655 10.57086
54.660 10.968325
54.665 11.113102
54.670 11.46649
54.675 11.597738
54.680 11.480532
54.685 11.408595
54.690 11.022213
54.695 10.934915
54.700 11.014192
54.705 11.342658
54.710 11.279554
54.715 11.340261
54.720 11.112691
54.725 11.186462
54.730 11.27846
54.735 11.383917
54.740 11.161229
54.745 11.5501
54.750 11.525242
54.755 11.973987
54.760 11.98028
54.765 12.679008
54.770 12.59642
54.775 12.240562
54.780 12.086889
54.785 12.251475
54.790 11.994946
54.795 11.787891
54.800 11.407231
54.805 11.343159
54.810 11.431763
54.815 11.579134
54.820 11.403634
54.825 11.456068
54.830 11.505381
54.835 11.635317
54.840 11.547845
54.845 11.16114
54.850 10.992572
54.855 10.754314
54.860 11.23351
54.865 11.15716
54.870 10.900232
54.875 11.078192
54.880 11.104635
54.885 11.120712
54.890 11.049471
54.895 10.677825
54.900 11.391396
54.905 11.831903
54.910 12.082275
54.915 12.292752
54.920 12.287507
54.925 12.197878
54.930 12.150536
54.935 12.150968
54.940 11.872058
54.945 11.795508
54.950 11.879328
54.955 12.203023
54.960 12.792827
54.965 12.55724
54.970 12.238375
54.975 12.374312
54.980 12.729932
54.985 12.845199
54.990 12.720322
54.995 12.473566
55.000 12.563231
55.005 12.469625
55.010 11.956058
55.015 11.265985
55.020 11.425655
55.025 11.781889
55.030 11.575235
55.035 11.466202
55.040 11.453383
55.045 11.64719
55.050 11.851749
55.055 11.650371
55.060 11.891606
55.065 12.427549
55.070 12.510217
55.075 12.984473
55.080 13.146364
55.085 13.090242
55.090 12.639659
55.095 12.468819
55.100 12.396334
55.105 12.054219
55.110 11.886902
55.115 12.093139
55.120 12.347482
55.125 12.737865
55.130 12.275445
55.135 11.834991
55.140 12.096389
55.145 11.80557
55.150 11.451723
55.155 11.473853
55.160 11.547272
55.165 11.952677
55.170 12.000672
55.175 11.764318
55.180 11.654572
55.185 11.893114
55.190 11.999983
55.195 11.952655
55.200 12.123969
55.205 12.231916
55.210 12.663853
55.215 12.995668
55.220 12.480243
55.225 12.066719
55.230 11.187073
55.235 10.874246
55.240 10.842875
55.245 10.64875
55.250 10.531732
55.255 10.213266
55.260 10.279219
55.265 11.009832
55.270 11.152303
55.275 11.026874
55.280 10.818414
55.285 10.771918
55.290 11.311891
55.295 11.365338
55.300 11.155411
55.305 10.931247
55.310 10.950774
55.315 10.843057
55.320 11.322061
55.325 11.389019
55.330 11.281229
55.335 11.4162
55.340 11.615075
55.345 11.897196
55.350 11.741532
55.355 11.184243
55.360 11.107784
55.365 11.48315
55.370 11.67263
55.375 11.256944
55.380 11.425932
55.385 11.818537
55.390 11.694232
55.395 11.484468
55.400 10.887601
55.405 11.1941
55.410 11.357018
55.415 10.806732
55.420 10.909333
55.425 11.227436
55.430 11.569383
55.435 11.721276
55.440 11.61587
55.445 12.01066
55.450 12.426808
55.455 12.15901
55.460 11.906711
55.465 11.0985
55.470 11.373846
55.475 11.161354
55.480 10.750314
55.485 10.537382
55.490 10.57928
55.495 10.884089
55.500 11.236701
55.505 11.210206
55.510 11.546782
55.515 12.295775
55.520 12.961757
55.525 13.246421
55.530 13.434242
55.535 13.268355
55.540 12.485275
55.545 12.005668
55.550 11.357631
55.555 10.84971
55.560 10.594839
55.565 10.924285
55.570 11.028188
55.575 11.453163
55.580 11.89635
55.585 11.604893
55.590 11.725547
55.595 12.007374
55.600 12.226036
55.605 12.535906
55.610 13.324153
55.615 13.440667
55.620 13.892583
55.625 13.88747
55.630 13.352439
55.635 12.908126
55.640 12.74507
55.645 11.888234
55.650 12.142806
55.655 11.833984
55.660 12.242675
55.665 12.576997
55.670 12.297262
55.675 12.193582
55.680 11.93698
55.685 11.694042
55.690 11.491413
55.695 10.870995
55.700 11.041401
55.705 11.574284
55.710 11.630431
55.715 11.739802
55.720 11.786535
55.725 12.43933
55.730 12.718951
55.735 12.407731
55.740 12.39994
55.745 12.390932
55.750 12.543114
55.755 12.75749
55.760 12.164889
55.765 12.072652
55.770 12.309419
55.775 12.765536
55.780 12.782177
55.785 12.44565
55.790 12.511382
55.795 12.660872
55.800 13.008703
55.805 13.14408
55.810 12.359813
55.815 12.853701
55.820 12.976494
55.825 12.369625
55.830 12.546766
55.835 12.234122
55.840 11.881817
55.845 12.41081
55.850 12.176642
55.855 12.169553
55.860 12.636329
55.865 13.067842
55.870 12.71322
55.875 12.289746
55.880 12.221638
55.885 12.155278
55.890 12.392655
55.895 12.192388
55.900 12.149202
55.905 12.532924
55.910 12.83415
55.915 13.197241
55.920 13.321531
55.925 13.388976
55.930 13.53766
55.935 13.90509
55.940 14.039672
55.945 14.203828
55.950 14.287074
55.955 14.358059
55.960 13.908606
55.965 13.494929
55.970 13.423059
55.975 13.458001
55.980 13.36923
55.985 13.208184
55.990 13.540511
55.995 13.479169
56.000 13.47226
56.005 13.390025
56.010 13.445882
56.015 13.144344
56.020 12.934144
56.025 12.971716
56.030 13.384103
56.035 12.912585
56.040 12.394771
56.045 12.375183
56.050 12.612077
56.055 12.289277
56.060 12.249741
56.065 12.570183
56.070 12.869919
56.075 13.046408
56.080 12.666568
56.085 12.769519
56.090 12.725109
56.095 12.237298
56.100 12.363541
56.105 12.264235
56.110 12.252806
56.115 12.565763
56.120 12.503392
56.125 12.27063
56.130 12.184346
56.135 12.408442
56.140 12.849031
56.145 12.780334
56.150 12.46993
56.155 12.502857
56.160 12.691188
56.165 13.037183
56.170 12.409559
56.175 12.108893
56.180 12.506163
56.185 12.826466
56.190 13.218884
56.195 13.1692
56.200 13.14455
56.205 13.253345
56.210 13.217474
56.215 13.576734
56.220 13.602111
56.225 13.441802
56.230 13.709465
56.235 13.519863
56.240 13.548244
56.245 13.75871
56.250 13.29381
56.255 13.30802
56.260 13.473475
56.265 13.599905
56.270 13.420919
56.275 13.275761
56.280 12.806165
56.285 12.86853
56.290 13.197887
56.295 12.81237
56.300 12.714445
56.305 12.697256
56.310 12.820203
56.315 13.086126
56.320 13.108644
56.325 12.766096
56.330 13.196112
56.335 13.380627
56.340 13.752732
56.345 14.151775
56.350 14.596692
56.355 14.849803
56.360 14.792517
56.365 14.66585
56.370 14.861126
56.375 14.636116
56.380 14.315615
56.385 13.680757
56.390 13.323411
56.395 12.919357
56.400 12.93517
56.405 13.001892
56.410 12.951557
56.415 13.381138
56.420 13.289974
56.425 13.487945
56.430 13.691607
56.435 13.873617
56.440 13.590682
56.445 13.113811
56.450 12.795855
56.455 12.702877
56.460 13.310722
56.465 13.587364
56.470 13.164248
56.475 13.106416
56.480 13.538498
56.485 13.675568
56.490 14.138482
56.495 13.473482
56.500 13.162508
56.505 13.238561
56.510 13.081342
56.515 12.562165
56.520 12.835701
56.525 12.569808
56.530 13.085244
56.535 13.343791
56.540 13.879526
56.545 14.653576
56.550 14.870152
56.555 14.530212
56.560 14.676485
56.565 14.12035
56.570 13.862352
56.575 12.907587
56.580 12.364191
56.585 12.337266
56.590 12.085158
56.595 12.26065
56.600 12.2604
56.605 12.766109
56.610 13.125429
56.615 13.609598
56.620 14.0789
56.625 14.492563
56.630 14.371627
56.635 14.301758
56.640 14.118582
56.645 14.070226
56.650 13.334044
56.655 12.982637
56.660 12.843794
56.665 12.48934
56.670 12.655945
56.675 12.716613
56.680 13.120865
56.685 13.183756
56.690 13.330303
56.695 13.26096
56.700 13.837801
56.705 13.539186
56.710 13.190855
56.715 12.957243
56.720 12.914005
56.725 12.721616
56.730 13.038924
56.735 13.425947
56.740 13.968519
56.745 14.614054
56.750 14.859412
56.755 14.93101
56.760 14.361628
56.765 13.861432
56.770 12.998452
56.775 12.609187
56.780 11.979742
56.785 11.686749
56.790 12.250914
56.795 13.006535
56.800 13.502621
56.805 13.621014
56.810 14.083698
56.815 14.454429
56.820 14.4265
56.825 13.920171
56.830 13.584225
56.835 13.308846
56.840 13.399802
56.845 13.172527
56.850 13.143756
56.855 13.298542
56.860 13.031013
56.865 12.9291
56.870 12.865988
56.875 12.81676
56.880 12.61932
56.885 12.131667
56.890 12.197807
56.895 12.614228
56.900 13.034142
56.905 13.107973
56.910 13.056124
56.915 13.822308
56.920 14.257915
56.925 14.021314
56.930 13.912532
56.935 13.456132
56.940 13.242765
56.945 13.558633
56.950 12.877164
56.955 13.277794
56.960 13.460467
56.965 13.426259
56.970 12.81662
56.975 12.476979
56.980 12.419319
56.985 13.19205
56.990 12.981901
56.995 12.819245
57.000 13.127175
57.005 14.308039
57.010 14.729845
57.015 14.513158
57.020 13.891562
57.025 13.950451
57.030 14.116948
57.035 13.661254
57.040 13.542067
57.045 13.423578
57.050 13.327679
57.055 13.347117
57.060 12.987834
57.065 13.007722
57.070 13.078884
57.075 13.027183
57.080 13.12772
57.085 12.867842
57.090 12.912925
57.095 12.899239
57.100 12.778479
57.105 12.77113
57.110 12.480641
57.115 12.255487
57.120 12.571044
57.125 12.334765
57.130 12.698854
57.135 12.861667
57.140 12.914683
57.145 13.021354
57.150 12.722317
57.155 12.630581
57.160 12.5358
57.165 12.436668
57.170 12.644879
57.175 12.569461
57.180 12.719933
57.185 13.361397
57.190 13.271689
57.195 13.467729
57.200 13.607806
57.205 13.691651
57.210 13.426697
57.215 13.523908
57.220 13.71071
57.225 13.972839
57.230 13.550931
57.235 13.285618
57.240 13.315926
57.245 13.730167
57.250 13.763374
57.255 13.085635
57.260 13.10536
57.265 13.751214
57.270 13.932206
57.275 13.753069
57.280 13.635746
57.285 13.893485
57.290 14.10681
57.295 14.568702
57.300 14.39136
57.305 14.930966
57.310 15.085768
57.315 14.999386
57.320 14.695198
57.325 14.774043
57.330 14.459982
57.335 14.482604
57.340 14.290651
57.345 14.244983
57.350 14.37591
57.355 14.323892
57.360 14.200317
57.365 14.380089
57.370 14.055468
57.375 14.247306
57.380 13.843924
57.385 13.6696
57.390 13.966445
57.395 13.998626
57.400 13.509336
57.405 13.650956
57.410 13.414109
57.415 13.727989
57.420 13.592941
57.425 13.536222
57.430 13.271946
57.435 13.416689
57.440 13.068057
57.445 13.426599
57.450 12.771841
57.455 12.830129
57.460 12.812638
57.465 13.316562
57.470 13.479438
57.475 13.251205
57.480 13.146468
57.485 13.540271
57.490 13.155994
57.495 13.323912
57.500 12.996073
57.505 12.988818
57.510 13.441092
57.515 13.629808
57.520 13.787163
57.525 13.920279
57.530 13.24109
57.535 13.171097
57.540 13.005368
57.545 12.353126
57.550 12.393097
57.555 12.289495
57.560 12.399186
57.565 13.013433
57.570 13.183281
57.575 13.758154
57.580 13.911518
57.585 13.69109
57.590 14.227118
57.595 13.784081
57.600 13.39489
57.605 13.525721
57.610 13.199754
57.615 13.06924
57.620 13.214223
57.625 13.652143
57.630 14.142361
57.635 14.527215
57.640 14.157887
57.645 14.133305
57.650 14.338264
57.655 14.220946
57.660 13.840736
57.665 13.419813
57.670 13.119086
57.675 13.029347
57.680 12.998913
57.685 13.116012
57.690 12.858046
57.695 13.115295
57.700 13.278239
57.705 13.400255
57.710 13.246484
57.715 13.102426
57.720 13.07197
57.725 13.031032
57.730 12.827313
57.735 13.013733
57.740 13.287786
57.745 13.707352
57.750 13.978163
57.755 13.952632
57.760 13.780317
57.765 13.749651
57.770 13.500706
57.775 13.393343
57.780 13.362817
57.785 13.168206
57.790 13.112031
57.795 13.069381
57.800 12.939032
57.805 13.121341
57.810 13.227802
57.815 13.304358
57.820 13.101945
57.825 12.715433
57.830 12.817805
57.835 12.802673
57.840 12.885552
57.845 12.595179
57.850 12.448184
57.855 12.766305
57.860 13.883713
57.865 13.844697
57.870 13.809923
57.875 13.98997
57.880 13.96893
57.885 14.309882
57.890 14.365832
57.895 13.911258
57.900 14.633592
57.905 14.492067
57.910 14.743106
57.915 15.327999
57.920 15.424232
57.925 15.281146
57.930 15.166236
57.935 15.111285
57.940 15.052947
57.945 14.860665
57.950 14.790421
57.955 14.936375
57.960 14.636054
57.965 14.570617
57.970 14.911744
57.975 14.703329
57.980 14.280334
57.985 14.31281
57.990 14.051885
57.995 14.024449
58.000 13.869732
58.005 13.220196
58.010 13.741831
58.015 14.411013
58.020 13.843794
58.025 13.828118
58.030 13.98494
58.035 14.21614
58.040 14.740144
58.045 14.694662
58.050 14.370873
58.055 14.644826
58.060 14.832787
58.065 14.955065
58.070 14.647094
58.075 14.444963
58.080 14.559446
58.085 14.554079
58.090 14.661138
58.095 14.55511
58.100 14.427244
58.105 14.671909
58.110 14.788585
58.115 14.898403
58.120 14.68222
58.125 14.119168
58.130 14.185586
58.135 14.213336
58.140 14.328117
58.145 14.142408
58.150 13.717345
58.155 14.079049
58.160 14.245164
58.165 14.070919
58.170 13.639269
58.175 13.403983
58.180 13.342673
58.185 13.803138
58.190 13.923503
58.195 14.08749
58.200 15.012959
58.205 15.591801
58.210 15.490839
58.215 15.257135
58.220 14.944616
58.225 14.977888
58.230 14.613795
58.235 14.447191
58.240 14.286498
58.245 13.997428
58.250 14.254575
58.255 14.094302
58.260 13.759943
58.265 13.978079
58.270 13.707376
58.275 13.791389
58.280 14.731495
58.285 14.529895
58.290 14.622671
58.295 14.862926
58.300 14.976487
58.305 15.149212
58.310 15.379266
58.315 14.823478
58.320 15.188671
58.325 15.630598
58.330 15.60412
58.335 15.589818
58.340 15.666206
58.345 15.868918
58.350 15.905537
58.355 15.883739
58.360 15.523692
58.365 15.51051
58.370 15.012437
58.375 14.589231
58.380 14.154952
58.385 13.916093
58.390 13.593776
58.395 13.505995
58.400 13.526112
58.405 13.878866
58.410 14.061909
58.415 13.94491
58.420 14.734064
58.425 15.554566
58.430 16.290823
58.435 16.540546
58.440 16.631098
58.445 16.427437
58.450 16.47739
58.455 15.929705
58.460 15.301857
58.465 15.290436
58.470 15.286809
58.475 14.923083
58.480 15.358067
58.485 15.825082
58.490 16.611288
58.495 16.601969
58.500 15.777543
58.505 15.620952
58.510 15.712892
58.515 15.84536
58.520 15.623891
58.525 14.976295
58.530 14.831775
58.535 15.529919
58.540 15.472148
58.545 15.167068
58.550 14.80826
58.555 14.777199
58.560 15.244805
58.565 15.392301
58.570 15.430201
58.575 15.655553
58.580 15.727546
58.585 15.56972
58.590 15.64861
58.595 15.859163
58.600 15.7353
58.605 15.505262
58.610 15.742042
58.615 16.296072
58.620 16.438068
58.625 16.019617
58.630 16.142075
58.635 16.332273
58.640 16.447632
58.645 16.523687
58.650 16.293127
58.655 16.733625
58.660 17.08029
58.665 17.130829
58.670 16.845137
58.675 16.286821
58.680 15.999724
58.685 15.863635
58.690 15.990921
58.695 16.343214
58.700 16.116922
58.705 16.705383
58.710 17.055202
58.715 16.826199
58.720 16.536398
58.725 16.222502
58.730 15.909913
58.735 16.062901
58.740 16.055876
58.745 15.927567
58.750 16.00415
58.755 16.049419
58.760 16.009096
58.765 15.814724
58.770 15.329065
58.775 15.422739
58.780 15.435513
58.785 15.180135
58.790 15.432071
58.795 15.370779
58.800 14.910627
58.805 14.742594
58.810 14.402035
58.815 14.727492
58.820 15.296311
58.825 15.424556
58.830 14.931397
58.835 15.406353
58.840 15.310528
58.845 15.033113
58.850 14.759809
58.855 14.846694
58.860 15.093748
58.865 15.669472
58.870 15.694001
58.875 16.464437
58.880 16.52072
58.885 16.2645
58.890 15.866995
58.895 15.71875
58.900 15.135706
58.905 14.828853
58.910 14.539177
58.915 14.966079
58.920 15.329702
58.925 15.185056
58.930 15.222912
58.935 15.305092
58.940 15.969197
58.945 16.075449
58.950 15.845901
58.955 15.797095
58.960 15.410328
58.965 15.306795
58.970 15.675445
58.975 15.735565
58.980 16.084602
58.985 15.969532
58.990 15.966791
58.995 16.585821
59.000 16.741442
59.005 16.79092
59.010 16.108318
59.015 15.840609
59.020 15.928067
59.025 15.711741
59.030 15.379281
59.035 15.324369
59.040 15.417059
59.045 15.872256
59.050 16.106993
59.055 16.426786
59.060 16.732533
59.065 16.964514
59.070 16.885847
59.075 16.693007
59.080 16.357105
59.085 16.299551
59.090 16.039911
59.095 16.22975
59.100 16.451336
59.105 16.480349
59.110 16.634678
59.115 16.787775
59.120 16.788889
59.125 17.045109
59.130 17.046076
59.135 16.990799
59.140 16.971266
59.145 16.588554
59.150 16.525539
59.155 16.593037
59.160 16.659279
59.165 16.466652
59.170 16.067026
59.175 15.963542
59.180 15.884149
59.185 15.656638
59.190 15.404223
59.195 15.223251
59.200 15.221483
59.205 15.406075
59.210 15.709591
59.215 16.030287
59.220 15.765201
59.225 15.443518
59.230 15.425958
59.235 15.239223
59.240 14.854844
59.245 14.685432
59.250 14.201111
59.255 14.627041
59.260 15.18194
59.265 15.363188
59.270 15.411693
59.275 15.816987
59.280 16.134987
59.285 16.130123
59.290 16.392124
59.295 17.061911
59.300 16.950056
59.305 17.357748
59.310 17.58131
59.315 17.545012
59.320 18.075706
59.325 17.727585
59.330 17.104101
59.335 17.004141
59.340 16.851301
59.345 16.642643
59.350 16.633017
59.355 17.398272
59.360 17.736498
59.365 17.67849
59.370 17.365475
59.375 17.277849
59.380 16.997885
59.385 16.811125
59.390 16.691898
59.395 16.434561
59.400 16.883163
59.405 17.18445
59.410 17.173
59.415 17.558561
59.420 17.43844
59.425 16.597841
59.430 16.341803
59.435 15.718867
59.440 15.742157
59.445 15.644407
59.450 15.339189
59.455 15.217151
59.460 15.657863
59.465 16.19581
59.470 16.439411
59.475 16.620752
59.480 16.651175
59.485 17.031788
59.490 17.28322
59.495 17.739756
59.500 17.92194
59.505 18.001822
59.510 17.997494
59.515 17.938368
59.520 17.780636
59.525 18.035658
59.530 17.361013
59.535 17.241514
59.540 17.403574
59.545 17.634676
59.550 17.97164
59.555 18.090128
59.560 17.688845
59.565 18.124281
59.570 17.785776
59.575 17.874998
59.580 17.804899
59.585 17.779528
59.590 17.659332
59.595 18.241936
59.600 18.591183
59.605 19.170984
59.610 19.061718
59.615 19.328455
59.620 19.55249
59.625 19.595272
59.630 19.042343
59.635 18.559586
59.640 18.210825
59.645 17.45178
59.650 16.954683
59.655 16.760361
59.660 17.055597
59.665 17.579954
59.670 17.762243
59.675 17.770718
59.680 18.395617
59.685 19.427404
59.690 19.742575
59.695 19.823261
59.700 20.03805
59.705 20.427406
59.710 20.754139
59.715 20.8382
59.720 20.001356
59.725 19.572803
59.730 19.071613
59.735 18.904289
59.740 19.275759
59.745 18.640049
59.750 18.465876
59.755 18.347288
59.760 19.027454
59.765 19.507761
59.770 19.132671
59.775 19.127518
59.780 19.857368
59.785 20.139315
59.790 20.671696
59.795 20.012884
59.800 19.447765
59.805 19.566771
59.810 19.038677
59.815 18.657932
59.820 18.460688
59.825 17.876944
59.830 18.170559
59.835 18.16091
59.840 17.770267
59.845 18.042938
59.850 18.017448
59.855 18.277399
59.860 18.909121
59.865 18.947552
59.870 19.182121
59.875 19.162979
59.880 19.152431
59.885 19.374929
59.890 19.371368
59.895 19.237865
59.900 19.239641
59.905 19.443129
59.910 19.033825
59.915 18.583952
59.920 18.180582
59.925 17.950384
59.930 17.490925
59.935 17.768345
59.940 17.352137
59.945 17.33795
59.950 17.811609
59.955 18.180809
59.960 18.407492
59.965 18.900496
59.970 18.979067
59.975 19.965761
59.980 20.709803
59.985 20.94622
59.990 20.960669
59.995 20.762926
60.000 20.098612
60.005 19.700525
60.010 19.786333
60.015 19.678411
60.020 18.659864
60.025 18.450644
60.030 18.504732
60.035 18.912001
60.040 19.157301
60.045 18.968477
60.050 19.985363
60.055 20.822321
60.060 20.811975
60.065 20.606815
60.070 20.431076
60.075 20.391684
60.080 19.911465
60.085 18.980618
60.090 18.835241
60.095 18.84589
60.100 18.834156
60.105 18.966269
60.110 18.976934
60.115 18.956215
60.120 18.588972
60.125 18.555199
60.130 18.186434
60.135 18.727289
60.140 18.975321
60.145 18.50248
60.150 18.399586
60.155 18.377172
60.160 17.810184
60.165 17.788317
60.170 17.548985
60.175 17.22002
60.180 17.447367
60.185 17.712719
60.190 18.335312
60.195 18.605671
60.200 18.795349
60.205 18.762476
60.210 18.694292
60.215 19.110863
60.220 19.621052
60.225 19.193727
60.230 19.381086
60.235 19.149632
60.240 19.012274
60.245 18.870131
60.250 18.708134
60.255 17.957623
60.260 17.548548
60.265 17.436302
60.270 17.477882
60.275 17.584766
60.280 17.972801
60.285 17.688963
60.290 18.093485
60.295 18.566919
60.300 18.853888
60.305 19.337606
60.310 19.46418
60.315 19.179176
60.320 18.992918
60.325 18.896833
60.330 18.639154
60.335 18.665428
60.340 17.81563
60.345 17.391445
60.350 17.577477
60.355 17.561855
60.360 17.268311
60.365 17.488537
60.370 17.165136
60.375 17.386509
60.380 17.64773
60.385 17.462933
60.390 17.756096
60.395 17.549213
60.400 16.747677
60.405 16.583963
60.410 16.65757
60.415 16.221434
60.420 15.950045
60.425 15.36833
60.430 15.705201
60.435 16.146715
60.440 16.367966
60.445 16.551832
60.450 16.841822
60.455 16.684826
60.460 16.359346
60.465 15.517269
60.470 14.858739
60.475 14.650493
60.480 14.97103
60.485 14.669013
60.490 14.889999
60.495 15.647478
60.500 16.496578
60.505 17.003836
60.510 17.015413
60.515 16.443041
60.520 16.890678
60.525 17.266489
60.530 16.839336
60.535 16.291489
60.540 16.60294
60.545 16.393721
60.550 16.534637
60.555 16.322508
60.560 16.559835
60.565 16.796162
60.570 16.752497
60.575 16.248772
60.580 16.455652
60.585 16.857367
60.590 16.76709
60.595 16.039934
60.600 16.050415
60.605 16.446501
60.610 17.1245
60.615 17.624222
60.620 17.883493
60.625 18.374962
60.630 18.665525
60.635 18.395445
60.640 18.124105
60.645 18.086071
60.650 18.102692
60.655 17.607595
60.660 16.977596
60.665 17.167814
60.670 18.035002
60.675 18.168467
60.680 17.83041
60.685 17.408648
60.690 17.210527
60.695 17.115662
60.700 17.158014
60.705 16.715359
60.710 16.028519
60.715 15.832765
60.720 15.279675
60.725 15.305526
60.730 15.381302
60.735 15.034101
60.740 15.296597
60.745 15.732988
60.750 15.565132
60.755 16.002592
60.760 15.889874
60.765 16.023693
60.770 15.978296
60.775 15.81434
60.780 15.677513
60.785 15.666897
60.790 15.519204
60.795 15.747082
60.800 15.633911
60.805 15.561857
60.810 15.711169
60.815 16.532806
60.820 16.335623
60.825 16.689442
60.830 17.017494
60.835 16.368927
60.840 16.151249
60.845 15.760674
60.850 15.551694
60.855 15.974562
60.860 15.152505
60.865 14.773452
60.870 15.411747
60.875 15.320347
60.880 15.198539
60.885 14.928241
60.890 14.557443
60.895 14.599569
60.900 14.461052
60.905 14.746135
60.910 15.323487
60.915 15.459725
60.920 15.842456
60.925 16.056749
60.930 16.226217
60.935 16.468647
60.940 16.410744
60.945 16.158825
60.950 16.163752
60.955 15.821295
60.960 15.750249
60.965 15.934763
60.970 16.185896
60.975 16.009367
60.980 16.18165
60.985 16.421154
60.990 16.763626
60.995 16.673502
61.000 16.652851
61.005 16.116053
61.010 15.503881
61.015 14.955931
61.020 14.501169
61.025 14.462608
61.030 14.654785
61.035 14.537875
61.040 15.159013
61.045 15.385695
61.050 15.673134
61.055 15.29831
61.060 15.132244
61.065 15.061205
61.070 15.2026
61.075 15.057353
61.080 15.483669
61.085 14.980596
61.090 15.009846
61.095 14.904868
61.100 14.925948
61.105 14.881069
61.110 14.664575
61.115 14.483565
61.120 14.916876
61.125 15.443462
61.130 15.111955
61.135 14.583275
61.140 14.219059
61.145 14.576747
61.150 14.260919
61.155 14.125069
61.160 13.741446
61.165 14.237624
61.170 14.988177
61.175 15.997288
61.180 16.074312
61.185 16.147318
61.190 16.173252
61.195 16.207285
61.200 16.651869
61.205 17.048834
61.210 16.704996
61.215 16.961117
61.220 16.98493
61.225 17.443861
61.230 17.842018
61.235 17.55459
61.240 16.756569
61.245 16.487888
61.250 16.673443
61.255 16.811634
61.260 16.791883
61.265 16.350565
61.270 16.080393
61.275 16.16847
61.280 16.076582
61.285 15.432479
61.290 15.174943
61.295 14.705276
61.300 14.564913
61.305 14.582026
61.310 14.003323
61.315 14.237554
61.320 14.919311
61.325 14.96029
61.330 15.33363
61.335 15.441932
61.340 15.229324
61.345 15.37126
61.350 14.986877
61.355 14.55165
61.360 14.417202
61.365 14.53359
61.370 14.223862
61.375 14.06395
61.380 14.057348
61.385 14.147383
61.390 14.217637
61.395 14.041123
61.400 13.43735
61.405 13.446827
61.410 14.093742
61.415 14.033705
61.420 13.981608
61.425 13.915918
61.430 14.255774
61.435 14.797046
61.440 15.597676
61.445 15.46737
61.450 15.503421
61.455 15.811961
61.460 16.248213
61.465 16.536612
61.470 16.761492
61.475 16.421597
61.480 15.881098
61.485 15.578712
61.490 14.978847
61.495 14.660125
61.500 14.587498
61.505 14.103197
61.510 14.198303
61.515 15.057237
61.520 15.637099
61.525 16.258432
61.530 16.867043
61.535 16.794683
61.540 16.915924
61.545 16.99811
61.550 16.849154
61.555 16.709042
61.560 16.331221
61.565 16.133387
61.570 16.353891
61.575 16.400982
61.580 16.472132
61.585 16.448668
61.590 16.361155
61.595 16.201618
61.600 15.762365
61.605 15.303433
61.610 15.35178
61.615 15.019617
61.620 14.449312
61.625 13.987943
61.630 13.805928
61.635 14.081418
61.640 14.446648
61.645 14.417836
61.650 14.484073
61.655 14.812318
61.660 15.338426
61.665 15.402453
61.670 15.262923
61.675 15.350574
61.680 15.338511
61.685 15.360124
61.690 15.696359
61.695 15.52044
61.700 15.535103
61.705 15.431514
61.710 15.077412
61.715 14.99227
61.720 14.745787
61.725 14.165152
61.730 14.089387
61.735 14.452747
61.740 14.612301
61.745 14.64716
61.750 14.669284
61.755 14.953969
61.760 15.098114
61.765 15.630692
61.770 15.508835
61.775 15.632675
61.780 15.700234
61.785 15.482347
61.790 15.628838
61.795 16.203346
61.800 16.177805
61.805 16.457561
61.810 16.270321
61.815 16.579134
61.820 17.174236
61.825 17.228832
61.830 16.774757
61.835 16.557825
61.840 16.47875
61.845 16.459658
61.850 16.573793
61.855 17.08009
61.860 17.272926
61.865 17.536701
61.870 17.113535
61.875 17.102657
61.880 17.31348
61.885 17.602253
61.890 17.079247
61.895 17.215378
61.900 18.009464
61.905 18.456039
61.910 18.439451
61.915 17.818323
61.920 17.153803
61.925 16.880905
61.930 15.891951
61.935 15.105334
61.940 15.281702
61.945 15.243033
61.950 15.37037
61.955 15.294691
61.960 14.857644
61.965 14.951127
61.970 14.254679
61.975 13.583097
61.980 13.193441
61.985 13.187238
61.990 13.056687
61.995 13.223976
62.000 14.022696
62.005 14.97587
62.010 15.538331
62.015 16.036175
62.020 16.179605
62.025 15.914027
62.030 15.617906
62.035 14.989659
62.040 14.531738
62.045 14.351876
62.050 14.393196
62.055 14.420534
62.060 14.936917
62.065 15.240594
62.070 15.148508
62.075 15.125104
62.080 15.104805
62.085 15.151219
62.090 15.309598
62.095 15.658181
62.100 15.948643
62.105 15.955876
62.110 15.677156
62.115 15.82163
62.120 15.978621
62.125 15.721882
62.130 14.803123
62.135 14.482335
62.140 14.227549
62.145 14.568781
62.150 14.341756
62.155 13.871159
62.160 14.097383
62.165 14.57513
62.170 14.975578
62.175 15.54052
62.180 16.118521
62.185 16.570135
62.190 16.932558
62.195 16.72538
62.200 16.794111
62.205 16.278788
62.210 16.147461
62.215 15.667259
62.220 15.174605
62.225 15.178489
62.230 15.51223
62.235 15.841641
62.240 16.572077
62.245 16.546213
62.250 16.527065
62.255 16.738428
62.260 17.082436
62.265 16.940432
62.270 16.139212
62.275 15.742458
62.280 15.368066
62.285 15.642025
62.290 15.617242
62.295 15.21639
62.300 14.854131
62.305 15.335887
62.310 15.529835
62.315 15.393452
62.320 14.896098
62.325 14.710715
62.330 14.607005
62.335 14.849159
62.340 14.369988
62.345 14.398866
62.350 14.435659
62.355 14.276739
62.360 14.302722
62.365 14.483347
62.370 14.438478
62.375 14.254434
62.380 13.951178
62.385 13.921269
62.390 13.829268
62.395 13.538933
62.400 13.565063
62.405 14.016673
62.410 14.602641
62.415 14.940892
62.420 15.09117
62.425 15.142642
62.430 15.516429
62.435 15.467509
62.440 15.410331
62.445 15.589005
62.450 16.021641
62.455 16.657463
62.460 17.085955
62.465 16.991894
62.470 17.342752
62.475 17.275667
62.480 16.98625
62.485 16.711082
62.490 15.94841
62.495 15.469012
62.500 15.036913
62.505 14.037723
62.510 13.972981
62.515 14.144602
62.520 13.915421
62.525 14.42887
62.530 15.296535
62.535 16.306398
62.540 16.821501
62.545 16.631954
62.550 16.746006
62.555 16.95817
62.560 17.467108
62.565 17.095125
62.570 16.314047
62.575 16.518646
62.580 16.544832
62.585 16.359547
62.590 16.177715
62.595 16.130928
62.600 16.416592
62.605 17.026085
62.610 16.782715
62.615 16.791788
62.620 16.7869
62.625 16.647293
62.630 16.366127
62.635 16.385281
62.640 16.053217
62.645 15.751152
62.650 15.246641
62.655 15.229419
62.660 15.420688
62.665 15.303257
62.670 15.144523
62.675 15.346882
62.680 15.575328
62.685 16.06312
62.690 16.788162
62.695 17.327898
62.700 17.378599
62.705 17.43716
62.710 17.733604
62.715 18.302017
62.720 18.577248
62.725 17.964563
62.730 17.979143
62.735 18.542194
62.740 18.642809
62.745 18.531647
62.750 17.990078
62.755 17.808437
62.760 17.771208
62.765 17.52359
62.770 17.152578
62.775 17.056555
62.780 16.938046
62.785 16.941374
62.790 17.006365
62.795 17.296654
62.800 16.454378
62.805 15.857797
62.810 15.611483
62.815 15.92767
62.820 16.119743
62.825 16.138029
62.830 16.207064
62.835 16.692419
62.840 16.878103
62.845 16.813141
62.850 16.483353
62.855 16.849806
62.860 16.304556
62.865 16.021589
62.870 15.747818
62.875 15.635186
62.880 15.424902
62.885 15.365046
62.890 14.833832
62.895 15.180205
62.900 15.186106
62.905 15.343053
62.910 15.155171
62.915 15.521534
62.920 15.935682
62.925 16.394043
62.930 16.28484
62.935 16.090235
62.940 16.944958
62.945 17.233601
62.950 17.11274
62.955 16.75246
62.960 16.268486
62.965 16.296244
62.970 16.56385
62.975 16.023323
62.980 15.914396
62.985 15.552162
62.990 15.321822
62.995 15.927582
63.000 15.955843
63.005 15.442516
63.010 15.337382
63.015 15.671309
63.020 16.170408
63.025 16.34795
63.030 15.793481
63.035 15.819327
63.040 16.016548
63.045 16.052753
63.050 15.976252
63.055 15.94361
63.060 16.027843
63.065 15.896357
63.070 15.623978
63.075 15.870176
63.080 15.67094
63.085 15.472168
63.090 15.49969
63.095 15.426803
63.100 15.620644
63.105 15.688877
63.110 15.231333
63.115 15.112045
63.120 15.080028
63.125 14.567302
63.130 14.480438
63.135 14.327473
63.140 14.586637
63.145 14.781823
63.150 14.991693
63.155 15.105232
63.160 15.614517
63.165 15.7055
63.170 16.015486
63.175 16.017105
63.180 16.083364
63.185 15.879519
63.190 15.58687
63.195 15.360004
63.200 15.862838
63.205 15.987942
63.210 15.936275
63.215 15.748634
63.220 16.014462
63.225 16.649925
63.230 16.266413
63.235 15.41382
63.240 14.679543
63.245 14.687512
63.250 14.668792
63.255 15.01101
63.260 14.652195
63.265 14.674895
63.270 15.142629
63.275 16.141958
63.280 16.534662
63.285 17.128786
63.290 17.473503
63.295 18.237364
63.300 19.075041
63.305 18.852688
63.310 18.333717
63.315 17.987305
63.320 17.450357
63.325 16.509262
63.330 15.564872
63.335 15.292378
63.340 15.268213
63.345 14.898689
63.350 15.235402
63.355 15.225798
63.360 15.885852
63.365 16.407228
63.370 16.554935
63.375 16.688583
63.380 17.543201
63.385 17.44795
63.390 17.482719
63.395 17.378271
63.400 17.377047
63.405 17.328585
63.410 17.066275
63.415 16.982315
63.420 17.567905
63.425 17.803699
63.430 18.204416
63.435 17.879406
63.440 17.406851
63.445 17.304569
63.450 16.840736
63.455 16.484488
63.460 16.538139
63.465 16.578585
63.470 16.979464
63.475 17.513004
63.480 18.011877
63.485 18.737764
63.490 18.620741
63.495 17.890661
63.500 17.563747
63.505 18.195997
63.510 18.234819
63.515 18.269445
63.520 17.729902
63.525 17.432144
63.530 17.167498
63.535 16.943672
63.540 16.035786
63.545 16.103989
63.550 16.154888
63.555 15.966722
63.560 16.510265
63.565 17.043016
63.570 16.9643
63.575 17.061708
63.580 16.627291
63.585 16.336351
63.590 16.840586
63.595 16.548153
63.600 16.173859
63.605 16.260071
63.610 16.050638
63.615 16.262234
63.620 16.929411
63.625 16.442272
63.630 16.541361
63.635 16.786425
63.640 17.057695
63.645 17.097679
63.650 16.925907
63.655 16.047813
63.660 16.48387
63.665 17.472137
63.670 17.899445
63.675 17.721178
63.680 17.780411
63.685 17.488796
63.690 17.36758
63.695 16.979494
63.700 16.12355
63.705 15.164206
63.710 15.102158
63.715 15.289025
63.720 15.588759
63.725 15.462555
63.730 15.363017
63.735 15.636633
63.740 16.017786
63.745 15.86625
63.750 15.990423
63.755 15.81406
63.760 16.236914
63.765 16.487553
63.770 16.18795
63.775 16.057205
63.780 15.730026
63.785 15.171905
63.790 15.684781
63.795 15.870813
63.800 15.491815
63.805 15.522527
63.810 16.13928
63.815 16.87439
63.820 17.082418
63.825 16.665592
63.830 16.214777
63.835 16.419374
63.840 16.441772
63.845 15.98301
63.850 15.940514
63.855 15.984429
63.860 15.954227
63.865 16.400885
63.870 16.510998
63.875 17.005821
63.880 17.026697
63.885 16.987608
63.890 17.370287
63.895 17.58736
63.900 17.110832
63.905 16.831814
63.910 16.278006
63.915 16.664337
63.920 16.351938
63.925 15.965274
63.930 15.784967
63.935 16.276304
63.940 16.205257
63.945 16.129116
63.950 15.823852
63.955 15.912645
63.960 15.949483
63.965 16.100351
63.970 16.146833
63.975 16.42692
63.980 16.905605
63.985 17.127932
63.990 16.775553
63.995 17.144524
64.000 17.226452
64.005 17.550028
64.010 17.979979
64.015 18.0534
64.020 18.358
64.025 19.268003
64.030 18.975994
64.035 18.861063
64.040 18.335215
64.045 18.553976
64.050 18.182238
64.055 17.799236
64.060 17.685755
64.065 18.342958
64.070 18.749752
64.075 18.752853
64.080 18.205824
64.085 18.462563
64.090 18.720938
64.095 18.187235
64.100 17.585382
64.105 17.462025
64.110 17.748352
64.115 18.001581
64.120 18.325846
64.125 17.800261
64.130 18.235302
64.135 18.08807
64.140 17.903082
64.145 17.863134
64.150 17.508583
64.155 16.541624
64.160 16.706228
64.165 16.609423
64.170 16.732351
64.175 16.344213
64.180 15.519438
64.185 15.156809
64.190 15.8363
64.195 15.789391
64.200 15.609211
64.205 15.9188
64.210 15.922758
64.215 16.358431
64.220 16.627071
64.225 16.875454
64.230 17.396175
64.235 17.707516
64.240 17.696466
64.245 18.08227
64.250 18.347042
64.255 18.991951
64.260 18.607159
64.265 18.21073
64.270 18.400372
64.275 18.474524
64.280 18.482868
64.285 18.637745
64.290 18.398945
64.295 18.958138
64.300 19.216524
64.305 18.885458
64.310 19.11772
64.315 19.055645
64.320 19.291107
64.325 19.441078
64.330 19.272472
64.335 19.353418
64.340 19.551956
64.345 19.238565
64.350 19.030001
64.355 18.719778
64.360 19.117466
64.365 18.905807
64.370 18.792372
64.375 19.279766
64.380 19.814083
64.385 20.18535
64.390 20.365732
64.395 19.948778
64.400 20.293056
64.405 20.543051
64.410 20.079889
64.415 18.940329
64.420 19.150772
64.425 18.880318
64.430 18.665302
64.435 18.490334
64.440 18.507782
64.445 18.12229
64.450 19.150824
64.455 18.803713
64.460 18.775852
64.465 19.609306
64.470 19.938089
64.475 19.647228
64.480 19.919262
64.485 19.571951
64.490 19.534927
64.495 19.511934
64.500 18.54154
64.505 18.026104
64.510 17.859074
64.515 18.271542
64.520 18.489038
64.525 18.142296
64.530 17.464317
64.535 17.416914
64.540 17.394083
64.545 17.330198
64.550 16.720924
64.555 16.606789
64.560 17.15616
64.565 17.543947
64.570 17.3323
64.575 17.615549
64.580 18.14596
64.585 18.759142
64.590 18.74115
64.595 18.645737
64.600 19.130304
64.605 19.393152
64.610 19.405792
64.615 18.762947
64.620 18.462019
64.625 18.545799
64.630 18.232864
64.635 17.413572
64.640 17.830992
64.645 17.939175
64.650 18.301973
64.655 17.959322
64.660 18.009871
64.665 18.700207
64.670 18.977619
64.675 18.825359
64.680 18.134819
64.685 17.852238
64.690 18.42687
64.695 19.026531
64.700 18.993832
64.705 19.072964
64.710 19.494421
64.715 20.311079
64.720 20.832918
64.725 20.485968
64.730 19.882767
64.735 19.675798
64.740 19.534319
64.745 18.960636
64.750 19.247828
64.755 19.257811
64.760 20.001408
64.765 20.557461
64.770 20.777218
64.775 20.91548
64.780 21.637827
64.785 21.770832
64.790 21.682144
64.795 21.053093
64.800 21.30657
64.805 21.569738
64.810 21.741844
64.815 21.309639
64.820 20.946329
64.825 20.944876
64.830 21.083923
64.835 20.380259
64.840 20.432745
64.845 20.836626
64.850 21.424866
64.855 21.59148
64.860 21.642139
64.865 21.895475
64.870 22.310476
64.875 22.502592
64.880 22.084406
64.885 21.843794
64.890 21.4027
64.895 21.39242
64.900 20.905848
64.905 20.665792
64.910 20.742172
64.915 21.184019
64.920 21.507839
64.925 21.548834
64.930 21.760677
64.935 22.184727
64.940 22.495159
64.945 23.096964
64.950 23.695679
64.955 23.795515
64.960 24.507843
64.965 24.767036
64.970 25.177174
64.975 25.781958
64.980 25.681826
64.985 25.69149
64.990 25.471725
64.995 25.643278
65.000 26.366047
65.005 26.081053
65.010 25.753378
65.015 25.439749
65.020 25.881857
65.025 26.360247
65.030 26.042702
65.035 26.26965
65.040 26.70715
65.045 26.52751
65.050 26.322508
65.055 25.883699
65.060 25.988226
65.065 26.378798
65.070 25.434483
65.075 25.462496
65.080 25.891649
65.085 27.242949
65.090 27.311947
65.095 27.123232
65.100 26.72826
65.105 27.167009
65.110 27.405119
65.115 27.011196
65.120 26.086639
65.125 25.950571
65.130 26.121216
65.135 26.138533
65.140 25.878695
65.145 25.502098
65.150 24.938177
65.155 24.490061
65.160 24.379112
65.165 24.214222
65.170 24.705357
65.175 24.83675
65.180 24.348022
65.185 24.347303
65.190 24.712133
65.195 25.1971
65.200 25.340109
65.205 24.759998
65.210 24.0488
65.215 24.4904
65.220 24.910524
65.225 25.34837
65.230 25.089643
65.235 24.569088
65.240 24.206209
65.245 24.324181
65.250 24.141024
65.255 24.280518
65.260 23.819344
65.265 23.504383
65.270 24.171129
65.275 24.776497
65.280 25.397816
65.285 25.043739
65.290 24.369223
65.295 24.297544
65.300 24.521784
65.305 23.776518
65.310 22.902742
65.315 22.281717
65.320 22.478519
65.325 22.564919
65.330 21.929316
65.335 21.674898
65.340 22.515236
65.345 23.17901
65.350 23.349985
65.355 23.344994
65.360 23.940531
65.365 24.351122
65.370 24.08947
65.375 23.285809
65.380 23.415503
65.385 24.079325
65.390 24.225761
65.395 23.941061
65.400 23.737968
65.405 23.497967
65.410 23.682133
65.415 23.469053
65.420 23.816151
65.425 24.244818
65.430 24.076614
65.435 23.732477
65.440 23.88747
65.445 23.955322
65.450 23.884346
65.455 23.234978
65.460 22.700607
65.465 22.581707
65.470 23.393396
65.475 23.22846
65.480 23.079594
65.485 22.986492
65.490 22.837191
65.495 23.054302
65.500 23.746624
65.505 23.345388
65.510 23.513264
65.515 23.417156
65.520 23.658649
65.525 23.252689
65.530 23.213543
65.535 22.837946
65.540 22.784779
65.545 23.619791
65.550 24.085497
65.555 23.904947
65.560 24.279377
65.565 23.916834
65.570 24.042147
65.575 24.786856
65.580 25.327477
65.585 25.302017
65.590 25.293633
65.595 25.646141
65.600 25.866734
65.605 26.465767
65.610 25.918198
65.615 25.202526
65.620 25.309612
65.625 25.818674
65.630 25.744297
65.635 25.351942
65.640 25.164059
65.645 24.809717
65.650 24.318394
65.655 24.239208
65.660 23.869076
65.665 23.739614
65.670 23.830473
65.675 23.992245
65.680 25.244129
65.685 25.530493
65.690 25.936392
65.695 26.808338
65.700 27.214067
65.705 27.473881
65.710 27.197412
65.715 27.338848
65.720 27.569157
65.725 27.219069
65.730 26.829481
65.735 26.674097
65.740 26.829052
65.745 26.472904
65.750 25.987925
65.755 25.338877
65.760 24.994886
65.765 25.12751
65.770 25.532932
65.775 25.441669
65.780 26.176062
65.785 26.313707
65.790 27.415419
65.795 27.206989
65.800 27.035172
65.805 27.093889
65.810 26.869589
65.815 26.580349
65.820 27.197319
65.825 27.61874
65.830 28.918974
65.835 29.425945
65.840 29.897348
65.845 30.69602
65.850 30.522139
65.855 29.349335
65.860 28.671659
65.865 28.714703
65.870 28.808058
65.875 28.758274
65.880 29.278521
65.885 29.570471
65.890 30.627607
65.895 31.268242
65.900 31.111996
65.905 31.346876
65.910 31.27294
65.915 31.025536
65.920 31.756006
65.925 31.708124
65.930 31.533785
65.935 31.773352
65.940 32.171368
65.945 32.166557
65.950 32.22773
65.955 31.949522
65.960 31.947966
65.965 31.946436
65.970 32.059998
65.975 31.773012
65.980 32.248379
65.985 33.106419
65.990 33.370216
65.995 34.002403
66.000 34.378555
66.005 34.890293
66.010 35.329739
66.015 35.051861
66.020 34.888191
66.025 34.267509
66.030 33.225426
66.035 32.672356
66.040 32.162174
66.045 31.882385
66.050 31.841455
66.055 31.518717
66.060 32.259487
66.065 32.761848
66.070 32.843719
66.075 32.775696
66.080 32.751854
66.085 32.547192
66.090 32.00425
66.095 31.673645
66.100 31.893188
66.105 32.415249
66.110 32.358719
66.115 33.04026
66.120 33.418671
66.125 33.364388
66.130 33.791805
66.135 33.507874
66.140 32.475178
66.145 32.219315
66.150 30.750685
66.155 30.035206
66.160 30.066912
66.165 29.844118
66.170 29.799723
66.175 30.095572
66.180 30.332281
66.185 31.057621
66.190 31.619656
66.195 31.898825
66.200 32.04026
66.205 31.944069
66.210 32.100529
66.215 32.57431
66.220 31.90946
66.225 31.032276
66.230 30.041794
66.235 29.77125
66.240 29.877979
66.245 29.950113
66.250 29.968668
66.255 31.077732
66.260 32.019588
66.265 32.321514
66.270 32.202393
66.275 31.916027
66.280 31.434132
66.285 31.54744
66.290 31.294268
66.295 30.528439
66.300 30.475777
66.305 31.084896
66.310 30.818184
66.315 30.473705
66.320 29.671251
66.325 29.834414
66.330 30.346222
66.335 30.313511
66.340 29.821339
66.345 29.819538
66.350 30.257387
66.355 30.339643
66.360 30.38666
66.365 30.388481
66.370 30.7654
66.375 30.448265
66.380 30.2878
66.385 29.477915
66.390 28.981604
66.395 27.978725
66.400 27.764805
66.405 27.503284
66.410 28.432409
66.415 28.210962
66.420 28.451889
66.425 28.572126
66.430 28.827694
66.435 28.639183
66.440 28.363888
66.445 27.365356
66.450 26.767183
66.455 26.433678
66.460 26.249212
66.465 26.333654
66.470 26.706505
66.475 26.546709
66.480 26.829027
66.485 27.133884
66.490 26.801004
66.495 26.787066
66.500 26.426224
66.505 25.644989
66.510 25.251215
66.515 24.779905
66.520 24.845787
66.525 25.142984
66.530 24.838331
66.535 24.380281
66.540 24.986256
66.545 25.202988
66.550 24.851639
66.555 24.831739
66.560 24.993206
66.565 24.784758
66.570 24.737318
66.575 24.109547
66.580 23.478256
66.585 23.377501
66.590 23.190037
66.595 23.138884
66.600 22.612555
66.605 22.47789
66.610 22.446905
66.615 22.374456
66.620 22.154814
66.625 21.906298
66.630 21.331896
66.635 21.3367
66.640 21.331429
66.645 20.88509
66.650 20.708063
66.655 20.438009
66.660 19.999805
66.665 20.350401
66.670 20.742956
66.675 20.751059
66.680 21.733345
66.685 21.911007
66.690 21.998198
66.695 21.770544
66.700 21.577534
66.705 21.594051
66.710 21.770594
66.715 21.556763
66.720 21.588167
66.725 21.870911
66.730 21.784546
66.735 20.911005
66.740 20.735661
66.745 20.632732
66.750 20.565186
66.755 20.564638
66.760 20.296375
66.765 20.556339
66.770 21.092297
66.775 21.24544
66.780 21.163986
66.785 20.633623
66.790 20.066114
66.795 19.842117
66.800 20.111742
66.805 20.049707
66.810 18.966986
66.815 18.277998
66.820 18.181026
66.825 18.695566
66.830 18.153042
66.835 17.863554
66.840 17.974943
66.845 18.926926
66.850 19.428621
66.855 19.661627
66.860 18.830372
66.865 18.666462
66.870 18.242643
66.875 17.75568
66.880 17.341312
66.885 16.997671
66.890 16.648029
66.895 17.14426
66.900 17.003801
66.905 17.186817
66.910 17.758032
66.915 17.885786
66.920 18.421251
66.925 18.552229
66.930 18.832045
66.935 19.283794
66.940 19.150038
66.945 19.251457
66.950 18.986246
66.955 18.397863
66.960 18.423021
66.965 18.417078
66.970 18.021029
66.975 18.423178
66.980 18.431416
66.985 18.677706
66.990 19.326269
66.995 19.606789
67.000 19.741457
67.005 20.35564
67.010 20.350138
67.015 20.051929
67.020 20.137848
67.025 20.071804
67.030 20.268139
67.035 20.134684
67.040 19.554861
67.045 19.085793
67.050 19.286476
67.055 18.747282
67.060 18.165073
67.065 17.317137
67.070 17.180611
67.075 17.628002
67.080 17.879551
67.085 17.998398
67.090 18.167625
67.095 18.406206
67.100 18.926741
67.105 19.071644
67.110 18.312447
67.115 18.103258
67.120 18.397694
67.125 18.745436
67.130 18.619841
67.135 18.534533
67.140 18.484985
67.145 18.665573
67.150 18.47051
67.155 18.418278
67.160 18.509388
67.165 18.372105
67.170 18.131193
67.175 18.466511
67.180 19.03919
67.185 18.862616
67.190 19.169737
67.195 19.355938
67.200 19.887999
67.205 19.268085
67.210 19.234871
67.215 18.850811
67.220 18.577761
67.225 18.043982
67.230 17.145687
67.235 16.959826
67.240 17.191639
67.245 17.161703
67.250 17.436972
67.255 17.531841
67.260 18.175123
67.265 18.848867
67.270 19.094265
67.275 19.561422
67.280 19.151123
67.285 19.196152
67.290 19.733194
67.295 18.748363
67.300 18.455013
67.305 18.043713
67.310 17.538582
67.315 17.749945
67.320 17.985989
67.325 17.783344
67.330 18.052273
67.335 18.365099
67.340 18.78335
67.345 19.952644
67.350 20.358967
67.355 20.177189
67.360 19.660757
67.365 18.876598
67.370 17.991117
67.375 17.177885
67.380 16.677395
67.385 16.460659
67.390 16.353819
67.395 16.538605
67.400 17.20179
67.405 17.988127
67.410 18.012346
67.415 17.937469
67.420 17.619989
67.425 17.938271
67.430 18.281412
67.435 17.860832
67.440 17.40243
67.445 17.643526
67.450 17.341656
67.455 17.70578
67.460 17.202789
67.465 16.771397
67.470 17.146412
67.475 17.398146
67.480 18.027321
67.485 18.423813
67.490 18.292458
67.495 18.597969
67.500 18.919432
67.505 19.331514
67.510 19.622051
67.515 19.192478
67.520 19.090731
67.525 18.848944
67.530 18.749342
67.535 18.529003
67.540 18.205736
67.545 18.316656
67.550 18.222418
67.555 18.622631
67.560 19.044939
67.565 18.882904
67.570 18.500942
67.575 18.026442
67.580 17.635284
67.585 17.818785
67.590 17.962765
67.595 17.758514
67.600 17.95446
67.605 18.555622
67.610 18.976164
67.615 19.003914
67.620 19.170645
67.625 19.025923
67.630 19.115349
67.635 19.019764
67.640 19.281187
67.645 19.320797
67.650 19.534767
67.655 19.139763
67.660 18.280596
67.665 18.352617
67.670 17.948538
67.675 18.08416
67.680 18.162893
67.685 17.834745
67.690 17.656609
67.695 17.994335
67.700 18.099663
67.705 18.950291
67.710 18.830227
67.715 18.441706
67.720 18.39255
67.725 19.195223
67.730 19.478983
67.735 19.82884
67.740 19.380354
67.745 18.620399
67.750 18.503172
67.755 18.547989
67.760 18.172056
67.765 17.835926
67.770 17.352055
67.775 17.260809
67.780 17.962198
67.785 18.311584
67.790 18.656834
67.795 18.497231
67.800 18.974953
67.805 19.273424
67.810 19.657543
67.815 19.518564
67.820 19.778305
67.825 19.1777
67.830 19.245749
67.835 19.240753
67.840 19.210127
67.845 18.776842
67.850 19.209202
67.855 19.107235
67.860 19.558187
67.865 19.849447
67.870 19.358616
67.875 19.644379
67.880 19.537334
67.885 19.055061
67.890 19.072577
67.895 18.166998
67.900 18.280943
67.905 18.410345
67.910 18.132875
67.915 18.658014
67.920 18.586048
67.925 18.424433
67.930 18.925028
67.935 18.927378
67.940 19.008591
67.945 18.937836
67.950 18.589483
67.955 18.154499
67.960 17.515459
67.965 16.985048
67.970 16.41148
67.975 16.068209
67.980 16.238371
67.985 16.062876
67.990 16.639889
67.995 17.31341
68.000 17.825861
68.005 18.173828
68.010 18.068605
68.015 18.107168
68.020 18.440475
68.025 18.428797
68.030 18.275698
68.035 18.463053
68.040 18.31391
68.045 18.555685
68.050 18.537498
68.055 18.652086
68.060 18.714804
68.065 18.251101
68.070 18.158133
68.075 18.386452
68.080 17.994955
68.085 17.801668
68.090 17.418793
68.095 17.944523
68.100 19.057383
68.105 19.103304
68.110 18.499262
68.115 18.555429
68.120 18.807478
68.125 19.437439
68.130 18.998749
68.135 18.393959
68.140 18.24048
68.145 18.871824
68.150 18.925409
68.155 18.320316
68.160 17.730333
68.165 17.365107
68.170 16.962538
68.175 17.438583
68.180 17.41341
68.185 17.327196
68.190 17.581598
68.195 17.734442
68.200 17.507811
68.205 17.654478
68.210 17.12421
68.215 17.418819
68.220 17.733868
68.225 17.696699
68.230 17.752792
68.235 18.229794
68.240 18.566448
68.245 19.315281
68.250 19.239195
68.255 19.422199
68.260 20.167866
68.265 20.586464
68.270 20.020611
68.275 19.133066
68.280 18.71697
68.285 18.974277
68.290 19.16379
68.295 18.491735
68.300 18.239735
68.305 18.786673
68.310 19.241816
68.315 18.584625
68.320 18.119175
68.325 17.360928
68.330 17.243301
68.335 17.344929
68.340 16.851387
68.345 16.787346
68.350 17.018379
68.355 16.990973
68.360 17.259436
68.365 17.134039
68.370 17.147663
68.375 16.872595
68.380 16.917629
68.385 17.068035
68.390 16.885595
68.395 17.364025
68.400 17.953106
68.405 17.787777
68.410 17.962133
68.415 17.702251
68.420 17.814116
68.425 18.424755
68.430 18.094881
68.435 17.396229
68.440 17.720974
68.445 18.3158
68.450 18.536577
68.455 18.349489
68.460 17.845688
68.465 17.834467
68.470 18.565857
68.475 19.220749
68.480 19.286505
68.485 19.479546
68.490 20.292419
68.495 20.40798
68.500 20.156639
68.505 19.005672
68.510 18.360296
68.515 18.179222
68.520 18.137215
68.525 17.965942
68.530 18.326271
68.535 19.183016
68.540 20.227949
68.545 20.394327
68.550 20.506634
68.555 20.517101
68.560 20.008364
68.565 19.363121
68.570 18.945076
68.575 18.720402
68.580 18.822283
68.585 18.430298
68.590 17.534626
68.595 17.442625
68.600 17.634827
68.605 17.252319
68.610 16.51507
68.615 16.574305
68.620 16.359962
68.625 16.582848
68.630 16.861233
68.635 16.753963
68.640 17.216433
68.645 17.595387
68.650 18.110573
68.655 18.366461
68.660 18.758139
68.665 18.652208
68.670 18.521273
68.675 18.138802
68.680 18.10144
68.685 17.158047
68.690 17.398031
68.695 17.265072
68.700 17.491478
68.705 17.463428
68.710 17.72073
68.715 17.917961
68.720 18.706345
68.725 18.514204
68.730 18.566633
68.735 18.932472
68.740 19.364882
68.745 19.145704
68.750 18.729582
68.755 18.413088
68.760 18.262976
68.765 18.398327
68.770 18.12668
68.775 18.37472
68.780 18.918777
68.785 19.261248
68.790 19.288206
68.795 19.187189
68.800 18.811899
68.805 18.856813
68.810 18.69035
68.815 18.816736
68.820 19.285643
68.825 19.028236
68.830 18.46422
68.835 19.004227
68.840 18.928091
68.845 18.69504
68.850 18.310286
68.855 18.353397
68.860 19.113602
68.865 19.866344
68.870 18.996202
68.875 19.419109
68.880 19.522036
68.885 19.439302
68.890 18.99062
68.895 18.903
68.900 18.840006
68.905 19.241547
68.910 18.880936
68.915 19.246258
68.920 19.173674
68.925 19.083441
68.930 18.977179
68.935 19.577396
68.940 19.948732
68.945 20.740919
68.950 20.884974
68.955 21.114151
68.960 21.28035
68.965 21.781277
68.970 21.778593
68.975 21.164408
68.980 20.136297
68.985 20.23299
68.990 20.235632
68.995 20.183048
69.000 19.780506
69.005 19.888273
69.010 20.1945
69.015 20.380535
69.020 20.626823
69.025 21.073458
69.030 20.69235
69.035 20.621363
69.040 20.512413
69.045 21.062376
69.050 20.933205
69.055 20.365412
69.060 20.397785
69.065 21.156631
69.070 21.488979
69.075 22.093592
69.080 21.577122
69.085 21.662354
69.090 21.86577
69.095 21.778187
69.100 21.520294
69.105 21.307085
69.110 20.741219
69.115 21.311514
69.120 21.454453
69.125 21.640879
69.130 21.674635
69.135 21.541382
69.140 21.614738
69.145 21.666065
69.150 22.105844
69.155 21.996229
69.160 21.743135
69.165 21.794497
69.170 22.425596
69.175 22.671116
69.180 22.355856
69.185 22.169758
69.190 21.694674
69.195 22.232634
69.200 22.540579
69.205 21.773041
69.210 21.601582
69.215 21.942663
69.220 21.784403
69.225 22.492481
69.230 22.01228
69.235 22.344193
69.240 22.923069
69.245 22.767178
69.250 23.003513
69.255 23.814869
69.260 23.043005
69.265 22.988028
69.270 22.732327
69.275 23.043598
69.280 23.575579
69.285 23.799057
69.290 23.546818
69.295 23.834307
69.300 23.878138
69.305 24.057119
69.310 24.165922
69.315 23.671223
69.320 22.869057
69.325 22.620768
69.330 22.417137
69.335 22.576874
69.340 22.434853
69.345 23.325537
69.350 24.215034
69.355 25.221285
69.360 26.140436
69.365 26.133867
69.370 25.938072
69.375 25.683338
69.380 24.629986
69.385 23.814215
69.390 23.900852
69.395 24.131971
69.400 24.626631
69.405 24.319288
69.410 24.398796
69.415 25.100271
69.420 25.599657
69.425 24.918089
69.430 25.12929
69.435 25.266237
69.440 26.146303
69.445 26.740019
69.450 27.161692
69.455 27.3598
69.460 27.9519
69.465 27.891291
69.470 28.436012
69.475 28.545311
69.480 28.354767
69.485 27.941566
69.490 27.633802
69.495 27.545822
69.500 27.115368
69.505 26.938698
69.510 27.256268
69.515 27.978052
69.520 28.67337
69.525 28.804562
69.530 28.635742
69.535 29.487089
69.540 29.344872
69.545 29.136385
69.550 28.294088
69.555 27.323072
69.560 27.38666
69.565 27.493166
69.570 26.882256
69.575 26.557516
69.580 25.790281
69.585 25.856653
69.590 26.416317
69.595 26.457708
69.600 26.584486
69.605 27.090727
69.610 27.603216
69.615 28.362192
69.620 29.3612
69.625 29.598324
69.630 29.59939
69.635 29.154078
69.640 28.613165
69.645 28.988861
69.650 29.150633
69.655 28.660616
69.660 28.368031
69.665 27.844101
69.670 28.081003
69.675 27.923023
69.680 27.496443
69.685 26.807852
69.690 25.939018
69.695 25.323025
69.700 24.904606
69.705 24.719625
69.710 24.751696
69.715 24.920691
69.720 24.968452
69.725 25.028219
69.730 25.911318
69.735 26.110201
69.740 26.628332
69.745 26.340683
69.750 26.165928
69.755 25.77676
69.760 25.118904
69.765 24.451391
69.770 24.018185
69.775 23.222317
69.780 23.639868
69.785 23.832544
69.790 24.027607
69.795 23.943722
69.800 24.0525
69.805 24.01932
69.810 23.648138
69.815 23.040754
69.820 22.327183
69.825 22.156548
69.830 22.657009
69.835 22.543083
69.840 22.751482
69.845 23.192909
69.850 23.183626
69.855 24.265194
69.860 24.134264
69.865 23.698919
69.870 23.232355
69.875 22.600002
69.880 22.826334
69.885 22.173807
69.890 21.356886
69.895 20.950842
69.900 21.039137
69.905 21.084253
69.910 20.599361
69.915 20.098684
69.920 20.104361
69.925 20.139395
69.930 19.758204
69.935 19.194099
69.940 19.193363
69.945 19.907187
69.950 20.173737
69.955 20.086981
69.960 20.093079
69.965 20.557594
69.970 20.730572
69.975 21.058487
69.980 20.12038
69.985 19.707096
69.990 19.392651
69.995 19.075554
70.000 19.159744
70.005 18.656921
70.010 18.743498
70.015 18.930887
70.020 19.415501
70.025 20.191996
70.030 20.076351
70.035 20.286259
70.040 21.155201
70.045 20.877102
70.050 20.516859
70.055 19.399321
70.060 18.920107
70.065 19.263094
70.070 18.961765
70.075 18.17045
70.080 18.161312
70.085 18.242966
70.090 18.487621
70.095 18.475048
70.100 17.720076
70.105 18.172787
70.110 18.56102
70.115 18.57003
70.120 18.354389
70.125 18.204473
70.130 17.901962
70.135 18.015579
70.140 18.203907
70.145 18.52253
70.150 19.265053
70.155 19.844908
70.160 20.327898
70.165 21.027334
70.170 21.294836
70.175 20.62919
70.180 20.453356
70.185 20.384312
70.190 20.403942
70.195 20.409615
70.200 19.957264
70.205 20.057419
70.210 20.19626
70.215 19.487801
70.220 19.347044
70.225 19.156162
70.230 18.6315
70.235 18.580257
70.240 18.871
70.245 18.229036
70.250 18.201033
70.255 17.487335
70.260 17.103037
70.265 16.915215
70.270 16.492617
70.275 16.039211
70.280 16.416677
70.285 16.423845
70.290 16.441231
70.295 16.692831
70.300 17.156994
70.305 17.056351
70.310 17.118332
70.315 17.357159
70.320 17.567444
70.325 17.252922
70.330 16.813087
70.335 16.612093
70.340 16.630178
70.345 16.579199
70.350 15.932427
70.355 15.892007
70.360 16.908501
70.365 17.629021
70.370 17.591818
70.375 17.360371
70.380 17.040054
70.385 17.451935
70.390 17.251266
70.395 16.327618
70.400 16.044735
70.405 15.951347
70.410 15.983283
70.415 15.713157
70.420 15.728653
70.425 15.764952
70.430 16.109671
70.435 16.592421
70.440 16.627766
70.445 16.507135
70.450 17.121656
70.455 17.478619
70.460 17.432962
70.465 17.052605
70.470 16.692701
70.475 17.137825
70.480 17.30547
70.485 16.762003
70.490 16.571966
70.495 16.573784
70.500 17.054014
70.505 17.153938
70.510 17.385521
70.515 17.54262
70.520 17.362274
70.525 17.501213
70.530 18.292032
70.535 17.846066
70.540 17.516045
70.545 16.535236
70.550 16.621286
70.555 16.859575
70.560 16.505091
70.565 15.685282
70.570 15.952248
70.575 16.052105
70.580 16.784769
70.585 17.037037
70.590 16.893551
70.595 16.869822
70.600 16.914034
70.605 16.641718
70.610 16.643002
70.615 16.255302
70.620 16.243898
70.625 16.870535
70.630 16.795292
70.635 16.163015
70.640 16.503756
70.645 16.46876
70.650 16.484919
70.655 16.060167
70.660 15.787312
70.665 16.443481
70.670 16.88213
70.675 16.717125
70.680 17.039696
70.685 17.77487
70.690 18.015625
70.695 17.571793
70.700 17.290251
70.705 17.365612
70.710 16.910084
70.715 16.576002
70.720 15.922103
70.725 16.340296
70.730 16.74663
70.735 16.873489
70.740 17.390276
70.745 17.986288
70.750 18.782295
70.755 18.923973
70.760 18.597267
70.765 18.59013
70.770 18.245691
70.775 17.864897
70.780 17.604292
70.785 17.024303
70.790 16.479712
70.795 16.498119
70.800 15.963945
70.805 16.305637
70.810 16.011112
70.815 15.677931
70.820 16.137659
70.825 16.569799
70.830 17.008696
70.835 17.49206
70.840 17.40255
70.845 17.86198
70.850 17.967573
70.855 17.790884
70.860 17.108519
70.865 16.872992
70.870 16.927065
70.875 17.029417
70.880 16.820957
70.885 16.344511
70.890 16.221556
70.895 16.900318
70.900 16.71043
70.905 16.320501
70.910 16.220642
70.915 16.541271
70.920 16.667967
70.925 16.377373
70.930 16.01296
70.935 16.292913
70.940 16.142553
70.945 15.936539
70.950 16.313997
70.955 17.292597
70.960 18.00032
70.965 18.30752
70.970 18.317429
70.975 18.669872
70.980 19.084541
70.985 18.271069
70.990 16.850534
70.995 16.181795
71.000 15.808905
71.005 15.860076
71.010 15.768126
71.015 15.912471
71.020 16.106422
71.025 16.535868
71.030 16.3652
71.035 16.436335
71.040 16.784323
71.045 16.714096
71.050 16.476717
71.055 16.539038
71.060 16.585251
71.065 16.264454
71.070 16.035206
71.075 16.206625
71.080 16.278952
71.085 16.754292
71.090 17.493191
71.095 17.730797
71.100 18.263844
71.105 18.042831
71.110 17.539587
71.115 17.303156
71.120 16.532717
71.125 16.513071
71.130 17.201792
71.135 17.112514
71.140 17.16995
71.145 16.933516
71.150 17.310923
71.155 17.106112
71.160 16.301735
71.165 16.353245
71.170 16.33861
71.175 16.157789
71.180 15.850911
71.185 15.937916
71.190 16.417845
71.195 17.055828
71.200 16.344444
71.205 16.711376
71.210 17.555628
71.215 17.884558
71.220 17.771263
71.225 17.749454
71.230 17.481928
71.235 18.126909
71.240 17.876751
71.245 17.923218
71.250 18.068142
71.255 18.29303
71.260 18.194204
71.265 17.971844
71.270 17.511614
71.275 17.547916
71.280 17.460949
71.285 17.276964
71.290 17.082455
71.295 16.663506
71.300 17.29236
71.305 17.669184
71.310 17.259912
71.315 17.391031
71.320 16.836086
71.325 16.736603
71.330 17.001684
71.335 17.441843
71.340 17.687639
71.345 17.674162
71.350 17.263987
71.355 17.327505
71.360 17.198723
71.365 17.015305
71.370 16.473833
71.375 16.075502
71.380 15.454255
71.385 15.404305
71.390 15.203503
71.395 15.071402
71.400 15.189286
71.405 15.136213
71.410 15.67102
71.415 16.170767
71.420 16.32085
71.425 16.883217
71.430 16.988457
71.435 16.546017
71.440 16.211336
71.445 16.434765
71.450 16.67658
71.455 16.73247
71.460 16.581251
71.465 17.022083
71.470 17.738363
71.475 17.531708
71.480 17.43376
71.485 16.779316
71.490 16.519485
71.495 16.328016
71.500 15.500603
71.505 14.807788
71.510 14.253539
71.515 13.940388
71.520 14.800359
71.525 14.797243
71.530 14.935108
71.535 15.161861
71.540 15.570336
71.545 15.89584
71.550 16.118584
71.555 15.725892
71.560 15.92249
71.565 16.038788
71.570 16.209061
71.575 16.366941
71.580 16.679884
71.585 16.963556
71.590 16.834007
71.595 16.477577
71.600 16.293264
71.605 15.983334
71.610 15.57526
71.615 14.887356
71.620 15.004045
71.625 15.082814
71.630 15.183141
71.635 15.084525
71.640 15.732809
71.645 16.333696
71.650 16.382254
71.655 15.633262
71.660 16.135416
71.665 16.505571
71.670 16.532211
71.675 16.512188
71.680 16.648691
71.685 17.465851
71.690 17.965244
71.695 17.685434
71.700 17.724489
71.705 17.214571
71.710 16.639053
71.715 16.584991
71.720 17.038471
71.725 17.195894
71.730 17.311499
71.735 17.126747
71.740 17.713209
71.745 17.769489
71.750 17.217855
71.755 16.712858
71.760 16.542042
71.765 16.836096
71.770 16.994551
71.775 17.158663
71.780 17.215206
71.785 17.088459
71.790 16.528017
71.795 15.865666
71.800 15.753487
71.805 15.685508
71.810 15.0639
71.815 15.61403
71.820 15.472441
71.825 15.74236
71.830 15.597814
71.835 14.984716
71.840 14.781926
71.845 14.763065
71.850 14.100616
71.855 13.932555
71.860 13.988544
71.865 14.468889
71.870 15.107668
71.875 15.444746
71.880 15.884651
71.885 16.219803
71.890 16.625221
71.895 16.482912
71.900 15.775382
71.905 15.695383
71.910 15.820922
71.915 15.857254
71.920 15.744384
71.925 15.878388
71.930 16.083233
71.935 17.027315
71.940 17.082062
71.945 16.222013
71.950 16.514061
71.955 16.320709
71.960 16.371262
71.965 16.121061
71.970 15.710751
71.975 15.639249
71.980 16.00667
71.985 15.916883
71.990 16.425106
71.995 16.56004
72.000 16.552868
72.005 16.501509
72.010 16.226406
72.015 16.693644
72.020 16.973076
72.025 16.705488
72.030 16.785027
72.035 17.069265
72.040 17.08551
72.045 16.999271
72.050 16.646423
72.055 16.354774
72.060 16.140253
72.065 15.967847
72.070 15.65941
72.075 15.590114
72.080 15.913594
72.085 15.430626
72.090 15.392417
72.095 15.297482
72.100 15.382277
72.105 15.439021
72.110 14.8009
72.115 14.641318
72.120 14.493292
72.125 14.313158
72.130 14.70706
72.135 15.329079
72.140 15.247624
72.145 15.945241
72.150 16.280983
72.155 17.197771
72.160 17.62409
72.165 17.389923
72.170 17.157373
72.175 17.783754
72.180 17.820744
72.185 17.582777
72.190 17.112198
72.195 17.251633
72.200 17.153397
72.205 16.725307
72.210 16.63484
72.215 16.641811
72.220 17.192619
72.225 17.379162
72.230 17.027391
72.235 16.995728
72.240 16.906984
72.245 16.771563
72.250 16.241348
72.255 15.398602
72.260 15.514929
72.265 16.236567
72.270 16.359997
72.275 16.530743
72.280 16.551069
72.285 16.496222
72.290 16.802034
72.295 16.479963
72.300 16.493937
72.305 16.311483
72.310 16.089701
72.315 16.095791
72.320 16.418343
72.325 16.144753
72.330 16.520124
72.335 17.193108
72.340 17.029247
72.345 16.985353
72.350 16.660036
72.355 16.279554
72.360 16.010801
72.365 15.7719
72.370 15.553387
72.375 16.050489
72.380 16.569592
72.385 16.842567
72.390 16.862226
72.395 16.689562
72.400 16.277411
72.405 16.28558
72.410 16.221241
72.415 15.690681
72.420 15.758414
72.425 15.766156
72.430 15.817106
72.435 15.443789
72.440 15.039669
72.445 14.771162
72.450 14.683397
72.455 14.720407
72.460 14.131984
72.465 13.636308
72.470 13.724099
72.475 13.718882
72.480 13.930426
72.485 14.05578
72.490 14.443522
72.495 15.327568
72.500 15.743906
72.505 15.819676
72.510 15.728865
72.515 15.947507
72.520 16.186441
72.525 15.984276
72.530 15.409594
72.535 15.354486
72.540 15.431716
72.545 15.303567
72.550 14.857565
72.555 14.899484
72.560 14.929672
72.565 14.816401
72.570 14.760362
72.575 14.950572
72.580 15.595117
72.585 16.072535
72.590 15.946101
72.595 15.970964
72.600 16.266592
72.605 16.627424
72.610 16.39776
72.615 16.058382
72.620 15.979759
72.625 16.271713
72.630 16.150959
72.635 16.138981
72.640 16.351816
72.645 15.853608
72.650 15.783497
72.655 15.770279
72.660 15.415188
72.665 15.35784
72.670 15.270809
72.675 15.07374
72.680 15.313338
72.685 15.091236
72.690 14.923297
72.695 15.984781
72.700 16.264351
72.705 16.186222
72.710 16.045603
72.715 15.925556
72.720 15.999297
72.725 15.568777
72.730 14.76378
72.735 14.55076
72.740 14.488092
72.745 14.175206
72.750 13.926343
72.755 13.929111
72.760 14.310473
72.765 14.715133
72.770 14.182297
72.775 14.006491
72.780 14.135857
72.785 14.787507
72.790 14.65508
72.795 14.54852
72.800 14.744987
72.805 15.700334
72.810 15.727137
72.815 15.849589
72.820 14.907913
72.825 14.713533
72.830 14.905307
72.835 14.7359
72.840 14.629884
72.845 14.872033
72.850 15.173542
72.855 15.396776
72.860 15.425916
72.865 15.168906
72.870 15.348248
72.875 15.447916
72.880 15.382664
72.885 15.469953
72.890 15.550824
72.895 15.288474
72.900 15.667676
72.905 15.489794
72.910 15.531222
72.915 15.357556
72.920 14.724762
72.925 15.782512
72.930 16.134367
72.935 15.575276
72.940 15.821596
72.945 15.990401
72.950 16.337093
72.955 16.658422
72.960 15.285619
72.965 15.047607
72.970 15.246563
72.975 14.666345
72.980 14.364056
72.985 14.105013
72.990 13.705491
72.995 13.739944
73.000 13.731307
