!@!!GADDS PLOTSO FILE: Chi integration type
!@!!Title/SampleName: map-112
!@!!Comment: ?
!@!!User: Bruker Instrument Administrator
!@!!Site: University of Illinois Chicago
!@!!Frame: map-112_01_000.gfrm
!@!!Wavelengths    1.54184   1.54056   1.54439
!@!!Frame angles: 2Theta: 63.000 Omega: 50.000 Phi: 0.000 Chi: 90.000
!@!!Integration range: 2Theta: 53.000 to 73.000  Gamma: -105.000 to -75.000
!@!!Integration method: bin normalized
!@!N
!@!SS
!@!M
!@!L 0.0 0.0 0.0 0.0
!@!XDegrees
!@!YCounts
53.000 8.197725
53.005 7.706327
53.010 7.612499
53.015 7.495061
53.020 7.791211
53.025 8.37778
53.030 8.536476
53.035 9.059898
53.040 8.999939
53.045 8.971543
53.050 9.09013
53.055 9.056082
53.060 8.604245
53.065 8.663468
53.070 8.434116
53.075 8.288622
53.080 8.327669
53.085 8.066545
53.090 8.234877
53.095 8.679902
53.100 9.134608
53.105 9.760549
53.110 9.77982
53.115 9.559368
53.120 9.871164
53.125 9.577883
53.130 9.425982
53.135 8.996426
53.140 9.191127
53.145 9.471483
53.150 9.339916
53.155 9.457023
53.160 9.401854
53.165 9.312073
53.170 9.315228
53.175 8.895446
53.180 9.251499
53.185 9.698237
53.190 9.408747
53.195 9.426404
53.200 9.489146
53.205 9.525458
53.210 9.284255
53.215 8.570477
53.220 8.444902
53.225 8.416698
53.230 8.342558
53.235 8.242081
53.240 8.121636
53.245 8.373954
53.250 8.455444
53.255 8.432902
53.260 8.551482
53.265 8.376677
53.270 8.229409
53.275 8.114791
53.280 8.07938
53.285 7.965279
53.290 7.737478
53.295 7.639914
53.300 7.924299
53.305 8.64925
53.310 8.922245
53.315 9.134702
53.320 9.640192
53.325 10.190361
53.330 10.452376
53.335 10.553502
53.340 10.545506
53.345 10.440315
53.350 10.595636
53.355 10.384092
53.360 10.323533
53.365 10.304464
53.370 10.17966
53.375 10.02904
53.380 9.952293
53.385 9.76894
53.390 9.560196
53.395 9.167319
53.400 8.962624
53.405 8.885447
53.410 8.680788
53.415 8.669797
53.420 8.577549
53.425 8.695022
53.430 8.795433
53.435 8.617355
53.440 8.475252
53.445 8.68263
53.450 8.766308
53.455 9.563178
53.460 9.47587
53.465 9.878067
53.470 9.920101
53.475 9.87813
53.480 10.114229
53.485 9.455724
53.490 9.419456
53.495 9.235426
53.500 9.215055
53.505 9.538511
53.510 9.761917
53.515 10.300281
53.520 10.770625
53.525 10.722385
53.530 10.866129
53.535 10.555131
53.540 10.51677
53.545 10.09636
53.550 9.362018
53.555 8.845856
53.560 8.52099
53.565 8.663785
53.570 8.759043
53.575 8.558139
53.580 8.681483
53.585 9.013824
53.590 9.409256
53.595 9.291492
53.600 9.254167
53.605 9.560659
53.610 9.587809
53.615 9.152175
53.620 9.254977
53.625 9.819503
53.630 9.893892
53.635 9.80168
53.640 9.280871
53.645 9.536772
53.650 9.823866
53.655 9.589279
53.660 8.998744
53.665 8.769382
53.670 8.821499
53.675 8.996403
53.680 8.964905
53.685 9.197634
53.690 9.08954
53.695 9.30349
53.700 9.037915
53.705 9.090498
53.710 9.371271
53.715 9.203249
53.720 8.757405
53.725 8.571749
53.730 8.82951
53.735 9.535291
53.740 9.815319
53.745 9.616274
53.750 9.651725
53.755 10.0036
53.760 10.151041
53.765 10.45858
53.770 10.013861
53.775 10.128489
53.780 10.35306
53.785 10.396516
53.790 10.309442
53.795 10.412119
53.800 10.429536
53.805 10.063679
53.810 9.944636
53.815 9.719603
53.820 9.417495
53.825 9.250658
53.830 8.932598
53.835 8.973454
53.840 9.391307
53.845 9.313909
53.850 9.91606
53.855 10.492966
53.860 10.566032
53.865 10.513525
53.870 10.454484
53.875 10.580356
53.880 10.219943
53.885 9.878829
53.890 9.679366
53.895 9.294199
53.900 9.197793
53.905 8.7456
53.910 8.329495
53.915 7.906753
53.920 7.8077
53.925 8.154715
53.930 8.627449
53.935 8.705688
53.940 8.95066
53.945 9.360858
53.950 9.512161
53.955 9.323335
53.960 9.541214
53.965 9.874063
53.970 9.923401
53.975 9.988108
53.980 9.860065
53.985 9.574575
53.990 9.577616
53.995 9.73636
54.000 9.450564
54.005 9.493341
54.010 9.587326
54.015 9.787967
54.020 9.975636
54.025 9.944178
54.030 9.351886
54.035 9.450695
54.040 9.163466
54.045 8.967425
54.050 8.942961
54.055 9.121697
54.060 9.115083
54.065 9.273428
54.070 9.742829
54.075 10.043497
54.080 10.817591
54.085 10.962432
54.090 10.913955
54.095 10.572444
54.100 10.772736
54.105 10.741545
54.110 10.792306
54.115 10.342464
54.120 10.975029
54.125 11.473404
54.130 11.682277
54.135 11.900605
54.140 12.439423
54.145 12.764762
54.150 12.940017
54.155 12.738623
54.160 12.707051
54.165 12.477878
54.170 11.917138
54.175 10.975099
54.180 10.81432
54.185 10.948404
54.190 10.568115
54.195 10.41226
54.200 10.253936
54.205 9.985736
54.210 10.218181
54.215 9.722295
54.220 9.138859
54.225 9.427521
54.230 9.550582
54.235 9.92543
54.240 10.591024
54.245 10.263088
54.250 10.391355
54.255 10.55723
54.260 10.442449
54.265 10.830077
54.270 10.500804
54.275 10.017312
54.280 10.308784
54.285 10.687664
54.290 11.127925
54.295 10.976477
54.300 10.553169
54.305 10.810648
54.310 10.821591
54.315 10.691439
54.320 10.462359
54.325 10.403488
54.330 10.687485
54.335 10.778956
54.340 10.623332
54.345 10.80227
54.350 11.188769
54.355 11.534449
54.360 11.325896
54.365 11.350755
54.370 11.458511
54.375 11.880026
54.380 12.133592
54.385 11.872345
54.390 11.505907
54.395 11.460683
54.400 11.332541
54.405 11.263058
54.410 10.445609
54.415 9.764281
54.420 9.644712
54.425 9.632955
54.430 10.064104
54.435 10.246224
54.440 10.470991
54.445 10.83786
54.450 11.353329
54.455 11.374048
54.460 10.990644
54.465 10.368752
54.470 9.723225
54.475 9.521912
54.480 9.314898
54.485 9.388515
54.490 9.656987
54.495 9.840106
54.500 10.615438
54.505 10.539289
54.510 10.44315
54.515 10.8239
54.520 10.368792
54.525 10.198917
54.530 10.122046
54.535 9.876783
54.540 10.53861
54.545 10.360057
54.550 10.175474
54.555 10.467297
54.560 10.562608
54.565 10.619856
54.570 10.28259
54.575 9.922868
54.580 9.922533
54.585 9.526572
54.590 9.097761
54.595 8.917042
54.600 9.108252
54.605 9.391831
54.610 9.607245
54.615 9.592963
54.620 9.525431
54.625 9.281075
54.630 8.811633
54.635 8.645127
54.640 8.306631
54.645 8.404885
54.650 8.896213
54.655 9.47049
54.660 10.365653
54.665 10.757864
54.670 10.597829
54.675 10.43442
54.680 10.532633
54.685 10.933566
54.690 10.694345
54.695 10.630474
54.700 10.581399
54.705 10.701118
54.710 10.602852
54.715 10.483882
54.720 10.711089
54.725 11.042067
54.730 11.040043
54.735 11.615091
54.740 11.584128
54.745 11.53836
54.750 10.848679
54.755 10.480141
54.760 10.156085
54.765 9.962375
54.770 9.727196
54.775 10.162005
54.780 10.600372
54.785 11.004016
54.790 11.146644
54.795 11.460397
54.800 11.646542
54.805 11.36839
54.810 11.587452
54.815 11.577459
54.820 11.079656
54.825 11.454276
54.830 11.076684
54.835 10.975826
54.840 11.020715
54.845 10.631502
54.850 10.794989
54.855 11.195258
54.860 10.852942
54.865 10.960191
54.870 10.666536
54.875 10.959474
54.880 11.866844
54.885 11.734876
54.890 11.333457
54.895 10.992511
54.900 10.837913
54.905 11.338919
54.910 11.125869
54.915 10.804889
54.920 11.067096
54.925 11.463168
54.930 12.258699
54.935 12.595798
54.940 12.318558
54.945 12.194734
54.950 12.330965
54.955 11.603511
54.960 11.47872
54.965 10.655883
54.970 10.732464
54.975 10.625278
54.980 10.547523
54.985 10.549232
54.990 11.108322
54.995 11.468456
55.000 11.705813
55.005 11.624743
55.010 11.896573
55.015 11.787789
55.020 11.50528
55.025 10.833084
55.030 10.671229
55.035 10.794933
55.040 10.570589
55.045 10.700191
55.050 11.110674
55.055 11.377148
55.060 11.214489
55.065 10.646442
55.070 10.636812
55.075 11.032569
55.080 11.270422
55.085 11.275822
55.090 11.836952
55.095 12.337063
55.100 12.803667
55.105 12.220523
55.110 11.286617
55.115 10.770267
55.120 10.558435
55.125 10.008851
55.130 10.123743
55.135 10.240434
55.140 10.567706
55.145 11.035598
55.150 11.004704
55.155 10.492455
55.160 10.623236
55.165 10.763203
55.170 10.943862
55.175 11.445026
55.180 11.502927
55.185 11.773802
55.190 11.86643
55.195 11.660527
55.200 11.183132
55.205 10.641227
55.210 10.207543
55.215 10.29575
55.220 10.3538
55.225 10.095725
55.230 9.799124
55.235 10.049371
55.240 10.256872
55.245 10.387764
55.250 10.55379
55.255 10.668797
55.260 11.488744
55.265 11.491575
55.270 11.163671
55.275 11.161916
55.280 10.885461
55.285 10.47528
55.290 9.96201
55.295 9.869997
55.300 10.145545
55.305 10.929382
55.310 11.176346
55.315 11.647121
55.320 12.047652
55.325 12.552766
55.330 12.515655
55.335 12.907392
55.340 12.480734
55.345 12.661464
55.350 12.349231
55.355 12.238072
55.360 12.397898
55.365 12.2166
55.370 11.885125
55.375 11.892598
55.380 11.752591
55.385 11.843523
55.390 11.846929
55.395 11.648956
55.400 11.612037
55.405 11.419395
55.410 11.446811
55.415 11.540155
55.420 11.842454
55.425 11.671197
55.430 11.89173
55.435 12.199712
55.440 12.083052
55.445 12.221724
55.450 12.211717
55.455 12.357991
55.460 12.537228
55.465 12.458199
55.470 12.540412
55.475 12.523105
55.480 11.905253
55.485 11.222911
55.490 10.6951
55.495 10.764329
55.500 10.692643
55.505 10.606369
55.510 10.554847
55.515 10.903353
55.520 11.332725
55.525 11.458578
55.530 11.26681
55.535 11.386309
55.540 11.416622
55.545 11.226744
55.550 11.020956
55.555 11.100847
55.560 11.267507
55.565 11.995932
55.570 11.721655
55.575 11.993685
55.580 12.155146
55.585 12.417049
55.590 12.748158
55.595 13.1258
55.600 13.142333
55.605 13.102306
55.610 13.300279
55.615 13.481864
55.620 13.347319
55.625 13.017574
55.630 12.667129
55.635 12.278059
55.640 11.719144
55.645 11.259083
55.650 11.691532
55.655 11.526767
55.660 11.059711
55.665 10.842752
55.670 10.829495
55.675 11.259381
55.680 11.134237
55.685 10.687279
55.690 11.306976
55.695 11.808863
55.700 11.84141
55.705 12.300701
55.710 12.12327
55.715 11.897452
55.720 12.155328
55.725 12.070292
55.730 11.969164
55.735 11.92507
55.740 11.923236
55.745 11.964962
55.750 12.315285
55.755 11.766325
55.760 11.839544
55.765 12.192824
55.770 12.147958
55.775 11.957864
55.780 11.861027
55.785 11.76757
55.790 11.838993
55.795 11.407736
55.800 11.082136
55.805 11.442464
55.810 12.14089
55.815 12.234467
55.820 12.246563
55.825 12.323042
55.830 12.678998
55.835 12.73784
55.840 12.245614
55.845 12.183858
55.850 12.32937
55.855 12.262658
55.860 12.243425
55.865 11.619778
55.870 11.657573
55.875 11.703165
55.880 11.695933
55.885 11.804293
55.890 11.740817
55.895 12.283375
55.900 12.339996
55.905 11.819934
55.910 11.861441
55.915 11.586618
55.920 12.003193
55.925 12.274107
55.930 12.341536
55.935 12.342372
55.940 12.490053
55.945 12.63047
55.950 12.723516
55.955 12.389085
55.960 11.955292
55.965 11.466707
55.970 11.849545
55.975 12.030463
55.980 12.177267
55.985 12.241108
55.990 12.168359
55.995 12.604478
56.000 12.695993
56.005 12.732967
56.010 12.560262
56.015 12.984338
56.020 13.411687
56.025 13.474787
56.030 13.397121
56.035 13.217119
56.040 13.179361
56.045 12.832878
56.050 11.905843
56.055 11.545919
56.060 11.015643
56.065 10.831384
56.070 10.874484
56.075 10.89115
56.080 11.510383
56.085 11.71824
56.090 11.736762
56.095 12.023134
56.100 12.140812
56.105 12.655876
56.110 12.974577
56.115 12.780258
56.120 12.77432
56.125 13.129595
56.130 13.520341
56.135 13.892167
56.140 13.228653
56.145 13.026811
56.150 12.857659
56.155 12.692981
56.160 12.509808
56.165 12.475058
56.170 12.730515
56.175 12.450953
56.180 11.888228
56.185 11.759226
56.190 11.92061
56.195 11.636321
56.200 11.171051
56.205 10.824362
56.210 11.221226
56.215 11.754907
56.220 11.944626
56.225 12.218996
56.230 12.788669
56.235 12.960597
56.240 13.236778
56.245 13.540563
56.250 13.526905
56.255 13.279948
56.260 12.667457
56.265 11.903983
56.270 11.657532
56.275 11.227533
56.280 10.889961
56.285 10.725441
56.290 11.506972
56.295 12.008458
56.300 12.75508
56.305 13.018739
56.310 13.538499
56.315 13.698357
56.320 13.40203
56.325 13.044402
56.330 12.801517
56.335 12.291657
56.340 11.991015
56.345 11.870324
56.350 12.062287
56.355 12.241195
56.360 11.998978
56.365 11.755824
56.370 11.933051
56.375 11.648658
56.380 11.4875
56.385 11.036744
56.390 11.216875
56.395 11.236929
56.400 11.356056
56.405 11.642953
56.410 12.057104
56.415 12.351623
56.420 12.783398
56.425 12.454946
56.430 12.744523
56.435 12.823369
56.440 12.232014
56.445 11.847485
56.450 11.62204
56.455 11.52631
56.460 11.925774
56.465 12.085265
56.470 11.971314
56.475 11.961408
56.480 12.304305
56.485 12.25999
56.490 12.256273
56.495 11.953803
56.500 12.143215
56.505 12.694701
56.510 13.121316
56.515 13.1988
56.520 13.438868
56.525 13.492014
56.530 13.883618
56.535 13.416096
56.540 12.816722
56.545 12.344914
56.550 12.256685
56.555 12.805243
56.560 12.869196
56.565 12.780488
56.570 13.419711
56.575 14.22369
56.580 14.703741
56.585 14.652056
56.590 13.868839
56.595 13.482749
56.600 13.40484
56.605 13.202016
56.610 12.885815
56.615 12.406507
56.620 11.929787
56.625 12.425
56.630 12.806674
56.635 12.704692
56.640 12.764461
56.645 12.811702
56.650 13.128868
56.655 13.747304
56.660 13.587395
56.665 13.747329
56.670 13.597139
56.675 13.010889
56.680 12.729726
56.685 12.83521
56.690 12.930444
56.695 12.731891
56.700 12.418675
56.705 12.149465
56.710 12.544744
56.715 13.19807
56.720 12.808108
56.725 12.617637
56.730 12.817862
56.735 13.082436
56.740 13.729919
56.745 13.864975
56.750 14.041377
56.755 14.359512
56.760 14.577388
56.765 14.380079
56.770 14.439713
56.775 14.217023
56.780 13.773664
56.785 13.792431
56.790 14.006018
56.795 13.968193
56.800 14.143033
56.805 14.128749
56.810 14.691659
56.815 14.911855
56.820 14.514744
56.825 14.113153
56.830 13.919181
56.835 13.820546
56.840 13.247322
56.845 13.098776
56.850 13.277817
56.855 13.035533
56.860 13.102109
56.865 13.62278
56.870 14.289868
56.875 15.271982
56.880 14.992184
56.885 14.706106
56.890 14.750134
56.895 14.854286
56.900 14.171335
56.905 13.641531
56.910 12.869406
56.915 12.695363
56.920 12.608843
56.925 12.413997
56.930 12.611263
56.935 12.76257
56.940 12.518165
56.945 12.962661
56.950 12.851403
56.955 13.359749
56.960 13.366129
56.965 12.866995
56.970 13.083951
56.975 13.290772
56.980 13.469689
56.985 13.329009
56.990 13.11194
56.995 12.935636
57.000 12.782287
57.005 12.780426
57.010 12.551322
57.015 12.472954
57.020 12.465658
57.025 12.43399
57.030 12.899268
57.035 12.962709
57.040 12.716714
57.045 13.033036
57.050 13.118771
57.055 13.363166
57.060 13.264659
57.065 13.0403
57.070 13.346944
57.075 14.01708
57.080 14.34837
57.085 14.527716
57.090 14.727592
57.095 14.626967
57.100 14.815983
57.105 14.602269
57.110 13.739559
57.115 13.060517
57.120 12.312857
57.125 12.287606
57.130 12.534393
57.135 12.80322
57.140 12.955427
57.145 13.175413
57.150 13.557548
57.155 13.743377
57.160 14.017015
57.165 14.189072
57.170 13.896457
57.175 13.844652
57.180 13.488846
57.185 13.4434
57.190 12.933901
57.195 12.665389
57.200 12.762671
57.205 12.880112
57.210 12.976775
57.215 13.016123
57.220 12.806384
57.225 13.150759
57.230 12.672725
57.235 12.247044
57.240 11.967862
57.245 11.671225
57.250 11.858714
57.255 11.748937
57.260 11.719036
57.265 12.361191
57.270 12.948725
57.275 13.251605
57.280 13.23212
57.285 13.869631
57.290 14.386644
57.295 14.424271
57.300 13.632611
57.305 13.183319
57.310 12.90423
57.315 12.902217
57.320 12.83238
57.325 12.731264
57.330 12.889134
57.335 13.693551
57.340 13.769738
57.345 14.163068
57.350 14.401908
57.355 14.18373
57.360 14.420334
57.365 14.170873
57.370 13.970351
57.375 14.257929
57.380 14.13594
57.385 14.094476
57.390 14.123
57.395 14.486724
57.400 14.649555
57.405 14.181649
57.410 13.950393
57.415 14.0207
57.420 14.044619
57.425 13.960724
57.430 14.10245
57.435 14.311863
57.440 14.405609
57.445 14.772046
57.450 15.133794
57.455 14.457428
57.460 13.890323
57.465 13.504772
57.470 13.430153
57.475 13.175764
57.480 12.803705
57.485 12.700954
57.490 12.940758
57.495 13.330476
57.500 13.235214
57.505 13.341897
57.510 13.882257
57.515 13.823974
57.520 13.555793
57.525 13.694616
57.530 13.465384
57.535 13.754169
57.540 13.591496
57.545 13.69812
57.550 13.900758
57.555 13.974513
57.560 14.216455
57.565 13.798744
57.570 13.388073
57.575 13.522838
57.580 13.331464
57.585 13.548118
57.590 13.388459
57.595 13.134236
57.600 13.59471
57.605 13.890168
57.610 13.920417
57.615 13.782971
57.620 13.714233
57.625 14.136487
57.630 14.460021
57.635 14.333046
57.640 14.264841
57.645 13.937037
57.650 14.025195
57.655 13.931292
57.660 13.960176
57.665 13.523451
57.670 13.623336
57.675 13.809734
57.680 13.68732
57.685 13.387176
57.690 13.217938
57.695 13.681749
57.700 13.649394
57.705 13.605619
57.710 13.423625
57.715 13.731472
57.720 13.957853
57.725 14.575857
57.730 14.586126
57.735 14.874204
57.740 15.011513
57.745 15.197904
57.750 15.319798
57.755 15.464649
57.760 14.881902
57.765 14.770557
57.770 14.578188
57.775 14.269085
57.780 14.786792
57.785 14.663264
57.790 14.216811
57.795 13.966978
57.800 13.793617
57.805 14.0529
57.810 14.603476
57.815 13.979224
57.820 13.717082
57.825 14.053905
57.830 14.158592
57.835 14.412939
57.840 14.309422
57.845 13.781773
57.850 13.752398
57.855 13.671224
57.860 13.628738
57.865 13.3146
57.870 13.069342
57.875 13.101375
57.880 13.412868
57.885 13.41979
57.890 13.650889
57.895 13.604487
57.900 13.32073
57.905 13.466923
57.910 14.003637
57.915 14.132854
57.920 14.279173
57.925 14.646867
57.930 15.046383
57.935 15.700755
57.940 15.216324
57.945 14.493702
57.950 14.327188
57.955 14.351827
57.960 13.904845
57.965 13.942529
57.970 14.499775
57.975 15.45781
57.980 15.431656
57.985 14.893888
57.990 14.342065
57.995 14.133427
58.000 13.705334
58.005 13.229726
58.010 12.799926
58.015 12.978338
58.020 13.483606
58.025 14.056713
58.030 14.662305
58.035 15.027283
58.040 15.123574
58.045 15.465534
58.050 15.849625
58.055 16.469534
58.060 16.428148
58.065 16.169563
58.070 16.115641
58.075 16.142565
58.080 15.960335
58.085 15.105189
58.090 14.63519
58.095 14.434129
58.100 14.17893
58.105 13.915836
58.110 14.200484
58.115 13.783932
58.120 14.135554
58.125 14.292204
58.130 14.423233
58.135 14.417274
58.140 14.308117
58.145 13.530386
58.150 13.533145
58.155 13.75443
58.160 13.940729
58.165 14.187172
58.170 14.362996
58.175 14.424024
58.180 14.957127
58.185 15.465232
58.190 15.373252
58.195 15.02802
58.200 14.639211
58.205 13.938745
58.210 14.073207
58.215 13.807293
58.220 13.473539
58.225 13.377028
58.230 13.192892
58.235 13.496522
58.240 14.008832
58.245 14.194343
58.250 14.579776
58.255 14.806686
58.260 14.776178
58.265 14.471457
58.270 14.261312
58.275 14.374478
58.280 14.036026
58.285 14.110183
58.290 14.680696
58.295 15.399605
58.300 15.846968
58.305 16.337938
58.310 15.925436
58.315 15.927217
58.320 15.630014
58.325 15.427078
58.330 15.059692
58.335 15.370657
58.340 15.306835
58.345 15.468407
58.350 15.586582
58.355 15.011474
58.360 14.392952
58.365 14.137195
58.370 14.158522
58.375 13.998975
58.380 13.726144
58.385 13.642982
58.390 14.024131
58.395 14.374753
58.400 14.477005
58.405 14.173293
58.410 14.774041
58.415 15.05925
58.420 15.301112
58.425 15.347305
58.430 15.426887
58.435 14.882048
58.440 14.842279
58.445 14.917971
58.450 14.767967
58.455 14.30207
58.460 14.180832
58.465 14.114049
58.470 14.432637
58.475 14.203314
58.480 14.295559
58.485 15.003945
58.490 15.366458
58.495 15.485087
58.500 15.789576
58.505 15.932267
58.510 15.967197
58.515 15.363676
58.520 14.82915
58.525 14.87825
58.530 14.652838
58.535 14.300284
58.540 14.444071
58.545 14.177433
58.550 14.153644
58.555 14.197177
58.560 14.303892
58.565 14.760825
58.570 15.17007
58.575 15.708616
58.580 15.826158
58.585 16.066811
58.590 15.731459
58.595 15.230009
58.600 15.510989
58.605 15.524817
58.610 15.688176
58.615 15.702617
58.620 15.965246
58.625 16.688284
58.630 17.206467
58.635 16.722605
58.640 16.713072
58.645 16.668846
58.650 17.094313
58.655 16.920271
58.660 16.617147
58.665 16.904734
58.670 16.874977
58.675 16.312323
58.680 16.080511
58.685 16.02297
58.690 16.035168
58.695 15.822134
58.700 15.277133
58.705 15.206307
58.710 15.077538
58.715 14.611271
58.720 14.369707
58.725 13.949503
58.730 14.882384
58.735 15.389285
58.740 15.623276
58.745 15.947042
58.750 16.113186
58.755 16.319592
58.760 16.165586
58.765 15.624931
58.770 15.542267
58.775 15.35585
58.780 15.531482
58.785 15.646688
58.790 15.412292
58.795 15.97556
58.800 16.433949
58.805 16.276682
58.810 16.674448
58.815 16.229084
58.820 16.467184
58.825 17.337177
58.830 17.531937
58.835 17.274452
58.840 17.199671
58.845 16.985706
58.850 17.283417
58.855 16.921524
58.860 16.539625
58.865 16.719992
58.870 16.965878
58.875 16.86784
58.880 16.918242
58.885 16.964951
58.890 16.895847
58.895 16.493294
58.900 16.234249
58.905 15.951655
58.910 16.276356
58.915 16.27215
58.920 16.376192
58.925 16.249077
58.930 16.792751
58.935 16.491955
58.940 16.112064
58.945 15.996809
58.950 15.973577
58.955 16.044895
58.960 16.160439
58.965 15.610012
58.970 15.618049
58.975 15.839105
58.980 16.131918
58.985 16.119848
58.990 15.683805
58.995 15.857288
59.000 16.317379
59.005 16.462837
59.010 16.524399
59.015 16.398146
59.020 16.571341
59.025 17.253981
59.030 17.10673
59.035 16.508303
59.040 17.192343
59.045 17.565573
59.050 17.720459
59.055 17.593569
59.060 17.170893
59.065 17.249804
59.070 17.286839
59.075 16.506868
59.080 15.618487
59.085 15.117739
59.090 15.138537
59.095 15.424445
59.100 16.215683
59.105 17.038042
59.110 17.694145
59.115 17.80784
59.120 17.562548
59.125 17.097553
59.130 16.546232
59.135 15.60217
59.140 14.761203
59.145 14.04768
59.150 14.480375
59.155 14.879028
59.160 15.336601
59.165 15.878116
59.170 16.303358
59.175 16.379177
59.180 16.77412
59.185 17.081499
59.190 16.938007
59.195 16.998478
59.200 16.504637
59.205 15.705248
59.210 15.898398
59.215 15.978864
59.220 15.94285
59.225 15.937705
59.230 15.849951
59.235 16.166945
59.240 16.782602
59.245 16.875374
59.250 16.139559
59.255 15.414022
59.260 15.615134
59.265 15.40587
59.270 15.230875
59.275 15.371335
59.280 15.448589
59.285 15.690228
59.290 15.990427
59.295 16.020338
59.300 16.626745
59.305 17.20437
59.310 16.844381
59.315 16.668415
59.320 16.376598
59.325 16.750429
59.330 16.941792
59.335 16.726589
59.340 16.219044
59.345 16.447514
59.350 16.841387
59.355 17.406527
59.360 17.392588
59.365 16.677244
59.370 16.634212
59.375 16.928446
59.380 17.260027
59.385 17.397339
59.390 18.277536
59.395 18.593262
59.400 19.351194
59.405 19.13776
59.410 18.934969
59.415 19.076616
59.420 18.890345
59.425 17.283655
59.430 17.255857
59.435 17.085594
59.440 16.795275
59.445 16.468805
59.450 15.544827
59.455 15.87675
59.460 16.555367
59.465 16.494934
59.470 16.308996
59.475 16.97938
59.480 17.299906
59.485 17.961739
59.490 17.986528
59.495 18.220623
59.500 17.604906
59.505 17.628988
59.510 17.211494
59.515 17.324799
59.520 17.111067
59.525 16.926395
59.530 16.542139
59.535 17.007404
59.540 16.799025
59.545 16.808645
59.550 16.536612
59.555 16.225111
59.560 16.026003
59.565 15.966177
59.570 16.194643
59.575 16.685062
59.580 17.491695
59.585 18.122469
59.590 18.626371
59.595 19.626541
59.600 19.642916
59.605 19.913872
59.610 20.057253
59.615 20.038706
59.620 19.444069
59.625 18.566092
59.630 18.155634
59.635 18.626825
59.640 18.378044
59.645 18.420727
59.650 18.522108
59.655 19.052908
59.660 20.256355
59.665 20.55542
59.670 20.870872
59.675 20.804167
59.680 20.46068
59.685 19.801359
59.690 19.147316
59.695 19.006351
59.700 19.251743
59.705 18.925886
59.710 19.587652
59.715 19.592247
59.720 19.65069
59.725 19.853609
59.730 19.637436
59.735 19.956263
59.740 20.200869
59.745 19.910578
59.750 19.87915
59.755 19.812042
59.760 20.226141
59.765 20.193825
59.770 19.655128
59.775 19.48749
59.780 19.410162
59.785 20.062359
59.790 20.727175
59.795 21.172462
59.800 21.137634
59.805 20.85298
59.810 20.951365
59.815 21.151394
59.820 20.54966
59.825 20.362682
59.830 19.952633
59.835 20.126841
59.840 20.582905
59.845 20.897005
59.850 20.852377
59.855 20.946852
59.860 21.330654
59.865 21.540871
59.870 22.01659
59.875 21.365074
59.880 20.836042
59.885 20.551113
59.890 20.994116
59.895 21.130659
59.900 20.760138
59.905 20.294262
59.910 21.011791
59.915 21.403727
59.920 21.994961
59.925 21.846718
59.930 21.296705
59.935 21.701563
59.940 21.688955
59.945 21.507404
59.950 21.736879
59.955 21.375044
59.960 20.821852
59.965 20.54451
59.970 20.038572
59.975 20.077507
59.980 19.516125
59.985 19.089279
59.990 19.63504
59.995 20.651028
60.000 20.837044
60.005 20.774395
60.010 20.814447
60.015 21.102274
60.020 21.006422
60.025 20.099924
60.030 19.509487
60.035 19.644384
60.040 20.180666
60.045 20.434446
60.050 20.273907
60.055 20.476877
60.060 20.835051
60.065 21.19664
60.070 21.150255
60.075 21.103861
60.080 20.926456
60.085 21.512728
60.090 21.244846
60.095 20.797684
60.100 20.931284
60.105 20.590185
60.110 20.087833
60.115 20.058867
60.120 19.931517
60.125 20.377161
60.130 20.549036
60.135 19.838158
60.140 20.117258
60.145 20.036011
60.150 19.673969
60.155 18.976959
60.160 18.564993
60.165 18.397675
60.170 18.659473
60.175 18.377913
60.180 18.546242
60.185 18.676762
60.190 18.654577
60.195 18.863283
60.200 19.264366
60.205 19.875483
60.210 20.327654
60.215 20.911053
60.220 21.123795
60.225 21.759253
60.230 21.596186
60.235 21.354795
60.240 20.720173
60.245 20.445503
60.250 19.949474
60.255 20.053717
60.260 19.966663
60.265 19.916212
60.270 19.734501
60.275 19.73291
60.280 19.215925
60.285 19.314289
60.290 18.887007
60.295 18.849985
60.300 19.17948
60.305 18.999582
60.310 19.566298
60.315 20.206356
60.320 20.472126
60.325 20.674187
60.330 20.892721
60.335 20.435625
60.340 20.501184
60.345 19.922258
60.350 19.615696
60.355 19.154261
60.360 18.980501
60.365 19.268745
60.370 18.988079
60.375 19.252518
60.380 19.559443
60.385 19.541407
60.390 19.900499
60.395 20.25909
60.400 20.326561
60.405 20.68384
60.410 19.997055
60.415 19.851313
60.420 19.817694
60.425 19.300867
60.430 18.508888
60.435 17.764229
60.440 17.938408
60.445 18.242159
60.450 17.73678
60.455 17.292433
60.460 16.839609
60.465 16.19998
60.470 16.422503
60.475 16.088495
60.480 16.193401
60.485 16.360733
60.490 16.487732
60.495 17.632936
60.500 18.439531
60.505 17.999197
60.510 17.714176
60.515 17.425081
60.520 17.857723
60.525 18.258986
60.530 18.113474
60.535 17.793442
60.540 17.730867
60.545 17.77924
60.550 17.246473
60.555 17.500637
60.560 16.985132
60.565 16.706997
60.570 16.420681
60.575 16.684034
60.580 17.171774
60.585 17.809065
60.590 17.860222
60.595 18.432081
60.600 18.417177
60.605 18.614784
60.610 18.880873
60.615 18.765469
60.620 18.809841
60.625 18.708178
60.630 18.531954
60.635 18.50769
60.640 18.57478
60.645 18.043428
60.650 17.480232
60.655 17.105963
60.660 16.287979
60.665 15.467911
60.670 15.412001
60.675 15.257207
60.680 16.413687
60.685 16.839949
60.690 17.066652
60.695 17.679583
60.700 18.497007
60.705 19.15321
60.710 19.204378
60.715 18.169819
60.720 17.795336
60.725 17.348984
60.730 17.115639
60.735 16.475559
60.740 15.611527
60.745 15.448537
60.750 15.331743
60.755 15.451879
60.760 14.973947
60.765 14.859629
60.770 15.265831
60.775 15.636726
60.780 16.250978
60.785 16.598877
60.790 16.686277
60.795 17.189865
60.800 17.237267
60.805 16.872952
60.810 16.563339
60.815 16.178329
60.820 15.896554
60.825 15.647216
60.830 15.839476
60.835 15.870842
60.840 15.885392
60.845 15.85636
60.850 15.588479
60.855 15.850832
60.860 16.160868
60.865 16.065332
60.870 16.136177
60.875 16.054184
60.880 16.1117
60.885 16.332964
60.890 16.368279
60.895 16.27536
60.900 15.93015
60.905 15.770486
60.910 16.134916
60.915 16.262119
60.920 15.898455
60.925 15.506001
60.930 15.579974
60.935 15.699842
60.940 15.938788
60.945 16.023865
60.950 16.168209
60.955 16.313305
60.960 15.92664
60.965 15.73437
60.970 15.665005
60.975 15.184348
60.980 14.888462
60.985 14.421127
60.990 14.673346
60.995 15.163467
61.000 15.18606
61.005 15.132767
61.010 15.466413
61.015 16.198759
61.020 16.7145
61.025 16.902382
61.030 16.924728
61.035 17.25148
61.040 17.271118
61.045 16.688745
61.050 15.847591
61.055 15.451241
61.060 15.777416
61.065 15.947554
61.070 15.685424
61.075 15.880827
61.080 17.13928
61.085 18.071299
61.090 18.142778
61.095 17.796392
61.100 17.607885
61.105 17.507353
61.110 17.5397
61.115 16.296053
61.120 15.650952
61.125 16.088585
61.130 16.254992
61.135 15.736462
61.140 15.464827
61.145 15.822016
61.150 16.48505
61.155 16.531328
61.160 16.036785
61.165 16.004845
61.170 16.895784
61.175 17.48311
61.180 17.622095
61.185 17.549709
61.190 17.766022
61.195 18.51903
61.200 18.757061
61.205 18.990982
61.210 18.858427
61.215 18.694925
61.220 19.379053
61.225 19.001089
61.230 18.778355
61.235 17.970993
61.240 17.707191
61.245 17.55979
61.250 17.404884
61.255 17.237263
61.260 17.339199
61.265 17.740749
61.270 17.940105
61.275 17.542812
61.280 17.59832
61.285 17.3202
61.290 16.631775
61.295 16.370991
61.300 14.859032
61.305 14.855004
61.310 15.506972
61.315 15.564756
61.320 15.620988
61.325 15.694853
61.330 15.61247
61.335 17.310328
61.340 17.498371
61.345 16.932438
61.350 16.829885
61.355 16.971905
61.360 17.339731
61.365 17.166645
61.370 16.042606
61.375 15.623093
61.380 15.38764
61.385 15.634514
61.390 15.262314
61.395 14.982465
61.400 15.229197
61.405 15.54588
61.410 15.485226
61.415 15.522536
61.420 15.189344
61.425 15.427377
61.430 15.848889
61.435 16.036245
61.440 15.671501
61.445 15.569011
61.450 15.682354
61.455 15.907316
61.460 15.600668
61.465 15.240883
61.470 15.249128
61.475 15.649766
61.480 15.823196
61.485 15.303803
61.490 14.622883
61.495 14.618161
61.500 14.210609
61.505 14.141603
61.510 14.404698
61.515 14.884241
61.520 15.828611
61.525 16.55879
61.530 16.58391
61.535 16.676577
61.540 16.168747
61.545 16.089674
61.550 16.191174
61.555 16.119148
61.560 15.915249
61.565 16.15074
61.570 16.464823
61.575 16.861259
61.580 17.169975
61.585 17.504992
61.590 17.657787
61.595 17.466005
61.600 17.492289
61.605 17.840187
61.610 17.757898
61.615 17.541994
61.620 16.728844
61.625 16.400948
61.630 16.544115
61.635 16.116468
61.640 15.551534
61.645 15.355337
61.650 14.979754
61.655 15.059114
61.660 15.302627
61.665 15.100768
61.670 15.311216
61.675 15.675188
61.680 16.100624
61.685 15.870638
61.690 15.970088
61.695 16.510933
61.700 17.119215
61.705 17.375532
61.710 16.980953
61.715 16.801146
61.720 17.29048
61.725 17.042427
61.730 16.251978
61.735 15.472035
61.740 15.354421
61.745 15.776532
61.750 15.76041
61.755 15.54279
61.760 15.44559
61.765 15.809663
61.770 16.115406
61.775 15.796174
61.780 15.984812
61.785 16.452421
61.790 16.790808
61.795 17.215996
61.800 17.465475
61.805 18.105663
61.810 18.598146
61.815 18.146673
61.820 17.348198
61.825 16.922171
61.830 16.455111
61.835 15.998681
61.840 15.267846
61.845 14.770514
61.850 14.851246
61.855 15.13837
61.860 15.522127
61.865 15.616936
61.870 15.452253
61.875 15.714802
61.880 15.926162
61.885 15.841208
61.890 15.767357
61.895 15.227556
61.900 15.370008
61.905 15.8453
61.910 16.535807
61.915 17.178825
61.920 17.625309
61.925 18.220886
61.930 18.516943
61.935 18.293364
61.940 18.012676
61.945 17.780008
61.950 17.630472
61.955 17.795929
61.960 17.296627
61.965 17.112978
61.970 17.382837
61.975 17.397413
61.980 16.949825
61.985 16.732687
61.990 16.643757
61.995 16.968159
62.000 17.235956
62.005 16.782593
62.010 16.540392
62.015 16.212763
62.020 16.059298
62.025 16.00108
62.030 16.291672
62.035 15.985471
62.040 16.084587
62.045 16.362587
62.050 16.161577
62.055 16.09577
62.060 15.703468
62.065 15.601978
62.070 15.841748
62.075 16.38497
62.080 16.388704
62.085 17.451563
62.090 18.204731
62.095 18.353752
62.100 18.731367
62.105 18.702322
62.110 18.594879
62.115 18.649454
62.120 18.031301
62.125 17.456718
62.130 17.332438
62.135 16.568422
62.140 16.327103
62.145 15.845333
62.150 15.815434
62.155 16.227869
62.160 16.564541
62.165 16.9077
62.170 17.47311
62.175 17.366844
62.180 17.586967
62.185 17.75075
62.190 17.509401
62.195 16.780293
62.200 15.999131
62.205 15.004281
62.210 15.205201
62.215 14.962437
62.220 15.001749
62.225 14.521275
62.230 14.781822
62.235 15.647237
62.240 15.899429
62.245 16.079575
62.250 15.847169
62.255 15.592221
62.260 16.015631
62.265 15.953478
62.270 15.368685
62.275 16.026649
62.280 16.31896
62.285 17.061493
62.290 17.304214
62.295 16.697088
62.300 16.379459
62.305 16.562012
62.310 16.081486
62.315 15.278523
62.320 14.626668
62.325 14.412127
62.330 14.674005
62.335 14.880033
62.340 15.224699
62.345 14.833824
62.350 14.418606
62.355 14.407936
62.360 14.95674
62.365 15.781304
62.370 16.480856
62.375 16.064749
62.380 16.486914
62.385 17.214525
62.390 16.867062
62.395 16.653296
62.400 17.012344
62.405 16.72241
62.410 17.160231
62.415 17.185976
62.420 16.872051
62.425 17.554714
62.430 17.686214
62.435 17.787924
62.440 17.909016
62.445 17.919531
62.450 18.419125
62.455 19.093588
62.460 18.61154
62.465 18.363668
62.470 18.28229
62.475 18.457125
62.480 18.604439
62.485 18.142223
62.490 17.659849
62.495 17.703096
62.500 17.283558
62.505 16.388514
62.510 15.748239
62.515 15.972939
62.520 16.288597
62.525 16.24506
62.530 16.598686
62.535 16.858891
62.540 16.591608
62.545 16.56666
62.550 16.00211
62.555 16.326519
62.560 16.475443
62.565 16.466814
62.570 16.243143
62.575 16.618319
62.580 16.440104
62.585 16.559637
62.590 15.74836
62.595 15.614885
62.600 15.633827
62.605 15.999405
62.610 16.070032
62.615 16.261881
62.620 16.19495
62.625 16.221867
62.630 16.165314
62.635 16.165495
62.640 16.791395
62.645 17.082195
62.650 16.917555
62.655 16.797947
62.660 17.579336
62.665 18.020144
62.670 17.728016
62.675 16.896954
62.680 16.49795
62.685 16.86451
62.690 16.981144
62.695 16.535116
62.700 16.26902
62.705 16.290464
62.710 16.699652
62.715 16.979481
62.720 16.454304
62.725 16.512415
62.730 17.006704
62.735 17.206898
62.740 17.596107
62.745 17.272196
62.750 17.443476
62.755 17.67922
62.760 17.347435
62.765 17.129797
62.770 16.797318
62.775 16.331572
62.780 16.009851
62.785 16.077446
62.790 16.252188
62.795 16.058422
62.800 15.725919
62.805 15.786758
62.810 15.848311
62.815 16.433867
62.820 16.576853
62.825 16.447998
62.830 16.675343
62.835 16.645452
62.840 16.464584
62.845 16.182692
62.850 15.711843
62.855 15.020728
62.860 15.483896
62.865 16.183407
62.870 16.379259
62.875 16.388735
62.880 17.041162
62.885 17.713583
62.890 18.372402
62.895 18.069309
62.900 17.700041
62.905 17.73414
62.910 17.240746
62.915 16.798016
62.920 16.048458
62.925 15.309016
62.930 15.620816
62.935 15.684008
62.940 15.929974
62.945 16.891916
62.950 16.971512
62.955 17.174038
62.960 17.456938
62.965 17.053751
62.970 16.955931
62.975 16.809929
62.980 16.847195
62.985 17.451649
62.990 17.547018
62.995 18.027529
63.000 18.503517
63.005 19.032757
63.010 19.023249
63.015 18.424911
63.020 17.65134
63.025 17.929029
63.030 17.758257
63.035 17.57971
63.040 17.247725
63.045 16.652227
63.050 16.726479
63.055 16.917921
63.060 16.363514
63.065 16.077484
63.070 16.025881
63.075 16.175873
63.080 16.295664
63.085 15.998425
63.090 16.175955
63.095 16.717287
63.100 16.408422
63.105 16.344555
63.110 16.45133
63.115 16.276264
63.120 16.248613
63.125 16.316189
63.130 16.372625
63.135 16.897245
63.140 17.228867
63.145 17.658234
63.150 18.091139
63.155 18.080851
63.160 17.695755
63.165 16.95178
63.170 16.259146
63.175 15.964109
63.180 15.33598
63.185 15.507581
63.190 15.532695
63.195 15.704414
63.200 15.79339
63.205 16.226551
63.210 16.89838
63.215 17.310602
63.220 17.137135
63.225 16.846579
63.230 16.661556
63.235 17.066986
63.240 17.264795
63.245 16.393354
63.250 16.062241
63.255 16.371252
63.260 17.253979
63.265 17.313152
63.270 17.01281
63.275 16.667768
63.280 16.996176
63.285 17.613895
63.290 17.388304
63.295 17.389357
63.300 17.645435
63.305 17.633808
63.310 17.839489
63.315 17.868069
63.320 17.738882
63.325 17.763229
63.330 17.743546
63.335 17.608435
63.340 17.21476
63.345 16.57016
63.350 16.474358
63.355 16.613104
63.360 16.191311
63.365 15.922567
63.370 15.781505
63.375 16.457769
63.380 17.314264
63.385 17.260509
63.390 17.327349
63.395 17.849091
63.400 17.335997
63.405 17.239239
63.410 17.122009
63.415 16.519518
63.420 15.926651
63.425 15.337602
63.430 15.015471
63.435 15.003046
63.440 15.605767
63.445 15.784489
63.450 16.813581
63.455 17.675066
63.460 18.185392
63.465 18.536945
63.470 18.556242
63.475 18.497246
63.480 18.860237
63.485 18.501099
63.490 18.539606
63.495 18.533045
63.500 18.800243
63.505 18.952654
63.510 18.452244
63.515 17.812998
63.520 17.536442
63.525 17.132833
63.530 16.783838
63.535 16.688021
63.540 17.190878
63.545 17.67798
63.550 17.432684
63.555 17.306208
63.560 16.972307
63.565 16.651075
63.570 16.288074
63.575 16.207174
63.580 15.694889
63.585 16.160908
63.590 16.493233
63.595 16.995846
63.600 17.362782
63.605 17.546917
63.610 17.736605
63.615 17.878168
63.620 17.567717
63.625 17.449848
63.630 17.154373
63.635 16.740824
63.640 16.643173
63.645 16.232685
63.650 16.39241
63.655 16.27306
63.660 16.295082
63.665 16.570951
63.670 17.412262
63.675 17.594309
63.680 17.500546
63.685 17.703987
63.690 18.143633
63.695 18.460577
63.700 18.553247
63.705 17.758432
63.710 17.824053
63.715 17.898001
63.720 17.878689
63.725 17.855944
63.730 17.256886
63.735 16.863863
63.740 16.922342
63.745 17.120901
63.750 17.306065
63.755 16.969646
63.760 16.920177
63.765 17.467161
63.770 18.038357
63.775 18.234072
63.780 17.871422
63.785 17.463264
63.790 17.197172
63.795 16.882259
63.800 16.644779
63.805 16.202393
63.810 16.247765
63.815 17.037073
63.820 18.55739
63.825 19.341513
63.830 19.737507
63.835 20.376875
63.840 20.746042
63.845 20.736944
63.850 19.923527
63.855 19.406496
63.860 19.443058
63.865 19.100084
63.870 18.578304
63.875 18.915251
63.880 18.912712
63.885 19.061422
63.890 18.821466
63.895 19.036533
63.900 19.00111
63.905 18.57992
63.910 18.162098
63.915 18.045605
63.920 17.855606
63.925 17.730686
63.930 17.306316
63.935 17.502907
63.940 17.896048
63.945 17.768703
63.950 17.984987
63.955 18.733456
63.960 18.758633
63.965 18.989973
63.970 18.99596
63.975 19.426537
63.980 19.798071
63.985 19.404633
63.990 18.64529
63.995 18.941818
64.000 19.37418
64.005 19.604084
64.010 18.680004
64.015 18.740067
64.020 18.78623
64.025 18.737942
64.030 18.466158
64.035 17.66922
64.040 17.215071
64.045 17.577347
64.050 17.467037
64.055 17.308182
64.060 17.194975
64.065 17.02043
64.070 17.507689
64.075 18.280399
64.080 18.68355
64.085 18.682377
64.090 19.570377
64.095 19.960972
64.100 20.320343
64.105 19.710987
64.110 19.863178
64.115 20.527807
64.120 20.961899
64.125 20.582596
64.130 20.801819
64.135 21.241747
64.140 21.591261
64.145 20.702278
64.150 19.900169
64.155 19.405899
64.160 19.011513
64.165 19.064615
64.170 18.402168
64.175 18.200558
64.180 18.262171
64.185 18.473984
64.190 19.090315
64.195 19.555231
64.200 18.825628
64.205 18.846209
64.210 19.047342
64.215 18.853382
64.220 18.348108
64.225 17.680782
64.230 17.662262
64.235 18.202204
64.240 18.616915
64.245 18.399982
64.250 18.593073
64.255 18.617128
64.260 18.827196
64.265 19.102783
64.270 19.486084
64.275 18.89394
64.280 18.978235
64.285 18.903839
64.290 19.11853
64.295 19.176481
64.300 18.864658
64.305 18.192446
64.310 18.484642
64.315 18.412846
64.320 18.547417
64.325 18.298925
64.330 18.16128
64.335 18.254156
64.340 18.150391
64.345 17.658892
64.350 18.170849
64.355 18.595726
64.360 19.153191
64.365 18.777502
64.370 18.148315
64.375 18.829912
64.380 19.290215
64.385 18.694017
64.390 18.593521
64.395 19.215733
64.400 19.850582
64.405 20.255827
64.410 19.520435
64.415 18.984152
64.420 18.807386
64.425 18.498188
64.430 18.160908
64.435 18.319618
64.440 18.672709
64.445 19.134367
64.450 19.821907
64.455 20.237391
64.460 20.459665
64.465 20.510839
64.470 20.561422
64.475 20.529701
64.480 20.984148
64.485 21.678408
64.490 21.820206
64.495 21.727827
64.500 21.155691
64.505 20.960575
64.510 21.071756
64.515 20.548027
64.520 19.809093
64.525 19.576582
64.530 19.18259
64.535 19.307646
64.540 19.435209
64.545 19.250568
64.550 19.193272
64.555 18.974842
64.560 18.734978
64.565 19.106569
64.570 19.452904
64.575 19.103771
64.580 18.487898
64.585 18.199713
64.590 18.241486
64.595 18.277514
64.600 17.942234
64.605 17.727358
64.610 17.820993
64.615 17.951015
64.620 18.474051
64.625 18.327089
64.630 18.577473
64.635 19.192612
64.640 19.289316
64.645 19.195601
64.650 20.005846
64.655 19.982243
64.660 20.380053
64.665 19.757177
64.670 18.728001
64.675 18.978111
64.680 19.164349
64.685 19.232275
64.690 19.467867
64.695 19.608034
64.700 20.496557
64.705 20.682304
64.710 21.229757
64.715 21.461802
64.720 20.92403
64.725 20.664171
64.730 20.412128
64.735 20.395601
64.740 20.469051
64.745 20.426111
64.750 20.648365
64.755 21.514372
64.760 21.947294
64.765 22.675404
64.770 22.608757
64.775 22.105755
64.780 21.816917
64.785 21.115255
64.790 20.0303
64.795 19.112625
64.800 18.432783
64.805 18.560349
64.810 18.898184
64.815 18.819799
64.820 19.62335
64.825 20.218187
64.830 20.530226
64.835 20.910072
64.840 21.050774
64.845 20.994701
64.850 20.622644
64.855 20.101439
64.860 20.488585
64.865 20.664083
64.870 20.819639
64.875 21.127094
64.880 21.704058
64.885 22.194252
64.890 22.604374
64.895 22.141727
64.900 21.743034
64.905 21.394478
64.910 20.89632
64.915 21.150127
64.920 20.937099
64.925 20.562405
64.930 20.714632
64.935 21.536739
64.940 22.304483
64.945 22.435841
64.950 22.253359
64.955 22.444157
64.960 22.923023
64.965 23.129343
64.970 22.882881
64.975 22.701471
64.980 22.800306
64.985 23.149244
64.990 23.716702
64.995 23.750391
65.000 23.877625
65.005 24.32585
65.010 24.70875
65.015 24.729189
65.020 24.813913
65.025 25.25223
65.030 25.473963
65.035 25.224699
65.040 25.080294
65.045 25.209198
65.050 25.687269
65.055 26.195763
65.060 26.090414
65.065 26.161686
65.070 26.398584
65.075 26.205946
65.080 25.919598
65.085 25.549425
65.090 25.28504
65.095 25.14477
65.100 24.771791
65.105 24.598341
65.110 25.226343
65.115 25.180059
65.120 25.584503
65.125 25.220049
65.130 25.050394
65.135 25.645624
65.140 25.915558
65.145 25.564341
65.150 24.960104
65.155 25.185432
65.160 25.370199
65.165 25.717644
65.170 25.596367
65.175 25.117298
65.180 24.92458
65.185 24.978617
65.190 24.528616
65.195 24.242455
65.200 23.568264
65.205 23.52865
65.210 23.924109
65.215 23.594454
65.220 23.688465
65.225 23.679377
65.230 24.335451
65.235 24.332909
65.240 24.628086
65.245 24.934923
65.250 25.782679
65.255 26.37569
65.260 26.447639
65.265 26.60531
65.270 26.944382
65.275 26.990534
65.280 26.901543
65.285 25.917749
65.290 25.224432
65.295 24.692455
65.300 24.024113
65.305 23.87606
65.310 23.348408
65.315 22.944323
65.320 22.913914
65.325 22.807533
65.330 23.260645
65.335 23.437023
65.340 23.196943
65.345 22.615343
65.350 22.94446
65.355 23.096832
65.360 22.928988
65.365 22.993999
65.370 23.064188
65.375 23.256147
65.380 23.434763
65.385 22.72591
65.390 22.956509
65.395 23.755764
65.400 23.777996
65.405 23.591446
65.410 24.213621
65.415 25.012091
65.420 25.032356
65.425 25.471849
65.430 24.620548
65.435 24.150944
65.440 24.524612
65.445 24.90576
65.450 25.08383
65.455 25.661264
65.460 25.701807
65.465 26.01137
65.470 26.474281
65.475 26.470675
65.480 25.700195
65.485 25.614891
65.490 25.411139
65.495 25.150772
65.500 25.17061
65.505 25.047422
65.510 25.425797
65.515 25.664942
65.520 25.626909
65.525 26.053576
65.530 26.715561
65.535 27.105936
65.540 26.276602
65.545 26.057337
65.550 25.893831
65.555 25.808733
65.560 25.81361
65.565 25.768618
65.570 26.247227
65.575 27.612236
65.580 29.15192
65.585 29.548828
65.590 29.521328
65.595 29.885115
65.600 29.427
65.605 29.336782
65.610 28.833593
65.615 27.576284
65.620 27.922419
65.625 28.035101
65.630 28.342089
65.635 28.937611
65.640 29.630161
65.645 30.203491
65.650 30.233688
65.655 29.956587
65.660 30.302057
65.665 29.815256
65.670 29.408579
65.675 28.710388
65.680 28.13847
65.685 28.432224
65.690 29.099819
65.695 29.188276
65.700 29.698557
65.705 29.700859
65.710 30.212997
65.715 30.41362
65.720 30.540733
65.725 30.559593
65.730 30.20508
65.735 30.276033
65.740 30.88768
65.745 31.249943
65.750 32.041538
65.755 32.955505
65.760 33.486446
65.765 34.110924
65.770 34.086395
65.775 32.997597
65.780 32.912121
65.785 32.301167
65.790 31.311119
65.795 30.234558
65.800 29.231787
65.805 29.210079
65.810 29.522877
65.815 30.018526
65.820 31.17473
65.825 32.688225
65.830 33.489914
65.835 34.387951
65.840 34.499645
65.845 34.437927
65.850 33.156998
65.855 32.102448
65.860 31.141851
65.865 31.492338
65.870 31.851669
65.875 31.576294
65.880 32.222263
65.885 32.861961
65.890 33.837528
65.895 34.385277
65.900 34.239117
65.905 34.381111
65.910 34.988049
65.915 35.034031
65.920 35.068169
65.925 34.920536
65.930 35.221195
65.935 35.708324
65.940 36.029892
65.945 35.78133
65.950 35.473728
65.955 36.013474
65.960 36.253811
65.965 36.623035
65.970 36.912704
65.975 36.939068
65.980 37.012375
65.985 37.498585
65.990 37.304035
65.995 37.924145
66.000 37.933262
66.005 36.69783
66.010 36.600117
66.015 37.436436
66.020 37.059853
66.025 36.798779
66.030 35.988567
66.035 35.570419
66.040 36.109455
66.045 35.994774
66.050 35.573311
66.055 35.220634
66.060 35.496223
66.065 35.404434
66.070 35.676544
66.075 35.749928
66.080 35.785435
66.085 36.168053
66.090 36.798256
66.095 36.679016
66.100 36.711613
66.105 36.555386
66.110 36.470867
66.115 36.321281
66.120 35.997082
66.125 35.974174
66.130 35.963993
66.135 35.857174
66.140 35.865059
66.145 35.940403
66.150 35.399265
66.155 35.298504
66.160 35.653263
66.165 35.754604
66.170 35.943615
66.175 35.988003
66.180 35.310356
66.185 35.56271
66.190 35.186745
66.195 34.475056
66.200 34.192268
66.205 34.142303
66.210 34.570225
66.215 35.773693
66.220 36.051334
66.225 36.138908
66.230 36.313087
66.235 36.081955
66.240 35.846821
66.245 35.512829
66.250 35.329357
66.255 35.907669
66.260 36.155827
66.265 36.318485
66.270 37.014118
66.275 36.418201
66.280 36.427502
66.285 36.409138
66.290 36.186405
66.295 36.122643
66.300 36.348003
66.305 36.099579
66.310 35.929512
66.315 34.861919
66.320 34.197811
66.325 33.305698
66.330 32.969898
66.335 31.539906
66.340 29.469114
66.345 29.090425
66.350 28.925964
66.355 28.470684
66.360 28.372101
66.365 28.127462
66.370 28.396824
66.375 29.675547
66.380 29.407024
66.385 29.69677
66.390 29.56958
66.395 29.501732
66.400 29.934813
66.405 30.227949
66.410 29.910362
66.415 29.701857
66.420 29.962379
66.425 29.929808
66.430 30.013487
66.435 29.442375
66.440 29.058813
66.445 29.55176
66.450 29.222813
66.455 28.256165
66.460 28.672447
66.465 29.060402
66.470 29.36581
66.475 29.639471
66.480 29.386431
66.485 30.510893
66.490 30.688454
66.495 30.528055
66.500 29.903492
66.505 29.193642
66.510 28.340292
66.515 27.639006
66.520 27.073534
66.525 26.748987
66.530 26.528702
66.535 26.109819
66.540 25.559114
66.545 25.551804
66.550 25.923285
66.555 26.065632
66.560 26.078466
66.565 25.779526
66.570 26.176271
66.575 26.232212
66.580 25.662249
66.585 25.037842
66.590 24.855852
66.595 24.994591
66.600 24.6579
66.605 24.393106
66.610 24.661329
66.615 25.410555
66.620 25.424366
66.625 25.003351
66.630 24.2736
66.635 23.986393
66.640 24.163918
66.645 23.818283
66.650 23.215206
66.655 23.013552
66.660 22.910349
66.665 22.777977
66.670 22.506369
66.675 21.945946
66.680 22.108442
66.685 21.816891
66.690 21.742607
66.695 21.879675
66.700 21.763611
66.705 22.427921
66.710 23.08676
66.715 22.94154
66.720 23.351454
66.725 23.144728
66.730 23.288357
66.735 23.099159
66.740 22.41902
66.745 22.32872
66.750 22.352602
66.755 22.529119
66.760 22.795023
66.765 22.49321
66.770 23.274857
66.775 23.876072
66.780 23.295853
66.785 23.173292
66.790 22.137094
66.795 21.272915
66.800 21.354147
66.805 21.226389
66.810 21.063545
66.815 21.009575
66.820 20.995331
66.825 21.1329
66.830 21.404015
66.835 21.16581
66.840 20.271038
66.845 20.023373
66.850 20.289602
66.855 20.48299
66.860 20.734936
66.865 21.0317
66.870 20.694918
66.875 21.000257
66.880 21.138521
66.885 20.994503
66.890 20.730238
66.895 20.283426
66.900 20.081491
66.905 20.491407
66.910 20.653488
66.915 20.367636
66.920 20.616266
66.925 21.009823
66.930 22.020584
66.935 22.272291
66.940 21.693405
66.945 21.882635
66.950 21.985645
66.955 21.235462
66.960 20.850311
66.965 20.623415
66.970 20.577374
66.975 20.888491
66.980 20.625814
66.985 20.567995
66.990 20.587307
66.995 20.228355
67.000 20.026299
67.005 19.938654
67.010 20.332012
67.015 20.551596
67.020 19.92066
67.025 19.698544
67.030 20.266546
67.035 20.438566
67.040 20.374794
67.045 19.719158
67.050 19.540169
67.055 20.070564
67.060 20.60659
67.065 20.127155
67.070 20.005804
67.075 19.987747
67.080 20.175247
67.085 20.081116
67.090 20.20892
67.095 20.271069
67.100 20.066547
67.105 20.076088
67.110 19.967012
67.115 19.631628
67.120 19.544451
67.125 18.984779
67.130 18.735079
67.135 19.330673
67.140 19.531069
67.145 19.781845
67.150 19.986176
67.155 20.708702
67.160 21.052601
67.165 20.959978
67.170 20.284428
67.175 20.249161
67.180 20.56735
67.185 20.018875
67.190 19.706057
67.195 20.000168
67.200 20.118174
67.205 20.596096
67.210 20.965397
67.215 21.224771
67.220 21.596027
67.225 21.625946
67.230 21.646807
67.235 21.178726
67.240 20.301222
67.245 19.548744
67.250 18.970903
67.255 19.119598
67.260 19.193521
67.265 19.034502
67.270 19.49192
67.275 19.63625
67.280 20.010134
67.285 20.643305
67.290 20.855585
67.295 20.518946
67.300 20.564945
67.305 20.591351
67.310 20.673468
67.315 20.524239
67.320 19.84281
67.325 19.116381
67.330 19.174805
67.335 19.021793
67.340 18.693958
67.345 18.98592
67.350 19.119036
67.355 19.671247
67.360 20.612732
67.365 20.930952
67.370 21.689053
67.375 21.908001
67.380 21.454462
67.385 21.287334
67.390 20.91358
67.395 20.623405
67.400 19.935923
67.405 19.438276
67.410 19.571074
67.415 18.996355
67.420 18.739481
67.425 18.728594
67.430 18.856678
67.435 19.302544
67.440 19.312298
67.445 20.013222
67.450 20.592663
67.455 20.510733
67.460 20.792839
67.465 20.812433
67.470 21.014557
67.475 21.570593
67.480 20.952032
67.485 21.122355
67.490 21.31896
67.495 20.373348
67.500 20.588036
67.505 20.237659
67.510 19.61076
67.515 20.224707
67.520 20.778828
67.525 21.009531
67.530 21.218266
67.535 20.929298
67.540 21.439037
67.545 22.011784
67.550 21.438789
67.555 21.018698
67.560 20.726141
67.565 20.847692
67.570 20.321609
67.575 19.66547
67.580 18.72691
67.585 18.453047
67.590 18.380238
67.595 18.494106
67.600 18.669552
67.605 19.078314
67.610 18.869312
67.615 19.248806
67.620 18.915134
67.625 18.630617
67.630 18.99419
67.635 19.15424
67.640 18.879293
67.645 19.020857
67.650 19.092564
67.655 19.697805
67.660 20.12598
67.665 19.836922
67.670 20.046349
67.675 20.116428
67.680 20.034441
67.685 19.552561
67.690 19.777485
67.695 19.843731
67.700 19.186975
67.705 19.111336
67.710 19.409479
67.715 19.732401
67.720 20.080221
67.725 19.476439
67.730 19.122822
67.735 19.712103
67.740 19.836279
67.745 19.447626
67.750 19.146206
67.755 18.927616
67.760 19.07836
67.765 18.955238
67.770 18.235138
67.775 18.265059
67.780 18.880066
67.785 18.974443
67.790 19.076649
67.795 18.823999
67.800 19.195963
67.805 20.083973
67.810 19.890472
67.815 19.732872
67.820 19.947603
67.825 19.972563
67.830 19.550346
67.835 19.075453
67.840 18.20369
67.845 18.369228
67.850 18.880898
67.855 19.318094
67.860 19.332088
67.865 20.496077
67.870 20.961914
67.875 21.86524
67.880 21.382698
67.885 20.580732
67.890 20.09057
67.895 19.912977
67.900 19.25214
67.905 18.738855
67.910 18.562603
67.915 19.322548
67.920 19.694181
67.925 19.621214
67.930 19.96656
67.935 20.606333
67.940 21.026081
67.945 20.690521
67.950 20.112406
67.955 20.656393
67.960 20.359125
67.965 20.17881
67.970 20.250664
67.975 20.30036
67.980 20.503294
67.985 20.117088
67.990 19.779266
67.995 20.290871
68.000 19.909803
68.005 19.098938
68.010 18.16857
68.015 17.646257
68.020 17.488581
68.025 17.015985
68.030 16.595537
68.035 16.890491
68.040 17.023434
68.045 17.808847
68.050 18.046013
68.055 18.865011
68.060 19.664709
68.065 19.801914
68.070 20.396713
68.075 20.265158
68.080 19.681425
68.085 19.596025
68.090 19.816086
68.095 19.923344
68.100 20.212572
68.105 20.081347
68.110 20.979111
68.115 21.391285
68.120 21.131037
68.125 20.550255
68.130 20.349463
68.135 19.728571
68.140 19.222858
68.145 19.167982
68.150 19.818146
68.155 19.867668
68.160 19.807257
68.165 19.328165
68.170 19.495272
68.175 19.895521
68.180 19.387598
68.185 19.197458
68.190 19.202829
68.195 19.728662
68.200 20.024563
68.205 20.237127
68.210 19.514826
68.215 19.138557
68.220 18.988152
68.225 18.610256
68.230 17.992723
68.235 18.230408
68.240 18.657604
68.245 19.734755
68.250 20.401653
68.255 20.310251
68.260 20.33559
68.265 20.081045
68.270 20.012001
68.275 19.323944
68.280 18.483763
68.285 18.024298
68.290 17.750675
68.295 18.321693
68.300 18.399929
68.305 18.00732
68.310 18.15624
68.315 18.578291
68.320 19.407127
68.325 20.011889
68.330 20.029423
68.335 20.259882
68.340 20.564312
68.345 20.857674
68.350 20.608377
68.355 20.237097
68.360 19.969769
68.365 19.667173
68.370 19.528486
68.375 19.4219
68.380 18.99283
68.385 18.936653
68.390 18.712566
68.395 18.965384
68.400 19.364269
68.405 19.919321
68.410 20.354662
68.415 20.51343
68.420 20.147999
68.425 19.876785
68.430 19.657755
68.435 18.947418
68.440 19.054676
68.445 19.185873
68.450 19.544483
68.455 20.448128
68.460 20.293377
68.465 20.539888
68.470 20.912531
68.475 20.423351
68.480 19.711727
68.485 19.171892
68.490 18.856209
68.495 19.105152
68.500 19.006382
68.505 18.864283
68.510 18.826546
68.515 19.065502
68.520 19.040085
68.525 19.01638
68.530 18.951603
68.535 18.476088
68.540 18.167574
68.545 18.349566
68.550 18.413458
68.555 18.530214
68.560 19.371977
68.565 19.952593
68.570 20.975538
68.575 20.991959
68.580 20.773504
68.585 20.797531
68.590 20.588346
68.595 19.925642
68.600 19.42271
68.605 19.02212
68.610 19.691841
68.615 19.859402
68.620 20.292063
68.625 20.379599
68.630 20.436228
68.635 20.44001
68.640 20.149397
68.645 19.667112
68.650 20.172903
68.655 20.331682
68.660 20.227446
68.665 19.74823
68.670 20.027468
68.675 20.41762
68.680 20.370148
68.685 20.136295
68.690 19.308876
68.695 19.178282
68.700 19.464773
68.705 18.963352
68.710 18.98332
68.715 18.34276
68.720 18.323057
68.725 18.853903
68.730 19.519896
68.735 20.118183
68.740 20.580036
68.745 20.544907
68.750 20.441959
68.755 20.138807
68.760 20.147314
68.765 19.869709
68.770 19.614355
68.775 19.16354
68.780 18.994125
68.785 19.270773
68.790 19.809977
68.795 19.744432
68.800 19.794857
68.805 19.676794
68.810 20.274727
68.815 21.489706
68.820 22.34194
68.825 22.164251
68.830 22.442581
68.835 22.635149
68.840 22.908897
68.845 22.461363
68.850 21.537474
68.855 20.659306
68.860 20.635317
68.865 20.415161
68.870 19.990297
68.875 19.656599
68.880 19.240725
68.885 19.087605
68.890 19.218702
68.895 19.021521
68.900 19.375597
68.905 19.098087
68.910 19.460981
68.915 20.013037
68.920 20.293491
68.925 20.685188
68.930 20.822422
68.935 21.18058
68.940 21.950054
68.945 21.742424
68.950 21.425804
68.955 21.816057
68.960 21.693483
68.965 21.573648
68.970 21.717199
68.975 22.252117
68.980 22.130783
68.985 22.441133
68.990 22.292595
68.995 22.908068
69.000 23.134798
69.005 23.551064
69.010 23.291252
69.015 22.978941
69.020 22.977522
69.025 23.010485
69.030 22.500967
69.035 22.256346
69.040 21.748861
69.045 22.076481
69.050 22.734509
69.055 22.722897
69.060 22.472088
69.065 22.884634
69.070 22.985888
69.075 22.719681
69.080 23.256346
69.085 24.131462
69.090 24.492655
69.095 24.637589
69.100 25.20787
69.105 24.957647
69.110 24.473673
69.115 23.775524
69.120 23.725925
69.125 23.679924
69.130 23.999464
69.135 23.561628
69.140 24.061592
69.145 24.918598
69.150 25.140745
69.155 24.618128
69.160 24.490868
69.165 24.294519
69.170 24.621937
69.175 25.157038
69.180 25.085964
69.185 24.776535
69.190 25.069233
69.195 25.144333
69.200 24.714653
69.205 24.173384
69.210 24.132622
69.215 24.748121
69.220 24.944891
69.225 25.33602
69.230 25.710358
69.235 25.987968
69.240 26.251223
69.245 25.944347
69.250 25.362801
69.255 25.27076
69.260 25.315506
69.265 24.818325
69.270 24.537645
69.275 24.754351
69.280 24.874817
69.285 25.201548
69.290 25.19672
69.295 24.818357
69.300 25.339146
69.305 25.666491
69.310 25.768387
69.315 26.268703
69.320 26.19932
69.325 26.323366
69.330 26.863209
69.335 26.230848
69.340 26.40873
69.345 25.911833
69.350 25.828886
69.355 26.880878
69.360 27.729673
69.365 28.491003
69.370 28.340366
69.375 28.299513
69.380 28.961082
69.385 28.71875
69.390 28.086752
69.395 27.502405
69.400 27.567881
69.405 28.121685
69.410 28.110304
69.415 27.963713
69.420 28.088305
69.425 27.705568
69.430 27.68569
69.435 27.922598
69.440 28.160931
69.445 28.553915
69.450 28.581875
69.455 28.396963
69.460 28.265308
69.465 28.205788
69.470 28.051449
69.475 28.199562
69.480 28.071867
69.485 28.51716
69.490 28.836786
69.495 28.809429
69.500 28.417788
69.505 28.144728
69.510 28.174175
69.515 28.611071
69.520 28.099239
69.525 28.05187
69.530 28.200779
69.535 28.348885
69.540 28.609257
69.545 28.978216
69.550 29.630632
69.555 30.423143
69.560 30.729464
69.565 30.93692
69.570 31.273634
69.575 31.084755
69.580 30.421141
69.585 29.926762
69.590 29.325176
69.595 29.293802
69.600 29.225821
69.605 29.027521
69.610 29.283743
69.615 29.170927
69.620 28.630201
69.625 28.506363
69.630 28.409231
69.635 28.569248
69.640 28.555758
69.645 28.011856
69.650 27.79961
69.655 28.289259
69.660 28.925823
69.665 29.643072
69.670 29.755966
69.675 30.232065
69.680 30.292871
69.685 30.407684
69.690 29.524137
69.695 28.762781
69.700 27.732801
69.705 27.003185
69.710 26.690039
69.715 26.844526
69.720 27.509516
69.725 28.095621
69.730 28.186981
69.735 28.860947
69.740 29.278456
69.745 29.188677
69.750 28.7262
69.755 27.550505
69.760 27.255091
69.765 27.396955
69.770 27.187071
69.775 26.544992
69.780 26.241146
69.785 26.211592
69.790 26.601423
69.795 26.985449
69.800 26.817749
69.805 26.945198
69.810 26.449005
69.815 26.819258
69.820 26.867268
69.825 26.526463
69.830 26.071836
69.835 25.902874
69.840 26.072485
69.845 26.178135
69.850 26.351732
69.855 25.652205
69.860 25.08927
69.865 24.193203
69.870 23.432161
69.875 23.204163
69.880 22.809856
69.885 22.930296
69.890 23.861753
69.895 23.957684
69.900 24.068007
69.905 24.062204
69.910 24.091631
69.915 23.901342
69.920 23.488779
69.925 22.81144
69.930 22.677944
69.935 22.851074
69.940 22.623777
69.945 22.221106
69.950 22.252634
69.955 22.079329
69.960 22.101675
69.965 22.003477
69.970 21.983891
69.975 22.612495
69.980 22.900888
69.985 22.919853
69.990 23.034803
69.995 23.471241
70.000 23.295948
70.005 22.90493
70.010 22.273191
70.015 22.004759
70.020 21.305313
70.025 21.029579
70.030 21.103254
70.035 21.330229
70.040 21.153084
70.045 20.831606
70.050 21.071745
70.055 20.911304
70.060 20.609201
70.065 20.042942
70.070 19.544968
70.075 19.584673
70.080 19.249981
70.085 19.077579
70.090 19.107336
70.095 19.300034
70.100 19.225662
70.105 19.682474
70.110 19.534805
70.115 20.428823
70.120 20.387333
70.125 20.090286
70.130 20.186266
70.135 19.975128
70.140 19.447889
70.145 19.645987
70.150 18.877144
70.155 18.606138
70.160 18.775667
70.165 18.379906
70.170 18.518345
70.175 18.608772
70.180 18.543743
70.185 19.667635
70.190 19.848265
70.195 19.996725
70.200 20.58094
70.205 21.036444
70.210 20.882053
70.215 20.278997
70.220 19.599001
70.225 19.413174
70.230 19.237696
70.235 19.292336
70.240 19.064833
70.245 19.696365
70.250 20.193869
70.255 20.615599
70.260 20.979256
70.265 21.331373
70.270 21.551037
70.275 21.069717
70.280 20.026121
70.285 19.421453
70.290 19.137739
70.295 18.890368
70.300 18.2318
70.305 18.154629
70.310 18.454824
70.315 19.002771
70.320 19.270597
70.325 18.928221
70.330 18.813463
70.335 19.027525
70.340 18.795448
70.345 18.536203
70.350 19.012638
70.355 19.341442
70.360 19.637772
70.365 19.794796
70.370 19.966751
70.375 19.47872
70.380 19.000271
70.385 18.363579
70.390 18.226942
70.395 18.101517
70.400 17.912024
70.405 17.494345
70.410 17.693905
70.415 18.013903
70.420 18.29554
70.425 17.698837
70.430 17.366394
70.435 17.429073
70.440 17.155256
70.445 17.727264
70.450 17.827785
70.455 18.25559
70.460 19.00732
70.465 19.010696
70.470 18.763868
70.475 19.607073
70.480 19.723492
70.485 19.635489
70.490 19.468735
70.495 19.633713
70.500 20.210604
70.505 20.292028
70.510 19.994884
70.515 20.353544
70.520 20.151649
70.525 19.87466
70.530 19.618986
70.535 19.331102
70.540 19.033649
70.545 18.532345
70.550 17.836006
70.555 18.175907
70.560 18.380579
70.565 18.774061
70.570 19.242268
70.575 19.371895
70.580 19.544977
70.585 19.931467
70.590 19.791212
70.595 19.348656
70.600 18.921803
70.605 18.714235
70.610 18.958122
70.615 18.940823
70.620 18.734167
70.625 18.938686
70.630 19.279184
70.635 19.235975
70.640 18.937857
70.645 18.561749
70.650 18.995291
70.655 18.938032
70.660 18.440491
70.665 18.387409
70.670 18.019621
70.675 18.278399
70.680 18.461864
70.685 18.438459
70.690 19.26943
70.695 19.432854
70.700 19.146559
70.705 20.149841
70.710 20.70487
70.715 20.696772
70.720 20.466433
70.725 19.600504
70.730 19.441603
70.735 19.202353
70.740 18.355749
70.745 17.728664
70.750 17.292513
70.755 16.4706
70.760 16.6597
70.765 16.395214
70.770 16.786007
70.775 16.876881
70.780 16.665236
70.785 16.964462
70.790 16.749178
70.795 17.22736
70.800 17.63372
70.805 17.321766
70.810 17.139854
70.815 17.399137
70.820 17.94787
70.825 18.14583
70.830 18.049284
70.835 17.795279
70.840 18.294453
70.845 18.380182
70.850 18.706285
70.855 18.217808
70.860 17.676414
70.865 17.900385
70.870 18.33053
70.875 18.203604
70.880 18.298168
70.885 18.018476
70.890 18.617218
70.895 18.344637
70.900 17.951788
70.905 17.736465
70.910 18.205294
70.915 18.224436
70.920 17.900522
70.925 17.799604
70.930 17.859718
70.935 18.071861
70.940 17.781279
70.945 17.378273
70.950 17.86393
70.955 18.210344
70.960 18.204426
70.965 18.417086
70.970 18.495106
70.975 18.794907
70.980 18.478157
70.985 18.339659
70.990 18.32966
70.995 18.032465
71.000 17.296944
71.005 17.313004
71.010 17.435719
71.015 17.165405
71.020 16.862772
71.025 16.918585
71.030 17.199539
71.035 17.341957
71.040 17.407051
71.045 17.328876
71.050 17.819721
71.055 18.138411
71.060 17.898758
71.065 18.16728
71.070 18.035805
71.075 17.670145
71.080 17.66832
71.085 17.152582
71.090 16.388577
71.095 16.871555
71.100 17.604256
71.105 18.070541
71.110 18.111433
71.115 18.036259
71.120 17.916763
71.125 18.095802
71.130 18.26623
71.135 17.59296
71.140 16.809109
71.145 16.260937
71.150 17.037647
71.155 17.492302
71.160 17.537699
71.165 17.45792
71.170 18.085875
71.175 18.442169
71.180 18.744429
71.185 17.76865
71.190 17.960413
71.195 18.191071
71.200 18.334238
71.205 18.238503
71.210 18.281084
71.215 18.201431
71.220 18.590351
71.225 18.584404
71.230 19.031525
71.235 18.58215
71.240 18.862143
71.245 19.118996
71.250 19.132164
71.255 19.694105
71.260 19.327185
71.265 18.761118
71.270 19.193859
71.275 18.870144
71.280 18.384415
71.285 18.200855
71.290 17.668373
71.295 17.513124
71.300 17.157379
71.305 16.470875
71.310 16.399279
71.315 16.641077
71.320 16.79142
71.325 16.703241
71.330 17.087112
71.335 17.294661
71.340 17.531446
71.345 18.685781
71.350 19.172375
71.355 19.539309
71.360 20.032341
71.365 19.668631
71.370 19.545486
71.375 19.215643
71.380 18.257381
71.385 18.169867
71.390 17.263393
71.395 16.898926
71.400 17.133701
71.405 17.22283
71.410 17.404819
71.415 17.159597
71.420 16.712509
71.425 16.632545
71.430 17.033609
71.435 17.466188
71.440 16.991022
71.445 16.600826
71.450 17.219137
71.455 17.756054
71.460 18.151344
71.465 17.558973
71.470 17.164064
71.475 18.321461
71.480 18.428835
71.485 17.986519
71.490 17.613811
71.495 17.60882
71.500 17.826687
71.505 17.420759
71.510 16.803558
71.515 16.846558
71.520 16.892799
71.525 16.979492
71.530 16.690729
71.535 16.622833
71.540 17.29476
71.545 17.199886
71.550 17.202925
71.555 16.950136
71.560 17.119011
71.565 17.599054
71.570 17.450853
71.575 17.421196
71.580 17.788605
71.585 17.866564
71.590 18.273312
71.595 18.234266
71.600 18.535233
71.605 18.501942
71.610 18.292694
71.615 18.069435
71.620 18.13431
71.625 17.71393
71.630 17.486372
71.635 16.835827
71.640 17.073921
71.645 17.336979
71.650 17.160009
71.655 16.696442
71.660 16.55341
71.665 16.523401
71.670 16.739979
71.675 16.832912
71.680 16.619984
71.685 17.33433
71.690 17.518919
71.695 17.318651
71.700 17.378681
71.705 17.219488
71.710 17.094748
71.715 16.797911
71.720 16.078495
71.725 16.266201
71.730 16.781525
71.735 16.979778
71.740 17.00086
71.745 16.965059
71.750 17.778818
71.755 18.61342
71.760 19.029922
71.765 18.613218
71.770 18.138819
71.775 18.449032
71.780 18.454445
71.785 18.475782
71.790 17.575769
71.795 16.995247
71.800 17.28511
71.805 17.447292
71.810 17.595816
71.815 17.244238
71.820 17.150873
71.825 17.23439
71.830 17.471779
71.835 17.331289
71.840 17.36767
71.845 17.099163
71.850 17.214436
71.855 17.240154
71.860 17.911245
71.865 18.205446
71.870 18.281979
71.875 18.61021
71.880 18.725706
71.885 19.291489
71.890 19.194096
71.895 18.921829
71.900 18.962074
71.905 18.739006
71.910 18.413988
71.915 18.635839
71.920 18.637686
71.925 18.460091
71.930 18.381878
71.935 18.08242
71.940 18.109756
71.945 18.492638
71.950 17.6159
71.955 17.217606
71.960 17.397964
71.965 18.049871
71.970 18.662949
71.975 18.725115
71.980 18.734484
71.985 18.878519
71.990 19.032963
71.995 18.43807
72.000 17.624628
72.005 17.144739
72.010 17.157349
72.015 17.434748
72.020 17.138437
72.025 16.971565
72.030 17.486633
72.035 17.481695
72.040 17.461805
72.045 17.134336
72.050 16.57206
72.055 17.276688
72.060 17.333092
72.065 16.99655
72.070 16.95698
72.075 17.085472
72.080 16.820278
72.085 17.372995
72.090 17.043741
72.095 16.617283
72.100 16.648226
72.105 17.346663
72.110 17.322422
72.115 17.659952
72.120 17.818329
72.125 18.181625
72.130 18.885624
72.135 18.854538
72.140 18.193655
72.145 18.421703
72.150 18.146626
72.155 18.064104
72.160 17.515661
72.165 17.018305
72.170 17.321095
72.175 17.743837
72.180 17.72242
72.185 17.83119
72.190 17.564283
72.195 17.971296
72.200 18.044538
72.205 17.839729
72.210 18.131784
72.215 18.010241
72.220 18.050734
72.225 18.168482
72.230 17.668953
72.235 17.611824
72.240 17.126148
72.245 17.050047
72.250 16.818918
72.255 16.739809
72.260 16.913916
72.265 17.701855
72.270 17.919867
72.275 18.038116
72.280 17.897778
72.285 17.967892
72.290 17.94068
72.295 18.036541
72.300 18.148502
72.305 18.163795
72.310 18.359249
72.315 18.405607
72.320 18.070168
72.325 18.20616
72.330 18.08152
72.335 18.059111
72.340 17.835304
72.345 17.855597
72.350 18.09103
72.355 17.604973
72.360 17.182873
72.365 16.762793
72.370 16.082911
72.375 15.947792
72.380 15.705873
72.385 15.465299
72.390 15.39059
72.395 15.516133
72.400 15.828213
72.405 15.878888
72.410 15.954893
72.415 16.13319
72.420 16.487772
72.425 16.59775
72.430 16.891228
72.435 16.836222
72.440 17.027731
72.445 17.153904
72.450 16.82131
72.455 16.804359
72.460 16.228933
72.465 16.105951
72.470 16.067293
72.475 16.207258
72.480 16.378567
72.485 16.403124
72.490 16.818203
72.495 17.109129
72.500 17.332968
72.505 17.649353
72.510 17.500601
72.515 17.659946
72.520 18.406872
72.525 18.746672
72.530 18.238701
72.535 17.602112
72.540 17.361794
72.545 17.470901
72.550 17.541683
72.555 17.338541
72.560 17.341471
72.565 17.286692
72.570 17.335659
72.575 17.143593
72.580 17.148048
72.585 17.507727
72.590 17.110703
72.595 17.413624
72.600 18.031553
72.605 18.540024
72.610 18.654228
72.615 18.228998
72.620 17.810926
72.625 17.882822
72.630 17.696138
72.635 17.752493
72.640 17.351543
72.645 17.126331
72.650 16.882441
72.655 17.047268
72.660 17.587717
72.665 17.219948
72.670 17.489157
72.675 17.372547
72.680 17.44475
72.685 17.463594
72.690 17.298803
72.695 16.756004
72.700 16.459679
72.705 16.231789
72.710 15.957625
72.715 16.418478
72.720 16.23173
72.725 15.913079
72.730 16.793692
72.735 17.429699
72.740 17.586849
72.745 17.510389
72.750 17.112476
72.755 16.912058
72.760 16.429956
72.765 16.238377
72.770 16.159124
72.775 16.132938
72.780 16.059004
72.785 15.892743
72.790 16.37825
72.795 15.81651
72.800 15.673924
72.805 15.421854
72.810 15.923008
72.815 15.726779
72.820 15.680824
72.825 15.656838
72.830 15.921497
72.835 16.141987
72.840 16.342363
72.845 15.891788
72.850 16.394243
72.855 16.891985
72.860 17.127777
72.865 17.488562
72.870 17.099838
72.875 17.522064
72.880 17.939987
72.885 17.346987
72.890 16.905388
72.895 16.575224
72.900 16.392548
72.905 17.078562
72.910 16.323229
72.915 16.582926
72.920 16.899063
72.925 17.050634
72.930 17.616312
72.935 17.396566
72.940 17.153425
72.945 17.666111
72.950 17.5618
72.955 17.684778
72.960 17.686548
72.965 17.439116
72.970 16.956944
72.975 16.482265
72.980 16.6845
72.985 16.589066
72.990 16.792145
72.995 16.800787
73.000 17.476324
