!@!!GADDS PLOTSO FILE: Chi integration type
!@!!Title/SampleName: map-13b
!@!!Comment: ?
!@!!User: Bruker Instrument Administrator
!@!!Site: University of Illinois Chicago
!@!!Frame: map-13b_01_000.gfrm
!@!!Wavelengths    1.54184   1.54056   1.54439
!@!!Frame angles: 2Theta: 63.000 Omega: 50.000 Phi: 0.000 Chi: 90.000
!@!!Integration range: 2Theta: 53.000 to 73.000  Gamma: -105.000 to -75.000
!@!!Integration method: bin normalized
!@!N
!@!SS
!@!M
!@!L 0.0 0.0 0.0 0.0
!@!XDegrees
!@!YCounts
53.000 9.148933
53.005 9.191412
53.010 9.109552
53.015 8.998874
53.020 8.985912
53.025 8.895477
53.030 9.030616
53.035 9.286222
53.040 9.75126
53.045 10.255974
53.050 10.555786
53.055 10.791
53.060 11.173875
53.065 10.818521
53.070 10.471887
53.075 9.946222
53.080 10.142248
53.085 10.349884
53.090 10.232726
53.095 9.994607
53.100 10.10434
53.105 10.449398
53.110 10.82959
53.115 10.250072
53.120 9.932817
53.125 9.696485
53.130 9.804096
53.135 9.706972
53.140 9.373521
53.145 9.185831
53.150 9.689232
53.155 10.007874
53.160 10.806105
53.165 10.705594
53.170 10.644219
53.175 10.473957
53.180 10.475755
53.185 10.271802
53.190 9.775034
53.195 9.233699
53.200 9.331735
53.205 9.037175
53.210 8.80442
53.215 8.386722
53.220 8.137012
53.225 8.428055
53.230 8.515405
53.235 8.635542
53.240 9.461914
53.245 9.619624
53.250 9.323392
53.255 9.605119
53.260 9.181241
53.265 9.206963
53.270 9.126513
53.275 8.410643
53.280 8.438181
53.285 8.580129
53.290 8.544879
53.295 8.866843
53.300 8.635705
53.305 8.607562
53.310 8.830276
53.315 9.277207
53.320 9.785855
53.325 10.155817
53.330 10.014739
53.335 10.344454
53.340 10.562236
53.345 10.76813
53.350 10.832174
53.355 10.405718
53.360 10.504904
53.365 10.441433
53.370 10.260741
53.375 9.675595
53.380 10.197762
53.385 10.254398
53.390 10.568348
53.395 10.588993
53.400 10.45072
53.405 10.85618
53.410 10.961625
53.415 10.24323
53.420 10.124244
53.425 9.749185
53.430 10.063665
53.435 10.044621
53.440 10.082025
53.445 10.785135
53.450 10.982558
53.455 10.677065
53.460 10.660146
53.465 10.181325
53.470 9.907855
53.475 9.595869
53.480 9.171499
53.485 9.259618
53.490 9.585551
53.495 9.808524
53.500 10.233167
53.505 10.290742
53.510 10.089106
53.515 10.331875
53.520 10.614954
53.525 10.6227
53.530 10.627136
53.535 10.436336
53.540 10.656591
53.545 10.602001
53.550 10.52304
53.555 10.140738
53.560 9.743929
53.565 9.805013
53.570 10.293674
53.575 10.405788
53.580 10.590558
53.585 10.782228
53.590 11.628261
53.595 11.801442
53.600 11.571897
53.605 11.210479
53.610 10.789476
53.615 10.30674
53.620 10.109092
53.625 9.690057
53.630 9.274043
53.635 9.337178
53.640 9.62697
53.645 10.123978
53.650 10.053032
53.655 9.868935
53.660 10.121633
53.665 10.592054
53.670 10.611586
53.675 10.589354
53.680 10.600698
53.685 10.782139
53.690 10.641169
53.695 9.940377
53.700 9.945146
53.705 9.825956
53.710 9.46116
53.715 9.603615
53.720 9.488396
53.725 9.701925
53.730 9.873582
53.735 9.494517
53.740 9.904099
53.745 9.924907
53.750 9.866642
53.755 9.647386
53.760 9.688013
53.765 10.083612
53.770 10.674176
53.775 10.515672
53.780 10.358631
53.785 10.412947
53.790 10.69013
53.795 10.635957
53.800 10.171171
53.805 9.97652
53.810 10.185027
53.815 10.310401
53.820 10.485572
53.825 10.451365
53.830 10.499722
53.835 10.631724
53.840 10.113051
53.845 9.843183
53.850 9.766618
53.855 9.880785
53.860 10.074329
53.865 10.170492
53.870 10.400114
53.875 10.75725
53.880 10.723237
53.885 10.30668
53.890 9.972165
53.895 9.804599
53.900 9.947435
53.905 10.206071
53.910 10.538446
53.915 11.107266
53.920 11.38349
53.925 11.084424
53.930 10.786277
53.935 10.941015
53.940 10.712733
53.945 10.496417
53.950 10.249877
53.955 10.167976
53.960 10.62865
53.965 10.763917
53.970 10.272472
53.975 10.366444
53.980 10.413765
53.985 10.609137
53.990 10.541224
53.995 10.286099
54.000 10.474072
54.005 10.75531
54.010 10.666272
54.015 10.917966
54.020 11.754218
54.025 12.506551
54.030 12.963668
54.035 13.099933
54.040 12.695601
54.045 12.067394
54.050 11.556439
54.055 10.855498
54.060 10.574557
54.065 9.796322
54.070 9.693025
54.075 10.095903
54.080 11.11342
54.085 10.855688
54.090 10.665343
54.095 10.259174
54.100 10.110782
54.105 10.041744
54.110 10.209188
54.115 9.976386
54.120 10.497059
54.125 10.922034
54.130 11.290794
54.135 11.897011
54.140 11.917734
54.145 11.580593
54.150 11.421079
54.155 11.186214
54.160 11.065197
54.165 10.97776
54.170 10.849056
54.175 11.015382
54.180 11.327957
54.185 11.12608
54.190 10.656581
54.195 10.47001
54.200 11.018274
54.205 10.719316
54.210 10.259198
54.215 9.854094
54.220 10.277621
54.225 10.659027
54.230 10.29367
54.235 10.255239
54.240 10.453589
54.245 10.919852
54.250 11.018743
54.255 11.074966
54.260 11.346637
54.265 11.261426
54.270 11.285189
54.275 11.485359
54.280 11.014933
54.285 10.829978
54.290 10.745394
54.295 10.76341
54.300 10.637426
54.305 10.497117
54.310 10.177773
54.315 10.604205
54.320 11.087389
54.325 10.891273
54.330 10.90121
54.335 11.067908
54.340 10.810021
54.345 11.096109
54.350 11.122273
54.355 10.925211
54.360 11.504224
54.365 11.594022
54.370 12.138627
54.375 12.586712
54.380 12.483563
54.385 12.653504
54.390 12.203551
54.395 11.73603
54.400 11.65688
54.405 11.229626
54.410 11.051567
54.415 11.330715
54.420 11.427887
54.425 11.727959
54.430 12.076022
54.435 12.45764
54.440 12.083174
54.445 11.923247
54.450 11.791485
54.455 11.125283
54.460 10.617545
54.465 10.424313
54.470 10.159638
54.475 10.256248
54.480 9.831176
54.485 10.096427
54.490 10.684374
54.495 10.883589
54.500 10.639157
54.505 10.707531
54.510 11.397437
54.515 12.584543
54.520 12.216917
54.525 11.77406
54.530 11.859697
54.535 11.959525
54.540 11.643838
54.545 11.282275
54.550 10.57537
54.555 10.698429
54.560 10.522818
54.565 10.3382
54.570 10.292871
54.575 10.740073
54.580 10.650469
54.585 10.730233
54.590 10.682117
54.595 11.239732
54.600 11.196074
54.605 11.292611
54.610 11.329995
54.615 11.184934
54.620 11.47305
54.625 11.432755
54.630 11.100435
54.635 11.451031
54.640 11.403659
54.645 10.820606
54.650 10.486699
54.655 10.687495
54.660 10.951599
54.665 11.10545
54.670 10.927691
54.675 10.877747
54.680 11.391692
54.685 11.784196
54.690 11.916946
54.695 12.271427
54.700 11.749557
54.705 11.520247
54.710 11.364755
54.715 10.958077
54.720 10.547243
54.725 10.631879
54.730 11.373662
54.735 12.134022
54.740 12.906374
54.745 13.209033
54.750 13.374533
54.755 13.860173
54.760 13.30028
54.765 12.942508
54.770 12.980469
54.775 12.397166
54.780 12.524076
54.785 12.23958
54.790 11.763452
54.795 11.627092
54.800 11.20079
54.805 11.137442
54.810 10.735034
54.815 10.635501
54.820 10.966654
54.825 11.403956
54.830 11.57131
54.835 11.596372
54.840 11.238448
54.845 11.88188
54.850 11.994194
54.855 11.808091
54.860 11.22808
54.865 11.051077
54.870 10.967235
54.875 10.618979
54.880 10.824287
54.885 11.152718
54.890 11.886632
54.895 12.192599
54.900 11.827791
54.905 12.021643
54.910 12.127537
54.915 11.618122
54.920 10.854661
54.925 11.011056
54.930 11.753066
54.935 12.143863
54.940 12.064716
54.945 12.11449
54.950 12.358729
54.955 12.117037
54.960 11.220041
54.965 10.415252
54.970 10.493041
54.975 10.597612
54.980 10.666081
54.985 11.233862
54.990 11.53628
54.995 11.854002
55.000 11.911521
55.005 12.016954
55.010 12.236043
55.015 12.194844
55.020 11.579678
55.025 11.393756
55.030 11.296225
55.035 11.436337
55.040 11.662654
55.045 11.036737
55.050 11.24906
55.055 11.63346
55.060 11.663902
55.065 11.455918
55.070 11.076927
55.075 10.643058
55.080 10.768995
55.085 10.314899
55.090 9.9585
55.095 10.586384
55.100 10.882754
55.105 11.123346
55.110 11.483319
55.115 11.417915
55.120 11.466145
55.125 11.631006
55.130 11.844419
55.135 11.999093
55.140 11.693136
55.145 11.786838
55.150 12.375069
55.155 12.589965
55.160 12.223806
55.165 11.695573
55.170 12.211315
55.175 13.057947
55.180 13.160521
55.185 12.605124
55.190 12.491973
55.195 12.575736
55.200 12.530158
55.205 11.93045
55.210 11.350127
55.215 11.655371
55.220 11.873668
55.225 12.039724
55.230 12.151126
55.235 12.401085
55.240 12.720418
55.245 13.042819
55.250 12.778174
55.255 13.123687
55.260 13.172466
55.265 12.774607
55.270 12.671895
55.275 12.427653
55.280 12.038532
55.285 11.883357
55.290 11.314317
55.295 10.948826
55.300 10.71121
55.305 10.641721
55.310 10.562983
55.315 10.916866
55.320 10.950101
55.325 11.173566
55.330 11.817826
55.335 12.235443
55.340 12.336837
55.345 12.151823
55.350 11.861544
55.355 11.871943
55.360 12.06116
55.365 12.097882
55.370 11.675897
55.375 11.623384
55.380 11.494205
55.385 11.580763
55.390 11.555177
55.395 11.219661
55.400 10.546503
55.405 10.866475
55.410 11.174443
55.415 11.617023
55.420 11.519079
55.425 11.671404
55.430 11.481351
55.435 11.715567
55.440 11.582739
55.445 11.385479
55.450 11.43372
55.455 11.362573
55.460 11.227389
55.465 11.373585
55.470 11.615236
55.475 11.680957
55.480 11.438877
55.485 11.29234
55.490 11.549193
55.495 11.905761
55.500 11.80232
55.505 11.240403
55.510 11.275147
55.515 11.577118
55.520 11.32198
55.525 10.843524
55.530 10.810022
55.535 11.513736
55.540 11.990586
55.545 12.128087
55.550 12.409673
55.555 13.048255
55.560 13.247366
55.565 12.722767
55.570 12.204403
55.575 11.890529
55.580 11.796769
55.585 11.232812
55.590 11.182235
55.595 11.460612
55.600 11.892299
55.605 12.302517
55.610 12.248477
55.615 11.980571
55.620 12.267702
55.625 12.329645
55.630 12.535394
55.635 12.180735
55.640 11.828525
55.645 12.299818
55.650 12.709838
55.655 12.725504
55.660 12.355691
55.665 12.281013
55.670 12.777446
55.675 12.386737
55.680 11.818993
55.685 11.612355
55.690 11.117023
55.695 10.926104
55.700 10.670616
55.705 10.828951
55.710 11.137308
55.715 11.580401
55.720 11.898897
55.725 12.56638
55.730 12.888401
55.735 12.690594
55.740 12.318696
55.745 12.409248
55.750 12.250982
55.755 11.732972
55.760 11.77973
55.765 12.188541
55.770 12.458951
55.775 12.609038
55.780 12.464724
55.785 13.000057
55.790 13.051361
55.795 12.949685
55.800 12.753449
55.805 12.808702
55.810 13.064224
55.815 13.285569
55.820 13.067646
55.825 12.913997
55.830 12.682181
55.835 12.945912
55.840 13.059554
55.845 13.076428
55.850 13.003793
55.855 12.487883
55.860 12.194128
55.865 11.941445
55.870 11.515974
55.875 10.983373
55.880 10.524066
55.885 10.672351
55.890 11.302439
55.895 11.61314
55.900 11.686784
55.905 11.891921
55.910 12.740499
55.915 13.052148
55.920 13.009772
55.925 12.933681
55.930 13.061818
55.935 13.349604
55.940 13.963382
55.945 13.8504
55.950 13.616967
55.955 13.400942
55.960 13.274597
55.965 13.238495
55.970 12.848071
55.975 11.963726
55.980 12.222283
55.985 12.424026
55.990 12.299902
55.995 12.506567
56.000 12.818106
56.005 13.206016
56.010 13.184906
56.015 12.407232
56.020 12.209342
56.025 12.218722
56.030 11.963498
56.035 11.972642
56.040 12.224027
56.045 12.782482
56.050 13.090314
56.055 13.469371
56.060 13.303107
56.065 13.194229
56.070 12.805235
56.075 12.177657
56.080 11.585232
56.085 10.838505
56.090 10.764926
56.095 11.113939
56.100 11.237473
56.105 11.450375
56.110 11.3286
56.115 12.112455
56.120 12.695856
56.125 12.679944
56.130 12.697095
56.135 13.269853
56.140 13.687749
56.145 14.091617
56.150 13.745361
56.155 13.718349
56.160 13.896644
56.165 14.007492
56.170 13.139044
56.175 12.758302
56.180 13.450404
56.185 13.724484
56.190 13.905994
56.195 13.634102
56.200 13.5091
56.205 13.442001
56.210 13.632515
56.215 13.043541
56.220 13.188174
56.225 13.294588
56.230 13.799212
56.235 14.359138
56.240 14.760229
56.245 14.68089
56.250 14.398826
56.255 14.419644
56.260 14.18958
56.265 14.155622
56.270 13.57658
56.275 13.713514
56.280 13.47704
56.285 13.018587
56.290 12.602801
56.295 12.829082
56.300 12.847509
56.305 12.773936
56.310 12.571626
56.315 12.528035
56.320 13.106864
56.325 13.218593
56.330 12.790597
56.335 12.551028
56.340 12.663289
56.345 12.806526
56.350 12.641274
56.355 12.565514
56.360 12.836343
56.365 12.905257
56.370 13.082627
56.375 12.698254
56.380 12.404394
56.385 12.882191
56.390 12.488686
56.395 11.938241
56.400 12.051125
56.405 12.00256
56.410 12.391375
56.415 12.627612
56.420 12.773277
56.425 12.917212
56.430 13.196252
56.435 13.115509
56.440 13.40861
56.445 13.271235
56.450 13.149128
56.455 12.857315
56.460 13.151473
56.465 13.287905
56.470 13.330771
56.475 13.000362
56.480 12.916104
56.485 12.77316
56.490 12.920503
56.495 12.673569
56.500 12.548359
56.505 12.049909
56.510 12.142882
56.515 12.199739
56.520 12.47889
56.525 12.753061
56.530 12.819388
56.535 12.828582
56.540 13.61115
56.545 13.654519
56.550 13.395353
56.555 13.145885
56.560 12.507915
56.565 12.060345
56.570 12.105231
56.575 11.726583
56.580 12.249153
56.585 12.701931
56.590 12.424027
56.595 13.011213
56.600 12.935699
56.605 12.544982
56.610 12.562239
56.615 12.027336
56.620 12.167469
56.625 12.302925
56.630 12.508666
56.635 13.350927
56.640 13.84741
56.645 13.442228
56.650 12.884603
56.655 12.53146
56.660 12.91736
56.665 12.775871
56.670 12.43082
56.675 12.320971
56.680 12.944559
56.685 13.723508
56.690 13.639731
56.695 13.328409
56.700 13.367556
56.705 13.269301
56.710 13.143018
56.715 12.814454
56.720 12.722799
56.725 13.274612
56.730 13.3478
56.735 12.964273
56.740 12.565073
56.745 12.205336
56.750 12.170538
56.755 11.946274
56.760 11.859389
56.765 11.80562
56.770 12.43719
56.775 13.199177
56.780 13.480295
56.785 13.642323
56.790 13.896518
56.795 14.0225
56.800 14.024471
56.805 13.998276
56.810 14.048917
56.815 14.469189
56.820 14.601794
56.825 14.422536
56.830 14.616257
56.835 14.989743
56.840 15.117726
56.845 15.127362
56.850 14.477488
56.855 14.450767
56.860 14.335435
56.865 13.674544
56.870 12.723512
56.875 12.347107
56.880 12.359385
56.885 12.758675
56.890 12.444747
56.895 12.358619
56.900 12.043762
56.905 12.265405
56.910 13.042249
56.915 13.282539
56.920 12.9491
56.925 12.997707
56.930 13.521879
56.935 14.663479
56.940 15.02312
56.945 14.310975
56.950 13.972488
56.955 14.321469
56.960 14.470787
56.965 14.270957
56.970 13.943734
56.975 13.489843
56.980 13.1469
56.985 13.170015
56.990 13.534789
56.995 13.902241
57.000 13.852238
57.005 13.564857
57.010 13.362901
57.015 13.558677
57.020 13.814397
57.025 13.763676
57.030 13.357198
57.035 13.588537
57.040 14.046404
57.045 14.564017
57.050 15.079865
57.055 14.888563
57.060 14.817876
57.065 15.085261
57.070 15.079341
57.075 15.063757
57.080 15.330166
57.085 14.844358
57.090 14.616987
57.095 14.403623
57.100 13.807109
57.105 13.533119
57.110 13.572883
57.115 12.774505
57.120 12.80967
57.125 12.84977
57.130 13.185059
57.135 14.474361
57.140 14.557092
57.145 14.752246
57.150 15.27777
57.155 16.062382
57.160 16.141554
57.165 16.123362
57.170 15.273229
57.175 14.974087
57.180 14.876861
57.185 14.232391
57.190 14.059421
57.195 14.102459
57.200 13.528563
57.205 13.612573
57.210 14.215234
57.215 14.112225
57.220 13.967074
57.225 13.640014
57.230 13.864307
57.235 14.277486
57.240 14.421281
57.245 14.347727
57.250 14.509567
57.255 14.883025
57.260 14.857647
57.265 14.914296
57.270 14.759442
57.275 14.388566
57.280 14.691118
57.285 14.974368
57.290 14.925542
57.295 14.881784
57.300 15.301937
57.305 16.01013
57.310 16.007071
57.315 15.748328
57.320 15.763063
57.325 15.987043
57.330 16.242035
57.335 15.62364
57.340 15.369006
57.345 15.167255
57.350 15.364378
57.355 15.711414
57.360 15.684033
57.365 15.509192
57.370 15.513675
57.375 15.677437
57.380 15.943456
57.385 15.125281
57.390 14.848472
57.395 14.61432
57.400 14.577256
57.405 14.275646
57.410 13.830931
57.415 13.491278
57.420 13.751622
57.425 13.949522
57.430 14.243578
57.435 14.278461
57.440 14.636276
57.445 14.797305
57.450 14.722326
57.455 15.043793
57.460 14.869357
57.465 15.150487
57.470 15.301769
57.475 15.263557
57.480 15.348139
57.485 15.50475
57.490 15.081427
57.495 15.434944
57.500 14.810116
57.505 14.639459
57.510 14.361869
57.515 14.364009
57.520 14.034073
57.525 13.958275
57.530 13.266804
57.535 13.54742
57.540 13.808896
57.545 14.384462
57.550 14.95439
57.555 15.014916
57.560 15.59987
57.565 15.836258
57.570 15.876727
57.575 15.588671
57.580 15.338831
57.585 15.034116
57.590 15.537922
57.595 15.554645
57.600 15.79024
57.605 15.685684
57.610 16.026983
57.615 16.28002
57.620 16.177588
57.625 16.720629
57.630 17.067179
57.635 17.190378
57.640 17.307194
57.645 16.767282
57.650 16.675856
57.655 16.820583
57.660 16.460276
57.665 15.986343
57.670 15.567657
57.675 15.327356
57.680 15.130773
57.685 15.066889
57.690 15.208583
57.695 15.538913
57.700 15.765759
57.705 16.194397
57.710 16.585627
57.715 16.696642
57.720 16.458261
57.725 15.929951
57.730 15.739854
57.735 15.440616
57.740 15.106363
57.745 15.107511
57.750 15.222795
57.755 15.053033
57.760 14.301655
57.765 14.198521
57.770 14.716751
57.775 14.731383
57.780 14.724662
57.785 14.6746
57.790 15.052853
57.795 15.898616
57.800 15.644445
57.805 15.344501
57.810 15.261129
57.815 15.771507
57.820 16.208933
57.825 15.87395
57.830 15.974498
57.835 15.961745
57.840 15.635515
57.845 15.812693
57.850 15.525259
57.855 15.472495
57.860 15.382495
57.865 15.595149
57.870 15.592854
57.875 15.547934
57.880 15.154189
57.885 15.082617
57.890 14.424797
57.895 14.821969
57.900 14.697399
57.905 14.876538
57.910 15.147926
57.915 15.153525
57.920 14.652378
57.925 15.06071
57.930 15.097342
57.935 15.495675
57.940 15.898579
57.945 15.897414
57.950 16.256584
57.955 16.567156
57.960 16.385529
57.965 16.011042
57.970 15.565277
57.975 15.06831
57.980 15.378143
57.985 15.736203
57.990 15.703343
57.995 15.730877
58.000 15.734087
58.005 15.8829
58.010 16.588993
58.015 16.553524
58.020 16.289066
58.025 16.859787
58.030 17.566069
58.035 17.674019
58.040 17.396494
58.045 17.07238
58.050 16.911985
58.055 17.416471
58.060 17.115072
58.065 16.76502
58.070 16.791445
58.075 16.837721
58.080 16.620638
58.085 16.650145
58.090 16.490187
58.095 16.644253
58.100 16.469597
58.105 16.743721
58.110 17.226841
58.115 17.213554
58.120 17.075592
58.125 16.973692
58.130 17.233013
58.135 17.516769
58.140 17.341955
58.145 17.000664
58.150 16.955423
58.155 16.780071
58.160 16.56801
58.165 16.250504
58.170 15.951295
58.175 15.515375
58.180 15.59975
58.185 15.49614
58.190 15.917706
58.195 15.744441
58.200 15.789822
58.205 16.573654
58.210 17.528893
58.215 18.186827
58.220 18.057182
58.225 17.620642
58.230 18.338154
58.235 18.454956
58.240 18.067957
58.245 17.968506
58.250 17.958122
58.255 18.534803
58.260 18.728237
58.265 18.788279
58.270 19.20878
58.275 19.768925
58.280 19.599457
58.285 19.678108
58.290 19.479567
58.295 19.3943
58.300 19.196133
58.305 19.034269
58.310 18.741938
58.315 18.787447
58.320 18.606522
58.325 19.409555
58.330 19.576275
58.335 19.416996
58.340 19.380388
58.345 19.535769
58.350 19.872551
58.355 20.272038
58.360 20.014135
58.365 20.305576
58.370 20.945467
58.375 21.889046
58.380 22.193657
58.385 22.709696
58.390 23.07601
58.395 23.169147
58.400 23.870228
58.405 23.974445
58.410 23.447401
58.415 23.266026
58.420 23.72925
58.425 24.554575
58.430 25.350082
58.435 25.768595
58.440 26.250906
58.445 26.62689
58.450 26.713684
58.455 27.03203
58.460 27.878479
58.465 28.226757
58.470 28.399569
58.475 28.247614
58.480 28.855415
58.485 29.630581
58.490 29.836941
58.495 29.419802
58.500 28.783472
58.505 29.152672
58.510 29.152719
58.515 28.991911
58.520 28.873455
58.525 29.136415
58.530 29.810148
58.535 30.178497
58.540 30.335909
58.545 31.025187
58.550 32.16618
58.555 32.16011
58.560 32.22435
58.565 31.773273
58.570 32.256432
58.575 33.002003
58.580 33.033466
58.585 31.937229
58.590 31.951097
58.595 32.555214
58.600 33.144802
58.605 32.792431
58.610 32.208618
58.615 31.880901
58.620 32.486389
58.625 32.25045
58.630 31.758009
58.635 32.152908
58.640 32.31451
58.645 31.891863
58.650 31.686787
58.655 31.717297
58.660 32.041332
58.665 31.706043
58.670 30.627342
58.675 30.383808
58.680 30.486116
58.685 30.539331
58.690 30.148951
58.695 29.28883
58.700 29.537346
58.705 29.450815
58.710 28.630699
58.715 28.2771
58.720 28.515905
58.725 28.805922
58.730 28.41798
58.735 27.963467
58.740 27.509369
58.745 28.010517
58.750 28.337339
58.755 27.914188
58.760 27.540983
58.765 27.187977
58.770 26.693377
58.775 27.298492
58.780 27.108889
58.785 26.213554
58.790 25.90237
58.795 25.235275
58.800 25.473299
58.805 25.005407
58.810 24.465015
58.815 24.272003
58.820 24.241419
58.825 23.830673
58.830 23.521185
58.835 23.219135
58.840 23.389906
58.845 22.864225
58.850 22.373564
58.855 22.447485
58.860 22.623947
58.865 22.884718
58.870 22.869854
58.875 23.37673
58.880 23.573971
58.885 23.459135
58.890 22.931841
58.895 22.649847
58.900 22.982374
58.905 22.460857
58.910 21.475204
58.915 21.023476
58.920 21.346266
58.925 21.974609
58.930 22.041138
58.935 21.315748
58.940 21.144087
58.945 21.141933
58.950 21.032131
58.955 20.165636
58.960 19.325382
58.965 19.107649
58.970 19.329809
58.975 19.081936
58.980 18.366999
58.985 17.563623
58.990 17.645987
58.995 17.636475
59.000 17.330868
59.005 17.045845
59.010 17.043411
59.015 17.719128
59.020 18.594446
59.025 19.318298
59.030 19.455063
59.035 19.840929
59.040 20.296448
59.045 19.902853
59.050 19.33452
59.055 19.462526
59.060 18.946594
59.065 19.035057
59.070 18.714935
59.075 18.391338
59.080 18.81683
59.085 19.133488
59.090 18.371828
59.095 18.139309
59.100 17.788797
59.105 17.513807
59.110 17.793932
59.115 17.608271
59.120 17.288883
59.125 17.57258
59.130 17.803207
59.135 17.862135
59.140 17.889709
59.145 17.432575
59.150 17.61829
59.155 17.792578
59.160 17.71735
59.165 17.599766
59.170 17.02054
59.175 16.583969
59.180 16.32119
59.185 16.090111
59.190 15.612364
59.195 15.47055
59.200 15.151632
59.205 15.043992
59.210 15.355654
59.215 15.092299
59.220 15.820398
59.225 15.85437
59.230 15.58737
59.235 15.757143
59.240 15.849601
59.245 15.95319
59.250 16.498352
59.255 15.900833
59.260 15.793663
59.265 15.661701
59.270 15.645556
59.275 15.919079
59.280 15.560105
59.285 15.059662
59.290 15.18506
59.295 15.250084
59.300 15.52826
59.305 15.480495
59.310 14.98819
59.315 14.85247
59.320 14.597499
59.325 14.777913
59.330 14.908464
59.335 15.141999
59.340 15.539359
59.345 15.534362
59.350 15.810864
59.355 16.376316
59.360 16.579479
59.365 16.343594
59.370 16.075747
59.375 16.094473
59.380 16.200165
59.385 16.058445
59.390 16.064533
59.395 16.265217
59.400 16.016716
59.405 15.995597
59.410 16.431866
59.415 16.841625
59.420 17.016977
59.425 16.480452
59.430 16.427092
59.435 16.362823
59.440 16.503006
59.445 16.017208
59.450 15.809974
59.455 15.722192
59.460 15.665743
59.465 15.282717
59.470 15.461184
59.475 15.399429
59.480 15.44752
59.485 15.443345
59.490 15.771846
59.495 15.873931
59.500 15.922519
59.505 15.846648
59.510 15.279986
59.515 15.337563
59.520 15.04194
59.525 14.614227
59.530 14.849536
59.535 15.331361
59.540 15.392005
59.545 15.71596
59.550 15.968735
59.555 16.703547
59.560 16.847235
59.565 16.52636
59.570 16.217916
59.575 16.527395
59.580 16.507874
59.585 16.57662
59.590 16.373489
59.595 16.529322
59.600 16.641233
59.605 16.441143
59.610 16.191971
59.615 16.505728
59.620 16.360186
59.625 16.691719
59.630 16.167768
59.635 15.548077
59.640 15.992889
59.645 16.202557
59.650 16.284063
59.655 16.462471
59.660 16.348856
59.665 16.944719
59.670 17.318922
59.675 17.428207
59.680 17.656763
59.685 17.286526
59.690 16.916605
59.695 16.676285
59.700 16.910608
59.705 17.185324
59.710 17.007492
59.715 16.93574
59.720 16.789982
59.725 16.588476
59.730 16.565393
59.735 16.205721
59.740 15.990672
59.745 15.998981
59.750 15.799428
59.755 16.149687
59.760 16.003662
59.765 15.778332
59.770 16.32876
59.775 16.760798
59.780 16.570967
59.785 15.934336
59.790 15.854655
59.795 16.262403
59.800 16.487083
59.805 15.679756
59.810 15.078199
59.815 15.942957
59.820 16.256016
59.825 16.185747
59.830 15.80559
59.835 16.125614
59.840 16.256245
59.845 16.063217
59.850 15.185561
59.855 15.286366
59.860 15.402169
59.865 15.427684
59.870 15.56277
59.875 15.325547
59.880 15.11429
59.885 15.370329
59.890 15.258466
59.895 15.473693
59.900 15.745275
59.905 14.800344
59.910 14.567937
59.915 15.177467
59.920 15.131567
59.925 15.06523
59.930 15.101355
59.935 15.23366
59.940 15.704803
59.945 16.205273
59.950 15.527128
59.955 15.321589
59.960 15.744398
59.965 15.148841
59.970 15.523743
59.975 15.734208
59.980 15.632552
59.985 15.92737
59.990 16.398134
59.995 15.870523
60.000 15.824192
60.005 15.767449
60.010 15.984105
60.015 16.125126
60.020 16.510637
60.025 16.4391
60.030 16.465626
60.035 16.07247
60.040 15.455439
60.045 15.328014
60.050 15.641986
60.055 14.999463
60.060 14.888528
60.065 15.222391
60.070 15.395264
60.075 15.666299
60.080 15.650757
60.085 15.771572
60.090 16.502977
60.095 16.527885
60.100 16.639683
60.105 16.503019
60.110 16.065805
60.115 15.839223
60.120 16.124105
60.125 15.540931
60.130 15.584006
60.135 15.886458
60.140 16.420481
60.145 16.933981
60.150 16.93351
60.155 15.913634
60.160 15.985588
60.165 15.790702
60.170 15.25097
60.175 15.155807
60.180 14.978518
60.185 14.959343
60.190 15.25528
60.195 15.376371
60.200 15.603703
60.205 15.961765
60.210 16.267666
60.215 16.056255
60.220 15.635858
60.225 15.687175
60.230 15.51092
60.235 14.8744
60.240 14.461201
60.245 14.172824
60.250 14.719963
60.255 15.010527
60.260 15.289933
60.265 15.637536
60.270 15.791201
60.275 16.156261
60.280 16.398209
60.285 16.086487
60.290 15.938382
60.295 15.483919
60.300 15.079
60.305 15.294315
60.310 15.383826
60.315 15.211363
60.320 15.251406
60.325 15.863838
60.330 16.85322
60.335 17.445005
60.340 17.616463
60.345 17.700754
60.350 17.3869
60.355 18.024458
60.360 18.441971
60.365 17.620626
60.370 16.998478
60.375 16.354349
60.380 16.148434
60.385 16.706308
60.390 15.565331
60.395 14.68605
60.400 14.473923
60.405 14.437128
60.410 14.819829
60.415 15.030118
60.420 14.695905
60.425 15.181619
60.430 15.522701
60.435 15.757673
60.440 16.04175
60.445 15.873117
60.450 15.636261
60.455 15.704349
60.460 15.20882
60.465 14.808897
60.470 14.897136
60.475 15.019616
60.480 15.120093
60.485 14.865808
60.490 14.989734
60.495 15.584448
60.500 15.104877
60.505 15.165752
60.510 15.004537
60.515 15.010812
60.520 14.949394
60.525 14.675946
60.530 14.230391
60.535 14.725735
60.540 14.458652
60.545 14.685347
60.550 14.768363
60.555 15.035059
60.560 15.399957
60.565 15.464185
60.570 15.357181
60.575 15.32888
60.580 15.000851
60.585 15.271626
60.590 14.778036
60.595 14.354516
60.600 14.484141
60.605 15.031018
60.610 15.27315
60.615 15.401857
60.620 15.360558
60.625 15.54546
60.630 15.837564
60.635 15.978356
60.640 16.072031
60.645 16.838198
60.650 17.458029
60.655 17.738459
60.660 18.008255
60.665 17.741674
60.670 17.682367
60.675 17.566212
60.680 17.143267
60.685 16.756334
60.690 16.150391
60.695 15.862813
60.700 16.372231
60.705 16.781107
60.710 16.547926
60.715 16.942657
60.720 16.788191
60.725 17.626486
60.730 17.932137
60.735 18.083685
60.740 17.665688
60.745 17.302263
60.750 16.749765
60.755 16.615049
60.760 16.028788
60.765 15.739779
60.770 15.263905
60.775 15.174321
60.780 15.763318
60.785 15.706574
60.790 15.640461
60.795 15.422338
60.800 15.761649
60.805 15.969024
60.810 16.035933
60.815 15.624425
60.820 15.746615
60.825 16.054548
60.830 16.536173
60.835 16.354383
60.840 16.226057
60.845 16.206161
60.850 16.366083
60.855 16.431131
60.860 16.23053
60.865 16.272026
60.870 16.35689
60.875 16.384245
60.880 16.249773
60.885 16.043301
60.890 15.832759
60.895 15.581203
60.900 15.111133
60.905 14.160707
60.910 14.294557
60.915 14.455613
60.920 14.419107
60.925 13.780252
60.930 13.792738
60.935 14.09852
60.940 14.97278
60.945 14.721874
60.950 14.492173
60.955 14.54127
60.960 15.220374
60.965 15.335274
60.970 15.27588
60.975 14.965267
60.980 14.935034
60.985 15.117968
60.990 15.104814
60.995 14.784163
61.000 14.679025
61.005 14.627745
61.010 14.741863
61.015 14.903214
61.020 15.868557
61.025 16.537352
61.030 16.762873
61.035 17.506489
61.040 17.576725
61.045 17.955875
61.050 18.053785
61.055 16.86124
61.060 16.677605
61.065 17.068848
61.070 16.526415
61.075 16.559376
61.080 16.389322
61.085 16.341677
61.090 16.943939
61.095 16.653276
61.100 16.242619
61.105 16.547039
61.110 16.599215
61.115 16.601608
61.120 16.642729
61.125 16.224924
61.130 16.298992
61.135 16.18972
61.140 16.153294
61.145 16.259182
61.150 15.687877
61.155 15.649453
61.160 16.030579
61.165 15.786958
61.170 15.187149
61.175 14.776487
61.180 14.438133
61.185 14.374269
61.190 14.652383
61.195 14.399684
61.200 14.559979
61.205 15.572391
61.210 16.062126
61.215 16.632961
61.220 17.479498
61.225 17.883968
61.230 18.300562
61.235 18.59268
61.240 18.151476
61.245 18.536232
61.250 18.708801
61.255 18.35014
61.260 17.560114
61.265 17.560583
61.270 17.560991
61.275 17.698252
61.280 17.704945
61.285 17.378151
61.290 17.056021
61.295 17.308201
61.300 16.915714
61.305 17.33617
61.310 17.270397
61.315 16.860855
61.320 16.951828
61.325 16.958073
61.330 16.984444
61.335 17.225941
61.340 16.602669
61.345 16.221767
61.350 16.018984
61.355 15.991702
61.360 16.043486
61.365 15.868519
61.370 15.199572
61.375 15.111667
61.380 15.54909
61.385 15.759216
61.390 16.042196
61.395 16.312538
61.400 16.367723
61.405 17.319855
61.410 17.210886
61.415 16.476954
61.420 16.175446
61.425 15.747506
61.430 15.520512
61.435 15.620113
61.440 15.095148
61.445 15.424945
61.450 16.106482
61.455 16.165249
61.460 16.038084
61.465 16.206905
61.470 16.064613
61.475 16.351807
61.480 16.598875
61.485 16.500221
61.490 16.548117
61.495 16.310476
61.500 15.955843
61.505 15.299966
61.510 14.9117
61.515 14.359349
61.520 14.219182
61.525 14.731771
61.530 15.459203
61.535 15.870776
61.540 16.12488
61.545 16.591084
61.550 16.852289
61.555 17.095068
61.560 16.58593
61.565 15.996439
61.570 16.129381
61.575 17.159807
61.580 17.550112
61.585 17.619602
61.590 17.236084
61.595 17.413265
61.600 17.82168
61.605 17.606695
61.610 17.497766
61.615 16.950808
61.620 16.979843
61.625 17.783726
61.630 17.782297
61.635 17.956261
61.640 17.925762
61.645 17.592566
61.650 18.046215
61.655 18.070868
61.660 17.306448
61.665 16.868488
61.670 16.475874
61.675 16.366222
61.680 16.633543
61.685 16.147865
61.690 16.347027
61.695 16.641249
61.700 17.142702
61.705 17.196106
61.710 17.302217
61.715 16.680925
61.720 16.390421
61.725 16.326208
61.730 16.18651
61.735 15.791173
61.740 15.602918
61.745 15.276945
61.750 15.76887
61.755 16.388508
61.760 16.20034
61.765 16.369587
61.770 16.311277
61.775 16.410034
61.780 16.490225
61.785 16.284393
61.790 16.373293
61.795 16.67532
61.800 16.789921
61.805 17.05109
61.810 16.975744
61.815 17.220568
61.820 17.801441
61.825 18.094395
61.830 18.059912
61.835 18.070127
61.840 18.361168
61.845 18.741892
61.850 18.407274
61.855 17.489721
61.860 18.053553
61.865 17.640379
61.870 17.522106
61.875 17.427692
61.880 17.209486
61.885 17.409477
61.890 17.153719
61.895 16.715231
61.900 17.244905
61.905 17.340811
61.910 17.068769
61.915 17.107389
61.920 17.175863
61.925 17.622709
61.930 17.265148
61.935 17.261833
61.940 17.521238
61.945 18.286112
61.950 18.177528
61.955 18.089003
61.960 17.852669
61.965 17.334106
61.970 16.518938
61.975 16.81398
61.980 16.634027
61.985 17.157343
61.990 17.48889
61.995 17.489012
62.000 17.873367
62.005 17.773203
62.010 16.979263
62.015 16.836304
62.020 16.580614
62.025 16.258799
62.030 16.74655
62.035 17.068651
62.040 17.599529
62.045 17.78429
62.050 17.968281
62.055 17.444757
62.060 16.97064
62.065 16.142185
62.070 15.992075
62.075 15.840233
62.080 15.509735
62.085 15.134674
62.090 15.351058
62.095 15.597618
62.100 15.954493
62.105 15.77606
62.110 16.251415
62.115 16.960684
62.120 17.224644
62.125 17.861166
62.130 18.35718
62.135 18.869593
62.140 18.621758
62.145 18.014088
62.150 17.264097
62.155 16.906189
62.160 16.614635
62.165 16.662931
62.170 16.836149
62.175 17.37438
62.180 17.640312
62.185 17.796217
62.190 18.026836
62.195 17.904293
62.200 17.19591
62.205 16.316908
62.210 16.098539
62.215 15.85801
62.220 15.700039
62.225 15.621204
62.230 15.268472
62.235 15.213191
62.240 15.110136
62.245 15.413123
62.250 15.429544
62.255 15.157972
62.260 15.239299
62.265 15.697884
62.270 15.702147
62.275 15.784693
62.280 15.537868
62.285 16.347958
62.290 17.32267
62.295 17.346066
62.300 17.022959
62.305 16.905878
62.310 16.782497
62.315 16.598677
62.320 15.987561
62.325 15.220613
62.330 15.398238
62.335 15.706219
62.340 16.111376
62.345 16.478767
62.350 16.341316
62.355 16.469625
62.360 17.126907
62.365 16.910612
62.370 16.87088
62.375 17.194494
62.380 17.587744
62.385 17.398264
62.390 17.527946
62.395 17.095743
62.400 17.400633
62.405 17.763044
62.410 18.128588
62.415 18.553205
62.420 19.013729
62.425 18.557085
62.430 18.510605
62.435 18.127117
62.440 17.713856
62.445 16.896015
62.450 16.645699
62.455 17.302088
62.460 18.042376
62.465 18.0825
62.470 18.058537
62.475 18.124489
62.480 18.406279
62.485 18.333025
62.490 17.644562
62.495 17.617756
62.500 17.60832
62.505 17.369318
62.510 17.207951
62.515 17.161705
62.520 16.595982
62.525 16.009901
62.530 15.481728
62.535 15.871353
62.540 16.17383
62.545 16.087036
62.550 15.431405
62.555 15.729592
62.560 16.101969
62.565 15.83932
62.570 15.529939
62.575 15.231028
62.580 15.112395
62.585 15.619357
62.590 15.894651
62.595 15.994503
62.600 15.675159
62.605 15.544326
62.610 15.413424
62.615 15.159823
62.620 15.089375
62.625 14.787605
62.630 15.242104
62.635 16.207304
62.640 16.247107
62.645 16.82976
62.650 17.134094
62.655 17.331467
62.660 17.425766
62.665 16.946274
62.670 16.344933
62.675 16.449171
62.680 16.426416
62.685 16.493391
62.690 16.509922
62.695 16.805187
62.700 16.872555
62.705 17.359829
62.710 17.736696
62.715 17.797722
62.720 17.988199
62.725 18.320742
62.730 18.130619
62.735 18.438925
62.740 18.300486
62.745 18.255571
62.750 17.812815
62.755 17.690386
62.760 17.664465
62.765 17.996454
62.770 18.107361
62.775 17.946075
62.780 17.938288
62.785 18.323452
62.790 18.437553
62.795 17.993216
62.800 17.867931
62.805 17.881752
62.810 17.879526
62.815 17.857895
62.820 17.791811
62.825 18.066196
62.830 18.244934
62.835 17.584038
62.840 17.551418
62.845 17.418135
62.850 17.212006
62.855 17.688068
62.860 17.448519
62.865 17.415617
62.870 17.805454
62.875 17.421307
62.880 17.413185
62.885 17.332607
62.890 16.982126
62.895 16.711348
62.900 16.914898
62.905 16.628225
62.910 17.015514
62.915 16.89567
62.920 16.703152
62.925 16.306442
62.930 16.337748
62.935 16.290316
62.940 16.535065
62.945 16.460369
62.950 17.134178
62.955 17.637255
62.960 18.111301
62.965 18.268312
62.970 18.672245
62.975 19.048336
62.980 18.910919
62.985 18.81078
62.990 19.252531
62.995 19.12224
63.000 19.200335
63.005 18.817923
63.010 18.316193
63.015 18.105541
63.020 17.998264
63.025 17.862392
63.030 17.936626
63.035 17.741119
63.040 17.548817
63.045 17.632303
63.050 17.936924
63.055 17.519711
63.060 17.497366
63.065 17.647005
63.070 18.070988
63.075 18.302555
63.080 18.629654
63.085 18.796776
63.090 18.600506
63.095 18.043446
63.100 17.541096
63.105 17.540352
63.110 17.862057
63.115 18.263083
63.120 18.176765
63.125 18.58626
63.130 19.419199
63.135 19.611353
63.140 19.675955
63.145 18.853279
63.150 18.079424
63.155 17.919342
63.160 17.497068
63.165 16.954693
63.170 17.137819
63.175 16.919201
63.180 17.202108
63.185 17.278852
63.190 17.302589
63.195 18.09395
63.200 18.090651
63.205 17.502773
63.210 17.310003
63.215 17.219233
63.220 17.15411
63.225 16.972225
63.230 16.440779
63.235 16.63427
63.240 17.329647
63.245 18.188719
63.250 19.292122
63.255 20.284067
63.260 20.304243
63.265 20.645765
63.270 20.652807
63.275 20.359972
63.280 19.863075
63.285 18.842415
63.290 18.821222
63.295 18.80224
63.300 18.540607
63.305 18.485922
63.310 18.394722
63.315 18.150978
63.320 18.280973
63.325 17.657364
63.330 17.853811
63.335 18.32593
63.340 18.181061
63.345 18.106308
63.350 17.897312
63.355 18.089703
63.360 18.21431
63.365 18.182875
63.370 18.152931
63.375 18.439516
63.380 18.513985
63.385 18.364639
63.390 18.843071
63.395 19.140951
63.400 18.97681
63.405 18.47279
63.410 18.42392
63.415 18.58847
63.420 18.452078
63.425 17.699997
63.430 17.528904
63.435 17.879631
63.440 18.152502
63.445 18.118826
63.450 18.138002
63.455 18.461815
63.460 18.238815
63.465 17.857779
63.470 17.619963
63.475 17.667284
63.480 17.72015
63.485 17.750811
63.490 17.977427
63.495 18.710459
63.500 19.536396
63.505 19.774931
63.510 19.695009
63.515 20.13801
63.520 19.562082
63.525 19.169165
63.530 18.650583
63.535 18.335606
63.540 18.477663
63.545 18.512873
63.550 18.584829
63.555 18.982346
63.560 18.587904
63.565 18.710274
63.570 18.489422
63.575 18.101919
63.580 17.580971
63.585 17.485315
63.590 18.420786
63.595 19.356382
63.600 19.118217
63.605 19.059744
63.610 19.078129
63.615 19.248772
63.620 19.396481
63.625 18.520996
63.630 18.428061
63.635 19.071947
63.640 19.69047
63.645 19.965204
63.650 19.713751
63.655 19.371212
63.660 19.620941
63.665 19.849186
63.670 19.239223
63.675 18.629433
63.680 18.670336
63.685 19.167883
63.690 19.025272
63.695 18.88792
63.700 18.091497
63.705 18.248291
63.710 18.088791
63.715 18.01392
63.720 17.835941
63.725 18.072075
63.730 18.74839
63.735 19.057425
63.740 19.758083
63.745 20.175621
63.750 20.369717
63.755 20.571436
63.760 20.994495
63.765 20.996634
63.770 20.87178
63.775 20.085018
63.780 20.139124
63.785 20.371233
63.790 20.480045
63.795 20.40313
63.800 19.551582
63.805 19.830608
63.810 20.267292
63.815 20.610168
63.820 20.393236
63.825 20.337997
63.830 20.06938
63.835 21.100546
63.840 21.604418
63.845 21.890972
63.850 21.862955
63.855 21.873714
63.860 21.701395
63.865 22.43858
63.870 22.420031
63.875 21.66498
63.880 21.144571
63.885 21.454346
63.890 21.848328
63.895 22.091475
63.900 22.142696
63.905 22.255873
63.910 22.487379
63.915 22.11565
63.920 22.200075
63.925 21.842869
63.930 22.001318
63.935 21.764742
63.940 21.775867
63.945 22.385628
63.950 23.146442
63.955 23.266298
63.960 24.132229
63.965 24.39378
63.970 24.734037
63.975 25.597176
63.980 26.155081
63.985 25.939724
63.990 25.90624
63.995 26.037704
64.000 26.390562
64.005 26.999258
64.010 27.588261
64.015 28.061834
64.020 29.087358
64.025 29.904394
64.030 30.18375
64.035 30.172083
64.040 30.097027
64.045 29.555141
64.050 29.793709
64.055 29.783726
64.060 29.578625
64.065 29.686146
64.070 30.101402
64.075 30.14332
64.080 30.55135
64.085 31.085104
64.090 31.641916
64.095 32.857491
64.100 33.233238
64.105 32.968334
64.110 33.453518
64.115 34.088772
64.120 34.33091
64.125 34.548309
64.130 34.390732
64.135 34.554646
64.140 35.189087
64.145 35.390076
64.150 35.611717
64.155 36.581402
64.160 36.379532
64.165 36.0182
64.170 35.972118
64.175 36.184528
64.180 36.469345
64.185 36.241829
64.190 35.91843
64.195 36.488201
64.200 36.922756
64.205 37.33733
64.210 36.98296
64.215 36.510864
64.220 37.376766
64.225 37.470116
64.230 37.386478
64.235 37.089767
64.240 38.114391
64.245 38.833115
64.250 39.640411
64.255 40.185028
64.260 40.600025
64.265 41.157391
64.270 42.144344
64.275 41.706867
64.280 41.91143
64.285 41.70311
64.290 40.724743
64.295 40.606255
64.300 40.446442
64.305 39.795719
64.310 39.68137
64.315 39.287052
64.320 39.057201
64.325 39.374325
64.330 39.063129
64.335 38.941826
64.340 38.5979
64.345 37.882198
64.350 38.623474
64.355 38.724247
64.360 38.965401
64.365 38.139843
64.370 37.69379
64.375 38.458622
64.380 39.252342
64.385 38.791821
64.390 38.712692
64.395 38.539547
64.400 38.663879
64.405 38.829544
64.410 38.264168
64.415 37.786289
64.420 37.367271
64.425 36.98457
64.430 36.146046
64.435 36.143806
64.440 36.243553
64.445 35.788502
64.450 35.099693
64.455 34.497234
64.460 34.094242
64.465 34.152729
64.470 34.058147
64.475 33.620979
64.480 32.843689
64.485 32.945057
64.490 33.040264
64.495 32.938255
64.500 32.266624
64.505 31.531006
64.510 31.059517
64.515 30.587425
64.520 30.339788
64.525 29.624151
64.530 28.88133
64.535 28.257818
64.540 27.803862
64.545 27.452442
64.550 27.126068
64.555 26.347864
64.560 26.254517
64.565 26.619854
64.570 26.836349
64.575 26.588919
64.580 26.306055
64.585 26.039593
64.590 25.656149
64.595 25.335728
64.600 24.596321
64.605 23.5306
64.610 23.506559
64.615 23.55802
64.620 24.036211
64.625 24.333332
64.630 24.424444
64.635 24.405306
64.640 24.970295
64.645 24.611734
64.650 24.34774
64.655 24.334696
64.660 23.509676
64.665 23.684036
64.670 23.927465
64.675 23.585032
64.680 23.864252
64.685 23.85939
64.690 23.584715
64.695 24.031187
64.700 23.360342
64.705 23.075245
64.710 22.701607
64.715 22.583363
64.720 22.68059
64.725 22.976427
64.730 23.23196
64.735 23.030867
64.740 22.905817
64.745 22.307072
64.750 22.154659
64.755 21.79851
64.760 21.512821
64.765 21.157448
64.770 20.896103
64.775 21.56876
64.780 22.64444
64.785 22.241804
64.790 22.169344
64.795 21.847622
64.800 21.684731
64.805 21.657085
64.810 21.19519
64.815 20.617285
64.820 20.629255
64.825 20.747261
64.830 21.422424
64.835 21.862202
64.840 21.294146
64.845 20.633623
64.850 19.984194
64.855 19.67709
64.860 20.183182
64.865 19.519581
64.870 19.455149
64.875 20.559437
64.880 21.309361
64.885 21.952496
64.890 22.11939
64.895 21.835461
64.900 22.640364
64.905 23.315542
64.910 22.551529
64.915 22.047588
64.920 22.561644
64.925 22.845167
64.930 22.735596
64.935 22.467623
64.940 22.126295
64.945 22.71937
64.950 23.046572
64.955 22.35087
64.960 22.424765
64.965 22.54447
64.970 22.07477
64.975 22.056208
64.980 22.003319
64.985 21.96559
64.990 22.690557
64.995 22.303257
65.000 21.903311
65.005 22.575651
65.010 22.864693
65.015 22.740053
65.020 23.62816
65.025 23.968544
65.030 24.01042
65.035 23.837681
65.040 23.226578
65.045 23.387636
65.050 23.169331
65.055 22.385981
65.060 22.63131
65.065 23.320137
65.070 23.750397
65.075 23.831636
65.080 23.324409
65.085 22.696415
65.090 22.319912
65.095 21.570486
65.100 21.5233
65.105 21.562593
65.110 21.568987
65.115 21.927792
65.120 22.641834
65.125 22.890942
65.130 23.142572
65.135 23.230625
65.140 23.87039
65.145 24.129665
65.150 24.224056
65.155 24.038494
65.160 24.696918
65.165 24.490894
65.170 23.799849
65.175 23.412329
65.180 23.535841
65.185 23.019798
65.190 23.058432
65.195 22.385521
65.200 22.594799
65.205 23.179276
65.210 23.136299
65.215 22.665354
65.220 22.90897
65.225 22.809605
65.230 23.211483
65.235 23.132275
65.240 22.800337
65.245 23.103357
65.250 23.571634
65.255 23.533022
65.260 23.553371
65.265 23.452177
65.270 23.603655
65.275 23.651072
65.280 22.824322
65.285 22.784824
65.290 22.971706
65.295 23.22942
65.300 22.926096
65.305 23.179079
65.310 23.891142
65.315 24.749722
65.320 25.140606
65.325 25.060106
65.330 25.286974
65.335 25.722988
65.340 25.539474
65.345 25.087149
65.350 24.49337
65.355 24.306524
65.360 24.395987
65.365 24.426725
65.370 24.243343
65.375 25.134134
65.380 25.629314
65.385 26.20738
65.390 25.83662
65.395 25.40451
65.400 25.390219
65.405 25.74021
65.410 25.383991
65.415 25.024343
65.420 24.973236
65.425 25.30624
65.430 25.6283
65.435 25.385509
65.440 25.050711
65.445 24.60737
65.450 24.374321
65.455 24.942848
65.460 25.991762
65.465 26.766268
65.470 27.065683
65.475 26.991405
65.480 27.348171
65.485 28.306776
65.490 28.561174
65.495 28.622746
65.500 28.967251
65.505 30.297657
65.510 31.785124
65.515 31.957434
65.520 31.545744
65.525 31.695564
65.530 31.562365
65.535 31.662823
65.540 32.008755
65.545 33.078812
65.550 34.068699
65.555 34.681332
65.560 35.092987
65.565 35.242249
65.570 35.54409
65.575 35.387096
65.580 34.994534
65.585 34.623928
65.590 34.441601
65.595 34.21843
65.600 34.336689
65.605 34.136627
65.610 34.164024
65.615 33.850246
65.620 34.367695
65.625 35.117008
65.630 35.523201
65.635 36.23196
65.640 36.531315
65.645 36.774754
65.650 36.887691
65.655 36.995178
65.660 36.454987
65.665 36.277302
65.670 36.830853
65.675 37.114429
65.680 37.880428
65.685 38.326893
65.690 38.29435
65.695 39.288357
65.700 39.512222
65.705 39.40432
65.710 39.42564
65.715 38.92313
65.720 39.496052
65.725 40.151192
65.730 40.028324
65.735 41.057316
65.740 41.189163
65.745 41.201908
65.750 41.557232
65.755 41.103237
65.760 40.66153
65.765 40.876606
65.770 40.311298
65.775 40.566132
65.780 41.043339
65.785 41.039063
65.790 41.159367
65.795 41.009041
65.800 40.812202
65.805 40.888836
65.810 40.67469
65.815 40.694469
65.820 40.444836
65.825 40.640892
65.830 41.670158
65.835 41.750053
65.840 41.243568
65.845 41.277271
65.850 41.009369
65.855 41.202057
65.860 41.09037
65.865 39.688995
65.870 39.59544
65.875 39.374592
65.880 38.15757
65.885 37.553795
65.890 37.103432
65.895 37.294239
65.900 38.421471
65.905 38.881908
65.910 38.699024
65.915 39.746357
65.920 40.904652
65.925 40.899624
65.930 40.946217
65.935 40.757912
65.940 40.467693
65.945 40.421383
65.950 39.187923
65.955 38.14056
65.960 38.100304
65.965 37.724636
65.970 38.397846
65.975 38.214378
65.980 38.036674
65.985 39.269577
65.990 39.793045
65.995 38.891972
66.000 37.941971
66.005 36.159645
66.010 35.593082
66.015 35.89455
66.020 34.897842
66.025 33.839653
66.030 34.3643
66.035 34.950775
66.040 34.515987
66.045 34.230755
66.050 33.542686
66.055 33.221588
66.060 33.218723
66.065 32.194935
66.070 31.156666
66.075 31.621965
66.080 31.751202
66.085 32.574745
66.090 32.921326
66.095 33.285622
66.100 33.313812
66.105 33.185097
66.110 32.467491
66.115 32.220375
66.120 31.575907
66.125 30.848213
66.130 30.32618
66.135 29.918798
66.140 29.295391
66.145 29.502939
66.150 29.234692
66.155 28.96839
66.160 28.270153
66.165 27.733891
66.170 27.357454
66.175 27.128147
66.180 26.435936
66.185 25.640024
66.190 24.602062
66.195 25.182329
66.200 25.13146
66.205 25.214123
66.210 25.98596
66.215 26.646814
66.220 26.843332
66.225 27.028572
66.230 26.510752
66.235 26.658606
66.240 26.229456
66.245 25.198233
66.250 24.838381
66.255 25.343252
66.260 24.946772
66.265 24.357422
66.270 23.849609
66.275 23.290455
66.280 22.985823
66.285 22.28241
66.290 21.45512
66.295 21.598829
66.300 22.151609
66.305 22.626844
66.310 22.734686
66.315 22.309549
66.320 22.307114
66.325 22.540983
66.330 22.268299
66.335 21.794092
66.340 21.467718
66.345 21.007582
66.350 20.885857
66.355 20.483475
66.360 19.733381
66.365 19.588858
66.370 19.706575
66.375 19.347422
66.380 19.301683
66.385 19.400702
66.390 19.922213
66.395 19.727119
66.400 19.932228
66.405 19.508718
66.410 19.888624
66.415 20.804768
66.420 20.949757
66.425 20.918369
66.430 20.954035
66.435 20.679893
66.440 20.775534
66.445 20.484026
66.450 19.427395
66.455 18.773144
66.460 18.545074
66.465 18.809523
66.470 19.301897
66.475 20.176184
66.480 20.364069
66.485 20.733824
66.490 21.480328
66.495 22.218546
66.500 22.204016
66.505 21.437994
66.510 20.497391
66.515 19.785568
66.520 19.640619
66.525 18.890226
66.530 17.772188
66.535 17.565371
66.540 17.660765
66.545 17.818783
66.550 18.51569
66.555 18.605284
66.560 18.956739
66.565 19.044943
66.570 19.435219
66.575 19.441059
66.580 19.33317
66.585 19.365101
66.590 19.34164
66.595 20.057959
66.600 20.275566
66.605 20.313377
66.610 20.303799
66.615 20.341043
66.620 20.341314
66.625 20.160526
66.630 19.610817
66.635 19.656727
66.640 19.781502
66.645 20.004402
66.650 19.843065
66.655 19.502234
66.660 18.952402
66.665 18.744587
66.670 18.786682
66.675 18.06951
66.680 17.858883
66.685 17.797459
66.690 18.201645
66.695 18.706413
66.700 18.814548
66.705 18.860386
66.710 18.944071
66.715 19.335876
66.720 19.56764
66.725 19.453533
66.730 19.676317
66.735 19.524313
66.740 19.236404
66.745 19.423168
66.750 18.805815
66.755 18.987782
66.760 18.746082
66.765 18.774624
66.770 18.67503
66.775 18.787857
66.780 19.306019
66.785 19.380249
66.790 18.521008
66.795 18.869211
66.800 18.794266
66.805 18.974651
66.810 18.655983
66.815 17.955889
66.820 18.033524
66.825 18.76371
66.830 18.467424
66.835 18.579649
66.840 18.526674
66.845 18.645628
66.850 19.451117
66.855 19.880962
66.860 19.753214
66.865 19.963343
66.870 20.065155
66.875 20.37207
66.880 20.542589
66.885 20.09004
66.890 19.913376
66.895 19.424814
66.900 18.614012
66.905 18.166737
66.910 18.428316
66.915 18.678692
66.920 18.827251
66.925 18.43033
66.930 19.121485
66.935 19.831179
66.940 19.792221
66.945 19.224201
66.950 18.810793
66.955 19.070545
66.960 19.026897
66.965 18.790777
66.970 18.337233
66.975 18.551908
66.980 18.317911
66.985 18.058052
66.990 17.823149
66.995 18.188223
67.000 18.572489
67.005 19.165079
67.010 19.265472
67.015 20.070755
67.020 20.119596
67.025 20.382517
67.030 20.053783
67.035 19.734167
67.040 19.281363
67.045 18.897526
67.050 18.82629
67.055 19.317507
67.060 19.382494
67.065 19.132053
67.070 19.07733
67.075 19.980091
67.080 19.854403
67.085 19.870243
67.090 19.601927
67.095 19.534346
67.100 19.938227
67.105 19.754951
67.110 19.561058
67.115 19.180311
67.120 18.924589
67.125 18.807697
67.130 18.517931
67.135 18.58028
67.140 18.312248
67.145 17.955757
67.150 18.58403
67.155 18.722191
67.160 18.934132
67.165 19.285858
67.170 20.022839
67.175 20.045794
67.180 20.16625
67.185 20.022043
67.190 19.69981
67.195 19.953541
67.200 19.859503
67.205 19.677662
67.210 19.866398
67.215 19.311176
67.220 19.190937
67.225 19.412964
67.230 18.870764
67.235 18.660469
67.240 18.510143
67.245 18.501488
67.250 18.731808
67.255 19.139317
67.260 19.445976
67.265 19.805353
67.270 19.759518
67.275 19.332085
67.280 18.955317
67.285 18.930904
67.290 18.353914
67.295 18.063652
67.300 17.680746
67.305 17.369261
67.310 17.686869
67.315 18.055511
67.320 18.353523
67.325 18.435352
67.330 18.478399
67.335 18.833132
67.340 19.203762
67.345 19.402782
67.350 19.285412
67.355 18.727974
67.360 18.63788
67.365 18.610357
67.370 18.512964
67.375 18.628
67.380 18.178692
67.385 18.433689
67.390 18.786667
67.395 19.064445
67.400 19.213955
67.405 18.905428
67.410 19.220659
67.415 19.496035
67.420 19.069052
67.425 18.975981
67.430 18.91054
67.435 18.436939
67.440 18.319201
67.445 18.33103
67.450 18.667694
67.455 19.092606
67.460 19.290697
67.465 19.183363
67.470 19.433479
67.475 19.560158
67.480 19.013819
67.485 18.84177
67.490 18.343657
67.495 17.840172
67.500 18.217524
67.505 18.255264
67.510 18.577993
67.515 18.902477
67.520 18.452747
67.525 18.662754
67.530 18.642532
67.535 18.939743
67.540 18.521442
67.545 18.289341
67.550 18.54192
67.555 19.241365
67.560 19.396738
67.565 19.302685
67.570 18.612343
67.575 18.875483
67.580 18.919006
67.585 18.358248
67.590 18.112438
67.595 18.292179
67.600 18.565523
67.605 19.32332
67.610 19.9828
67.615 19.892546
67.620 19.813967
67.625 19.636145
67.630 19.530666
67.635 19.047834
67.640 18.62183
67.645 18.540045
67.650 18.873928
67.655 19.511686
67.660 19.3908
67.665 19.253061
67.670 19.30678
67.675 18.874353
67.680 18.419949
67.685 17.688095
67.690 17.206511
67.695 17.064972
67.700 17.419096
67.705 17.500484
67.710 18.098465
67.715 18.728327
67.720 19.1481
67.725 19.606873
67.730 19.503069
67.735 19.463516
67.740 19.471689
67.745 19.028967
67.750 19.334227
67.755 19.471682
67.760 19.728689
67.765 19.777565
67.770 20.004452
67.775 20.085215
67.780 19.668758
67.785 18.756586
67.790 18.63332
67.795 18.394545
67.800 18.207273
67.805 17.758644
67.810 17.811302
67.815 17.838995
67.820 17.720959
67.825 17.504461
67.830 16.91955
67.835 16.762775
67.840 16.912649
67.845 16.439514
67.850 16.675856
67.855 16.941256
67.860 17.145044
67.865 17.626318
67.870 17.753185
67.875 17.784264
67.880 18.183544
67.885 18.382524
67.890 18.955271
67.895 19.310301
67.900 19.799332
67.905 20.263012
67.910 20.924498
67.915 20.808218
67.920 20.180649
67.925 19.752039
67.930 19.823858
67.935 19.816132
67.940 19.536959
67.945 18.97765
67.950 19.307402
67.955 19.370176
67.960 19.20125
67.965 19.131088
67.970 18.732601
67.975 18.873367
67.980 18.637987
67.985 18.594999
67.990 18.547291
67.995 18.937248
68.000 18.138641
68.005 17.808552
68.010 17.76516
68.015 17.911757
68.020 18.293768
68.025 18.353579
68.030 17.826994
68.035 18.581669
68.040 18.597301
68.045 19.008629
68.050 19.150162
68.055 19.202715
68.060 18.876875
68.065 19.317381
68.070 19.029728
68.075 18.951033
68.080 18.748594
68.085 18.827761
68.090 18.770123
68.095 18.603512
68.100 18.235147
68.105 18.641375
68.110 18.922983
68.115 18.709616
68.120 18.30475
68.125 18.347706
68.130 19.15465
68.135 19.25457
68.140 18.7307
68.145 18.972311
68.150 18.988285
68.155 19.136648
68.160 18.835728
68.165 18.740868
68.170 19.181969
68.175 19.578373
68.180 19.912466
68.185 20.153234
68.190 20.494253
68.195 21.032484
68.200 20.965919
68.205 21.267778
68.210 21.286161
68.215 20.653332
68.220 20.518164
68.225 20.872221
68.230 20.75906
68.235 20.367956
68.240 19.949564
68.245 19.90745
68.250 20.04924
68.255 20.406494
68.260 20.011673
68.265 20.127529
68.270 20.216619
68.275 20.109385
68.280 19.698431
68.285 19.647552
68.290 19.117754
68.295 19.003971
68.300 18.779739
68.305 18.47439
68.310 18.241953
68.315 18.433636
68.320 18.731564
68.325 19.130577
68.330 19.180052
68.335 19.253763
68.340 19.585201
68.345 19.936623
68.350 20.428394
68.355 20.567009
68.360 20.241888
68.365 20.138865
68.370 20.309469
68.375 20.43745
68.380 20.22831
68.385 20.193953
68.390 20.525723
68.395 20.401724
68.400 20.7152
68.405 21.012993
68.410 21.619572
68.415 21.896423
68.420 22.195625
68.425 22.159454
68.430 22.280674
68.435 22.117062
68.440 21.896614
68.445 21.536438
68.450 21.591904
68.455 21.047319
68.460 21.179657
68.465 21.152828
68.470 21.267464
68.475 21.154728
68.480 21.608198
68.485 22.036278
68.490 22.440115
68.495 22.339161
68.500 22.971407
68.505 22.837969
68.510 23.271605
68.515 23.249235
68.520 22.779716
68.525 22.4366
68.530 22.53858
68.535 22.849892
68.540 23.040277
68.545 22.462715
68.550 21.886055
68.555 21.930241
68.560 22.300871
68.565 22.261395
68.570 21.676701
68.575 21.902571
68.580 22.352383
68.585 23.081518
68.590 24.041616
68.595 23.89913
68.600 23.939285
68.605 24.595856
68.610 24.662039
68.615 24.954824
68.620 24.959816
68.625 25.122765
68.630 25.439768
68.635 25.498302
68.640 25.6189
68.645 25.610636
68.650 25.500748
68.655 25.275345
68.660 24.94492
68.665 24.870369
68.670 25.962498
68.675 26.566107
68.680 26.603004
68.685 26.410341
68.690 26.461277
68.695 26.887444
68.700 26.926317
68.705 26.466036
68.710 26.277473
68.715 26.421215
68.720 26.996115
68.725 27.324915
68.730 27.357748
68.735 27.029755
68.740 26.608747
68.745 26.684206
68.750 26.952328
68.755 27.145351
68.760 27.030405
68.765 27.877159
68.770 28.477802
68.775 28.263582
68.780 28.324476
68.785 28.501419
68.790 29.175154
68.795 29.123522
68.800 28.600464
68.805 29.115925
68.810 29.378431
68.815 30.125128
68.820 30.934872
68.825 31.130785
68.830 31.621431
68.835 32.357544
68.840 32.567944
68.845 32.889286
68.850 32.539265
68.855 32.282017
68.860 32.142593
68.865 33.104851
68.870 33.550102
68.875 33.923885
68.880 33.799881
68.885 33.479103
68.890 32.796879
68.895 33.643848
68.900 34.296867
68.905 35.472912
68.910 36.522781
68.915 36.736416
68.920 36.97562
68.925 37.806637
68.930 38.200375
68.935 37.720119
68.940 36.687122
68.945 35.152313
68.950 35.223419
68.955 35.46907
68.960 35.671089
68.965 35.265652
68.970 36.113491
68.975 36.128639
68.980 37.300594
68.985 37.89436
68.990 38.123493
68.995 37.605816
69.000 37.708839
69.005 37.398533
69.010 38.007763
69.015 37.892445
69.020 37.734291
69.025 37.812817
69.030 37.290432
69.035 36.089912
69.040 35.985271
69.045 36.495426
69.050 36.467781
69.055 36.36063
69.060 36.345753
69.065 36.70713
69.070 36.668179
69.075 36.537785
69.080 36.431194
69.085 36.700497
69.090 36.376659
69.095 36.376274
69.100 37.229202
69.105 37.281006
69.110 36.71048
69.115 35.346947
69.120 34.839901
69.125 35.409988
69.130 34.514729
69.135 33.60331
69.140 34.290726
69.145 34.022327
69.150 33.977814
69.155 34.087547
69.160 34.200134
69.165 34.909668
69.170 34.89613
69.175 34.317051
69.180 34.063961
69.185 34.413471
69.190 34.008274
69.195 33.35458
69.200 32.334694
69.205 31.857628
69.210 30.962051
69.215 30.96608
69.220 30.799074
69.225 30.415672
69.230 30.055214
69.235 30.050222
69.240 29.764448
69.245 29.698313
69.250 29.891811
69.255 29.530519
69.260 29.545929
69.265 29.125374
69.270 28.511696
69.275 28.509144
69.280 28.339771
69.285 28.132524
69.290 28.217583
69.295 27.988142
69.300 28.430286
69.305 28.592562
69.310 28.936436
69.315 28.848328
69.320 28.220779
69.325 27.639469
69.330 27.61548
69.335 27.793427
69.340 27.638437
69.345 27.90822
69.350 27.438019
69.355 28.120672
69.360 28.298811
69.365 27.824371
69.370 27.38438
69.375 27.107397
69.380 26.103161
69.385 25.685518
69.390 24.984127
69.395 24.766258
69.400 24.759066
69.405 24.495998
69.410 24.533926
69.415 24.246063
69.420 25.013676
69.425 25.547392
69.430 26.000683
69.435 26.29158
69.440 26.205896
69.445 26.738888
69.450 27.291059
69.455 27.035528
69.460 26.501888
69.465 25.456188
69.470 24.84309
69.475 24.595322
69.480 24.302629
69.485 23.24436
69.490 22.65064
69.495 22.989826
69.500 23.496901
69.505 23.960686
69.510 24.107656
69.515 24.557709
69.520 24.393057
69.525 23.724907
69.530 23.211193
69.535 23.220793
69.540 23.183289
69.545 22.27865
69.550 21.174057
69.555 21.518127
69.560 21.868944
69.565 21.741344
69.570 22.009939
69.575 22.25156
69.580 22.22452
69.585 22.466782
69.590 21.841805
69.595 21.806349
69.600 20.968592
69.605 19.886272
69.610 19.25008
69.615 19.42034
69.620 19.958454
69.625 20.29895
69.630 20.807467
69.635 21.15744
69.640 21.807013
69.645 22.305515
69.650 22.061064
69.655 22.405912
69.660 22.154821
69.665 21.970621
69.670 22.398701
69.675 22.196899
69.680 22.254101
69.685 22.380484
69.690 21.881184
69.695 21.444405
69.700 21.663691
69.705 21.587894
69.710 21.110235
69.715 20.296545
69.720 19.857634
69.725 19.853243
69.730 20.163488
69.735 19.570826
69.740 20.105762
69.745 20.723993
69.750 20.526443
69.755 19.969866
69.760 19.529552
69.765 18.863913
69.770 19.238647
69.775 18.663223
69.780 19.077
69.785 19.558277
69.790 19.868937
69.795 20.268145
69.800 20.32074
69.805 19.996729
69.810 19.927389
69.815 19.804579
69.820 19.737965
69.825 19.476942
69.830 19.258705
69.835 19.867556
69.840 20.089781
69.845 20.045612
69.850 20.152632
69.855 20.444023
69.860 20.532907
69.865 20.598337
69.870 20.351915
69.875 20.353991
69.880 21.03389
69.885 20.919085
69.890 20.848373
69.895 20.406134
69.900 19.865767
69.905 19.712687
69.910 19.309233
69.915 18.594957
69.920 18.899708
69.925 18.50259
69.930 18.773748
69.935 19.244545
69.940 18.883619
69.945 18.948084
69.950 19.122765
69.955 19.364084
69.960 20.044041
69.965 20.574961
69.970 20.072788
69.975 20.100361
69.980 19.921076
69.985 19.568827
69.990 19.71883
69.995 19.347891
70.000 18.780117
70.005 18.472134
70.010 17.945562
70.015 18.152187
70.020 18.242876
70.025 18.332996
70.030 18.691109
70.035 18.627335
70.040 19.27273
70.045 19.572554
70.050 19.528179
70.055 19.325378
70.060 19.077381
70.065 19.217062
70.070 19.739052
70.075 19.706108
70.080 19.675943
70.085 19.285069
70.090 18.694477
70.095 18.111937
70.100 18.335747
70.105 18.208391
70.110 18.209064
70.115 18.278343
70.120 18.843628
70.125 19.817205
70.130 19.916277
70.135 19.33041
70.140 18.982313
70.145 18.987778
70.150 19.019793
70.155 18.589079
70.160 18.716616
70.165 18.742865
70.170 18.784826
70.175 19.059946
70.180 18.957588
70.185 19.256618
70.190 19.018158
70.195 18.502676
70.200 18.948183
70.205 19.185226
70.210 19.500326
70.215 19.645271
70.220 19.426441
70.225 19.7241
70.230 19.732498
70.235 20.181417
70.240 20.269655
70.245 19.740023
70.250 19.914551
70.255 19.721138
70.260 19.394108
70.265 19.198223
70.270 18.139961
70.275 17.467384
70.280 17.455235
70.285 16.863535
70.290 17.013123
70.295 17.60935
70.300 17.767479
70.305 18.137495
70.310 18.950218
70.315 19.039804
70.320 18.831043
70.325 18.710199
70.330 17.870312
70.335 17.903667
70.340 17.89587
70.345 17.950121
70.350 17.77104
70.355 17.76865
70.360 17.519859
70.365 17.900646
70.370 17.293713
70.375 17.426382
70.380 17.884962
70.385 18.742369
70.390 19.867687
70.395 19.94557
70.400 20.204161
70.405 20.591772
70.410 20.678051
70.415 19.904568
70.420 19.613285
70.425 18.80732
70.430 18.818151
70.435 18.265219
70.440 17.835976
70.445 17.735195
70.450 18.300911
70.455 18.696861
70.460 18.46884
70.465 18.678726
70.470 19.458891
70.475 19.620787
70.480 19.24824
70.485 18.087093
70.490 17.441473
70.495 17.697893
70.500 17.545235
70.505 17.38526
70.510 17.680887
70.515 17.576767
70.520 17.736914
70.525 18.330256
70.530 18.414211
70.535 18.702864
70.540 19.145426
70.545 18.560837
70.550 19.229321
70.555 19.5308
70.560 19.663109
70.565 19.951014
70.570 19.828886
70.575 19.58009
70.580 19.701208
70.585 19.404366
70.590 19.249401
70.595 18.910835
70.600 18.106564
70.605 17.745178
70.610 17.572966
70.615 17.303869
70.620 18.115969
70.625 18.084337
70.630 17.888308
70.635 18.445156
70.640 18.382914
70.645 18.501648
70.650 19.240213
70.655 18.667511
70.660 18.691732
70.665 18.948807
70.670 18.374863
70.675 18.145348
70.680 17.854229
70.685 16.966536
70.690 17.384068
70.695 17.705275
70.700 17.152416
70.705 17.491629
70.710 17.888523
70.715 18.134729
70.720 18.2866
70.725 17.784496
70.730 17.505335
70.735 17.90242
70.740 17.560738
70.745 17.39369
70.750 17.903145
70.755 17.938547
70.760 18.184505
70.765 18.706406
70.770 19.077778
70.775 19.590799
70.780 19.4837
70.785 19.457272
70.790 20.289251
70.795 20.147589
70.800 19.874041
70.805 19.876268
70.810 20.118229
70.815 20.013048
70.820 19.426901
70.825 18.724771
70.830 18.231802
70.835 17.785442
70.840 17.351017
70.845 17.245819
70.850 17.130037
70.855 17.663115
70.860 17.706888
70.865 18.424204
70.870 18.636936
70.875 18.464664
70.880 18.352064
70.885 18.417738
70.890 18.319744
70.895 18.497351
70.900 18.541601
70.905 18.857061
70.910 19.094278
70.915 19.519251
70.920 19.314045
70.925 19.303387
70.930 18.658213
70.935 18.592234
70.940 18.475058
70.945 18.430666
70.950 18.38442
70.955 19.026232
70.960 19.118048
70.965 19.438015
70.970 19.528267
70.975 19.45158
70.980 19.559711
70.985 19.072233
70.990 18.295328
70.995 18.137665
71.000 17.860067
71.005 17.340839
71.010 17.246981
71.015 17.110632
71.020 17.16477
71.025 17.112272
71.030 17.5082
71.035 18.401381
71.040 18.902563
71.045 18.676292
71.050 18.440819
71.055 18.644972
71.060 18.087069
71.065 17.585049
71.070 16.79738
71.075 16.575697
71.080 16.887085
71.085 16.899172
71.090 16.724747
71.095 17.469095
71.100 17.372953
71.105 17.904081
71.110 18.018002
71.115 17.774452
71.120 17.937384
71.125 17.902163
71.130 17.899738
71.135 18.153149
71.140 17.552692
71.145 17.331469
71.150 17.425007
71.155 17.103718
71.160 17.063246
71.165 16.931736
71.170 17.004652
71.175 17.35363
71.180 17.558439
71.185 17.859343
71.190 18.515217
71.195 18.95274
71.200 19.103113
71.205 18.906673
71.210 18.837225
71.215 18.84342
71.220 18.48962
71.225 17.959074
71.230 16.965939
71.235 16.976549
71.240 17.469151
71.245 17.501022
71.250 17.448149
71.255 17.39011
71.260 17.795
71.265 18.325726
71.270 18.24942
71.275 18.05661
71.280 18.228655
71.285 17.669653
71.290 17.758789
71.295 17.531012
71.300 17.067303
71.305 17.382046
71.310 16.77459
71.315 16.610579
71.320 17.485868
71.325 17.674673
71.330 18.138674
71.335 18.026037
71.340 17.611479
71.345 17.702429
71.350 18.046543
71.355 17.34034
71.360 17.315859
71.365 17.679897
71.370 17.429432
71.375 17.305042
71.380 17.254898
71.385 17.182619
71.390 17.434946
71.395 17.284472
71.400 17.186014
71.405 17.849514
71.410 18.43346
71.415 19.28336
71.420 19.616014
71.425 19.512754
71.430 19.292547
71.435 19.533913
71.440 19.503387
71.445 19.594545
71.450 19.035225
71.455 18.786314
71.460 19.454786
71.465 19.105337
71.470 19.040775
71.475 19.032816
71.480 18.85474
71.485 18.706331
71.490 18.894329
71.495 19.224461
71.500 19.41037
71.505 19.114574
71.510 18.751097
71.515 18.846451
71.520 18.872427
71.525 17.994049
71.530 17.511021
71.535 17.718267
71.540 17.667131
71.545 17.730255
71.550 18.010317
71.555 18.221252
71.560 18.061752
71.565 17.613728
71.570 17.440561
71.575 17.415264
71.580 16.708096
71.585 16.067837
71.590 16.703028
71.595 17.801395
71.600 17.890102
71.605 18.114439
71.610 17.918442
71.615 18.317429
71.620 18.601469
71.625 17.968533
71.630 17.567394
71.635 17.267385
71.640 16.797878
71.645 17.432884
71.650 17.210424
71.655 16.657143
71.660 16.692528
71.665 16.902847
71.670 17.000772
71.675 17.300674
71.680 17.883026
71.685 18.500963
71.690 18.91362
71.695 19.469803
71.700 19.416103
71.705 19.452463
71.710 19.153437
71.715 18.7834
71.720 18.779213
71.725 18.096556
71.730 17.081797
71.735 16.9795
71.740 16.987856
71.745 16.976892
71.750 16.38467
71.755 16.058369
71.760 16.273659
71.765 16.39399
71.770 16.242161
71.775 15.8493
71.780 16.065004
71.785 16.464518
71.790 16.784855
71.795 17.69125
71.800 18.512587
71.805 19.184774
71.810 19.471903
71.815 19.361601
71.820 19.341166
71.825 18.960855
71.830 18.092979
71.835 17.598284
71.840 17.482674
71.845 17.604237
71.850 18.062494
71.855 18.446898
71.860 18.467281
71.865 18.445124
71.870 18.51693
71.875 18.957186
71.880 18.482738
71.885 17.957933
71.890 17.791176
71.895 18.135042
71.900 18.166897
71.905 18.235975
71.910 17.836926
71.915 17.865269
71.920 18.025953
71.925 17.480625
71.930 17.324409
71.935 17.411425
71.940 18.071674
71.945 18.079664
71.950 18.043095
71.955 18.082024
71.960 18.382431
71.965 18.253738
71.970 17.951086
71.975 16.828058
71.980 17.007093
71.985 17.174671
71.990 17.913172
71.995 18.291273
72.000 18.62932
72.005 18.854086
72.010 19.196085
72.015 18.969044
72.020 18.988512
72.025 18.56686
72.030 18.347851
72.035 18.084511
72.040 17.532902
72.045 17.629889
72.050 17.554371
72.055 16.782291
72.060 16.734701
72.065 16.897175
72.070 17.430895
72.075 18.146246
72.080 19.082808
72.085 19.338787
72.090 19.037725
72.095 18.728697
72.100 18.4224
72.105 18.078188
72.110 17.487082
72.115 17.275089
72.120 17.457409
72.125 18.120346
72.130 18.131929
72.135 18.11673
72.140 18.425461
72.145 18.468208
72.150 18.133509
72.155 18.074919
72.160 18.436348
72.165 18.452587
72.170 18.832167
72.175 19.031296
72.180 18.954844
72.185 18.976898
72.190 18.767309
72.195 18.097967
72.200 17.74988
72.205 17.487604
72.210 16.796045
72.215 16.50013
72.220 16.748114
72.225 16.680449
72.230 17.725576
72.235 17.816097
72.240 17.897608
72.245 18.364428
72.250 19.443724
72.255 19.652534
72.260 19.291399
72.265 18.665213
72.270 18.607828
72.275 18.184063
72.280 17.255173
72.285 15.589978
72.290 15.918756
72.295 15.840695
72.300 16.021217
72.305 15.830517
72.310 16.139824
72.315 17.150236
72.320 17.490339
72.325 17.111155
72.330 17.296516
72.335 16.885202
72.340 16.832129
72.345 16.165791
72.350 15.631835
72.355 16.065062
72.360 15.634542
72.365 16.262308
72.370 16.323137
72.375 16.788771
72.380 17.200544
72.385 17.312235
72.390 17.138767
72.395 17.226725
72.400 16.841448
72.405 17.155922
72.410 17.07374
72.415 16.792284
72.420 16.783409
72.425 16.718971
72.430 17.358395
72.435 17.764444
72.440 17.688614
72.445 17.811251
72.450 17.874779
72.455 17.670099
72.460 17.815084
72.465 17.501123
72.470 17.026545
72.475 17.356478
72.480 17.622007
72.485 18.109838
72.490 18.456644
72.495 17.807745
72.500 17.39106
72.505 17.376844
72.510 16.820538
72.515 16.779156
72.520 16.881481
72.525 16.244175
72.530 16.180159
72.535 16.651674
72.540 17.117977
72.545 16.875532
72.550 16.684334
72.555 16.93038
72.560 17.481762
72.565 17.569168
72.570 17.374384
72.575 17.210541
72.580 18.015484
72.585 18.145479
72.590 17.683903
72.595 17.660257
72.600 17.677309
72.605 17.633001
72.610 17.594393
72.615 16.946594
72.620 16.85359
72.625 16.979465
72.630 17.090752
72.635 17.049953
72.640 16.811235
72.645 16.762648
72.650 16.364706
72.655 16.336748
72.660 16.513657
72.665 16.714424
72.670 17.074566
72.675 17.125744
72.680 17.075762
72.685 17.438553
72.690 17.550226
72.695 17.904799
72.700 18.046961
72.705 17.69459
72.710 17.800236
72.715 17.39839
72.720 17.212303
72.725 16.84012
72.730 16.326748
72.735 15.998466
72.740 16.262197
72.745 16.701918
72.750 16.882666
72.755 16.821562
72.760 16.584394
72.765 16.531727
72.770 16.682047
72.775 16.903069
72.780 16.887333
72.785 16.809546
72.790 16.937624
72.795 16.86051
72.800 16.897066
72.805 16.56349
72.810 16.023359
72.815 15.985622
72.820 15.925374
72.825 16.975334
72.830 17.433212
72.835 18.254469
72.840 18.340965
72.845 18.330456
72.850 18.04427
72.855 18.128529
72.860 17.252028
72.865 16.583921
72.870 16.090317
72.875 16.054325
72.880 16.249365
72.885 16.476139
72.890 15.819382
72.895 15.98749
72.900 15.771689
72.905 15.472755
72.910 15.520957
72.915 14.970279
72.920 15.390621
72.925 15.34865
72.930 15.826595
72.935 15.936535
72.940 16.271248
72.945 16.456663
72.950 16.41345
72.955 16.306856
72.960 16.289923
72.965 15.757356
72.970 15.815928
72.975 15.731032
72.980 16.086706
72.985 16.115986
72.990 16.23407
72.995 16.285025
73.000 16.211691
