!@!!GADDS PLOTSO FILE: Chi integration type
!@!!Title/SampleName: map-f4
!@!!Comment: ?
!@!!User: Bruker Instrument Administrator
!@!!Site: University of Illinois Chicago
!@!!Frame: map-f4_01_000.gfrm
!@!!Wavelengths    1.54184   1.54056   1.54439
!@!!Frame angles: 2Theta: 63.000 Omega: 50.000 Phi: 0.000 Chi: 90.000
!@!!Integration range: 2Theta: 53.000 to 73.000  Gamma: -105.000 to -75.000
!@!!Integration method: bin normalized
!@!N
!@!SS
!@!M
!@!L 0.0 0.0 0.0 0.0
!@!XDegrees
!@!YCounts
53.000 4.308369
53.005 3.873251
53.010 3.580801
53.015 3.439828
53.020 3.21687
53.025 3.455871
53.030 3.556374
53.035 3.640599
53.040 4.040255
53.045 4.240091
53.050 4.361279
53.055 4.548129
53.060 4.664295
53.065 4.389122
53.070 4.014992
53.075 3.816415
53.080 3.877528
53.085 3.996835
53.090 3.651512
53.095 3.53475
53.100 4.051123
53.105 4.085807
53.110 4.248987
53.115 3.75767
53.120 3.803081
53.125 4.128462
53.130 4.069705
53.135 3.852141
53.140 3.857503
53.145 3.822442
53.150 3.771062
53.155 3.47315
53.160 3.673587
53.165 3.846912
53.170 3.779066
53.175 3.855092
53.180 4.090776
53.185 4.310585
53.190 4.338839
53.195 4.435761
53.200 4.465784
53.205 4.539244
53.210 4.512524
53.215 4.26095
53.220 4.518159
53.225 4.470701
53.230 4.157388
53.235 4.051951
53.240 4.041127
53.245 3.867386
53.250 3.91368
53.255 3.842952
53.260 4.073513
53.265 4.121764
53.270 4.022884
53.275 3.956159
53.280 3.956567
53.285 3.977289
53.290 3.850696
53.295 3.942976
53.300 3.733308
53.305 3.921847
53.310 4.221463
53.315 4.600914
53.320 4.685835
53.325 4.498092
53.330 4.568066
53.335 4.636746
53.340 4.311552
53.345 4.203255
53.350 4.204717
53.355 4.319263
53.360 4.38341
53.365 4.158571
53.370 4.359146
53.375 4.655466
53.380 4.449005
53.385 4.790436
53.390 4.71004
53.395 4.894415
53.400 5.24226
53.405 5.314326
53.410 5.440922
53.415 5.500882
53.420 5.161734
53.425 4.936487
53.430 4.493678
53.435 4.142112
53.440 4.212147
53.445 4.29242
53.450 3.966471
53.455 4.190902
53.460 4.627673
53.465 4.996296
53.470 5.167629
53.475 4.927527
53.480 5.292749
53.485 5.30432
53.490 5.462632
53.495 5.217549
53.500 5.101727
53.505 5.231314
53.510 5.166747
53.515 4.989918
53.520 4.981941
53.525 4.484512
53.530 4.655271
53.535 4.717544
53.540 4.395051
53.545 4.307965
53.550 4.473977
53.555 4.76489
53.560 5.177583
53.565 4.969007
53.570 4.966241
53.575 5.122397
53.580 5.161798
53.585 5.142153
53.590 5.206256
53.595 5.066657
53.600 5.111291
53.605 5.172367
53.610 5.127761
53.615 4.995898
53.620 4.715561
53.625 4.90837
53.630 4.929102
53.635 5.075542
53.640 4.819203
53.645 4.807386
53.650 4.886195
53.655 4.881477
53.660 4.708528
53.665 4.806165
53.670 4.425783
53.675 4.397023
53.680 4.259408
53.685 4.145505
53.690 4.246275
53.695 3.953954
53.700 3.895946
53.705 4.138747
53.710 4.303396
53.715 4.411698
53.720 4.444522
53.725 4.562752
53.730 5.079544
53.735 5.057077
53.740 4.981164
53.745 4.811767
53.750 4.967023
53.755 4.766013
53.760 4.39242
53.765 4.387503
53.770 4.517366
53.775 4.521274
53.780 4.614751
53.785 4.398252
53.790 4.282857
53.795 4.246171
53.800 4.042442
53.805 4.358232
53.810 4.447651
53.815 4.518043
53.820 4.920905
53.825 5.320496
53.830 5.31539
53.835 5.320681
53.840 5.002722
53.845 4.740013
53.850 4.434449
53.855 4.168827
53.860 4.185775
53.865 4.656415
53.870 4.584478
53.875 4.704505
53.880 4.89195
53.885 4.951114
53.890 4.994605
53.895 4.810972
53.900 4.363775
53.905 4.626085
53.910 4.603758
53.915 4.396441
53.920 4.220958
53.925 3.973494
53.930 3.853585
53.935 3.972078
53.940 3.745419
53.945 3.922684
53.950 4.316713
53.955 4.523432
53.960 4.829483
53.965 5.064267
53.970 4.912522
53.975 4.848412
53.980 4.455627
53.985 4.052553
53.990 4.046448
53.995 3.719006
54.000 3.347517
54.005 3.236742
54.010 3.638185
54.015 3.723258
54.020 3.804709
54.025 3.817739
54.030 3.847392
54.035 4.135742
54.040 4.225407
54.045 4.131424
54.050 4.189664
54.055 4.213596
54.060 3.99467
54.065 3.993086
54.070 3.971437
54.075 4.031369
54.080 4.400095
54.085 4.500595
54.090 4.666671
54.095 4.872732
54.100 4.714629
54.105 4.576693
54.110 4.45653
54.115 4.392881
54.120 4.357742
54.125 4.09244
54.130 4.477111
54.135 4.584235
54.140 4.698998
54.145 4.721331
54.150 4.882269
54.155 5.090766
54.160 5.216991
54.165 4.815988
54.170 4.68174
54.175 4.846663
54.180 4.502916
54.185 4.28325
54.190 4.053391
54.195 4.102292
54.200 4.461013
54.205 4.752619
54.210 4.571329
54.215 4.719442
54.220 4.583653
54.225 4.483702
54.230 4.560466
54.235 4.451286
54.240 4.4169
54.245 4.551651
54.250 4.573994
54.255 4.677175
54.260 4.722858
54.265 4.584469
54.270 4.464607
54.275 4.409488
54.280 4.561525
54.285 4.530422
54.290 4.39747
54.295 4.17142
54.300 4.194402
54.305 4.350555
54.310 3.990114
54.315 3.820926
54.320 3.751009
54.325 3.974274
54.330 4.440534
54.335 4.63177
54.340 4.703634
54.345 4.79632
54.350 5.15748
54.355 5.237257
54.360 5.284723
54.365 5.051205
54.370 4.796705
54.375 4.954586
54.380 4.975605
54.385 5.007213
54.390 4.901983
54.395 4.998229
54.400 5.050563
54.405 4.896279
54.410 4.755525
54.415 4.598056
54.420 4.334463
54.425 4.282394
54.430 4.179749
54.435 4.092282
54.440 4.497859
54.445 4.528021
54.450 4.7848
54.455 4.697018
54.460 4.564064
54.465 4.508088
54.470 4.612787
54.475 4.484232
54.480 4.357095
54.485 4.330842
54.490 4.503743
54.495 4.730132
54.500 4.839306
54.505 4.461028
54.510 4.398043
54.515 4.363142
54.520 4.291317
54.525 4.298273
54.530 3.965486
54.535 3.908545
54.540 3.885022
54.545 3.656131
54.550 3.73822
54.555 3.87417
54.560 3.92251
54.565 3.97615
54.570 4.035674
54.575 4.099051
54.580 4.197498
54.585 4.39311
54.590 4.428281
54.595 4.76131
54.600 5.091308
54.605 5.463325
54.610 5.816629
54.615 5.933333
54.620 5.579241
54.625 5.330123
54.630 5.343168
54.635 5.107124
54.640 4.889506
54.645 4.653255
54.650 4.740752
54.655 5.100655
54.660 4.998012
54.665 4.781005
54.670 4.724233
54.675 4.646401
54.680 4.774228
54.685 4.591373
54.690 4.538683
54.695 4.567893
54.700 4.512063
54.705 4.570863
54.710 4.575275
54.715 4.609634
54.720 4.909618
54.725 5.133003
54.730 5.400372
54.735 5.366965
54.740 5.402577
54.745 5.183676
54.750 4.782003
54.755 4.42862
54.760 4.154789
54.765 4.256563
54.770 4.343867
54.775 4.425719
54.780 4.540043
54.785 5.145074
54.790 5.295532
54.795 5.476559
54.800 5.689904
54.805 5.942493
54.810 5.866621
54.815 5.631002
54.820 5.365941
54.825 5.054519
54.830 4.875719
54.835 4.485162
54.840 4.43153
54.845 4.76908
54.850 4.897151
54.855 4.603144
54.860 4.675215
54.865 4.74643
54.870 4.641643
54.875 4.616797
54.880 4.352215
54.885 4.188841
54.890 4.31573
54.895 4.219784
54.900 4.071675
54.905 4.091368
54.910 4.44073
54.915 4.999173
54.920 5.328706
54.925 5.451538
54.930 5.291523
54.935 5.303744
54.940 5.565666
54.945 5.336154
54.950 4.977579
54.955 4.612216
54.960 4.668114
54.965 4.949188
54.970 5.054043
54.975 4.851081
54.980 4.598174
54.985 4.81464
54.990 5.106388
54.995 5.121456
55.000 5.011975
55.005 4.828729
55.010 5.167439
55.015 5.447847
55.020 5.610966
55.025 5.838254
55.030 6.087502
55.035 6.033707
55.040 5.98167
55.045 5.690839
55.050 5.751656
55.055 5.505785
55.060 5.252215
55.065 4.732459
55.070 4.632739
55.075 4.763842
55.080 5.109169
55.085 5.038469
55.090 4.854466
55.095 5.164198
55.100 5.506338
55.105 5.732051
55.110 5.363081
55.115 4.963007
55.120 4.745646
55.125 4.958378
55.130 4.914174
55.135 5.23668
55.140 5.219266
55.145 5.166393
55.150 5.081775
55.155 5.205081
55.160 5.162407
55.165 5.035265
55.170 4.817497
55.175 4.963185
55.180 5.193952
55.185 5.193168
55.190 5.215708
55.195 5.340878
55.200 5.163071
55.205 5.05977
55.210 5.374972
55.215 5.575618
55.220 5.561108
55.225 5.385006
55.230 4.968807
55.235 5.057107
55.240 4.757897
55.245 4.508946
55.250 4.387461
55.255 4.597703
55.260 4.708197
55.265 4.855998
55.270 5.010145
55.275 4.975075
55.280 4.829999
55.285 4.524914
55.290 4.850742
55.295 4.819942
55.300 4.667508
55.305 4.42464
55.310 4.384535
55.315 4.33844
55.320 4.538205
55.325 4.301617
55.330 4.554744
55.335 5.004794
55.340 5.434397
55.345 5.729925
55.350 6.023056
55.355 5.758183
55.360 5.438329
55.365 5.007686
55.370 4.955986
55.375 4.809894
55.380 4.670983
55.385 4.758431
55.390 5.121701
55.395 5.382112
55.400 5.414772
55.405 5.404692
55.410 5.670776
55.415 5.977456
55.420 5.642229
55.425 5.328312
55.430 5.344371
55.435 5.51084
55.440 5.616423
55.445 5.826776
55.450 5.595018
55.455 5.866001
55.460 5.753141
55.465 5.974265
55.470 5.896316
55.475 5.755145
55.480 5.417825
55.485 5.416779
55.490 5.428162
55.495 5.38821
55.500 5.100617
55.505 4.875672
55.510 4.57719
55.515 4.440333
55.520 4.286446
55.525 4.398499
55.530 4.873926
55.535 4.960305
55.540 5.306897
55.545 5.492997
55.550 5.660105
55.555 5.684376
55.560 5.673489
55.565 5.288094
55.570 5.403812
55.575 5.359744
55.580 5.385838
55.585 5.198315
55.590 5.121515
55.595 5.233585
55.600 5.371298
55.605 5.247892
55.610 5.248549
55.615 5.404096
55.620 5.571982
55.625 5.532477
55.630 5.602278
55.635 5.646136
55.640 5.354127
55.645 5.102428
55.650 5.013706
55.655 4.944142
55.660 5.021789
55.665 4.862046
55.670 4.973319
55.675 5.462763
55.680 5.717193
55.685 5.752382
55.690 5.774774
55.695 5.661489
55.700 5.87215
55.705 5.739635
55.710 5.508693
55.715 5.40419
55.720 5.47525
55.725 5.597938
55.730 5.570073
55.735 5.18349
55.740 4.988907
55.745 4.848334
55.750 5.137523
55.755 5.370312
55.760 5.398699
55.765 5.223894
55.770 5.449768
55.775 5.789649
55.780 5.63143
55.785 5.295877
55.790 5.225612
55.795 5.365368
55.800 5.620875
55.805 5.983189
55.810 5.950062
55.815 5.94591
55.820 6.185616
55.825 5.911453
55.830 5.977918
55.835 6.081836
55.840 6.130493
55.845 6.297888
55.850 6.680402
55.855 6.680897
55.860 6.771321
55.865 6.715289
55.870 6.342584
55.875 5.844024
55.880 5.728483
55.885 5.600333
55.890 5.466518
55.895 5.339934
55.900 5.114832
55.905 5.088652
55.910 5.708506
55.915 5.984098
55.920 6.001375
55.925 6.072443
55.930 6.334426
55.935 6.522944
55.940 6.422446
55.945 5.92059
55.950 5.946634
55.955 5.979273
55.960 5.973833
55.965 5.754094
55.970 6.001639
55.975 6.061045
55.980 6.13809
55.985 6.134835
55.990 5.878624
55.995 5.618187
56.000 5.892035
56.005 5.833519
56.010 5.8142
56.015 5.505412
56.020 5.644548
56.025 5.97186
56.030 5.913124
56.035 5.52354
56.040 5.369732
56.045 5.66846
56.050 5.980895
56.055 5.731468
56.060 5.853454
56.065 6.146649
56.070 6.069611
56.075 6.234624
56.080 6.117946
56.085 5.780924
56.090 5.700413
56.095 5.461065
56.100 5.469233
56.105 5.563028
56.110 5.101799
56.115 5.204248
56.120 5.351305
56.125 5.559426
56.130 5.645885
56.135 5.58746
56.140 5.945396
56.145 6.414597
56.150 6.493074
56.155 6.26843
56.160 6.193534
56.165 6.440346
56.170 6.632317
56.175 6.440539
56.180 6.078535
56.185 5.726779
56.190 5.873741
56.195 5.554173
56.200 5.448691
56.205 5.58208
56.210 5.766061
56.215 6.053112
56.220 6.532155
56.225 6.475804
56.230 6.360335
56.235 6.040458
56.240 5.660161
56.245 5.368109
56.250 4.907016
56.255 4.602475
56.260 5.023102
56.265 5.253075
56.270 5.440732
56.275 5.369828
56.280 5.288316
56.285 5.751472
56.290 5.857476
56.295 5.746716
56.300 5.724254
56.305 6.168528
56.310 6.724436
56.315 6.901669
56.320 6.632225
56.325 6.112255
56.330 5.745334
56.335 5.789296
56.340 5.532857
56.345 5.333264
56.350 5.099371
56.355 5.090705
56.360 5.521674
56.365 5.875749
56.370 5.393928
56.375 5.198013
56.380 5.145028
56.385 5.229428
56.390 5.227176
56.395 5.324851
56.400 5.240813
56.405 5.426775
56.410 5.43866
56.415 5.563733
56.420 5.754644
56.425 5.362648
56.430 5.104019
56.435 5.344565
56.440 5.475994
56.445 5.44894
56.450 5.288662
56.455 5.114691
56.460 5.836627
56.465 6.177385
56.470 6.093814
56.475 6.138545
56.480 6.330008
56.485 6.512097
56.490 6.791067
56.495 6.595293
56.500 6.774994
56.505 6.713548
56.510 6.498882
56.515 6.490408
56.520 6.430422
56.525 6.805081
56.530 6.714859
56.535 6.347504
56.540 6.41071
56.545 6.72757
56.550 6.687737
56.555 6.732951
56.560 6.544964
56.565 6.852721
56.570 6.991616
56.575 6.696633
56.580 6.594443
56.585 6.786757
56.590 6.511139
56.595 6.243165
56.600 5.978444
56.605 5.861986
56.610 5.951076
56.615 5.599685
56.620 5.148575
56.625 5.241941
56.630 5.590524
56.635 5.503576
56.640 5.652327
56.645 5.750236
56.650 6.052187
56.655 6.04397
56.660 5.898538
56.665 5.515338
56.670 5.390391
56.675 5.471515
56.680 5.646831
56.685 5.748574
56.690 5.95176
56.695 5.968456
56.700 6.131531
56.705 6.2472
56.710 6.151391
56.715 6.091455
56.720 6.14861
56.725 6.151629
56.730 6.667089
56.735 7.075646
56.740 7.117022
56.745 7.091197
56.750 7.357756
56.755 7.383771
56.760 7.258502
56.765 6.779586
56.770 6.563209
56.775 6.894107
56.780 7.013202
56.785 6.506452
56.790 6.339493
56.795 6.210731
56.800 6.37076
56.805 6.669511
56.810 6.661189
56.815 6.504035
56.820 6.883797
56.825 7.088717
56.830 7.29385
56.835 7.329345
56.840 6.781532
56.845 6.498076
56.850 6.387418
56.855 6.138935
56.860 6.168938
56.865 6.385732
56.870 6.386904
56.875 6.624619
56.880 6.961648
56.885 7.162185
56.890 7.233925
56.895 7.074832
56.900 7.180487
56.905 7.239528
56.910 7.096821
56.915 7.158791
56.920 7.312488
56.925 7.276136
56.930 7.245632
56.935 6.816854
56.940 6.368835
56.945 6.133802
56.950 5.678813
56.955 5.364612
56.960 5.546999
56.965 5.406363
56.970 5.70262
56.975 6.255618
56.980 6.658959
56.985 6.913083
56.990 7.190804
56.995 7.238214
57.000 7.681174
57.005 7.445768
57.010 7.281755
57.015 7.296329
57.020 7.137277
57.025 6.969922
57.030 6.868315
57.035 6.724176
57.040 6.741501
57.045 6.41386
57.050 6.630863
57.055 6.828235
57.060 6.912656
57.065 6.713928
57.070 6.221078
57.075 5.994975
57.080 5.615354
57.085 5.130779
57.090 4.785831
57.095 5.100303
57.100 5.285151
57.105 5.379827
57.110 5.850473
57.115 6.550632
57.120 6.827017
57.125 7.13449
57.130 6.689545
57.135 6.762164
57.140 7.170395
57.145 7.623419
57.150 7.571849
57.155 7.43409
57.160 7.193839
57.165 7.306166
57.170 7.259947
57.175 7.053054
57.180 6.440079
57.185 6.389363
57.190 6.462834
57.195 6.615253
57.200 6.882729
57.205 6.683005
57.210 6.5047
57.215 6.17082
57.220 5.944401
57.225 5.867954
57.230 5.982299
57.235 5.692358
57.240 5.674849
57.245 5.63889
57.250 5.663313
57.255 5.555066
57.260 5.441241
57.265 5.161645
57.270 5.480469
57.275 5.553648
57.280 5.835438
57.285 6.093124
57.290 6.259488
57.295 6.003429
57.300 6.295159
57.305 6.203313
57.310 6.409692
57.315 6.34695
57.320 6.422982
57.325 6.915933
57.330 7.382092
57.335 7.073653
57.340 7.013967
57.345 7.038702
57.350 6.963691
57.355 6.759424
57.360 6.58684
57.365 6.416987
57.370 6.652281
57.375 6.559189
57.380 6.444105
57.385 6.560541
57.390 6.696484
57.395 6.506933
57.400 6.570917
57.405 6.619568
57.410 6.884782
57.415 6.719404
57.420 6.841943
57.425 6.653743
57.430 6.539734
57.435 6.661906
57.440 6.441593
57.445 5.996154
57.450 5.842364
57.455 5.708733
57.460 5.968179
57.465 6.42389
57.470 6.322575
57.475 6.810645
57.480 7.167507
57.485 7.239844
57.490 7.465781
57.495 7.741627
57.500 7.42953
57.505 7.614366
57.510 7.222492
57.515 7.544134
57.520 7.639512
57.525 7.471945
57.530 7.444942
57.535 7.5963
57.540 7.822858
57.545 7.760058
57.550 7.695658
57.555 7.760937
57.560 7.643614
57.565 7.754385
57.570 7.730546
57.575 7.582605
57.580 7.823283
57.585 7.766636
57.590 8.149872
57.595 8.231519
57.600 7.999568
57.605 7.937179
57.610 7.992215
57.615 7.773268
57.620 7.706978
57.625 7.668912
57.630 7.629136
57.635 7.258565
57.640 6.819965
57.645 6.54933
57.650 6.555123
57.655 6.465192
57.660 6.613199
57.665 6.524051
57.670 6.692423
57.675 6.973351
57.680 7.040411
57.685 7.015251
57.690 7.066679
57.695 6.675362
57.700 7.26967
57.705 7.383216
57.710 7.465008
57.715 7.408816
57.720 7.270353
57.725 7.183652
57.730 7.22965
57.735 6.907257
57.740 7.082506
57.745 7.143076
57.750 7.381492
57.755 7.602545
57.760 7.512054
57.765 7.44792
57.770 7.147849
57.775 6.965249
57.780 7.209165
57.785 7.373258
57.790 7.303725
57.795 7.636208
57.800 7.867266
57.805 8.062149
57.810 7.872059
57.815 7.826135
57.820 7.984117
57.825 8.104161
57.830 7.722085
57.835 7.686134
57.840 7.944969
57.845 7.904492
57.850 7.579867
57.855 7.318528
57.860 7.378458
57.865 7.366632
57.870 7.130661
57.875 6.97046
57.880 6.986616
57.885 6.941338
57.890 6.880667
57.895 6.974973
57.900 7.285977
57.905 7.335697
57.910 7.391362
57.915 7.381622
57.920 7.531618
57.925 7.137484
57.930 6.897858
57.935 6.880859
57.940 6.791088
57.945 6.970596
57.950 7.04611
57.955 6.949437
57.960 7.455977
57.965 7.451939
57.970 7.159111
57.975 7.251835
57.980 7.473622
57.985 7.920222
57.990 8.274716
57.995 8.031954
58.000 7.828918
58.005 7.869889
58.010 7.97838
58.015 7.984688
58.020 7.720712
58.025 7.717338
58.030 8.013044
58.035 8.199819
58.040 8.163634
58.045 8.101874
58.050 8.001659
58.055 8.168229
58.060 7.901493
58.065 8.048289
58.070 8.085839
58.075 8.259546
58.080 8.251201
58.085 8.497593
58.090 8.219904
58.095 8.129731
58.100 8.206411
58.105 8.008531
58.110 7.913788
58.115 7.940474
58.120 7.80614
58.125 7.828959
58.130 7.916272
58.135 7.782182
58.140 8.501193
58.145 8.511063
58.150 8.620442
58.155 8.598674
58.160 8.498338
58.165 8.259894
58.170 8.02575
58.175 7.605166
58.180 7.320637
58.185 6.953799
58.190 6.993142
58.195 7.175218
58.200 7.310575
58.205 7.413535
58.210 7.448182
58.215 7.708621
58.220 7.730001
58.225 7.502923
58.230 7.634579
58.235 8.005137
58.240 8.271662
58.245 8.776772
58.250 8.696
58.255 8.92657
58.260 9.141703
58.265 9.171329
58.270 9.000647
58.275 9.022488
58.280 8.641043
58.285 8.756266
58.290 8.699318
58.295 9.124771
58.300 8.970455
58.305 9.28809
58.310 9.251647
58.315 9.624335
58.320 9.652219
58.325 9.484244
58.330 9.159019
58.335 9.252542
58.340 8.99106
58.345 8.832854
58.350 8.43218
58.355 8.764287
58.360 8.7351
58.365 8.884887
58.370 9.332047
58.375 9.755816
58.380 9.875731
58.385 9.49474
58.390 9.20089
58.395 9.081138
58.400 8.778033
58.405 8.270528
58.410 7.486348
58.415 7.275278
58.420 7.573158
58.425 8.032653
58.430 8.659551
58.435 8.717376
58.440 8.799294
58.445 9.468836
58.450 9.708053
58.455 10.07494
58.460 9.920038
58.465 9.699203
58.470 9.726422
58.475 9.873919
58.480 9.757332
58.485 9.976531
58.490 10.503787
58.495 11.357177
58.500 11.892156
58.505 11.998279
58.510 12.086336
58.515 12.590206
58.520 12.892791
58.525 12.505669
58.530 12.025981
58.535 12.115865
58.540 12.110738
58.545 11.966916
58.550 11.594905
58.555 11.277956
58.560 11.789981
58.565 11.992118
58.570 12.108823
58.575 12.872542
58.580 13.727944
58.585 13.783284
58.590 14.041614
58.595 13.834661
58.600 14.061484
58.605 14.022316
58.610 13.527175
58.615 13.301152
58.620 13.939948
58.625 14.589894
58.630 14.756578
58.635 15.060114
58.640 15.979268
58.645 17.021074
58.650 17.168776
58.655 17.118797
58.660 17.10667
58.665 16.785769
58.670 16.356426
58.675 16.24617
58.680 16.138338
58.685 16.102173
58.690 16.120235
58.695 16.398079
58.700 16.572081
58.705 16.350132
58.710 15.759737
58.715 15.423395
58.720 15.326763
58.725 15.524902
58.730 15.025394
58.735 15.148218
58.740 15.507914
58.745 15.848359
58.750 16.368689
58.755 16.533739
58.760 16.251762
58.765 16.241207
58.770 16.647909
58.775 16.816307
58.780 16.536739
58.785 16.153713
58.790 16.075033
58.795 16.15905
58.800 16.904547
58.805 16.218813
58.810 15.624485
58.815 14.823904
58.820 14.382294
58.825 13.82873
58.830 13.328329
58.835 12.952245
58.840 13.154793
58.845 13.752293
58.850 14.20563
58.855 14.418795
58.860 14.401253
58.865 13.889447
58.870 14.182869
58.875 13.838304
58.880 13.141114
58.885 12.764482
58.890 12.285456
58.895 12.221297
58.900 12.098782
58.905 10.96717
58.910 11.17292
58.915 11.327294
58.920 11.101685
58.925 11.243363
58.930 11.544234
58.935 11.811396
58.940 12.070912
58.945 11.799674
58.950 11.793624
58.955 11.685048
58.960 11.63378
58.965 11.532396
58.970 11.37092
58.975 11.28271
58.980 10.631895
58.985 10.526182
58.990 10.77984
58.995 10.744211
59.000 10.52625
59.005 9.914239
59.010 9.734584
59.015 9.723652
59.020 9.167968
59.025 8.577426
59.030 8.609097
59.035 8.88494
59.040 9.320546
59.045 9.247931
59.050 9.268187
59.055 9.575458
59.060 9.742773
59.065 9.455105
59.070 9.265767
59.075 9.103401
59.080 9.253126
59.085 9.407495
59.090 9.372194
59.095 9.232824
59.100 8.913911
59.105 9.097569
59.110 8.949785
59.115 9.136369
59.120 8.556741
59.125 8.587453
59.130 8.590836
59.135 8.751311
59.140 8.53334
59.145 8.269107
59.150 7.729798
59.155 8.207648
59.160 8.515415
59.165 9.041573
59.170 9.205392
59.175 9.267781
59.180 9.45173
59.185 9.577725
59.190 9.45321
59.195 9.085005
59.200 8.618271
59.205 8.625097
59.210 8.685048
59.215 8.72645
59.220 8.99337
59.225 8.567158
59.230 8.680033
59.235 8.880647
59.240 8.502028
59.245 8.385098
59.250 8.698224
59.255 8.450349
59.260 8.586179
59.265 8.159661
59.270 8.123529
59.275 8.103414
59.280 8.156713
59.285 7.756712
59.290 7.664989
59.295 7.527926
59.300 7.884644
59.305 7.757854
59.310 7.720805
59.315 8.007067
59.320 8.788014
59.325 9.296778
59.330 9.470181
59.335 9.432499
59.340 9.379113
59.345 8.964486
59.350 8.591489
59.355 7.978772
59.360 7.537832
59.365 7.364348
59.370 7.423856
59.375 7.650635
59.380 7.929571
59.385 7.859609
59.390 8.326373
59.395 8.373631
59.400 8.644407
59.405 8.409266
59.410 8.389415
59.415 8.480164
59.420 8.322232
59.425 8.253386
59.430 8.232497
59.435 8.402711
59.440 8.790402
59.445 8.775877
59.450 8.607857
59.455 8.612796
59.460 8.411039
59.465 8.628044
59.470 8.370361
59.475 7.96081
59.480 8.218307
59.485 8.565014
59.490 9.000993
59.495 9.376571
59.500 9.235188
59.505 9.115326
59.510 9.856729
59.515 9.394089
59.520 9.375183
59.525 9.131491
59.530 8.793167
59.535 8.76154
59.540 8.827716
59.545 8.178462
59.550 8.224096
59.555 8.136586
59.560 7.773211
59.565 8.120981
59.570 7.908799
59.575 7.804902
59.580 8.09202
59.585 8.06674
59.590 7.776555
59.595 7.933676
59.600 7.811771
59.605 8.200541
59.610 8.276669
59.615 8.036795
59.620 8.053487
59.625 8.029645
59.630 8.196727
59.635 8.090977
59.640 7.868917
59.645 7.950132
59.650 8.330838
59.655 8.316181
59.660 8.083747
59.665 7.512896
59.670 7.435704
59.675 7.394861
59.680 7.509255
59.685 7.450428
59.690 7.664005
59.695 7.903066
59.700 8.32176
59.705 8.369048
59.710 8.534505
59.715 8.24296
59.720 8.027353
59.725 7.831059
59.730 8.316998
59.735 8.458581
59.740 8.837978
59.745 8.636511
59.750 8.363318
59.755 8.443157
59.760 8.410908
59.765 8.315324
59.770 8.466241
59.775 8.33498
59.780 8.167405
59.785 8.22083
59.790 8.287453
59.795 8.135181
59.800 7.514649
59.805 7.437185
59.810 7.612657
59.815 8.070973
59.820 8.125617
59.825 7.997446
59.830 8.275691
59.835 8.657071
59.840 8.48908
59.845 8.333121
59.850 8.410034
59.855 8.63644
59.860 8.704658
59.865 8.772497
59.870 8.686946
59.875 8.366629
59.880 8.434025
59.885 8.232786
59.890 8.248897
59.895 8.415919
59.900 8.095674
59.905 7.887428
59.910 7.854164
59.915 7.576143
59.920 7.615589
59.925 7.675131
59.930 7.698692
59.935 8.029098
59.940 7.930245
59.945 8.091363
59.950 7.996489
59.955 8.047409
59.960 7.915204
59.965 8.015022
59.970 7.789567
59.975 8.245716
59.980 8.701828
59.985 9.127234
59.990 8.999837
59.995 8.74129
60.000 8.52573
60.005 8.845682
60.010 8.796301
60.015 8.683192
60.020 8.633178
60.025 8.635684
60.030 8.845927
60.035 8.713104
60.040 8.719324
60.045 8.51188
60.050 8.320293
60.055 8.329205
60.060 8.374437
60.065 8.686015
60.070 9.117607
60.075 9.018583
60.080 8.849331
60.085 8.855427
60.090 8.674552
60.095 8.937709
60.100 8.753231
60.105 8.551391
60.110 8.637939
60.115 8.898018
60.120 8.633805
60.125 8.650795
60.130 8.996012
60.135 9.00662
60.140 9.240883
60.145 9.212002
60.150 9.274034
60.155 9.279135
60.160 9.132956
60.165 8.373437
60.170 7.831925
60.175 7.619676
60.180 7.817655
60.185 7.52596
60.190 7.904666
60.195 8.30966
60.200 8.360353
60.205 8.69432
60.210 8.834288
60.215 8.512129
60.220 8.50561
60.225 8.58756
60.230 8.427
60.235 8.180321
60.240 8.030942
60.245 7.762795
60.250 8.234133
60.255 8.140145
60.260 7.379557
60.265 7.139174
60.270 7.824445
60.275 7.904634
60.280 8.111288
60.285 8.166493
60.290 8.166006
60.295 8.405475
60.300 8.384217
60.305 8.126652
60.310 8.506874
60.315 8.101552
60.320 8.190228
60.325 7.982868
60.330 7.99014
60.335 8.099901
60.340 7.890333
60.345 7.68759
60.350 8.273307
60.355 8.33104
60.360 8.535378
60.365 8.931709
60.370 9.194875
60.375 9.539772
60.380 9.401601
60.385 8.742906
60.390 8.650209
60.395 9.135105
60.400 9.001114
60.405 8.930005
60.410 8.584111
60.415 8.651832
60.420 8.791993
60.425 8.592865
60.430 8.030869
60.435 8.11571
60.440 7.780134
60.445 7.807701
60.450 7.817516
60.455 8.134064
60.460 8.417308
60.465 8.846454
60.470 9.000533
60.475 9.610844
60.480 9.933477
60.485 9.847419
60.490 9.875128
60.495 9.806225
60.500 9.725614
60.505 10.079967
60.510 9.892959
60.515 9.75856
60.520 10.097616
60.525 9.434839
60.530 9.175323
60.535 9.326103
60.540 8.812853
60.545 8.878373
60.550 9.162047
60.555 9.085616
60.560 9.562757
60.565 9.608426
60.570 9.150687
60.575 8.954166
60.580 8.570786
60.585 8.234956
60.590 8.028241
60.595 7.680593
60.600 8.248257
60.605 8.881461
60.610 9.240837
60.615 9.742809
60.620 9.92915
60.625 10.145745
60.630 10.310852
60.635 9.966142
60.640 9.06891
60.645 8.828693
60.650 8.83302
60.655 8.574989
60.660 8.592867
60.665 8.79758
60.670 8.526987
60.675 8.88226
60.680 9.160471
60.685 8.807849
60.690 8.922263
60.695 8.5131
60.700 8.340101
60.705 8.275225
60.710 8.208862
60.715 8.173948
60.720 8.475646
60.725 8.601079
60.730 8.866049
60.735 9.162777
60.740 9.494425
60.745 9.593576
60.750 9.06188
60.755 8.995538
60.760 9.334949
60.765 9.629185
60.770 9.803416
60.775 9.770731
60.780 9.720092
60.785 9.858366
60.790 9.840368
60.795 9.254088
60.800 8.784541
60.805 8.660713
60.810 8.57635
60.815 8.48942
60.820 8.827841
60.825 8.753897
60.830 9.113939
60.835 9.217035
60.840 9.018095
60.845 9.312141
60.850 10.005658
60.855 9.807261
60.860 9.828948
60.865 9.328385
60.870 9.466909
60.875 9.998737
60.880 10.146827
60.885 9.733078
60.890 9.548748
60.895 9.906212
60.900 9.912213
60.905 9.320896
60.910 8.749572
60.915 8.875049
60.920 8.657035
60.925 8.625705
60.930 8.444496
60.935 8.853566
60.940 9.269974
60.945 9.298547
60.950 8.767473
60.955 8.760797
60.960 8.696931
60.965 8.637527
60.970 8.771607
60.975 8.62671
60.980 8.815099
60.985 8.864467
60.990 9.481113
60.995 9.386224
61.000 9.123778
61.005 8.943778
61.010 9.063526
61.015 9.030698
61.020 9.193391
61.025 8.999335
61.030 9.238544
61.035 9.564435
61.040 9.507878
61.045 9.354604
61.050 9.359597
61.055 9.230558
61.060 9.509793
61.065 9.394173
61.070 9.308578
61.075 8.934924
61.080 9.037322
61.085 9.133428
61.090 9.156845
61.095 8.699123
61.100 9.100506
61.105 9.10636
61.110 9.400308
61.115 9.41552
61.120 9.452654
61.125 9.370896
61.130 9.389693
61.135 8.92879
61.140 9.131067
61.145 9.435369
61.150 9.317047
61.155 9.519055
61.160 9.833707
61.165 9.989751
61.170 10.323729
61.175 11.082876
61.180 11.019133
61.185 11.263675
61.190 11.020017
61.195 11.118332
61.200 11.662937
61.205 11.656268
61.210 11.25398
61.215 11.247735
61.220 11.005404
61.225 11.022959
61.230 10.539256
61.235 9.735316
61.240 9.099874
61.245 8.564898
61.250 8.286027
61.255 8.27517
61.260 8.098034
61.265 7.93923
61.270 8.786208
61.275 9.354013
61.280 9.586018
61.285 9.825191
61.290 10.088411
61.295 10.198298
61.300 10.597495
61.305 10.142277
61.310 9.950914
61.315 10.200711
61.320 10.384115
61.325 10.338435
61.330 10.03045
61.335 9.319761
61.340 9.450999
61.345 9.259617
61.350 9.117583
61.355 9.125668
61.360 9.43544
61.365 10.101984
61.370 10.564228
61.375 10.640004
61.380 11.006242
61.385 10.990751
61.390 10.694947
61.395 10.377081
61.400 9.928665
61.405 9.784337
61.410 9.687254
61.415 9.271551
61.420 9.140526
61.425 9.127355
61.430 9.058445
61.435 8.846358
61.440 9.15943
61.445 9.573223
61.450 9.714567
61.455 9.456815
61.460 9.509397
61.465 9.804588
61.470 10.385669
61.475 10.142716
61.480 9.426688
61.485 9.711578
61.490 10.131377
61.495 9.627508
61.500 9.684419
61.505 9.50976
61.510 9.684938
61.515 9.734293
61.520 9.404765
61.525 9.477865
61.530 10.281892
61.535 10.349015
61.540 9.956135
61.545 9.970279
61.550 10.222252
61.555 10.711095
61.560 10.890058
61.565 10.567017
61.570 10.034739
61.575 10.458547
61.580 10.3427
61.585 10.382782
61.590 10.123736
61.595 9.950522
61.600 9.648243
61.605 9.776349
61.610 9.597357
61.615 9.446466
61.620 9.411426
61.625 9.537494
61.630 9.557678
61.635 9.918819
61.640 10.227019
61.645 9.926273
61.650 9.950912
61.655 9.863476
61.660 9.281549
61.665 9.340818
61.670 9.426414
61.675 9.597898
61.680 9.947203
61.685 10.067856
61.690 9.917155
61.695 10.255353
61.700 9.801615
61.705 9.435313
61.710 9.730008
61.715 9.75433
61.720 9.723446
61.725 9.899567
61.730 9.849605
61.735 10.269728
61.740 10.684443
61.745 10.365903
61.750 10.544146
61.755 10.746988
61.760 10.51129
61.765 10.46327
61.770 10.233937
61.775 9.999199
61.780 9.791139
61.785 9.904394
61.790 9.942001
61.795 10.659592
61.800 11.143112
61.805 11.462418
61.810 11.751184
61.815 11.649891
61.820 11.31611
61.825 11.174939
61.830 10.833726
61.835 10.439179
61.840 10.021361
61.845 9.424637
61.850 9.553999
61.855 9.669307
61.860 9.69795
61.865 9.388215
61.870 9.486792
61.875 10.339636
61.880 10.688749
61.885 11.016694
61.890 11.098391
61.895 11.209074
61.900 11.838661
61.905 12.066654
61.910 11.89233
61.915 11.968143
61.920 11.671058
61.925 11.54658
61.930 11.116142
61.935 10.545005
61.940 10.4166
61.945 10.536948
61.950 10.604408
61.955 10.542717
61.960 10.162045
61.965 10.106858
61.970 10.219298
61.975 10.18396
61.980 9.722212
61.985 9.65409
61.990 10.100258
61.995 10.589661
62.000 10.734924
62.005 10.192529
62.010 10.054
62.015 10.003325
62.020 9.950692
62.025 9.672006
62.030 9.75197
62.035 10.013412
62.040 10.00845
62.045 9.998742
62.050 10.04705
62.055 10.000895
62.060 9.90445
62.065 9.628336
62.070 9.880033
62.075 10.428576
62.080 10.685407
62.085 10.672741
62.090 10.551636
62.095 10.608115
62.100 10.628819
62.105 10.197232
62.110 9.677155
62.115 9.639822
62.120 9.793507
62.125 9.982726
62.130 9.974169
62.135 9.729354
62.140 9.639173
62.145 9.983607
62.150 9.928214
62.155 9.902457
62.160 9.945035
62.165 10.12492
62.170 10.670914
62.175 11.165881
62.180 11.43047
62.185 11.341393
62.190 10.771146
62.195 10.481277
62.200 10.484818
62.205 10.553672
62.210 10.161691
62.215 9.426562
62.220 9.557359
62.225 10.060133
62.230 10.288451
62.235 10.056884
62.240 9.993978
62.245 10.19199
62.250 10.49516
62.255 10.272957
62.260 10.005477
62.265 10.012483
62.270 10.151081
62.275 10.117425
62.280 10.207136
62.285 10.172967
62.290 10.280944
62.295 10.827044
62.300 10.624252
62.305 10.357333
62.310 10.176507
62.315 10.136399
62.320 10.216601
62.325 10.084285
62.330 9.534729
62.335 9.625317
62.340 9.911252
62.345 10.090658
62.350 10.026099
62.355 9.93221
62.360 9.941843
62.365 10.086857
62.370 10.263124
62.375 10.272845
62.380 10.332923
62.385 10.794652
62.390 11.108346
62.395 11.208083
62.400 11.55966
62.405 11.719151
62.410 11.938199
62.415 12.243068
62.420 12.077367
62.425 11.534034
62.430 11.377218
62.435 11.566226
62.440 11.468311
62.445 11.131351
62.450 10.632912
62.455 10.249631
62.460 11.054444
62.465 11.475053
62.470 11.201397
62.475 10.934553
62.480 10.380074
62.485 10.224741
62.490 10.342758
62.495 10.050289
62.500 9.664225
62.505 9.639674
62.510 9.806582
62.515 10.251673
62.520 10.107544
62.525 9.96637
62.530 10.202494
62.535 10.505236
62.540 10.423824
62.545 10.300983
62.550 10.657708
62.555 11.150563
62.560 11.227568
62.565 10.874708
62.570 10.669427
62.575 10.50605
62.580 10.724466
62.585 10.981952
62.590 10.539063
62.595 10.839533
62.600 11.080863
62.605 11.096438
62.610 11.118917
62.615 10.962418
62.620 10.413415
62.625 10.466952
62.630 10.108541
62.635 10.114371
62.640 10.215849
62.645 10.231649
62.650 10.237487
62.655 10.534382
62.660 10.519671
62.665 10.340171
62.670 10.059131
62.675 9.841055
62.680 9.86324
62.685 10.202267
62.690 10.344806
62.695 11.133052
62.700 11.137044
62.705 11.405569
62.710 11.521005
62.715 11.57075
62.720 11.161515
62.725 11.405369
62.730 10.787271
62.735 10.877423
62.740 11.028015
62.745 11.088249
62.750 11.109337
62.755 11.203896
62.760 10.831429
62.765 10.974261
62.770 10.897436
62.775 10.512943
62.780 10.146859
62.785 9.819683
62.790 9.823827
62.795 9.739223
62.800 9.432522
62.805 9.336656
62.810 9.175017
62.815 9.084576
62.820 9.371543
62.825 9.632487
62.830 9.481736
62.835 9.737864
62.840 9.584321
62.845 10.056573
62.850 10.321715
62.855 10.02117
62.860 9.988771
62.865 9.965569
62.870 9.641987
62.875 9.698112
62.880 9.628304
62.885 9.714137
62.890 9.88042
62.895 9.517395
62.900 9.937915
62.905 10.367507
62.910 10.372824
62.915 10.0493
62.920 9.920363
62.925 9.956049
62.930 9.783414
62.935 9.389337
62.940 9.767575
62.945 10.070749
62.950 9.878761
62.955 9.778328
62.960 9.249954
62.965 9.56107
62.970 9.903926
62.975 9.715644
62.980 9.646966
62.985 9.902514
62.990 9.974284
62.995 10.713367
63.000 10.783437
63.005 10.234866
63.010 9.886976
63.015 9.933695
63.020 9.998637
63.025 10.344458
63.030 9.959159
63.035 10.41601
63.040 11.000313
63.045 11.102316
63.050 11.502549
63.055 11.921505
63.060 11.865909
63.065 11.819703
63.070 11.036135
63.075 11.151537
63.080 11.301077
63.085 11.086115
63.090 10.60247
63.095 10.556099
63.100 10.861112
63.105 11.463904
63.110 11.392223
63.115 11.18506
63.120 11.285141
63.125 11.37624
63.130 11.411724
63.135 11.490015
63.140 11.511702
63.145 11.232072
63.150 11.217391
63.155 11.273632
63.160 11.109887
63.165 11.059166
63.170 11.313963
63.175 11.432422
63.180 11.573064
63.185 11.590321
63.190 11.452332
63.195 11.385641
63.200 10.733967
63.205 10.109616
63.210 10.425032
63.215 10.563424
63.220 10.471714
63.225 10.453535
63.230 10.895819
63.235 11.863249
63.240 11.745201
63.245 10.690643
63.250 10.754089
63.255 10.889802
63.260 10.969629
63.265 10.561372
63.270 10.101397
63.275 10.455688
63.280 11.00389
63.285 11.062155
63.290 10.912754
63.295 11.259492
63.300 11.666603
63.305 11.479891
63.310 11.589491
63.315 11.335415
63.320 10.878922
63.325 10.792117
63.330 10.417745
63.335 10.202067
63.340 10.309096
63.345 10.216246
63.350 10.181147
63.355 10.740685
63.360 10.829213
63.365 10.934504
63.370 11.312272
63.375 11.36289
63.380 11.361092
63.385 11.841338
63.390 11.788972
63.395 11.863562
63.400 11.818585
63.405 11.452214
63.410 11.68144
63.415 11.965215
63.420 11.616942
63.425 11.582655
63.430 11.747768
63.435 12.032188
63.440 12.234204
63.445 11.657459
63.450 11.215876
63.455 10.915517
63.460 10.380424
63.465 10.277606
63.470 10.027138
63.475 9.99709
63.480 10.339897
63.485 10.569054
63.490 10.30041
63.495 10.30735
63.500 10.242907
63.505 10.167037
63.510 9.945026
63.515 9.930758
63.520 9.407094
63.525 9.607442
63.530 9.87192
63.535 9.680628
63.540 9.649821
63.545 9.385496
63.550 9.267669
63.555 9.615664
63.560 10.26782
63.565 10.659707
63.570 10.708695
63.575 10.69947
63.580 11.145882
63.585 11.21326
63.590 11.068877
63.595 10.812404
63.600 10.117259
63.605 9.903102
63.610 9.970949
63.615 10.158989
63.620 10.386178
63.625 10.48528
63.630 10.330723
63.635 10.414872
63.640 10.9131
63.645 11.407449
63.650 11.167089
63.655 11.393414
63.660 11.782453
63.665 12.335993
63.670 12.679658
63.675 12.429533
63.680 12.071313
63.685 11.953958
63.690 12.139604
63.695 12.008531
63.700 11.68105
63.705 11.811746
63.710 12.05972
63.715 12.074616
63.720 12.553874
63.725 11.902069
63.730 11.683284
63.735 11.848041
63.740 11.892499
63.745 11.904638
63.750 12.079881
63.755 11.653642
63.760 11.797339
63.765 11.750177
63.770 12.040646
63.775 11.789055
63.780 11.687084
63.785 11.421389
63.790 11.818477
63.795 11.990507
63.800 11.881999
63.805 11.309094
63.810 11.578656
63.815 11.502246
63.820 11.170534
63.825 10.614823
63.830 10.712333
63.835 10.917667
63.840 11.227592
63.845 11.304054
63.850 11.209272
63.855 11.453151
63.860 11.83206
63.865 11.986649
63.870 11.858876
63.875 12.013412
63.880 11.702188
63.885 11.943808
63.890 12.320086
63.895 12.224456
63.900 12.163357
63.905 12.383471
63.910 12.62033
63.915 12.886821
63.920 12.957177
63.925 12.479815
63.930 12.667646
63.935 12.923534
63.940 12.831518
63.945 12.620946
63.950 12.250001
63.955 12.499086
63.960 12.804648
63.965 12.769462
63.970 12.890532
63.975 13.181648
63.980 13.726771
63.985 14.082247
63.990 13.851032
63.995 13.857677
64.000 13.876238
64.005 13.750072
64.010 13.891214
64.015 14.427818
64.020 14.822631
64.025 14.998981
64.030 15.39034
64.035 15.594405
64.040 15.794774
64.045 15.408182
64.050 14.615125
64.055 14.028075
64.060 13.79254
64.065 13.866028
64.070 13.795145
64.075 13.931086
64.080 13.814857
64.085 13.965984
64.090 14.179296
64.095 14.597041
64.100 14.647355
64.105 14.805149
64.110 14.837694
64.115 15.647201
64.120 16.277424
64.125 16.442848
64.130 16.318592
64.135 16.055979
64.140 15.856426
64.145 15.964114
64.150 15.871072
64.155 16.55846
64.160 16.866852
64.165 16.979643
64.170 17.206631
64.175 17.38196
64.180 17.835049
64.185 17.642054
64.190 17.028881
64.195 17.425394
64.200 18.176991
64.205 18.98398
64.210 19.550596
64.215 19.253799
64.220 19.3221
64.225 20.064621
64.230 19.820879
64.235 19.576151
64.240 19.566835
64.245 19.22455
64.250 19.602211
64.255 20.948378
64.260 20.82795
64.265 21.589142
64.270 21.498137
64.275 22.212582
64.280 22.905821
64.285 23.099245
64.290 22.725216
64.295 23.258926
64.300 23.452709
64.305 23.424927
64.310 22.713472
64.315 22.325163
64.320 22.591171
64.325 22.794086
64.330 22.728621
64.335 22.57811
64.340 23.051386
64.345 23.506905
64.350 23.77133
64.355 23.793835
64.360 24.458096
64.365 25.429653
64.370 26.590872
64.375 26.862049
64.380 27.405432
64.385 28.162663
64.390 28.725035
64.395 29.195633
64.400 29.192493
64.405 29.604103
64.410 30.480545
64.415 30.522827
64.420 30.28343
64.425 30.321609
64.430 29.769142
64.435 30.485739
64.440 30.784409
64.445 30.650229
64.450 30.791948
64.455 30.711535
64.460 30.508356
64.465 31.107
64.470 30.100067
64.475 29.380568
64.480 29.204689
64.485 29.269672
64.490 30.166975
64.495 30.770706
64.500 30.892416
64.505 31.402914
64.510 31.464491
64.515 31.545961
64.520 31.167549
64.525 30.107279
64.530 29.839172
64.535 29.25709
64.540 28.307928
64.545 28.203098
64.550 28.478632
64.555 28.210691
64.560 27.957474
64.565 27.228674
64.570 26.956272
64.575 26.897554
64.580 26.350748
64.585 25.095106
64.590 24.940853
64.595 25.256916
64.600 25.169809
64.605 24.742048
64.610 24.253428
64.615 23.706646
64.620 23.839909
64.625 23.815144
64.630 23.855255
64.635 23.374819
64.640 22.779226
64.645 22.908897
64.650 22.96998
64.655 22.115158
64.660 21.813812
64.665 20.937321
64.670 20.810543
64.675 20.857838
64.680 20.763229
64.685 20.615797
64.690 21.190615
64.695 21.025711
64.700 21.356455
64.705 21.289728
64.710 21.450392
64.715 20.720592
64.720 20.133501
64.725 19.526253
64.730 19.517817
64.735 19.323381
64.740 18.98461
64.745 18.544786
64.750 18.880386
64.755 18.62723
64.760 18.482639
64.765 18.432892
64.770 18.181911
64.775 17.742085
64.780 17.6527
64.785 17.176229
64.790 17.100172
64.795 16.804987
64.800 16.330488
64.805 16.303715
64.810 16.565777
64.815 15.665369
64.820 15.18672
64.825 15.192524
64.830 14.92379
64.835 14.779071
64.840 14.293477
64.845 14.603463
64.850 14.935525
64.855 15.008076
64.860 15.243793
64.865 15.131551
64.870 15.137414
64.875 14.789289
64.880 14.196374
64.885 14.150773
64.890 14.226918
64.895 13.928784
64.900 14.318464
64.905 14.614068
64.910 15.188195
64.915 15.51765
64.920 15.658836
64.925 15.888647
64.930 16.335636
64.935 16.782152
64.940 16.820505
64.945 16.890823
64.950 16.272963
64.955 16.282509
64.960 15.96498
64.965 15.532801
64.970 15.33733
64.975 15.184813
64.980 15.74354
64.985 16.3505
64.990 16.411327
64.995 17.077976
65.000 17.407557
65.005 17.451626
65.010 17.384312
65.015 17.197144
65.020 17.300253
65.025 17.969429
65.030 18.75967
65.035 19.421509
65.040 19.629236
65.045 19.985455
65.050 19.995996
65.055 20.23814
65.060 19.948429
65.065 19.768063
65.070 19.650827
65.075 20.126572
65.080 20.382338
65.085 20.404232
65.090 20.4356
65.095 20.501392
65.100 20.586601
65.105 21.538074
65.110 21.493851
65.115 21.907724
65.120 22.346313
65.125 23.131538
65.130 24.065336
65.135 24.494345
65.140 23.685041
65.145 23.581244
65.150 23.207663
65.155 23.680456
65.160 23.294977
65.165 22.420061
65.170 22.145365
65.175 23.003885
65.180 23.514387
65.185 24.008972
65.190 23.822004
65.195 24.020996
65.200 24.469791
65.205 24.468536
65.210 24.178064
65.215 24.36088
65.220 24.268345
65.225 24.30171
65.230 24.142078
65.235 23.968166
65.240 24.036291
65.245 23.953794
65.250 23.568762
65.255 23.899551
65.260 24.154999
65.265 24.556696
65.270 24.302446
65.275 23.299976
65.280 22.908184
65.285 22.772907
65.290 22.272732
65.295 21.696638
65.300 21.490135
65.305 22.135717
65.310 22.682739
65.315 23.310043
65.320 23.129375
65.325 23.069101
65.330 23.330679
65.335 23.377558
65.340 23.170078
65.345 23.525311
65.350 23.228247
65.355 23.713303
65.360 24.268063
65.365 24.473669
65.370 24.67173
65.375 24.525414
65.380 24.141397
65.385 24.011118
65.390 23.426689
65.395 22.495012
65.400 22.649715
65.405 23.014807
65.410 23.633614
65.415 23.77891
65.420 24.047096
65.425 24.82802
65.430 25.040274
65.435 24.520721
65.440 24.470732
65.445 24.658712
65.450 24.326736
65.455 23.98872
65.460 23.444796
65.465 23.397839
65.470 23.216684
65.475 22.934431
65.480 22.424946
65.485 22.594938
65.490 23.058987
65.495 23.558182
65.500 23.35393
65.505 23.44455
65.510 23.676569
65.515 23.883295
65.520 23.734217
65.525 23.963118
65.530 24.429102
65.535 25.181318
65.540 25.325071
65.545 25.033087
65.550 25.025442
65.555 24.989279
65.560 24.710733
65.565 23.958668
65.570 23.745565
65.575 23.822817
65.580 23.612804
65.585 23.342031
65.590 23.039646
65.595 23.183432
65.600 23.350218
65.605 22.918571
65.610 23.294046
65.615 23.796528
65.620 24.045288
65.625 23.938942
65.630 23.522123
65.635 23.479483
65.640 23.820131
65.645 23.185007
65.650 22.886879
65.655 23.102425
65.660 23.151295
65.665 22.75742
65.670 23.063303
65.675 22.886581
65.680 22.196938
65.685 21.496666
65.690 21.323086
65.695 21.6008
65.700 21.839664
65.705 21.933306
65.710 21.951166
65.715 22.166323
65.720 22.947668
65.725 22.340359
65.730 21.891027
65.735 21.503986
65.740 21.152075
65.745 21.037838
65.750 21.428989
65.755 21.103813
65.760 21.538645
65.765 21.501566
65.770 21.525774
65.775 21.346947
65.780 21.54821
65.785 21.510725
65.790 21.627344
65.795 21.370094
65.800 21.32999
65.805 20.96909
65.810 20.934235
65.815 20.487579
65.820 20.296331
65.825 19.887123
65.830 19.92017
65.835 20.38349
65.840 20.56481
65.845 20.158892
65.850 20.010458
65.855 19.542891
65.860 19.268787
65.865 18.963495
65.870 18.338118
65.875 18.293545
65.880 18.582092
65.885 19.125885
65.890 19.150358
65.895 19.144323
65.900 18.570402
65.905 18.131634
65.910 18.075556
65.915 17.801203
65.920 17.221369
65.925 16.998663
65.930 17.033785
65.935 17.264923
65.940 17.684868
65.945 17.419903
65.950 17.232477
65.955 17.319418
65.960 16.85261
65.965 16.624981
65.970 16.266655
65.975 16.212975
65.980 15.852549
65.985 15.484192
65.990 15.393642
65.995 15.505737
66.000 15.569328
66.005 15.826829
66.010 15.255169
66.015 15.160119
66.020 15.146801
66.025 15.498508
66.030 15.713587
66.035 15.518246
66.040 14.832352
66.045 14.575
66.050 14.543442
66.055 14.591667
66.060 13.914067
66.065 13.742914
66.070 14.131598
66.075 14.711876
66.080 15.202727
66.085 15.208366
66.090 14.463806
66.095 14.358294
66.100 13.849822
66.105 13.385154
66.110 13.374819
66.115 13.386541
66.120 13.350841
66.125 13.315463
66.130 13.316575
66.135 13.657398
66.140 13.5604
66.145 13.764815
66.150 13.413814
66.155 13.556198
66.160 13.879788
66.165 13.790379
66.170 13.739476
66.175 14.071655
66.180 13.822852
66.185 13.547978
66.190 13.153014
66.195 12.970571
66.200 12.536316
66.205 12.081842
66.210 11.758266
66.215 11.738411
66.220 12.118245
66.225 12.30211
66.230 12.494529
66.235 12.610826
66.240 12.454164
66.245 12.561292
66.250 13.184835
66.255 13.252316
66.260 13.099393
66.265 12.967193
66.270 12.929493
66.275 13.133382
66.280 12.742895
66.285 12.318777
66.290 12.20785
66.295 12.103481
66.300 12.277369
66.305 12.101679
66.310 12.094649
66.315 11.970598
66.320 11.699889
66.325 11.840341
66.330 11.770467
66.335 11.555226
66.340 11.504461
66.345 11.444327
66.350 11.432177
66.355 12.026387
66.360 11.903487
66.365 12.084253
66.370 12.371483
66.375 12.393909
66.380 12.402958
66.385 12.101539
66.390 11.581234
66.395 12.229538
66.400 12.328131
66.405 12.71269
66.410 12.49749
66.415 12.313447
66.420 12.754623
66.425 12.674995
66.430 12.195909
66.435 11.763752
66.440 11.869282
66.445 12.709119
66.450 12.965033
66.455 13.101799
66.460 13.596922
66.465 13.654645
66.470 13.981282
66.475 13.898499
66.480 13.662283
66.485 13.850293
66.490 14.319617
66.495 14.365595
66.500 14.413685
66.505 14.232927
66.510 13.827992
66.515 13.470897
66.520 12.855417
66.525 12.325685
66.530 12.533203
66.535 12.8275
66.540 12.790886
66.545 12.973881
66.550 13.095627
66.555 13.481153
66.560 13.313802
66.565 12.971902
66.570 12.894816
66.575 13.110188
66.580 13.274343
66.585 12.905302
66.590 12.911209
66.595 13.078283
66.600 12.686963
66.605 12.528378
66.610 12.332884
66.615 12.242867
66.620 12.487906
66.625 12.379975
66.630 12.485208
66.635 12.33001
66.640 12.553715
66.645 12.401401
66.650 11.859
66.655 11.850025
66.660 11.406782
66.665 11.069683
66.670 11.22156
66.675 10.572083
66.680 10.720723
66.685 11.038606
66.690 11.474866
66.695 11.530523
66.700 11.517341
66.705 12.027968
66.710 12.169232
66.715 12.572966
66.720 12.842471
66.725 12.712892
66.730 13.325853
66.735 13.136901
66.740 12.727707
66.745 12.797401
66.750 12.286516
66.755 12.250274
66.760 12.191334
66.765 11.998887
66.770 12.335268
66.775 12.153546
66.780 11.815821
66.785 11.470252
66.790 11.429546
66.795 11.600486
66.800 11.500294
66.805 11.909167
66.810 12.431821
66.815 12.944036
66.820 12.902997
66.825 12.723009
66.830 12.286506
66.835 12.277864
66.840 11.594694
66.845 11.300673
66.850 11.148067
66.855 11.763852
66.860 11.871674
66.865 11.636642
66.870 11.590275
66.875 12.086475
66.880 12.115958
66.885 11.954596
66.890 11.699425
66.895 11.662864
66.900 12.228386
66.905 12.447206
66.910 12.341775
66.915 12.781764
66.920 13.102854
66.925 13.30239
66.930 13.393923
66.935 13.255422
66.940 13.060464
66.945 12.974354
66.950 13.62508
66.955 13.566351
66.960 13.443906
66.965 13.550901
66.970 13.786461
66.975 14.262135
66.980 14.488985
66.985 14.608819
66.990 14.520156
66.995 14.548168
67.000 14.461714
67.005 14.11119
67.010 14.01763
67.015 13.747182
67.020 12.936286
67.025 12.644784
67.030 12.650941
67.035 12.919644
67.040 12.72961
67.045 12.537526
67.050 12.242451
67.055 12.242437
67.060 12.650814
67.065 12.29025
67.070 12.028045
67.075 12.579222
67.080 12.702981
67.085 12.806226
67.090 13.121655
67.095 13.332128
67.100 13.285712
67.105 13.281464
67.110 13.089383
67.115 12.891289
67.120 13.199889
67.125 13.405163
67.130 13.897296
67.135 13.93674
67.140 13.842949
67.145 13.517782
67.150 13.798351
67.155 13.654985
67.160 13.220498
67.165 12.959808
67.170 13.127345
67.175 13.021812
67.180 13.415362
67.185 13.290497
67.190 13.730476
67.195 13.667615
67.200 13.402635
67.205 13.348741
67.210 13.657024
67.215 13.798779
67.220 13.533329
67.225 13.042621
67.230 12.978456
67.235 13.200519
67.240 13.12613
67.245 12.696039
67.250 12.36325
67.255 12.452818
67.260 12.822258
67.265 12.886594
67.270 12.974892
67.275 13.497915
67.280 13.753972
67.285 13.848281
67.290 14.251841
67.295 14.177237
67.300 14.134076
67.305 14.311137
67.310 14.10259
67.315 14.305388
67.320 14.378658
67.325 13.831301
67.330 13.778966
67.335 13.690596
67.340 13.224349
67.345 13.059505
67.350 12.599495
67.355 11.996365
67.360 11.90831
67.365 11.909389
67.370 12.119888
67.375 12.277081
67.380 12.414134
67.385 12.758237
67.390 13.470188
67.395 13.254174
67.400 12.809805
67.405 12.700617
67.410 12.421777
67.415 12.156575
67.420 11.752106
67.425 11.631951
67.430 11.915955
67.435 12.380156
67.440 12.590722
67.445 12.835034
67.450 12.648974
67.455 12.142999
67.460 12.003007
67.465 11.633596
67.470 11.139895
67.475 10.677843
67.480 10.714572
67.485 11.235362
67.490 11.715608
67.495 12.148993
67.500 12.270284
67.505 12.402912
67.510 12.751728
67.515 12.614417
67.520 12.633729
67.525 12.604714
67.530 12.549659
67.535 12.995006
67.540 13.161478
67.545 13.279438
67.550 13.235723
67.555 13.075087
67.560 12.76831
67.565 12.396682
67.570 11.649328
67.575 11.276686
67.580 11.420587
67.585 11.641463
67.590 11.488282
67.595 11.454
67.600 11.369527
67.605 12.059572
67.610 11.839979
67.615 11.313274
67.620 11.455845
67.625 11.749979
67.630 11.842791
67.635 12.338866
67.640 12.143687
67.645 12.586025
67.650 12.945199
67.655 13.053398
67.660 13.496785
67.665 13.812915
67.670 13.789096
67.675 14.064224
67.680 13.950068
67.685 14.17695
67.690 14.317601
67.695 14.327594
67.700 14.528789
67.705 14.087947
67.710 13.874061
67.715 14.085236
67.720 13.926241
67.725 13.466866
67.730 12.957384
67.735 12.621808
67.740 12.962776
67.745 13.024304
67.750 12.968154
67.755 12.719692
67.760 12.692594
67.765 12.713218
67.770 12.808682
67.775 12.409149
67.780 12.190245
67.785 12.369223
67.790 12.757847
67.795 12.801168
67.800 12.611737
67.805 12.555065
67.810 13.215282
67.815 13.444627
67.820 12.960331
67.825 12.347825
67.830 12.586636
67.835 13.08034
67.840 13.097582
67.845 13.057763
67.850 13.445474
67.855 13.887259
67.860 13.76305
67.865 13.796382
67.870 13.424359
67.875 13.256191
67.880 12.812138
67.885 12.56317
67.890 12.674551
67.895 13.298849
67.900 13.399604
67.905 13.274289
67.910 13.535232
67.915 13.641888
67.920 13.485637
67.925 13.578929
67.930 13.341955
67.935 12.868122
67.940 12.918599
67.945 12.519593
67.950 12.319387
67.955 11.868902
67.960 11.802722
67.965 11.76579
67.970 11.714585
67.975 11.852564
67.980 12.164695
67.985 12.415111
67.990 12.906011
67.995 13.107172
68.000 13.130527
68.005 13.418208
68.010 13.727104
68.015 13.986067
68.020 13.972439
68.025 13.666591
68.030 13.689431
68.035 14.064959
68.040 14.112349
68.045 14.34038
68.050 14.086334
68.055 13.638917
68.060 13.853504
68.065 13.681646
68.070 13.629999
68.075 13.799472
68.080 13.365324
68.085 13.664493
68.090 14.308204
68.095 13.881276
68.100 13.40368
68.105 13.533683
68.110 13.10462
68.115 13.443411
68.120 13.168447
68.125 12.786085
68.130 13.203429
68.135 13.889212
68.140 14.096953
68.145 15.023254
68.150 15.270479
68.155 15.733238
68.160 16.140299
68.165 16.306522
68.170 16.078068
68.175 15.780987
68.180 15.238409
68.185 14.772146
68.190 14.793567
68.195 14.975105
68.200 14.964548
68.205 14.76895
68.210 14.644876
68.215 15.177259
68.220 15.190355
68.225 14.967078
68.230 14.854828
68.235 14.603986
68.240 14.413735
68.245 14.390718
68.250 13.929716
68.255 14.180938
68.260 14.803014
68.265 14.844409
68.270 15.446957
68.275 15.936992
68.280 16.024036
68.285 16.018106
68.290 16.511753
68.295 16.725954
68.300 16.837622
68.305 16.862459
68.310 17.190327
68.315 17.309084
68.320 17.437443
68.325 16.825266
68.330 16.754459
68.335 17.155994
68.340 16.891638
68.345 17.038971
68.350 17.724232
68.355 18.335556
68.360 18.962799
68.365 18.514349
68.370 18.259409
68.375 18.973427
68.380 19.430548
68.385 19.934717
68.390 20.079485
68.395 19.906948
68.400 20.166546
68.405 20.627872
68.410 20.43251
68.415 20.172462
68.420 20.068554
68.425 20.396643
68.430 20.993958
68.435 21.112728
68.440 20.985136
68.445 21.610554
68.450 21.892397
68.455 21.9697
68.460 22.274071
68.465 22.340364
68.470 22.300346
68.475 22.037127
68.480 21.269779
68.485 21.165501
68.490 21.458349
68.495 21.926113
68.500 22.151712
68.505 22.266373
68.510 23.141882
68.515 23.691885
68.520 24.175413
68.525 24.550879
68.530 24.225855
68.535 23.826569
68.540 24.471491
68.545 24.246737
68.550 24.417919
68.555 23.682072
68.560 23.183599
68.565 23.813635
68.570 24.449453
68.575 24.200956
68.580 24.395407
68.585 24.492775
68.590 24.482681
68.595 24.323374
68.600 24.000462
68.605 23.62805
68.610 23.572617
68.615 23.148346
68.620 23.35977
68.625 24.108574
68.630 24.104668
68.635 24.168707
68.640 24.277088
68.645 24.059614
68.650 24.393719
68.655 23.878681
68.660 23.365118
68.665 22.836075
68.670 22.532429
68.675 22.562052
68.680 22.699322
68.685 22.254276
68.690 22.370783
68.695 22.900637
68.700 23.679159
68.705 24.147152
68.710 23.838522
68.715 23.844997
68.720 24.321266
68.725 24.653877
68.730 24.777332
68.735 24.490061
68.740 23.697466
68.745 23.365307
68.750 23.034321
68.755 22.784378
68.760 22.932314
68.765 22.694237
68.770 22.755484
68.775 22.974508
68.780 23.563908
68.785 23.750221
68.790 23.974102
68.795 23.885006
68.800 23.980877
68.805 23.736605
68.810 23.417543
68.815 23.226908
68.820 23.133051
68.825 22.960625
68.830 22.756851
68.835 23.092012
68.840 23.04261
68.845 23.877996
68.850 24.140993
68.855 24.217537
68.860 24.193722
68.865 23.125916
68.870 22.744045
68.875 22.524023
68.880 21.964243
68.885 21.952881
68.890 22.328281
68.895 22.688686
68.900 22.887594
68.905 23.212273
68.910 23.644897
68.915 23.690742
68.920 23.235476
68.925 22.298109
68.930 22.040865
68.935 22.293175
68.940 21.750574
68.945 21.107149
68.950 21.185135
68.955 20.698093
68.960 20.707684
68.965 20.419022
68.970 20.105732
68.975 20.485596
68.980 20.454487
68.985 20.344559
68.990 21.12224
68.995 20.880371
69.000 21.581264
69.005 21.380922
69.010 20.989622
69.015 20.402048
69.020 19.775284
69.025 19.307735
69.030 19.184608
69.035 18.681629
69.040 18.793787
69.045 18.471113
69.050 18.860867
69.055 18.501207
69.060 18.564817
69.065 18.907379
69.070 18.718729
69.075 18.941015
69.080 18.913383
69.085 19.071327
69.090 19.042356
69.095 18.699697
69.100 18.874228
69.105 19.067421
69.110 18.463238
69.115 18.129488
69.120 17.99614
69.125 18.255136
69.130 18.717861
69.135 18.112547
69.140 17.261341
69.145 17.597542
69.150 17.879335
69.155 17.958376
69.160 17.778933
69.165 17.142542
69.170 17.371708
69.175 17.500368
69.180 17.319962
69.185 17.083029
69.190 17.428946
69.195 17.827297
69.200 17.765402
69.205 17.666065
69.210 17.22574
69.215 16.873009
69.220 17.046177
69.225 16.375683
69.230 16.436218
69.235 16.111525
69.240 15.836413
69.245 15.670036
69.250 16.15416
69.255 15.858481
69.260 16.114199
69.265 15.830638
69.270 15.770896
69.275 16.206276
69.280 16.5315
69.285 15.905793
69.290 15.495935
69.295 14.81802
69.300 14.867272
69.305 14.811234
69.310 14.504335
69.315 14.559595
69.320 14.745063
69.325 15.079638
69.330 15.290098
69.335 15.359956
69.340 15.343388
69.345 15.161952
69.350 15.286723
69.355 15.349411
69.360 14.821123
69.365 14.813846
69.370 14.503408
69.375 14.775884
69.380 14.249722
69.385 13.388277
69.390 13.741274
69.395 14.418174
69.400 14.699183
69.405 14.678898
69.410 14.621852
69.415 14.790219
69.420 14.883593
69.425 14.34679
69.430 13.744784
69.435 13.552662
69.440 13.564783
69.445 13.338093
69.450 13.760161
69.455 13.705192
69.460 13.913822
69.465 14.069674
69.470 13.865199
69.475 14.092997
69.480 14.067673
69.485 13.492479
69.490 13.766376
69.495 13.484059
69.500 13.643634
69.505 13.314388
69.510 12.990634
69.515 13.167785
69.520 13.602107
69.525 13.591261
69.530 13.688481
69.535 13.814357
69.540 14.012086
69.545 13.868745
69.550 14.030622
69.555 13.932571
69.560 13.7918
69.565 13.741801
69.570 13.93129
69.575 14.169928
69.580 14.550472
69.585 14.370128
69.590 14.128253
69.595 14.113796
69.600 13.864224
69.605 13.486956
69.610 13.609035
69.615 13.150537
69.620 12.66448
69.625 12.424723
69.630 12.343604
69.635 12.851063
69.640 13.019958
69.645 13.46765
69.650 13.619862
69.655 14.173274
69.660 14.640629
69.665 14.30962
69.670 14.357287
69.675 14.351921
69.680 14.113759
69.685 14.435041
69.690 14.650677
69.695 14.530304
69.700 14.567249
69.705 13.861937
69.710 14.165792
69.715 14.08023
69.720 13.807391
69.725 13.659978
69.730 14.039325
69.735 14.610166
69.740 15.102458
69.745 15.256266
69.750 15.116858
69.755 15.026316
69.760 15.069313
69.765 15.247703
69.770 14.924652
69.775 14.323239
69.780 13.701639
69.785 13.63051
69.790 13.768164
69.795 14.143754
69.800 14.134433
69.805 14.108477
69.810 14.377333
69.815 14.809024
69.820 15.122598
69.825 14.88293
69.830 14.415686
69.835 14.261119
69.840 13.820708
69.845 13.527076
69.850 13.296942
69.855 12.752015
69.860 12.94412
69.865 13.071836
69.870 13.800493
69.875 13.946068
69.880 13.697915
69.885 13.854679
69.890 13.835669
69.895 13.269603
69.900 12.882468
69.905 11.586162
69.910 11.704391
69.915 11.864297
69.920 11.838373
69.925 11.776445
69.930 12.115883
69.935 12.183298
69.940 12.84191
69.945 13.108201
69.950 13.191683
69.955 13.604683
69.960 13.824847
69.965 13.261746
69.970 13.028749
69.975 12.885022
69.980 12.779969
69.985 13.203685
69.990 12.927234
69.995 13.255683
70.000 13.77587
70.005 13.735463
70.010 13.689949
70.015 13.531519
70.020 13.250878
70.025 13.903642
70.030 14.050102
70.035 14.542983
70.040 14.870626
70.045 15.272698
70.050 15.539304
70.055 15.231494
70.060 14.375289
70.065 13.474472
70.070 12.962416
70.075 12.970721
70.080 13.35463
70.085 13.554704
70.090 13.471277
70.095 13.657039
70.100 14.069907
70.105 14.431762
70.110 14.033566
70.115 13.252991
70.120 13.334324
70.125 13.798222
70.130 14.139177
70.135 13.705119
70.140 14.108961
70.145 14.50873
70.150 14.757377
70.155 14.422006
70.160 14.170805
70.165 13.983944
70.170 14.077425
70.175 13.147412
70.180 12.800266
70.185 12.534919
70.190 12.204717
70.195 12.425143
70.200 12.882087
70.205 13.247737
70.210 13.532913
70.215 13.603391
70.220 13.699156
70.225 14.075815
70.230 13.839101
70.235 13.103164
70.240 13.427571
70.245 13.394279
70.250 13.53764
70.255 13.450225
70.260 13.005955
70.265 13.107002
70.270 13.003612
70.275 12.50215
70.280 12.47161
70.285 12.259939
70.290 12.251816
70.295 11.994492
70.300 12.522425
70.305 12.898241
70.310 13.254207
70.315 13.223868
70.320 13.118375
70.325 12.977942
70.330 13.347205
70.335 13.03488
70.340 13.188003
70.345 13.233344
70.350 13.872509
70.355 14.118016
70.360 14.212524
70.365 13.952213
70.370 14.118675
70.375 13.566422
70.380 13.525674
70.385 13.256966
70.390 13.750395
70.395 14.411275
70.400 14.674399
70.405 14.404556
70.410 14.622517
70.415 14.559433
70.420 14.067496
70.425 13.716382
70.430 13.373221
70.435 13.332428
70.440 13.522829
70.445 12.945395
70.450 12.95813
70.455 13.411246
70.460 13.605131
70.465 14.062105
70.470 14.057549
70.475 13.930099
70.480 14.023867
70.485 13.793796
70.490 13.638778
70.495 13.376703
70.500 13.019137
70.505 13.418003
70.510 13.994651
70.515 14.148583
70.520 14.201159
70.525 14.208625
70.530 14.198826
70.535 14.15752
70.540 13.776684
70.545 12.998497
70.550 12.967543
70.555 12.987817
70.560 12.775591
70.565 12.470822
70.570 12.266868
70.575 12.523949
70.580 12.982973
70.585 13.391662
70.590 13.8463
70.595 13.880748
70.600 14.398867
70.605 14.423124
70.610 14.55492
70.615 14.404927
70.620 13.667369
70.625 13.567466
70.630 13.443825
70.635 12.826267
70.640 12.535512
70.645 12.136156
70.650 12.280281
70.655 12.919683
70.660 12.735973
70.665 12.916161
70.670 13.744591
70.675 13.970659
70.680 14.270721
70.685 14.460816
70.690 14.767742
70.695 14.608313
70.700 13.951453
70.705 13.300079
70.710 13.203193
70.715 13.06108
70.720 12.933563
70.725 12.43232
70.730 13.268693
70.735 13.873777
70.740 14.183194
70.745 13.943148
70.750 13.961617
70.755 14.054749
70.760 14.537254
70.765 14.330827
70.770 14.366217
70.775 14.379012
70.780 14.921586
70.785 14.347604
70.790 13.925801
70.795 13.539329
70.800 13.249809
70.805 13.154254
70.810 12.975554
70.815 13.012298
70.820 13.343149
70.825 13.200061
70.830 13.155228
70.835 13.528712
70.840 13.513331
70.845 13.640615
70.850 13.506609
70.855 13.640192
70.860 14.200665
70.865 14.585917
70.870 14.337878
70.875 14.205827
70.880 14.181819
70.885 14.262321
70.890 14.439898
70.895 14.133045
70.900 13.83815
70.905 13.554212
70.910 13.885116
70.915 14.031768
70.920 13.52995
70.925 13.377694
70.930 13.778249
70.935 13.877423
70.940 13.397369
70.945 13.316745
70.950 13.262094
70.955 13.430151
70.960 13.140478
70.965 12.360097
70.970 12.32669
70.975 12.777566
70.980 12.590144
70.985 12.849999
70.990 13.515813
70.995 13.329417
71.000 12.933091
71.005 13.026306
71.010 13.184637
71.015 13.359658
71.020 12.927248
71.025 12.464928
71.030 12.572032
71.035 13.095444
71.040 12.947223
71.045 12.893362
71.050 12.630774
71.055 12.46156
71.060 12.297415
71.065 12.497545
71.070 12.622924
71.075 12.574067
71.080 12.240047
71.085 12.809765
71.090 13.36112
71.095 13.639471
71.100 13.768665
71.105 13.773601
71.110 14.305109
71.115 14.420205
71.120 13.679257
71.125 13.220304
71.130 13.34748
71.135 13.359229
71.140 13.370502
71.145 12.903601
71.150 12.732474
71.155 12.905163
71.160 13.416973
71.165 13.033728
71.170 12.845504
71.175 12.918371
71.180 13.520773
71.185 13.541088
71.190 13.673673
71.195 13.426777
71.200 13.566083
71.205 13.595871
71.210 13.029288
71.215 12.848706
71.220 13.085342
71.225 12.848062
71.230 12.886751
71.235 12.94747
71.240 12.90915
71.245 12.580445
71.250 12.162138
71.255 12.194908
71.260 12.210997
71.265 12.054799
71.270 12.145476
71.275 12.272657
71.280 12.396626
71.285 12.398798
71.290 12.378546
71.295 12.510451
71.300 12.788025
71.305 12.738968
71.310 13.120799
71.315 13.110882
71.320 13.302975
71.325 13.87588
71.330 14.233861
71.335 14.149949
71.340 13.896401
71.345 13.871234
71.350 14.403742
71.355 14.542678
71.360 13.89257
71.365 13.187428
71.370 13.007258
71.375 13.492166
71.380 13.488596
71.385 13.511952
71.390 13.213975
71.395 13.000562
71.400 12.761583
71.405 12.673528
71.410 12.513876
71.415 12.3755
71.420 11.827349
71.425 11.397565
71.430 11.689286
71.435 12.165767
71.440 12.383984
71.445 12.290185
71.450 12.012205
71.455 12.400863
71.460 13.136288
71.465 13.54718
71.470 13.826255
71.475 13.65309
71.480 13.512093
71.485 13.736561
71.490 13.677221
71.495 13.562255
71.500 13.326938
71.505 13.208109
71.510 13.479258
71.515 13.682948
71.520 13.893348
71.525 14.077848
71.530 13.873317
71.535 14.377304
71.540 13.588967
71.545 13.92121
71.550 13.9387
71.555 14.023425
71.560 14.178072
71.565 14.152024
71.570 14.499135
71.575 14.990659
71.580 14.517427
71.585 14.525887
71.590 14.585846
71.595 14.558826
71.600 14.363714
71.605 14.130158
71.610 13.883407
71.615 14.16923
71.620 14.031754
71.625 13.629414
71.630 13.372894
71.635 12.879948
71.640 12.661094
71.645 12.741574
71.650 12.637696
71.655 12.399503
71.660 12.354787
71.665 12.388535
71.670 13.039841
71.675 13.456375
71.680 13.848031
71.685 14.28786
71.690 14.242308
71.695 13.858957
71.700 13.792088
71.705 13.115631
71.710 13.237858
71.715 13.016233
71.720 13.028567
71.725 13.675596
71.730 13.818476
71.735 13.91873
71.740 14.022857
71.745 13.884136
71.750 13.442264
71.755 13.374545
71.760 13.870149
71.765 13.702064
71.770 13.550981
71.775 13.53704
71.780 13.147778
71.785 13.590551
71.790 13.305387
71.795 12.995645
71.800 13.039854
71.805 13.066425
71.810 13.613667
71.815 13.978712
71.820 13.795453
71.825 13.76024
71.830 13.619365
71.835 13.514964
71.840 13.263758
71.845 13.233146
71.850 13.11499
71.855 12.708817
71.860 12.267618
71.865 12.06567
71.870 12.328248
71.875 12.718151
71.880 12.409207
71.885 12.219371
71.890 12.380144
71.895 12.895157
71.900 13.089833
71.905 13.150357
71.910 13.106918
71.915 12.981394
71.920 13.077989
71.925 13.448318
71.930 13.402537
71.935 13.706773
71.940 13.506639
71.945 13.555978
71.950 14.352583
71.955 14.721021
71.960 14.829761
71.965 15.1945
71.970 15.056267
71.975 14.496675
71.980 14.496625
71.985 13.821869
71.990 13.283902
71.995 12.515596
72.000 12.465114
72.005 12.418146
72.010 13.271852
72.015 12.722613
72.020 12.840899
72.025 13.220765
72.030 13.648986
72.035 13.431449
72.040 13.326477
72.045 13.045744
72.050 13.515182
72.055 13.662181
72.060 13.439017
72.065 13.251802
72.070 13.160888
72.075 13.092137
72.080 12.875883
72.085 12.884096
72.090 13.139728
72.095 13.164186
72.100 13.501817
72.105 13.704553
72.110 13.592819
72.115 13.542832
72.120 13.033069
72.125 12.474298
72.130 12.618861
72.135 12.573347
72.140 12.655489
72.145 12.909887
72.150 12.955103
72.155 12.885529
72.160 12.863285
72.165 12.557111
72.170 12.501985
72.175 12.435021
72.180 12.079315
72.185 12.545122
72.190 12.694958
72.195 12.896334
72.200 13.100552
72.205 12.707226
72.210 12.416908
72.215 12.296338
72.220 11.850495
72.225 11.851149
72.230 11.875594
72.235 12.381907
72.240 12.888841
72.245 13.345666
72.250 13.455552
72.255 13.618971
72.260 14.110381
72.265 14.584644
72.270 14.512779
72.275 14.453098
72.280 14.168588
72.285 13.855
72.290 13.775599
72.295 13.043173
72.300 12.784598
72.305 12.61462
72.310 12.609079
72.315 12.882221
72.320 12.797641
72.325 13.050702
72.330 13.446552
72.335 13.130473
72.340 13.317755
72.345 13.584412
72.350 13.897264
72.355 14.117584
72.360 14.34357
72.365 13.548558
72.370 13.666977
72.375 13.512645
72.380 12.687974
72.385 12.448669
72.390 12.096673
72.395 11.693297
72.400 12.244436
72.405 12.407206
72.410 13.166693
72.415 13.439727
72.420 13.265197
72.425 13.269284
72.430 13.59128
72.435 13.460504
72.440 12.795137
72.445 12.168719
72.450 12.391868
72.455 12.839946
72.460 12.798357
72.465 12.793235
72.470 12.810102
72.475 13.312918
72.480 13.461473
72.485 12.899316
72.490 13.324603
72.495 12.754505
72.500 12.240382
72.505 11.822371
72.510 11.658202
72.515 11.813472
72.520 12.189905
72.525 12.345006
72.530 12.847642
72.535 13.257174
72.540 13.283436
72.545 13.52096
72.550 13.734856
72.555 13.707994
72.560 14.217961
72.565 14.394494
72.570 14.294113
72.575 13.817087
72.580 13.22908
72.585 13.372003
72.590 13.404446
72.595 12.44295
72.600 12.173418
72.605 12.549616
72.610 12.978582
72.615 12.954519
72.620 12.636201
72.625 12.475585
72.630 13.298352
72.635 13.198222
72.640 13.260921
72.645 12.977277
72.650 12.691464
72.655 12.537486
72.660 12.264398
72.665 11.535802
72.670 11.715637
72.675 11.802813
72.680 12.025173
72.685 12.203913
72.690 12.691089
72.695 13.347555
72.700 13.727737
72.705 13.378638
72.710 13.024076
72.715 13.244914
72.720 13.570264
72.725 13.205796
72.730 12.5864
72.735 12.33314
72.740 12.778239
72.745 12.920629
72.750 12.681212
72.755 12.712974
72.760 12.658123
72.765 13.155664
72.770 13.533541
72.775 13.698486
72.780 13.877695
72.785 14.105086
72.790 13.689119
72.795 13.834753
72.800 13.815326
72.805 12.923183
72.810 12.838007
72.815 12.625154
72.820 12.491373
72.825 12.655567
72.830 12.470867
72.835 12.99296
72.840 13.367884
72.845 12.83228
72.850 12.755549
72.855 12.461248
72.860 11.96334
72.865 11.152307
72.870 10.958795
72.875 11.356641
72.880 11.562533
72.885 11.597511
72.890 11.968504
72.895 12.116996
72.900 12.248281
72.905 11.796989
72.910 11.697259
72.915 11.577831
72.920 11.553855
72.925 11.713234
72.930 11.637739
72.935 11.469582
72.940 11.419621
72.945 11.407259
72.950 11.490846
72.955 11.140341
72.960 10.874785
72.965 10.981056
72.970 11.224947
72.975 11.49365
72.980 11.914225
72.985 12.395844
72.990 12.643678
72.995 13.142221
73.000 13.612144
