!@!!GADDS PLOTSO FILE: Chi integration type
!@!!Title/SampleName: map-185
!@!!Comment: ?
!@!!User: Bruker Instrument Administrator
!@!!Site: University of Illinois Chicago
!@!!Frame: map-185_01_000.gfrm
!@!!Wavelengths    1.54184   1.54056   1.54439
!@!!Frame angles: 2Theta: 63.000 Omega: 50.000 Phi: 0.000 Chi: 90.000
!@!!Integration range: 2Theta: 53.000 to 73.000  Gamma: -105.000 to -75.000
!@!!Integration method: bin normalized
!@!N
!@!SS
!@!M
!@!L 0.0 0.0 0.0 0.0
!@!XDegrees
!@!YCounts
53.000 9.108793
53.005 8.802573
53.010 8.739619
53.015 8.928852
53.020 8.732851
53.025 8.538682
53.030 8.838237
53.035 9.102763
53.040 9.268761
53.045 9.328273
53.050 9.856887
53.055 10.299924
53.060 10.183264
53.065 9.770172
53.070 9.445489
53.075 9.122094
53.080 8.341958
53.085 7.687351
53.090 7.748383
53.095 8.2442
53.100 8.366268
53.105 8.520045
53.110 8.772584
53.115 9.287905
53.120 9.163208
53.125 8.970842
53.130 9.01797
53.135 9.065129
53.140 8.88898
53.145 8.617135
53.150 8.408648
53.155 8.405326
53.160 8.555848
53.165 8.53592
53.170 8.557035
53.175 8.787066
53.180 8.885244
53.185 8.797113
53.190 8.45814
53.195 8.153966
53.200 8.622501
53.205 8.538811
53.210 8.692102
53.215 9.15112
53.220 9.823903
53.225 10.160995
53.230 10.105879
53.235 9.530203
53.240 9.429245
53.245 8.93346
53.250 8.362848
53.255 8.158512
53.260 8.526592
53.265 8.653828
53.270 8.667126
53.275 8.309078
53.280 8.45942
53.285 8.745919
53.290 8.757946
53.295 8.230281
53.300 8.264958
53.305 8.534498
53.310 8.917055
53.315 8.850863
53.320 8.866722
53.325 8.853848
53.330 9.278806
53.335 9.47185
53.340 9.484104
53.345 9.606667
53.350 9.606585
53.355 9.037126
53.360 8.89838
53.365 8.612621
53.370 8.416485
53.375 8.873409
53.380 9.156163
53.385 9.398654
53.390 9.875472
53.395 9.898623
53.400 9.7873
53.405 9.676446
53.410 9.346725
53.415 9.261567
53.420 9.071853
53.425 8.595712
53.430 8.201599
53.435 8.386844
53.440 8.312609
53.445 8.366214
53.450 8.475619
53.455 8.775144
53.460 9.283281
53.465 9.493332
53.470 9.510399
53.475 9.787928
53.480 9.632304
53.485 9.436393
53.490 8.939526
53.495 8.744737
53.500 9.054552
53.505 8.693114
53.510 8.265586
53.515 8.15836
53.520 8.371734
53.525 8.90052
53.530 8.714009
53.535 8.466263
53.540 8.943931
53.545 9.374206
53.550 9.638983
53.555 9.623419
53.560 9.422007
53.565 9.691043
53.570 9.866107
53.575 9.878725
53.580 9.720949
53.585 9.659743
53.590 9.755309
53.595 10.15134
53.600 10.423227
53.605 10.271636
53.610 10.463243
53.615 10.488328
53.620 10.35745
53.625 10.31105
53.630 9.621155
53.635 9.572096
53.640 9.493776
53.645 9.235454
53.650 9.049868
53.655 9.079381
53.660 9.061559
53.665 9.003255
53.670 9.024808
53.675 9.071136
53.680 9.399584
53.685 9.400263
53.690 9.412721
53.695 9.978922
53.700 10.515051
53.705 10.386301
53.710 10.02576
53.715 9.658299
53.720 9.691173
53.725 9.66444
53.730 9.324394
53.735 8.801541
53.740 9.299212
53.745 9.602707
53.750 9.923517
53.755 9.94773
53.760 10.010387
53.765 9.995425
53.770 10.217211
53.775 10.224852
53.780 10.139337
53.785 10.269459
53.790 10.186392
53.795 10.234361
53.800 10.417616
53.805 10.395559
53.810 10.440733
53.815 10.050553
53.820 9.674204
53.825 9.375472
53.830 9.107118
53.835 8.701994
53.840 8.620649
53.845 9.031773
53.850 9.333129
53.855 9.549846
53.860 9.751652
53.865 9.995085
53.870 10.225982
53.875 10.045029
53.880 9.750634
53.885 9.575472
53.890 9.546014
53.895 8.963326
53.900 8.756912
53.905 8.324977
53.910 8.339566
53.915 8.351389
53.920 8.396861
53.925 8.459416
53.930 8.891131
53.935 8.821508
53.940 9.020145
53.945 9.047096
53.950 9.115746
53.955 9.057431
53.960 9.380728
53.965 9.711236
53.970 9.830948
53.975 9.810088
53.980 9.669729
53.985 9.787887
53.990 9.629047
53.995 9.562173
54.000 9.553551
54.005 9.642729
54.010 9.777432
54.015 10.155611
54.020 10.046644
54.025 10.596188
54.030 10.410585
54.035 9.88795
54.040 10.007046
54.045 9.694114
54.050 9.566526
54.055 9.966056
54.060 9.972869
54.065 9.996537
54.070 9.918087
54.075 9.742016
54.080 10.175844
54.085 10.098222
54.090 9.950799
54.095 9.821098
54.100 10.478075
54.105 10.920536
54.110 10.660881
54.115 10.415421
54.120 10.294836
54.125 10.251234
54.130 10.074116
54.135 9.721435
54.140 9.603259
54.145 9.845797
54.150 9.787614
54.155 9.691734
54.160 9.689335
54.165 9.339833
54.170 9.585315
54.175 9.565152
54.180 9.913038
54.185 9.952167
54.190 10.121124
54.195 10.396426
54.200 10.770595
54.205 10.508024
54.210 10.076562
54.215 9.549399
54.220 9.160689
54.225 8.658754
54.230 9.089025
54.235 9.260229
54.240 9.388413
54.245 10.272579
54.250 10.786423
54.255 11.038145
54.260 10.901319
54.265 10.142159
54.270 10.02737
54.275 9.938822
54.280 9.439282
54.285 9.561214
54.290 9.973431
54.295 10.113484
54.300 10.655575
54.305 11.009955
54.310 10.896589
54.315 11.29876
54.320 11.131697
54.325 10.99777
54.330 10.916473
54.335 10.801755
54.340 10.488527
54.345 10.278678
54.350 10.10689
54.355 10.36227
54.360 10.57851
54.365 10.45458
54.370 10.573935
54.375 11.001077
54.380 10.882906
54.385 10.358592
54.390 10.208423
54.395 10.266684
54.400 10.468214
54.405 10.325742
54.410 10.437103
54.415 10.658982
54.420 11.261707
54.425 11.44777
54.430 11.092716
54.435 10.395539
54.440 10.072177
54.445 9.793008
54.450 9.852059
54.455 9.540773
54.460 9.284849
54.465 9.501616
54.470 10.01331
54.475 9.88133
54.480 10.179045
54.485 9.991078
54.490 9.981997
54.495 10.637994
54.500 10.622398
54.505 10.57515
54.510 10.769508
54.515 10.496215
54.520 10.638309
54.525 10.512998
54.530 10.302895
54.535 10.256863
54.540 10.210804
54.545 9.989518
54.550 10.285116
54.555 10.344253
54.560 10.228703
54.565 10.093945
54.570 9.941466
54.575 10.150899
54.580 10.22926
54.585 10.265027
54.590 10.331949
54.595 10.25566
54.600 9.974792
54.605 10.261754
54.610 10.494647
54.615 10.537948
54.620 10.043487
54.625 9.657709
54.630 10.201717
54.635 10.847058
54.640 10.116182
54.645 9.490121
54.650 9.25596
54.655 9.329585
54.660 9.593767
54.665 9.517153
54.670 9.534842
54.675 10.559818
54.680 10.51898
54.685 10.753996
54.690 11.074586
54.695 10.857477
54.700 10.72298
54.705 10.494737
54.710 10.114908
54.715 10.502789
54.720 10.582178
54.725 10.702997
54.730 10.811971
54.735 10.528183
54.740 10.438878
54.745 10.059047
54.750 9.736652
54.755 9.615091
54.760 9.487789
54.765 9.659957
54.770 9.587191
54.775 9.703695
54.780 9.981112
54.785 10.137493
54.790 10.216673
54.795 10.048448
54.800 9.671066
54.805 9.99688
54.810 10.128028
54.815 10.298066
54.820 10.102221
54.825 9.754101
54.830 9.9264
54.835 10.265255
54.840 10.369888
54.845 10.443949
54.850 10.863648
54.855 11.082082
54.860 11.505371
54.865 11.19694
54.870 11.152659
54.875 11.224291
54.880 11.438432
54.885 11.496837
54.890 11.482044
54.895 11.412153
54.900 11.910357
54.905 11.888165
54.910 11.734247
54.915 11.309221
54.920 10.592583
54.925 10.664932
54.930 10.539181
54.935 10.039912
54.940 10.112002
54.945 10.314821
54.950 10.687088
54.955 11.515515
54.960 11.501055
54.965 11.300775
54.970 11.397286
54.975 11.254059
54.980 11.142121
54.985 10.786682
54.990 10.352921
54.995 10.675311
55.000 10.868098
55.005 10.784023
55.010 11.032391
55.015 11.37858
55.020 11.567264
55.025 11.598414
55.030 11.251632
55.035 11.445444
55.040 11.488926
55.045 11.247616
55.050 10.880333
55.055 10.368732
55.060 10.242857
55.065 10.308335
55.070 10.404214
55.075 10.416019
55.080 10.197227
55.085 10.664079
55.090 11.170015
55.095 10.800237
55.100 10.945825
55.105 10.740073
55.110 10.960331
55.115 11.228219
55.120 11.1998
55.125 11.348841
55.130 11.498775
55.135 11.30759
55.140 11.369909
55.145 11.269294
55.150 10.949822
55.155 11.192955
55.160 11.210415
55.165 11.262236
55.170 11.809384
55.175 11.768174
55.180 12.047544
55.185 12.164147
55.190 11.939617
55.195 11.943401
55.200 11.89857
55.205 11.805447
55.210 12.022161
55.215 12.153461
55.220 11.952877
55.225 11.788829
55.230 11.95465
55.235 12.018455
55.240 11.629329
55.245 11.582863
55.250 11.579886
55.255 11.08786
55.260 10.994761
55.265 11.280877
55.270 11.445065
55.275 11.594685
55.280 11.456724
55.285 11.499172
55.290 11.760767
55.295 11.952139
55.300 11.602119
55.305 11.46583
55.310 10.891475
55.315 10.476795
55.320 10.30549
55.325 10.647004
55.330 10.30838
55.335 10.470214
55.340 10.440542
55.345 10.832499
55.350 11.009765
55.355 11.475268
55.360 11.385333
55.365 11.275462
55.370 11.457509
55.375 11.459144
55.380 11.584001
55.385 11.73702
55.390 11.717828
55.395 11.558559
55.400 11.607755
55.405 11.364758
55.410 11.448943
55.415 11.1493
55.420 10.688666
55.425 10.117992
55.430 10.035353
55.435 10.285369
55.440 10.384032
55.445 10.333714
55.450 10.559722
55.455 10.778663
55.460 11.363821
55.465 11.729352
55.470 11.268687
55.475 11.265115
55.480 11.000872
55.485 10.813197
55.490 10.888721
55.495 11.023864
55.500 11.161662
55.505 11.723343
55.510 11.537936
55.515 11.799445
55.520 11.902917
55.525 11.93679
55.530 12.026887
55.535 11.876047
55.540 11.713636
55.545 11.652841
55.550 12.028718
55.555 11.842725
55.560 11.091518
55.565 10.447638
55.570 10.087571
55.575 10.185026
55.580 10.217219
55.585 10.119164
55.590 10.340057
55.595 10.397305
55.600 10.61447
55.605 10.772841
55.610 10.919166
55.615 10.99025
55.620 10.265724
55.625 10.609315
55.630 10.984639
55.635 10.758507
55.640 10.711874
55.645 10.353925
55.650 10.410303
55.655 11.152287
55.660 11.344597
55.665 11.549762
55.670 11.415484
55.675 11.14447
55.680 11.095379
55.685 11.236034
55.690 11.445995
55.695 11.929116
55.700 11.631658
55.705 11.729936
55.710 12.183187
55.715 12.517417
55.720 12.803416
55.725 12.346973
55.730 11.857171
55.735 12.034199
55.740 12.049872
55.745 11.881257
55.750 11.673366
55.755 11.240036
55.760 10.958247
55.765 10.893528
55.770 10.774053
55.775 11.001903
55.780 11.381139
55.785 11.376659
55.790 11.353064
55.795 11.43187
55.800 11.799644
55.805 12.395115
55.810 12.17377
55.815 11.805049
55.820 12.107258
55.825 12.24678
55.830 12.479045
55.835 12.198006
55.840 11.582609
55.845 11.656803
55.850 11.841361
55.855 11.575219
55.860 11.466899
55.865 11.457396
55.870 11.218832
55.875 11.248949
55.880 11.607398
55.885 11.487611
55.890 11.425808
55.895 11.816516
55.900 11.548201
55.905 11.941039
55.910 12.156472
55.915 11.809731
55.920 11.519869
55.925 11.327924
55.930 10.949929
55.935 11.347182
55.940 11.174314
55.945 11.557347
55.950 12.250303
55.955 12.597839
55.960 12.898059
55.965 12.682595
55.970 12.383951
55.975 12.625973
55.980 11.932943
55.985 11.44715
55.990 11.027655
55.995 11.230103
56.000 11.518678
56.005 11.500002
56.010 11.598083
56.015 11.616246
56.020 11.281218
56.025 11.016577
56.030 11.212972
56.035 11.374936
56.040 11.457424
56.045 11.504814
56.050 11.7351
56.055 12.000384
56.060 12.063426
56.065 11.805012
56.070 11.559954
56.075 11.304816
56.080 11.518851
56.085 11.425042
56.090 11.326867
56.095 11.09381
56.100 10.794365
56.105 11.119532
56.110 11.188866
56.115 10.784213
56.120 10.969009
56.125 11.351032
56.130 11.96096
56.135 11.98721
56.140 12.149619
56.145 12.106581
56.150 11.888054
56.155 11.616446
56.160 11.577333
56.165 11.210011
56.170 10.951453
56.175 10.553785
56.180 10.577976
56.185 11.273869
56.190 11.555983
56.195 11.338656
56.200 11.168049
56.205 11.544681
56.210 12.055082
56.215 11.495868
56.220 11.11616
56.225 11.170616
56.230 11.705417
56.235 11.941228
56.240 11.830077
56.245 11.86407
56.250 12.443594
56.255 12.065443
56.260 12.007103
56.265 12.532875
56.270 12.728784
56.275 12.352175
56.280 11.945954
56.285 12.006513
56.290 12.462286
56.295 12.257142
56.300 11.225654
56.305 11.078157
56.310 11.524233
56.315 12.18994
56.320 12.072215
56.325 11.740869
56.330 11.935698
56.335 12.231314
56.340 12.400514
56.345 12.745343
56.350 12.730606
56.355 12.939241
56.360 12.981714
56.365 13.009781
56.370 12.656234
56.375 12.299998
56.380 11.740856
56.385 11.612986
56.390 11.513312
56.395 11.893196
56.400 12.225638
56.405 12.407783
56.410 12.592691
56.415 12.682733
56.420 12.489651
56.425 12.513581
56.430 12.267156
56.435 11.974501
56.440 12.044578
56.445 11.67908
56.450 11.812201
56.455 12.287277
56.460 12.629589
56.465 12.096178
56.470 11.785119
56.475 11.296914
56.480 11.567296
56.485 11.728857
56.490 11.78653
56.495 11.983439
56.500 12.381565
56.505 13.026776
56.510 13.385961
56.515 12.950125
56.520 12.234222
56.525 11.683448
56.530 11.447405
56.535 11.593248
56.540 11.608249
56.545 11.760259
56.550 11.802475
56.555 12.1105
56.560 12.237782
56.565 12.214715
56.570 12.546889
56.575 12.855326
56.580 12.909326
56.585 13.15354
56.590 12.922222
56.595 12.871589
56.600 12.84008
56.605 12.573858
56.610 12.539495
56.615 12.462015
56.620 12.584599
56.625 12.973585
56.630 12.803409
56.635 13.226559
56.640 12.883544
56.645 12.660141
56.650 12.860228
56.655 12.685596
56.660 12.826027
56.665 12.792042
56.670 12.039357
56.675 12.054993
56.680 12.436927
56.685 12.214459
56.690 12.128086
56.695 11.950937
56.700 11.825604
56.705 12.250215
56.710 12.120698
56.715 12.104763
56.720 12.319182
56.725 12.171371
56.730 12.207089
56.735 12.382833
56.740 12.319492
56.745 12.192295
56.750 11.7352
56.755 11.735283
56.760 11.865156
56.765 11.925622
56.770 11.813127
56.775 11.927584
56.780 12.525092
56.785 13.103205
56.790 13.373337
56.795 13.102247
56.800 13.319936
56.805 13.423569
56.810 13.585277
56.815 13.585898
56.820 13.117867
56.825 13.043864
56.830 13.282255
56.835 12.911376
56.840 12.449616
56.845 12.449942
56.850 12.162114
56.855 12.581753
56.860 12.271955
56.865 12.060245
56.870 12.473412
56.875 12.693706
56.880 12.427865
56.885 12.286348
56.890 11.768061
56.895 11.92818
56.900 12.276502
56.905 11.985305
56.910 11.83261
56.915 11.746671
56.920 11.985156
56.925 11.922518
56.930 12.124476
56.935 12.254181
56.940 12.170019
56.945 12.200595
56.950 11.58877
56.955 11.755137
56.960 11.904277
56.965 11.773192
56.970 11.909925
56.975 12.681897
56.980 13.095357
56.985 13.701473
56.990 13.535088
56.995 13.580357
57.000 13.279109
57.005 12.66205
57.010 12.292766
57.015 12.0865
57.020 11.810265
57.025 11.842888
57.030 11.777757
57.035 11.695209
57.040 11.8385
57.045 11.858336
57.050 11.71886
57.055 11.68821
57.060 11.300983
57.065 11.338253
57.070 11.971607
57.075 11.456216
57.080 11.168686
57.085 11.000175
57.090 10.556909
57.095 10.531745
57.100 10.304722
57.105 9.959106
57.110 10.345865
57.115 10.611246
57.120 10.950313
57.125 11.563018
57.130 11.489488
57.135 11.482275
57.140 11.377611
57.145 11.436776
57.150 11.210617
57.155 10.733059
57.160 10.462348
57.165 10.741568
57.170 11.063937
57.175 11.06317
57.180 10.80971
57.185 11.302625
57.190 11.479264
57.195 11.445154
57.200 11.473218
57.205 11.529905
57.210 12.08016
57.215 12.4891
57.220 12.558547
57.225 12.790802
57.230 12.964368
57.235 12.439404
57.240 12.276423
57.245 12.294265
57.250 11.999231
57.255 12.001213
57.260 12.272483
57.265 12.58687
57.270 12.878458
57.275 12.873713
57.280 12.517893
57.285 12.354824
57.290 11.913092
57.295 11.715828
57.300 11.640362
57.305 11.822037
57.310 11.559904
57.315 11.713133
57.320 12.004008
57.325 12.475583
57.330 12.425488
57.335 12.002907
57.340 11.781724
57.345 11.975007
57.350 12.67055
57.355 12.516442
57.360 12.439879
57.365 12.75444
57.370 12.885896
57.375 13.187925
57.380 13.012208
57.385 12.221587
57.390 12.695648
57.395 12.682132
57.400 12.537675
57.405 12.681284
57.410 12.618755
57.415 12.847816
57.420 13.417385
57.425 12.759449
57.430 12.969102
57.435 13.608925
57.440 13.593508
57.445 13.864728
57.450 13.515073
57.455 13.300336
57.460 13.674431
57.465 13.447219
57.470 13.202044
57.475 13.045543
57.480 12.831745
57.485 12.517314
57.490 12.197997
57.495 12.496667
57.500 12.502042
57.505 12.054263
57.510 11.922673
57.515 11.821741
57.520 12.250934
57.525 12.313787
57.530 11.948196
57.535 12.007775
57.540 12.236904
57.545 12.648221
57.550 12.820157
57.555 12.737709
57.560 12.625768
57.565 12.586674
57.570 12.446332
57.575 12.483663
57.580 12.457528
57.585 12.113976
57.590 12.164227
57.595 12.436276
57.600 12.869448
57.605 13.513802
57.610 13.663113
57.615 13.191721
57.620 13.566924
57.625 14.041387
57.630 14.204983
57.635 13.680387
57.640 13.134816
57.645 13.087914
57.650 13.084183
57.655 12.759258
57.660 12.519014
57.665 12.184345
57.670 12.254916
57.675 12.798649
57.680 12.470125
57.685 12.851086
57.690 12.883204
57.695 12.632057
57.700 12.68632
57.705 12.287745
57.710 11.747101
57.715 12.170741
57.720 12.469118
57.725 12.725812
57.730 12.709346
57.735 12.56392
57.740 12.490187
57.745 13.10469
57.750 13.188623
57.755 12.51326
57.760 12.261996
57.765 12.078822
57.770 12.338472
57.775 12.62408
57.780 12.605923
57.785 12.544027
57.790 13.225697
57.795 13.520943
57.800 13.666004
57.805 14.131646
57.810 14.409291
57.815 14.429401
57.820 14.636087
57.825 14.348358
57.830 14.533075
57.835 14.740496
57.840 14.047916
57.845 13.616252
57.850 13.460328
57.855 13.021179
57.860 12.685143
57.865 12.613084
57.870 12.980967
57.875 13.468603
57.880 13.343333
57.885 12.940579
57.890 13.462155
57.895 13.658889
57.900 12.917021
57.905 12.192363
57.910 12.483403
57.915 12.337797
57.920 12.447724
57.925 12.280612
57.930 12.40418
57.935 12.655478
57.940 12.594937
57.945 12.269192
57.950 12.76793
57.955 13.248643
57.960 12.702072
57.965 12.78144
57.970 12.75948
57.975 12.834464
57.980 12.578251
57.985 12.382853
57.990 12.125937
57.995 12.804823
58.000 12.628545
58.005 12.885334
58.010 13.061168
58.015 13.422397
58.020 13.743544
58.025 14.079863
58.030 14.084224
58.035 14.514032
58.040 14.740229
58.045 14.894284
58.050 14.754665
58.055 14.658752
58.060 14.40374
58.065 14.389072
58.070 14.232056
58.075 14.417587
58.080 14.057763
58.085 13.831898
58.090 13.931908
58.095 14.287727
58.100 14.033536
58.105 13.557985
58.110 13.482294
58.115 13.41009
58.120 13.059259
58.125 12.559636
58.130 11.487403
58.135 11.482283
58.140 11.988382
58.145 11.876409
58.150 12.165359
58.155 12.693419
58.160 12.68576
58.165 13.094758
58.170 13.334238
58.175 13.146454
58.180 13.29428
58.185 13.377581
58.190 13.07019
58.195 13.300537
58.200 13.227977
58.205 13.303533
58.210 13.527187
58.215 12.860307
58.220 12.785062
58.225 12.804524
58.230 12.435714
58.235 12.525785
58.240 12.014088
58.245 11.31459
58.250 11.631882
58.255 11.908231
58.260 12.423047
58.265 12.65796
58.270 12.589459
58.275 12.815099
58.280 13.286824
58.285 13.579171
58.290 13.913477
58.295 13.870718
58.300 14.040516
58.305 14.224545
58.310 14.429193
58.315 14.574505
58.320 14.093623
58.325 14.586937
58.330 14.621686
58.335 15.014058
58.340 15.116521
58.345 14.660761
58.350 14.335264
58.355 14.462758
58.360 13.724553
58.365 13.323909
58.370 12.792116
58.375 12.924386
58.380 13.27737
58.385 13.484324
58.390 13.973037
58.395 14.098824
58.400 14.777778
58.405 14.611053
58.410 14.447795
58.415 14.647433
58.420 15.178671
58.425 14.75691
58.430 14.810037
58.435 14.484167
58.440 14.58992
58.445 14.547713
58.450 14.500866
58.455 14.187789
58.460 14.185917
58.465 14.46284
58.470 14.575255
58.475 14.936596
58.480 15.17471
58.485 14.95736
58.490 14.870551
58.495 15.605316
58.500 15.587071
58.505 15.614116
58.510 15.355371
58.515 15.535872
58.520 15.767603
58.525 15.945479
58.530 15.170567
58.535 14.744762
58.540 14.54058
58.545 14.807975
58.550 14.541862
58.555 14.249085
58.560 14.185225
58.565 14.618633
58.570 15.16515
58.575 15.540788
58.580 15.534348
58.585 15.500073
58.590 15.761176
58.595 15.636968
58.600 14.981071
58.605 14.222707
58.610 13.845753
58.615 14.070494
58.620 14.500168
58.625 14.471244
58.630 14.430279
58.635 14.891353
58.640 15.425769
58.645 15.438604
58.650 15.59039
58.655 15.177975
58.660 15.483559
58.665 15.899899
58.670 15.996408
58.675 16.111219
58.680 16.125221
58.685 15.765926
58.690 16.05287
58.695 16.38422
58.700 16.208601
58.705 16.329945
58.710 15.977869
58.715 16.125702
58.720 16.436714
58.725 16.295799
58.730 16.092085
58.735 15.733412
58.740 15.365896
58.745 15.693191
58.750 15.682148
58.755 15.543642
58.760 16.272661
58.765 16.024706
58.770 16.241524
58.775 16.202484
58.780 16.051699
58.785 15.883595
58.790 16.508486
58.795 15.67592
58.800 15.801713
58.805 15.988965
58.810 15.729247
58.815 15.866283
58.820 15.809236
58.825 15.385774
58.830 15.486223
58.835 15.262074
58.840 15.657428
58.845 16.378723
58.850 16.691872
58.855 16.713406
58.860 16.304506
58.865 16.136627
58.870 15.957949
58.875 15.453696
58.880 15.024866
58.885 15.201749
58.890 15.497067
58.895 15.580008
58.900 16.143541
58.905 16.322775
58.910 16.449806
58.915 16.820587
58.920 16.316759
58.925 16.090334
58.930 15.856347
58.935 15.222616
58.940 14.895455
58.945 14.449632
58.950 14.129595
58.955 14.296969
58.960 14.383347
58.965 14.749252
58.970 14.578562
58.975 14.810397
58.980 14.419944
58.985 14.361696
58.990 14.078515
58.995 14.462794
59.000 14.237921
59.005 14.651538
59.010 15.212304
59.015 15.161059
59.020 14.856036
59.025 14.650315
59.030 14.627151
59.035 14.567045
59.040 14.811258
59.045 14.682454
59.050 15.006942
59.055 15.949447
59.060 15.851593
59.065 15.235647
59.070 15.434676
59.075 15.225531
59.080 15.608878
59.085 15.595554
59.090 15.150384
59.095 15.06278
59.100 15.525143
59.105 15.517319
59.110 15.007351
59.115 14.790782
59.120 14.895827
59.125 14.954944
59.130 14.986422
59.135 14.78351
59.140 14.954725
59.145 15.262818
59.150 14.899444
59.155 14.811766
59.160 14.985648
59.165 15.030046
59.170 15.42431
59.175 14.93918
59.180 14.998343
59.185 15.2397
59.190 15.848834
59.195 15.791601
59.200 15.350914
59.205 15.120419
59.210 15.695096
59.215 15.710114
59.220 15.948956
59.225 15.74473
59.230 15.586031
59.235 16.570736
59.240 16.769915
59.245 16.439672
59.250 16.388609
59.255 16.100405
59.260 16.325127
59.265 16.519732
59.270 16.567245
59.275 16.618242
59.280 16.986919
59.285 17.313135
59.290 17.463415
59.295 17.402014
59.300 17.254765
59.305 16.262602
59.310 15.726832
59.315 15.59498
59.320 15.240673
59.325 15.041551
59.330 15.310365
59.335 15.530119
59.340 15.916027
59.345 15.813378
59.350 15.244164
59.355 14.578919
59.360 14.729924
59.365 14.719189
59.370 15.157966
59.375 15.62565
59.380 15.635332
59.385 16.106304
59.390 16.625677
59.395 16.336105
59.400 15.968271
59.405 15.222122
59.410 15.082696
59.415 15.061753
59.420 14.763221
59.425 14.49746
59.430 14.399022
59.435 14.50504
59.440 15.221519
59.445 15.779536
59.450 16.361784
59.455 16.228748
59.460 16.375616
59.465 16.912554
59.470 17.04636
59.475 16.703447
59.480 16.07391
59.485 16.276361
59.490 17.022905
59.495 17.048803
59.500 16.761837
59.505 17.068863
59.510 16.870356
59.515 16.592241
59.520 16.139563
59.525 16.327158
59.530 16.378313
59.535 16.118408
59.540 15.528513
59.545 15.677752
59.550 16.351631
59.555 16.379618
59.560 16.256767
59.565 16.63172
59.570 17.058842
59.575 16.9541
59.580 16.944405
59.585 16.370533
59.590 16.535666
59.595 16.599867
59.600 16.203829
59.605 16.028376
59.610 16.132421
59.615 16.662298
59.620 16.974062
59.625 16.974463
59.630 16.908031
59.635 16.773602
59.640 16.758247
59.645 16.670103
59.650 16.303595
59.655 16.814127
59.660 16.69117
59.665 16.729958
59.670 17.200693
59.675 17.408432
59.680 17.851618
59.685 18.251097
59.690 17.77977
59.695 17.621786
59.700 18.244167
59.705 18.068281
59.710 18.003563
59.715 17.244726
59.720 17.280674
59.725 17.784065
59.730 18.206158
59.735 17.213263
59.740 17.046492
59.745 17.190363
59.750 17.193567
59.755 16.44911
59.760 15.965018
59.765 15.786948
59.770 15.917406
59.775 16.512575
59.780 16.992754
59.785 17.505274
59.790 18.250813
59.795 18.319391
59.800 18.110092
59.805 17.877092
59.810 17.583235
59.815 17.794275
59.820 17.594458
59.825 17.41551
59.830 18.171556
59.835 19.246351
59.840 19.769079
59.845 19.685617
59.850 19.369661
59.855 19.568861
59.860 19.138166
59.865 18.757368
59.870 18.509829
59.875 18.851778
59.880 19.05385
59.885 19.184765
59.890 18.978163
59.895 19.310453
59.900 19.113298
59.905 18.611149
59.910 18.364922
59.915 17.396414
59.920 16.950338
59.925 17.069227
59.930 16.834909
59.935 16.890995
59.940 16.750235
59.945 16.2117
59.950 16.28367
59.955 16.741566
59.960 16.718275
59.965 16.472033
59.970 16.395914
59.975 16.557676
59.980 16.406359
59.985 17.089397
59.990 17.400446
59.995 17.875784
60.000 18.094206
60.005 18.354567
60.010 18.651737
60.015 19.396536
60.020 18.686588
60.025 18.158226
60.030 17.623465
60.035 17.429457
60.040 17.423594
60.045 17.813074
60.050 17.796545
60.055 17.710402
60.060 16.968246
60.065 16.941885
60.070 17.245375
60.075 16.758224
60.080 15.529006
60.085 15.334264
60.090 16.038904
60.095 16.51214
60.100 16.722155
60.105 16.742649
60.110 16.719778
60.115 16.973177
60.120 17.3983
60.125 16.964354
60.130 17.150352
60.135 17.368567
60.140 17.046335
60.145 17.276197
60.150 17.716944
60.155 17.744637
60.160 17.634245
60.165 17.647091
60.170 17.280378
60.175 17.134607
60.180 17.098316
60.185 16.816864
60.190 16.445515
60.195 16.49077
60.200 16.52873
60.205 16.735619
60.210 16.602556
60.215 16.596054
60.220 16.40177
60.225 16.127165
60.230 15.971789
60.235 15.577309
60.240 15.964661
60.245 16.273626
60.250 16.158508
60.255 16.23712
60.260 15.935724
60.265 15.618582
60.270 15.311778
60.275 14.808899
60.280 14.786919
60.285 14.840116
60.290 14.801626
60.295 14.901869
60.300 14.820408
60.305 14.644353
60.310 14.491742
60.315 14.504283
60.320 14.192401
60.325 14.044748
60.330 14.493919
60.335 14.671671
60.340 15.730486
60.345 16.344028
60.350 16.350956
60.355 16.468025
60.360 16.168839
60.365 16.064928
60.370 15.963356
60.375 15.186158
60.380 14.732976
60.385 14.77668
60.390 14.854755
60.395 15.187225
60.400 15.032124
60.405 14.599649
60.410 14.264804
60.415 14.046855
60.420 14.523076
60.425 14.455222
60.430 14.432578
60.435 14.674313
60.440 15.524988
60.445 15.795693
60.450 15.739128
60.455 15.264433
60.460 15.168246
60.465 15.406456
60.470 15.108603
60.475 15.044466
60.480 15.772571
60.485 15.944843
60.490 15.783572
60.495 16.267525
60.500 16.544804
60.505 16.412958
60.510 15.847454
60.515 15.240807
60.520 14.904974
60.525 15.15257
60.530 14.857735
60.535 14.680614
60.540 15.454825
60.545 15.58175
60.550 15.246984
60.555 15.195253
60.560 15.459555
60.565 15.509146
60.570 15.544691
60.575 14.922288
60.580 15.32613
60.585 15.408908
60.590 15.910574
60.595 15.899387
60.600 15.694648
60.605 15.537424
60.610 15.778176
60.615 16.217085
60.620 16.690842
60.625 16.472157
60.630 15.999154
60.635 16.13201
60.640 16.197996
60.645 15.769593
60.650 14.997279
60.655 14.533894
60.660 14.625684
60.665 15.045046
60.670 15.327278
60.675 15.504512
60.680 15.522463
60.685 15.936853
60.690 16.187115
60.695 15.979278
60.700 15.743053
60.705 15.582228
60.710 15.267426
60.715 15.625187
60.720 15.261961
60.725 14.781572
60.730 15.133972
60.735 14.963508
60.740 14.555301
60.745 14.701259
60.750 14.718441
60.755 14.782666
60.760 14.93577
60.765 15.190149
60.770 15.211815
60.775 14.664162
60.780 13.992792
60.785 13.829542
60.790 13.721629
60.795 13.511692
60.800 12.970416
60.805 13.043694
60.810 13.945535
60.815 14.650501
60.820 14.641599
60.825 14.79149
60.830 14.824
60.835 14.892159
60.840 14.937043
60.845 15.354375
60.850 15.148469
60.855 15.155839
60.860 15.318039
60.865 15.203838
60.870 14.787975
60.875 14.599243
60.880 13.839533
60.885 13.830411
60.890 13.493796
60.895 13.075191
60.900 13.286056
60.905 14.226009
60.910 14.526799
60.915 14.530077
60.920 14.304741
60.925 14.685237
60.930 15.27756
60.935 14.944103
60.940 14.540902
60.945 14.687872
60.950 15.363724
60.955 15.605739
60.960 15.128293
60.965 14.896285
60.970 15.20411
60.975 15.145365
60.980 15.387299
60.985 15.379962
60.990 15.73694
60.995 15.925839
61.000 15.600002
61.005 15.522211
61.010 15.055243
61.015 14.294638
61.020 13.979156
61.025 13.427483
61.030 13.565673
61.035 13.895692
61.040 13.841639
61.045 14.890694
61.050 15.133797
61.055 15.055115
61.060 15.361739
61.065 15.194733
61.070 15.354791
61.075 15.362937
61.080 14.79183
61.085 14.546826
61.090 14.329355
61.095 14.653324
61.100 15.170246
61.105 15.067667
61.110 15.228307
61.115 15.340294
61.120 15.587058
61.125 15.36344
61.130 14.997538
61.135 14.5987
61.140 14.72048
61.145 14.742836
61.150 14.268721
61.155 14.404016
61.160 15.05376
61.165 14.940994
61.170 14.463982
61.175 14.111156
61.180 13.545942
61.185 13.806956
61.190 13.627427
61.195 13.554268
61.200 13.447784
61.205 13.887541
61.210 14.105026
61.215 14.528641
61.220 14.688104
61.225 14.701218
61.230 14.96104
61.235 15.105517
61.240 14.739148
61.245 15.067068
61.250 15.021914
61.255 14.978168
61.260 14.705359
61.265 14.16011
61.270 14.270415
61.275 14.374213
61.280 14.269886
61.285 14.899757
61.290 15.148447
61.295 15.736295
61.300 15.83025
61.305 16.081121
61.310 16.279346
61.315 15.898728
61.320 15.167909
61.325 14.859367
61.330 14.441661
61.335 14.187165
61.340 13.901276
61.345 13.294928
61.350 13.186323
61.355 13.155197
61.360 13.171403
61.365 13.60959
61.370 14.097409
61.375 13.825369
61.380 14.485535
61.385 14.756568
61.390 14.939152
61.395 14.867456
61.400 14.022025
61.405 13.732198
61.410 13.89309
61.415 13.42849
61.420 13.074735
61.425 13.305812
61.430 13.699042
61.435 13.680984
61.440 14.089507
61.445 14.286835
61.450 14.636217
61.455 15.076962
61.460 14.79511
61.465 14.769139
61.470 15.460334
61.475 15.869124
61.480 16.131308
61.485 16.154064
61.490 15.859092
61.495 15.742535
61.500 15.512199
61.505 15.14542
61.510 14.491738
61.515 14.036244
61.520 13.856224
61.525 14.160398
61.530 14.359255
61.535 13.967417
61.540 13.623398
61.545 13.798937
61.550 14.791598
61.555 14.906816
61.560 14.817069
61.565 15.057263
61.570 15.618007
61.575 15.741454
61.580 15.402145
61.585 14.716803
61.590 14.833548
61.595 14.733718
61.600 14.343671
61.605 13.783901
61.610 14.040575
61.615 14.104103
61.620 14.056946
61.625 13.679989
61.630 13.18339
61.635 13.54222
61.640 13.903291
61.645 14.359052
61.650 14.157173
61.655 13.62739
61.660 13.800766
61.665 13.926304
61.670 14.149985
61.675 14.418223
61.680 13.500037
61.685 13.405215
61.690 13.682785
61.695 13.712466
61.700 14.215229
61.705 13.708072
61.710 13.340998
61.715 14.052467
61.720 14.764517
61.725 14.869207
61.730 14.922882
61.735 14.240858
61.740 14.264735
61.745 14.713955
61.750 14.618774
61.755 14.648842
61.760 15.104096
61.765 14.997014
61.770 15.149821
61.775 15.44117
61.780 15.142891
61.785 14.579811
61.790 14.380142
61.795 14.241039
61.800 14.254799
61.805 14.106752
61.810 14.094029
61.815 14.372905
61.820 14.994469
61.825 15.027921
61.830 14.918572
61.835 14.725848
61.840 14.976397
61.845 14.81717
61.850 14.441232
61.855 14.43384
61.860 14.635336
61.865 14.703894
61.870 15.24901
61.875 15.435178
61.880 15.892465
61.885 16.028696
61.890 15.92634
61.895 15.838218
61.900 15.77693
61.905 14.935733
61.910 14.981269
61.915 14.390738
61.920 14.479079
61.925 14.28618
61.930 13.755753
61.935 14.08269
61.940 14.387356
61.945 14.176038
61.950 14.51376
61.955 14.288502
61.960 13.859383
61.965 14.018548
61.970 14.366293
61.975 14.740708
61.980 14.943741
61.985 14.887233
61.990 15.153799
61.995 15.404977
62.000 15.228312
62.005 14.888395
62.010 14.587202
62.015 14.03981
62.020 13.775652
62.025 13.949053
62.030 14.558686
62.035 14.942017
62.040 14.783291
62.045 15.10924
62.050 15.540782
62.055 15.466436
62.060 15.241158
62.065 14.697181
62.070 14.252222
62.075 14.370279
62.080 14.678569
62.085 14.882991
62.090 14.616792
62.095 14.61841
62.100 14.759361
62.105 15.177978
62.110 15.494797
62.115 15.432974
62.120 15.355895
62.125 15.648921
62.130 15.910843
62.135 16.10253
62.140 15.972703
62.145 15.169771
62.150 15.331211
62.155 15.525378
62.160 15.208745
62.165 15.22179
62.170 15.529203
62.175 16.043016
62.180 16.570896
62.185 16.557161
62.190 16.379951
62.195 17.188326
62.200 17.073818
62.205 16.322193
62.210 15.629292
62.215 15.541092
62.220 15.339602
62.225 15.395857
62.230 14.57568
62.235 14.196858
62.240 14.383535
62.245 14.246376
62.250 13.752742
62.255 14.01033
62.260 14.046728
62.265 14.047208
62.270 13.935074
62.275 13.917027
62.280 14.200066
62.285 14.606245
62.290 14.414864
62.295 14.276345
62.300 14.480879
62.305 14.54194
62.310 14.080965
62.315 13.700191
62.320 13.492522
62.325 12.641348
62.330 13.048894
62.335 13.192184
62.340 13.725617
62.345 14.459691
62.350 14.818267
62.355 14.769378
62.360 15.313898
62.365 14.988383
62.370 15.056497
62.375 15.098768
62.380 15.467404
62.385 15.199449
62.390 15.319551
62.395 15.407068
62.400 15.260646
62.405 15.300075
62.410 15.479899
62.415 15.087457
62.420 15.363095
62.425 15.676861
62.430 15.515143
62.435 15.631841
62.440 15.560434
62.445 15.151843
62.450 15.481277
62.455 16.065756
62.460 16.210548
62.465 16.726681
62.470 17.23378
62.475 17.278778
62.480 16.935717
62.485 16.55504
62.490 15.953793
62.495 15.658896
62.500 15.24247
62.505 14.845466
62.510 14.952197
62.515 15.315344
62.520 15.214674
62.525 14.695428
62.530 15.028146
62.535 15.232653
62.540 15.44801
62.545 15.248796
62.550 15.440896
62.555 15.859333
62.560 15.790621
62.565 15.27919
62.570 14.826154
62.575 14.478314
62.580 13.900126
62.585 13.483858
62.590 13.099564
62.595 13.311883
62.600 13.227069
62.605 12.858259
62.610 13.04766
62.615 13.764567
62.620 14.086878
62.625 14.631147
62.630 14.743078
62.635 14.955226
62.640 15.709546
62.645 16.255465
62.650 15.923706
62.655 15.981212
62.660 15.7278
62.665 16.029947
62.670 16.551064
62.675 16.69092
62.680 15.975364
62.685 15.57811
62.690 15.697635
62.695 16.285006
62.700 16.236637
62.705 16.026661
62.710 15.811833
62.715 15.793647
62.720 16.202431
62.725 16.614157
62.730 16.552244
62.735 16.240112
62.740 16.141827
62.745 16.472715
62.750 17.173746
62.755 17.681046
62.760 17.333416
62.765 17.480188
62.770 18.007683
62.775 17.959652
62.780 17.721962
62.785 17.150654
62.790 16.368063
62.795 16.061691
62.800 15.798697
62.805 15.714668
62.810 15.560586
62.815 15.371754
62.820 15.375664
62.825 15.725886
62.830 15.374581
62.835 15.199652
62.840 14.906835
62.845 14.753504
62.850 14.819932
62.855 15.151213
62.860 15.601031
62.865 15.64274
62.870 15.496264
62.875 15.724983
62.880 16.299351
62.885 16.29302
62.890 16.244404
62.895 16.090931
62.900 16.142698
62.905 16.295345
62.910 15.781876
62.915 15.272411
62.920 15.217059
62.925 14.970222
62.930 14.61427
62.935 14.582499
62.940 14.093002
62.945 14.511352
62.950 14.575724
62.955 14.523235
62.960 14.713265
62.965 14.749591
62.970 15.381272
62.975 16.368605
62.980 16.115862
62.985 16.075787
62.990 16.008553
62.995 15.99831
63.000 16.184046
63.005 15.791129
63.010 15.012315
63.015 14.862505
63.020 14.628784
63.025 14.701677
63.030 14.643972
63.035 14.358412
63.040 14.270963
63.045 14.76664
63.050 15.061995
63.055 15.366582
63.060 15.480968
63.065 15.790601
63.070 16.098314
63.075 15.947454
63.080 15.3758
63.085 15.23131
63.090 15.197419
63.095 15.168635
63.100 14.561378
63.105 14.441136
63.110 14.404099
63.115 14.714887
63.120 14.580722
63.125 14.673173
63.130 14.55047
63.135 14.517741
63.140 14.470806
63.145 14.715214
63.150 14.427074
63.155 14.752247
63.160 14.521012
63.165 14.795219
63.170 14.97069
63.175 14.929702
63.180 14.915307
63.185 15.279415
63.190 15.412317
63.195 15.515882
63.200 15.492137
63.205 15.70732
63.210 15.867566
63.215 15.772346
63.220 15.628926
63.225 15.485727
63.230 15.127209
63.235 15.516552
63.240 15.886812
63.245 16.122406
63.250 16.467497
63.255 16.888279
63.260 16.925234
63.265 16.990921
63.270 16.652056
63.275 16.120094
63.280 15.691049
63.285 16.036034
63.290 15.293787
63.295 15.13064
63.300 15.408989
63.305 15.236135
63.310 15.02912
63.315 14.911753
63.320 14.689367
63.325 15.080412
63.330 15.659901
63.335 15.41669
63.340 15.161717
63.345 15.473178
63.350 15.374385
63.355 14.981102
63.360 14.759337
63.365 13.893956
63.370 13.791507
63.375 14.094654
63.380 13.904842
63.385 13.568486
63.390 13.546112
63.395 13.857972
63.400 14.219191
63.405 13.963581
63.410 13.92501
63.415 14.247352
63.420 14.732994
63.425 14.683742
63.430 14.375839
63.435 14.80068
63.440 15.520087
63.445 15.780603
63.450 15.872815
63.455 15.679538
63.460 15.717906
63.465 16.035873
63.470 15.932006
63.475 15.736704
63.480 15.442134
63.485 15.492518
63.490 15.47796
63.495 15.551551
63.500 15.730042
63.505 15.697694
63.510 15.719213
63.515 15.721366
63.520 15.311298
63.525 15.400597
63.530 15.181526
63.535 14.709354
63.540 14.475561
63.545 14.263079
63.550 14.334237
63.555 14.304939
63.560 14.755051
63.565 14.75874
63.570 15.061432
63.575 15.058304
63.580 14.835384
63.585 14.643356
63.590 14.89
63.595 14.579443
63.600 14.224824
63.605 14.169974
63.610 14.086187
63.615 14.370661
63.620 14.778412
63.625 15.060918
63.630 15.134831
63.635 15.945183
63.640 16.161537
63.645 16.584663
63.650 16.489605
63.655 16.282137
63.660 16.300037
63.665 16.58914
63.670 16.086681
63.675 15.854567
63.680 16.123978
63.685 16.809963
63.690 16.809563
63.695 16.260725
63.700 15.355986
63.705 15.435262
63.710 15.236554
63.715 14.878657
63.720 14.66771
63.725 14.60181
63.730 15.068511
63.735 15.375004
63.740 15.704117
63.745 15.937673
63.750 15.935078
63.755 15.720929
63.760 15.825419
63.765 15.522802
63.770 15.39272
63.775 14.931258
63.780 14.72074
63.785 14.811792
63.790 15.000892
63.795 14.767595
63.800 15.007278
63.805 14.964352
63.810 15.12637
63.815 15.517725
63.820 15.221374
63.825 15.074276
63.830 15.541363
63.835 15.685166
63.840 16.246452
63.845 16.146063
63.850 15.951591
63.855 15.793423
63.860 15.766618
63.865 15.515629
63.870 14.908945
63.875 14.836544
63.880 15.122261
63.885 15.775793
63.890 16.095272
63.895 15.80713
63.900 16.035524
63.905 16.535896
63.910 16.91468
63.915 16.749073
63.920 15.8349
63.925 15.837828
63.930 16.174143
63.935 16.229902
63.940 15.923223
63.945 15.287544
63.950 15.085082
63.955 15.892208
63.960 16.523918
63.965 16.469082
63.970 16.202839
63.975 16.431559
63.980 17.188112
63.985 17.868284
63.990 17.648571
63.995 17.335447
64.000 17.263506
64.005 17.526737
64.010 17.701847
64.015 18.07332
64.020 17.579384
64.025 17.517914
64.030 17.205124
64.035 17.282747
64.040 17.250507
64.045 17.142872
64.050 16.68758
64.055 16.79542
64.060 16.843134
64.065 17.017103
64.070 17.536499
64.075 17.947451
64.080 17.906231
64.085 17.500776
64.090 17.549391
64.095 17.505947
64.100 17.367033
64.105 16.788464
64.110 16.528044
64.115 16.541098
64.120 17.016678
64.125 17.003618
64.130 16.623251
64.135 16.548183
64.140 16.151079
64.145 15.818592
64.150 15.833177
64.155 15.411449
64.160 15.387264
64.165 15.643286
64.170 16.242165
64.175 16.668455
64.180 17.190901
64.185 17.402191
64.190 17.764669
64.195 18.065165
64.200 18.573938
64.205 18.185808
64.210 18.345684
64.215 18.210228
64.220 18.340368
64.225 18.108212
64.230 18.116888
64.235 17.816414
64.240 17.396736
64.245 17.471655
64.250 17.309696
64.255 17.786366
64.260 18.170837
64.265 17.991091
64.270 18.232916
64.275 18.643385
64.280 18.085419
64.285 17.471746
64.290 16.543463
64.295 16.109438
64.300 16.019024
64.305 15.861361
64.310 15.948914
64.315 17.049316
64.320 17.74893
64.325 18.530157
64.330 19.008881
64.335 18.524817
64.340 18.181026
64.345 17.794186
64.350 17.207697
64.355 17.123285
64.360 16.855425
64.365 16.609632
64.370 16.822096
64.375 16.574369
64.380 16.824694
64.385 16.950941
64.390 16.650267
64.395 16.385633
64.400 16.844971
64.405 17.515055
64.410 17.907532
64.415 18.007446
64.420 17.957539
64.425 18.292435
64.430 18.644613
64.435 18.385046
64.440 18.409924
64.445 18.471415
64.450 18.413105
64.455 18.29351
64.460 18.550817
64.465 18.761084
64.470 18.756781
64.475 18.982347
64.480 18.438972
64.485 18.448898
64.490 18.694668
64.495 18.652502
64.500 18.673557
64.505 18.827099
64.510 18.505573
64.515 19.200523
64.520 19.20495
64.525 19.393227
64.530 19.21438
64.535 19.258957
64.540 18.773478
64.545 18.090054
64.550 17.757818
64.555 17.315624
64.560 17.165571
64.565 17.415489
64.570 17.238726
64.575 17.783825
64.580 18.293825
64.585 18.476061
64.590 18.559242
64.595 18.319269
64.600 17.755335
64.605 17.581427
64.610 17.615135
64.615 17.61931
64.620 17.382977
64.625 17.532591
64.630 18.003424
64.635 18.042936
64.640 18.057213
64.645 17.986256
64.650 17.748957
64.655 17.421236
64.660 17.234009
64.665 16.87709
64.670 17.240393
64.675 17.003185
64.680 17.388302
64.685 18.031427
64.690 18.93305
64.695 19.297745
64.700 19.174994
64.705 18.964813
64.710 19.740484
64.715 19.643305
64.720 19.476692
64.725 19.487648
64.730 19.015692
64.735 19.543158
64.740 19.604467
64.745 20.092674
64.750 19.757889
64.755 19.179577
64.760 19.080019
64.765 19.565664
64.770 19.954462
64.775 20.023869
64.780 19.866444
64.785 20.568388
64.790 20.864822
64.795 20.576839
64.800 20.182125
64.805 20.165918
64.810 20.406561
64.815 19.448116
64.820 19.049992
64.825 19.825319
64.830 20.309237
64.835 20.752977
64.840 20.516468
64.845 20.223845
64.850 20.401743
64.855 21.055811
64.860 21.125912
64.865 21.1318
64.870 21.410444
64.875 21.037498
64.880 20.949306
64.885 21.197548
64.890 20.290245
64.895 19.889437
64.900 19.682001
64.905 19.33466
64.910 19.688765
64.915 20.207623
64.920 20.805792
64.925 21.728437
64.930 22.310787
64.935 23.031652
64.940 23.118771
64.945 23.710157
64.950 23.416948
64.955 23.300352
64.960 23.161865
64.965 23.172394
64.970 22.887182
64.975 23.311092
64.980 23.467306
64.985 23.363302
64.990 23.522278
64.995 23.513279
65.000 23.831654
65.005 24.399878
65.010 24.690434
65.015 24.964598
65.020 26.161755
65.025 26.33428
65.030 27.036837
65.035 26.576351
65.040 26.354422
65.045 26.17145
65.050 26.389755
65.055 25.730947
65.060 25.837595
65.065 25.492983
65.070 25.797895
65.075 25.837158
65.080 25.560335
65.085 25.324402
65.090 25.743204
65.095 25.370653
65.100 25.522789
65.105 25.506577
65.110 25.291817
65.115 25.60519
65.120 25.386208
65.125 25.57675
65.130 25.95006
65.135 25.60589
65.140 25.787788
65.145 25.79505
65.150 26.251997
65.155 26.25643
65.160 25.477493
65.165 25.512877
65.170 25.423992
65.175 24.589504
65.180 24.321531
65.185 23.270384
65.190 23.330656
65.195 24.181309
65.200 24.219496
65.205 24.212067
65.210 24.872257
65.215 25.350451
65.220 25.738276
65.225 25.412088
65.230 24.537025
65.235 24.727839
65.240 24.434156
65.245 24.183939
65.250 23.943747
65.255 23.368994
65.260 23.434448
65.265 24.016611
65.270 23.365528
65.275 23.292437
65.280 23.386335
65.285 23.095695
65.290 23.40893
65.295 23.199778
65.300 22.777023
65.305 22.743053
65.310 23.274311
65.315 23.260883
65.320 23.376783
65.325 23.455179
65.330 23.392641
65.335 23.665998
65.340 24.13706
65.345 24.356758
65.350 24.476606
65.355 23.849272
65.360 23.513676
65.365 23.324207
65.370 22.420815
65.375 21.401693
65.380 20.861179
65.385 21.013033
65.390 21.828863
65.395 21.82184
65.400 21.924765
65.405 22.206057
65.410 22.577469
65.415 22.484699
65.420 21.71241
65.425 21.47838
65.430 21.476276
65.435 21.218077
65.440 21.612753
65.445 21.067932
65.450 20.917879
65.455 21.158293
65.460 21.548016
65.465 21.898638
65.470 21.670454
65.475 21.147064
65.480 21.262262
65.485 21.811552
65.490 21.927235
65.495 21.847029
65.500 21.857544
65.505 22.726061
65.510 23.740351
65.515 23.703716
65.520 23.172258
65.525 22.982494
65.530 23.10955
65.535 22.896349
65.540 23.221853
65.545 23.315739
65.550 24.271019
65.555 24.547403
65.560 24.301304
65.565 24.436686
65.570 24.732519
65.575 24.55599
65.580 24.405468
65.585 24.51737
65.590 24.192274
65.595 24.024807
65.600 24.049225
65.605 23.876188
65.610 23.984892
65.615 23.712585
65.620 23.453899
65.625 23.652393
65.630 23.80052
65.635 23.987762
65.640 24.135324
65.645 24.869854
65.650 25.275379
65.655 25.259663
65.660 25.92408
65.665 26.548147
65.670 26.750532
65.675 26.922354
65.680 26.632349
65.685 26.612825
65.690 26.660027
65.695 26.548788
65.700 26.31271
65.705 25.02216
65.710 24.740221
65.715 24.469166
65.720 24.578102
65.725 24.285118
65.730 23.962872
65.735 24.179873
65.740 25.532722
65.745 26.032982
65.750 26.240198
65.755 25.966362
65.760 25.828579
65.765 25.866131
65.770 25.675043
65.775 25.408789
65.780 24.763971
65.785 24.484478
65.790 25.069496
65.795 25.683268
65.800 25.633564
65.805 25.410233
65.810 24.812737
65.815 24.906878
65.820 24.585598
65.825 24.654243
65.830 24.92326
65.835 25.7609
65.840 26.228868
65.845 26.647022
65.850 26.808594
65.855 26.800106
65.860 26.478649
65.865 26.674587
65.870 26.477697
65.875 26.066629
65.880 26.227869
65.885 26.085365
65.890 26.110195
65.895 26.27067
65.900 25.945223
65.905 25.753693
65.910 25.689056
65.915 25.824245
65.920 25.847185
65.925 25.572145
65.930 24.982317
65.935 25.028181
65.940 25.155262
65.945 25.850515
65.950 26.166182
65.955 26.759212
65.960 27.481159
65.965 27.757372
65.970 28.234316
65.975 28.824181
65.980 29.16688
65.985 29.080193
65.990 28.691355
65.995 28.823338
66.000 28.482061
66.005 28.045715
66.010 27.748556
66.015 27.10121
66.020 26.893002
66.025 27.002464
66.030 27.912111
66.035 28.981951
66.040 29.855295
66.045 30.255594
66.050 30.10256
66.055 30.4079
66.060 30.613556
66.065 30.311731
66.070 29.881975
66.075 28.847509
66.080 28.315838
66.085 28.525221
66.090 28.325611
66.095 28.65904
66.100 28.179905
66.105 27.452663
66.110 27.79553
66.115 27.63336
66.120 27.422752
66.125 27.154951
66.130 26.450472
66.135 26.450146
66.140 27.038469
66.145 26.979378
66.150 27.570551
66.155 27.765232
66.160 28.184105
66.165 28.071779
66.170 28.084082
66.175 28.272427
66.180 27.899214
66.185 27.645332
66.190 27.484016
66.195 27.414387
66.200 28.35586
66.205 29.012869
66.210 29.323463
66.215 30.428724
66.220 30.234497
66.225 29.920568
66.230 30.291065
66.235 30.279181
66.240 29.448431
66.245 28.923262
66.250 28.340221
66.255 28.555807
66.260 28.823669
66.265 28.742289
66.270 28.052847
66.275 28.242527
66.280 28.561621
66.285 28.829527
66.290 29.095959
66.295 28.885162
66.300 28.479382
66.305 28.858999
66.310 28.474623
66.315 27.145382
66.320 26.623924
66.325 26.908987
66.330 27.195333
66.335 27.017342
66.340 27.111996
66.345 26.780775
66.350 27.359837
66.355 27.673903
66.360 27.131723
66.365 26.531954
66.370 26.167837
66.375 25.329685
66.380 25.686163
66.385 25.99729
66.390 25.92313
66.395 25.80909
66.400 26.249474
66.405 26.367437
66.410 26.122915
66.415 25.997049
66.420 25.263353
66.425 24.768192
66.430 24.279858
66.435 23.845528
66.440 23.691851
66.445 23.874273
66.450 23.487154
66.455 23.501717
66.460 23.608545
66.465 23.294201
66.470 22.961935
66.475 22.496284
66.480 22.397545
66.485 22.625853
66.490 22.590279
66.495 22.531855
66.500 22.945316
66.505 23.26927
66.510 23.662205
66.515 23.631092
66.520 23.221766
66.525 22.585995
66.530 22.084108
66.535 21.914421
66.540 21.615377
66.545 20.963648
66.550 20.799316
66.555 21.126932
66.560 21.431757
66.565 21.538675
66.570 21.786783
66.575 21.876486
66.580 22.257299
66.585 22.236557
66.590 21.712559
66.595 21.696089
66.600 21.466032
66.605 20.636219
66.610 20.660675
66.615 20.271599
66.620 20.185175
66.625 20.951273
66.630 20.971046
66.635 20.926888
66.640 20.998257
66.645 20.635313
66.650 20.721998
66.655 20.510256
66.660 19.76346
66.665 19.431843
66.670 19.432507
66.675 19.602367
66.680 19.186031
66.685 19.036951
66.690 18.302671
66.695 17.87524
66.700 18.320326
66.705 18.200212
66.710 18.082821
66.715 18.444151
66.720 18.645473
66.725 19.145098
66.730 19.41078
66.735 19.149822
66.740 19.333145
66.745 19.187904
66.750 18.938942
66.755 18.597897
66.760 18.452435
66.765 18.09416
66.770 18.001129
66.775 17.156677
66.780 17.416414
66.785 17.126631
66.790 16.67795
66.795 16.737665
66.800 16.402084
66.805 16.516653
66.810 16.846203
66.815 16.82637
66.820 16.930862
66.825 16.514738
66.830 16.394512
66.835 15.643532
66.840 15.39176
66.845 15.629559
66.850 15.630748
66.855 16.133738
66.860 17.262171
66.865 17.879152
66.870 19.031734
66.875 19.354193
66.880 19.266813
66.885 19.031729
66.890 18.826534
66.895 18.322687
66.900 17.687666
66.905 17.511187
66.910 17.336567
66.915 17.261122
66.920 17.434683
66.925 17.485195
66.930 17.469078
66.935 17.856331
66.940 18.317316
66.945 18.825602
66.950 18.596125
66.955 18.081366
66.960 17.510904
66.965 17.252218
66.970 16.892021
66.975 16.304396
66.980 15.358953
66.985 15.390536
66.990 15.81797
66.995 16.212103
67.000 16.549879
67.005 16.702244
67.010 16.869751
67.015 17.311604
67.020 17.459484
67.025 17.221424
67.030 17.142183
67.035 16.808569
67.040 16.722069
67.045 17.252029
67.050 17.527393
67.055 17.060217
67.060 16.900604
67.065 16.606724
67.070 16.853416
67.075 17.189629
67.080 16.844034
67.085 16.776791
67.090 17.665648
67.095 17.83534
67.100 18.138212
67.105 17.983799
67.110 17.978283
67.115 18.063688
67.120 17.918314
67.125 17.818874
67.130 17.932243
67.135 17.643116
67.140 17.366684
67.145 17.206911
67.150 17.058895
67.155 17.128056
67.160 16.946423
67.165 17.046917
67.170 17.154362
67.175 17.239573
67.180 16.903645
67.185 16.586378
67.190 16.324675
67.195 16.039465
67.200 15.859426
67.205 16.085047
67.210 15.831666
67.215 15.832339
67.220 16.271921
67.225 16.327187
67.230 16.155638
67.235 16.175695
67.240 15.91314
67.245 16.100744
67.250 16.446247
67.255 16.63596
67.260 16.899887
67.265 17.336151
67.270 17.240101
67.275 17.196867
67.280 16.484953
67.285 16.445618
67.290 16.528913
67.295 16.695395
67.300 16.287041
67.305 16.249691
67.310 16.570471
67.315 17.425436
67.320 17.3773
67.325 16.985279
67.330 16.569975
67.335 17.045082
67.340 17.0394
67.345 16.70026
67.350 16.134781
67.355 15.939231
67.360 15.926148
67.365 16.225471
67.370 16.316168
67.375 16.417202
67.380 17.249464
67.385 17.286095
67.390 16.924295
67.395 16.887541
67.400 16.742355
67.405 16.843477
67.410 16.923969
67.415 17.196112
67.420 17.812813
67.425 18.281128
67.430 18.046869
67.435 17.527031
67.440 17.092035
67.445 17.165596
67.450 16.526934
67.455 16.550322
67.460 16.512085
67.465 16.614235
67.470 17.382029
67.475 17.84749
67.480 17.896673
67.485 17.861912
67.490 17.672621
67.495 17.900696
67.500 17.830156
67.505 17.736998
67.510 18.076811
67.515 18.1532
67.520 18.457504
67.525 18.553976
67.530 18.893116
67.535 19.12612
67.540 19.535835
67.545 19.220177
67.550 19.12479
67.555 19.316111
67.560 18.907778
67.565 18.448391
67.570 17.63431
67.575 16.989668
67.580 16.851267
67.585 16.877234
67.590 16.954645
67.595 17.710499
67.600 17.902966
67.605 18.377104
67.610 18.08709
67.615 17.695023
67.620 17.446667
67.625 16.935898
67.630 16.343737
67.635 16.5151
67.640 16.352505
67.645 16.894655
67.650 17.327753
67.655 16.958218
67.660 16.880098
67.665 16.749245
67.670 16.612341
67.675 16.984676
67.680 16.240192
67.685 15.849433
67.690 16.12505
67.695 16.478394
67.700 16.682602
67.705 16.926554
67.710 17.311394
67.715 18.144312
67.720 18.378981
67.725 18.10104
67.730 18.133432
67.735 18.027645
67.740 17.833036
67.745 17.19475
67.750 17.190928
67.755 17.704649
67.760 18.068182
67.765 17.969713
67.770 18.240587
67.775 17.799164
67.780 17.90502
67.785 17.400784
67.790 16.734161
67.795 16.722115
67.800 16.778458
67.805 16.694942
67.810 17.350378
67.815 17.197166
67.820 17.394035
67.825 17.131931
67.830 16.671486
67.835 16.120876
67.840 15.900516
67.845 15.524851
67.850 15.607602
67.855 15.423001
67.860 15.531248
67.865 16.071035
67.870 16.438105
67.875 16.70752
67.880 17.06377
67.885 16.645369
67.890 16.813168
67.895 16.847984
67.900 16.692434
67.905 16.872198
67.910 17.214611
67.915 17.754404
67.920 18.056265
67.925 18.643671
67.930 18.83259
67.935 18.597654
67.940 18.472303
67.945 17.904783
67.950 17.640316
67.955 17.599182
67.960 17.711239
67.965 17.941221
67.970 18.72801
67.975 18.570507
67.980 18.497763
67.985 18.076839
67.990 17.977703
67.995 17.546124
68.000 17.258478
68.005 16.655394
68.010 17.181
68.015 17.112013
68.020 17.226376
68.025 17.209061
68.030 17.204163
68.035 17.243343
68.040 17.327953
68.045 16.96619
68.050 17.060419
68.055 17.075666
68.060 16.701178
68.065 16.53064
68.070 17.302715
68.075 17.509834
68.080 17.791382
68.085 17.95186
68.090 18.296619
68.095 18.38176
68.100 18.171999
68.105 17.40324
68.110 16.850359
68.115 16.3419
68.120 15.953207
68.125 15.537299
68.130 15.391566
68.135 15.670353
68.140 16.002131
68.145 16.356449
68.150 16.679214
68.155 16.560154
68.160 16.472704
68.165 16.692547
68.170 16.696547
68.175 16.211851
68.180 15.899469
68.185 15.950382
68.190 16.192396
68.195 16.342499
68.200 16.044142
68.205 15.885833
68.210 16.045231
68.215 16.441235
68.220 16.720524
68.225 17.030005
68.230 17.190794
68.235 17.249676
68.240 17.297987
68.245 17.40922
68.250 17.394171
68.255 17.253189
68.260 17.536625
68.265 17.673782
68.270 17.69981
68.275 17.543278
68.280 17.638704
68.285 17.251904
68.290 16.630152
68.295 15.802183
68.300 16.124144
68.305 16.353725
68.310 16.200941
68.315 16.790995
68.320 16.59742
68.325 17.045847
68.330 17.645077
68.335 17.475967
68.340 16.900599
68.345 16.593575
68.350 16.124672
68.355 16.631418
68.360 17.074444
68.365 16.946686
68.370 16.429264
68.375 17.169161
68.380 17.728771
68.385 18.384975
68.390 18.629955
68.395 18.21851
68.400 18.157877
68.405 18.447601
68.410 18.774733
68.415 18.551863
68.420 18.144548
68.425 18.241098
68.430 17.885498
68.435 17.609549
68.440 17.15349
68.445 16.806772
68.450 16.668339
68.455 15.959012
68.460 15.456677
68.465 15.621651
68.470 16.115263
68.475 16.514757
68.480 16.415911
68.485 16.383743
68.490 17.024036
68.495 17.345928
68.500 17.215813
68.505 17.146677
68.510 17.318266
68.515 17.096071
68.520 17.247608
68.525 16.577717
68.530 16.90147
68.535 17.138653
68.540 17.087954
68.545 16.855719
68.550 17.152811
68.555 17.465504
68.560 18.213362
68.565 18.524437
68.570 18.391979
68.575 18.548237
68.580 18.851677
68.585 19.548893
68.590 19.964432
68.595 19.365128
68.600 19.033039
68.605 19.055822
68.610 18.652954
68.615 18.366344
68.620 17.008366
68.625 16.026606
68.630 15.775163
68.635 15.521544
68.640 15.549265
68.645 15.613653
68.650 15.532849
68.655 16.001284
68.660 16.433357
68.665 16.921095
68.670 17.184542
68.675 17.479361
68.680 17.532063
68.685 17.647781
68.690 17.744652
68.695 17.629593
68.700 17.501781
68.705 17.098129
68.710 16.984474
68.715 16.773981
68.720 17.118565
68.725 17.178158
68.730 17.127604
68.735 17.206837
68.740 17.653854
68.745 17.944969
68.750 18.43993
68.755 18.804129
68.760 18.531595
68.765 18.784918
68.770 18.924879
68.775 18.845358
68.780 18.863888
68.785 18.624174
68.790 18.511133
68.795 18.773901
68.800 18.826323
68.805 18.876841
68.810 19.16415
68.815 19.115564
68.820 18.680763
68.825 18.545799
68.830 18.959919
68.835 19.08214
68.840 19.011734
68.845 19.145006
68.850 19.142595
68.855 19.046618
68.860 18.743004
68.865 18.854105
68.870 18.976891
68.875 18.674606
68.880 18.561104
68.885 18.649969
68.890 18.492025
68.895 18.590115
68.900 18.07741
68.905 18.006393
68.910 18.143011
68.915 18.347441
68.920 18.282162
68.925 18.402533
68.930 18.672474
68.935 18.784899
68.940 18.627935
68.945 18.686008
68.950 18.296122
68.955 18.387709
68.960 18.301777
68.965 17.547729
68.970 17.667746
68.975 18.144791
68.980 18.56884
68.985 19.218822
68.990 19.29929
68.995 19.875343
69.000 20.761936
69.005 20.953646
69.010 20.291784
69.015 19.8615
69.020 19.909397
69.025 20.253794
69.030 20.197918
69.035 19.189941
69.040 18.827011
69.045 18.904469
69.050 19.025501
69.055 19.155922
69.060 19.158566
69.065 19.219704
69.070 19.518717
69.075 19.67448
69.080 19.37405
69.085 19.431555
69.090 19.998669
69.095 20.213511
69.100 20.524342
69.105 21.925543
69.110 22.666063
69.115 23.191492
69.120 23.464899
69.125 23.072739
69.130 23.43055
69.135 23.371536
69.140 23.123695
69.145 23.207352
69.150 22.987562
69.155 23.043344
69.160 22.724506
69.165 22.218924
69.170 22.422949
69.175 22.148304
69.180 21.91584
69.185 21.971582
69.190 21.703665
69.195 21.887476
69.200 21.802113
69.205 21.689999
69.210 21.414545
69.215 21.48596
69.220 21.837957
69.225 22.307026
69.230 21.929529
69.235 22.11408
69.240 22.745819
69.245 22.969635
69.250 23.928528
69.255 23.300961
69.260 22.939188
69.265 23.382483
69.270 23.133266
69.275 22.375433
69.280 21.844355
69.285 21.384205
69.290 21.968645
69.295 22.263723
69.300 22.787233
69.305 22.758207
69.310 23.137302
69.315 23.544996
69.320 23.453815
69.325 23.626745
69.330 23.886232
69.335 23.998007
69.340 24.478884
69.345 24.937565
69.350 25.151272
69.355 25.121975
69.360 25.270683
69.365 25.401974
69.370 25.264805
69.375 25.006012
69.380 24.999586
69.385 25.758121
69.390 25.926643
69.395 25.495396
69.400 25.454622
69.405 25.100363
69.410 24.961246
69.415 24.279543
69.420 23.827438
69.425 23.829241
69.430 23.607368
69.435 23.682667
69.440 24.686584
69.445 25.057795
69.450 25.455093
69.455 24.771383
69.460 24.326803
69.465 24.470381
69.470 24.325472
69.475 23.854286
69.480 24.123573
69.485 23.838053
69.490 24.367853
69.495 24.831991
69.500 25.092321
69.505 25.313519
69.510 25.373703
69.515 25.306694
69.520 25.264959
69.525 25.572912
69.530 25.562454
69.535 25.486658
69.540 25.51758
69.545 25.702419
69.550 26.226612
69.555 26.63863
69.560 26.222343
69.565 26.175255
69.570 26.236771
69.575 26.495222
69.580 25.894861
69.585 25.553736
69.590 25.605104
69.595 25.395235
69.600 25.62109
69.605 25.523781
69.610 24.968266
69.615 24.208611
69.620 23.617634
69.625 23.406155
69.630 23.817142
69.635 23.480057
69.640 23.541807
69.645 23.649429
69.650 24.097738
69.655 23.947474
69.660 23.83028
69.665 23.933069
69.670 24.074747
69.675 23.64179
69.680 24.174562
69.685 24.406603
69.690 25.021954
69.695 24.620777
69.700 23.904966
69.705 23.620173
69.710 23.325703
69.715 22.634779
69.720 22.615149
69.725 22.629398
69.730 22.885582
69.735 23.154119
69.740 23.422144
69.745 23.696846
69.750 24.243343
69.755 24.421139
69.760 24.340166
69.765 25.000601
69.770 24.745481
69.775 23.974716
69.780 23.320707
69.785 22.998308
69.790 23.017834
69.795 22.793644
69.800 21.48625
69.805 21.228662
69.810 21.557911
69.815 21.886841
69.820 21.441292
69.825 20.551792
69.830 19.82736
69.835 20.154953
69.840 20.254501
69.845 20.39336
69.850 19.946386
69.855 19.578335
69.860 19.77146
69.865 20.334051
69.870 20.57745
69.875 20.868521
69.880 20.53611
69.885 20.547043
69.890 20.174297
69.895 19.586004
69.900 19.214031
69.905 18.651644
69.910 18.360666
69.915 18.078468
69.920 17.94799
69.925 18.355656
69.930 18.117193
69.935 17.607882
69.940 16.927732
69.945 16.513798
69.950 16.92798
69.955 17.50407
69.960 17.603865
69.965 17.879139
69.970 17.562277
69.975 17.691959
69.980 17.623526
69.985 16.638088
69.990 16.109547
69.995 16.417982
70.000 16.820887
70.005 17.165348
70.010 17.358601
70.015 17.67931
70.020 18.286282
70.025 18.408686
70.030 18.204016
70.035 18.543209
70.040 18.751762
70.045 18.898987
70.050 18.513212
70.055 18.262215
70.060 18.197863
70.065 17.784225
70.070 17.783529
70.075 17.953222
70.080 17.899418
70.085 18.154501
70.090 18.249697
70.095 18.221457
70.100 18.424025
70.105 17.617834
70.110 16.858976
70.115 16.998817
70.120 17.259689
70.125 17.123999
70.130 17.36783
70.135 17.38896
70.140 17.662235
70.145 18.093458
70.150 17.984886
70.155 18.13726
70.160 18.486599
70.165 17.851126
70.170 17.756907
70.175 17.601524
70.180 17.650328
70.185 17.969311
70.190 18.083656
70.195 18.059351
70.200 18.085629
70.205 18.279339
70.210 19.165611
70.215 19.000608
70.220 18.516449
70.225 17.934385
70.230 17.382189
70.235 17.320387
70.240 16.779684
70.245 15.795126
70.250 15.679715
70.255 15.68076
70.260 15.77572
70.265 16.361101
70.270 16.295582
70.275 16.488823
70.280 16.292131
70.285 16.126083
70.290 15.99475
70.295 15.620079
70.300 15.336557
70.305 15.158303
70.310 15.304039
70.315 15.604503
70.320 15.76007
70.325 15.881126
70.330 15.994024
70.335 15.793286
70.340 16.626623
70.345 16.764656
70.350 16.613232
70.355 16.350649
70.360 16.459389
70.365 17.019327
70.370 17.055397
70.375 16.611235
70.380 16.262571
70.385 16.264708
70.390 16.726223
70.395 16.939543
70.400 17.04924
70.405 17.159527
70.410 16.996538
70.415 16.815746
70.420 16.828529
70.425 16.28108
70.430 15.825878
70.435 15.441855
70.440 15.54388
70.445 15.114366
70.450 15.101081
70.455 15.041869
70.460 15.58087
70.465 15.58479
70.470 15.449136
70.475 15.856898
70.480 16.358963
70.485 16.528202
70.490 16.173338
70.495 15.719279
70.500 16.793983
70.505 16.991705
70.510 17.275179
70.515 17.364113
70.520 17.719917
70.525 18.203117
70.530 18.576454
70.535 17.953352
70.540 17.791601
70.545 17.40217
70.550 17.493027
70.555 17.441055
70.560 17.810169
70.565 17.761408
70.570 17.815735
70.575 18.052544
70.580 18.341887
70.585 18.102768
70.590 17.915644
70.595 17.717827
70.600 17.284098
70.605 17.177387
70.610 17.085135
70.615 17.014616
70.620 17.389303
70.625 16.667496
70.630 16.163111
70.635 15.887539
70.640 15.599573
70.645 15.200561
70.650 14.605494
70.655 14.985702
70.660 15.427527
70.665 15.979138
70.670 16.080673
70.675 16.155212
70.680 15.811325
70.685 15.895795
70.690 16.117243
70.695 16.078619
70.700 15.926917
70.705 16.056015
70.710 16.001759
70.715 16.625935
70.720 16.887804
70.725 16.79023
70.730 16.792999
70.735 16.449047
70.740 16.241793
70.745 16.266829
70.750 15.115469
70.755 14.772728
70.760 14.570269
70.765 14.623609
70.770 14.682502
70.775 14.804952
70.780 15.153251
70.785 16.142313
70.790 16.461138
70.795 16.051939
70.800 16.420614
70.805 16.801876
70.810 16.739147
70.815 16.797007
70.820 17.305443
70.825 17.336603
70.830 17.947458
70.835 17.822954
70.840 17.632248
70.845 17.545639
70.850 17.095549
70.855 16.57222
70.860 16.301487
70.865 15.554712
70.870 15.281498
70.875 15.568998
70.880 15.662791
70.885 15.76487
70.890 16.010258
70.895 15.936651
70.900 16.335257
70.905 16.499109
70.910 16.787167
70.915 16.910566
70.920 16.596952
70.925 16.264465
70.930 15.866797
70.935 15.645392
70.940 15.633861
70.945 15.608299
70.950 15.466122
70.955 15.286798
70.960 15.851764
70.965 16.228174
70.970 16.603828
70.975 16.351902
70.980 15.763907
70.985 15.564516
70.990 16.307791
70.995 15.586433
71.000 15.068855
71.005 14.780186
71.010 14.704999
71.015 15.018457
71.020 14.615482
71.025 14.016324
71.030 14.488124
71.035 14.964768
71.040 15.116399
71.045 15.172967
71.050 15.362528
71.055 15.826604
71.060 15.70056
71.065 15.288994
71.070 15.426405
71.075 15.612095
71.080 15.464782
71.085 15.212722
71.090 15.172803
71.095 15.263253
71.100 15.448667
71.105 14.967679
71.110 15.289904
71.115 15.384741
71.120 15.16767
71.125 15.321915
71.130 15.526157
71.135 15.810647
71.140 16.010269
71.145 15.888448
71.150 16.35062
71.155 17.023632
71.160 17.064178
71.165 17.298357
71.170 17.490002
71.175 17.266968
71.180 17.543709
71.185 17.149027
71.190 16.793161
71.195 16.656214
71.200 16.608126
71.205 16.494944
71.210 16.355347
71.215 15.788016
71.220 16.028261
71.225 15.551733
71.230 14.989706
71.235 14.890452
71.240 14.774379
71.245 15.031371
71.250 15.16712
71.255 15.253161
71.260 15.515403
71.265 15.477734
71.270 15.387393
71.275 15.233734
71.280 15.155074
71.285 14.921928
71.290 14.981017
71.295 15.323691
71.300 15.477799
71.305 15.953745
71.310 15.65231
71.315 15.625586
71.320 15.861497
71.325 15.605778
71.330 15.349915
71.335 14.941429
71.340 14.293415
71.345 14.422546
71.350 14.521892
71.355 14.805828
71.360 15.219913
71.365 14.66243
71.370 14.805133
71.375 15.252514
71.380 16.17382
71.385 16.061529
71.390 16.19788
71.395 16.022892
71.400 16.447012
71.405 16.676533
71.410 16.444979
71.415 16.128857
71.420 15.630187
71.425 15.742249
71.430 16.103233
71.435 16.479071
71.440 16.840149
71.445 16.533651
71.450 16.409842
71.455 16.002249
71.460 15.6197
71.465 15.76736
71.470 15.486543
71.475 15.291283
71.480 15.140913
71.485 15.148468
71.490 15.126164
71.495 14.959742
71.500 15.065752
71.505 15.296027
71.510 15.456684
71.515 15.767662
71.520 15.780155
71.525 16.512135
71.530 16.443176
71.535 16.333532
71.540 16.028471
71.545 15.794682
71.550 15.749345
71.555 15.684168
71.560 15.768113
71.565 16.111401
71.570 16.598761
71.575 16.88706
71.580 16.85037
71.585 17.297308
71.590 16.987871
71.595 17.050898
71.600 16.89879
71.605 16.489738
71.610 16.273882
71.615 16.25511
71.620 16.157724
71.625 16.382664
71.630 16.134441
71.635 16.307154
71.640 15.983158
71.645 15.918386
71.650 15.604021
71.655 15.597687
71.660 15.997574
71.665 15.932978
71.670 15.961712
71.675 16.251677
71.680 16.59828
71.685 16.572229
71.690 16.223963
71.695 16.163984
71.700 16.30081
71.705 15.613091
71.710 15.256516
71.715 15.366876
71.720 16.180433
71.725 15.997308
71.730 15.744364
71.735 15.88757
71.740 16.013849
71.745 16.083675
71.750 15.840393
71.755 15.315115
71.760 15.489949
71.765 15.389298
71.770 15.322642
71.775 15.494825
71.780 15.549856
71.785 15.357763
71.790 15.561565
71.795 15.240752
71.800 15.741733
71.805 15.813357
71.810 16.526939
71.815 16.736973
71.820 16.711998
71.825 16.849342
71.830 16.917133
71.835 16.814781
71.840 16.866623
71.845 15.939385
71.850 15.520862
71.855 15.2507
71.860 15.133594
71.865 15.076598
71.870 15.09689
71.875 15.502854
71.880 15.836205
71.885 15.892728
71.890 16.263214
71.895 16.338448
71.900 16.198566
71.905 15.579285
71.910 15.122812
71.915 14.990022
71.920 14.979815
71.925 14.943761
71.930 14.852031
71.935 14.926139
71.940 15.375956
71.945 15.900802
71.950 16.039003
71.955 16.171829
71.960 16.190414
71.965 16.770761
71.970 16.544077
71.975 16.292444
71.980 16.578138
71.985 16.708242
71.990 16.815397
71.995 16.792408
72.000 16.450232
72.005 16.809948
72.010 16.623205
72.015 16.926512
72.020 16.826954
72.025 16.974623
72.030 16.965044
72.035 16.549694
72.040 16.075802
72.045 15.616393
72.050 15.283434
72.055 15.275901
72.060 14.781265
72.065 14.653405
72.070 14.484627
72.075 14.582306
72.080 14.823378
72.085 14.96848
72.090 15.20896
72.095 15.175037
72.100 15.524624
72.105 15.715158
72.110 15.786196
72.115 15.674175
72.120 15.788066
72.125 15.837826
72.130 15.875436
72.135 16.117685
72.140 16.231335
72.145 15.786083
72.150 15.219453
72.155 14.96911
72.160 14.633374
72.165 14.720693
72.170 14.481168
72.175 14.668488
72.180 15.304562
72.185 15.378097
72.190 15.688095
72.195 16.309771
72.200 16.21648
72.205 15.985902
72.210 15.662295
72.215 15.374463
72.220 15.632679
72.225 15.401328
72.230 15.163829
72.235 15.399484
72.240 15.793545
72.245 15.783501
72.250 15.767177
72.255 15.573525
72.260 15.617032
72.265 15.366109
72.270 15.320064
72.275 15.114721
72.280 15.039352
72.285 14.691494
72.290 14.491974
72.295 14.715891
72.300 15.481845
72.305 15.892156
72.310 16.425228
72.315 16.862558
72.320 17.439901
72.325 17.520905
72.330 17.094225
72.335 16.951887
72.340 16.736782
72.345 16.26927
72.350 16.365047
72.355 16.105217
72.360 15.984624
72.365 16.333208
72.370 16.039694
72.375 15.84562
72.380 16.373898
72.385 16.567196
72.390 16.566166
72.395 16.331066
72.400 15.966881
72.405 15.790957
72.410 15.824231
72.415 15.40903
72.420 15.329847
72.425 15.924664
72.430 15.901679
72.435 15.64445
72.440 16.178373
72.445 16.119978
72.450 16.169361
72.455 15.691442
72.460 15.002424
72.465 15.264406
72.470 15.190881
72.475 14.835209
72.480 15.012975
72.485 14.803733
72.490 15.038816
72.495 15.10022
72.500 15.541596
72.505 15.648539
72.510 15.555416
72.515 15.353831
72.520 15.550803
72.525 15.443393
72.530 15.139324
72.535 14.847206
72.540 15.08799
72.545 15.004307
72.550 15.475331
72.555 16.036455
72.560 16.569212
72.565 16.814415
72.570 16.799597
72.575 16.765337
72.580 16.540596
72.585 16.268791
72.590 15.596354
72.595 15.742481
72.600 16.151785
72.605 16.45109
72.610 16.758709
72.615 16.751429
72.620 16.479712
72.625 15.877774
72.630 15.376925
72.635 15.429647
72.640 14.623857
72.645 14.889481
72.650 15.123918
72.655 15.610942
72.660 15.878921
72.665 15.578466
72.670 15.544393
72.675 15.554472
72.680 14.895406
72.685 14.920992
72.690 15.097179
72.695 15.220749
72.700 14.815753
72.705 15.186866
72.710 15.777215
72.715 16.074419
72.720 15.930255
72.725 16.233042
72.730 16.185617
72.735 16.399088
72.740 15.795602
72.745 15.206025
72.750 14.766443
72.755 14.198764
72.760 14.002108
72.765 14.82271
72.770 14.486747
72.775 14.595285
72.780 15.052253
72.785 15.419162
72.790 15.286914
72.795 15.440855
72.800 15.434317
72.805 15.79085
72.810 16.12793
72.815 15.964035
72.820 16.412178
72.825 16.635181
72.830 16.357895
72.835 16.488644
72.840 16.133909
72.845 16.02676
72.850 15.944552
72.855 15.990088
72.860 16.332741
72.865 15.724294
72.870 15.131063
72.875 15.483289
72.880 15.547164
72.885 15.435884
72.890 15.245373
72.895 15.096117
72.900 15.364682
72.905 15.742224
72.910 15.840413
72.915 15.589952
72.920 15.529383
72.925 15.559454
72.930 15.583058
72.935 15.496904
72.940 15.148853
72.945 14.758344
72.950 14.721526
72.955 14.63902
72.960 13.917568
72.965 13.640056
72.970 13.471632
72.975 12.966562
72.980 13.348048
72.985 13.557909
72.990 13.581676
72.995 14.147304
73.000 14.618065
