!@!!GADDS PLOTSO FILE: Chi integration type
!@!!Title/SampleName: map-a2
!@!!Comment: ?
!@!!User: Bruker Instrument Administrator
!@!!Site: University of Illinois Chicago
!@!!Frame: map-a2_01_000.gfrm
!@!!Wavelengths    1.54184   1.54056   1.54439
!@!!Frame angles: 2Theta: 63.000 Omega: 50.000 Phi: 0.000 Chi: 90.000
!@!!Integration range: 2Theta: 53.000 to 73.000  Gamma: -105.000 to -75.000
!@!!Integration method: bin normalized
!@!N
!@!SS
!@!M
!@!L 0.0 0.0 0.0 0.0
!@!XDegrees
!@!YCounts
53.000 9.565986
53.005 9.16464
53.010 8.563911
53.015 8.334547
53.020 8.636856
53.025 8.884981
53.030 9.002987
53.035 8.765515
53.040 8.797562
53.045 9.146277
53.050 9.35105
53.055 9.563535
53.060 9.297123
53.065 9.199022
53.070 9.701587
53.075 9.683781
53.080 9.834109
53.085 9.621424
53.090 9.486689
53.095 9.572266
53.100 9.599988
53.105 9.249988
53.110 9.054964
53.115 9.342614
53.120 9.347451
53.125 9.440637
53.130 9.569151
53.135 9.796466
53.140 9.870704
53.145 9.569716
53.150 9.141239
53.155 9.356293
53.160 9.292777
53.165 9.276665
53.170 9.127284
53.175 8.917319
53.180 8.94376
53.185 8.741387
53.190 8.551629
53.195 8.525278
53.200 8.066785
53.205 8.394448
53.210 8.636341
53.215 8.862446
53.220 9.142659
53.225 9.256531
53.230 9.477026
53.235 10.035774
53.240 9.62121
53.245 9.810849
53.250 10.20732
53.255 10.421016
53.260 10.092242
53.265 9.952373
53.270 9.830729
53.275 10.216125
53.280 10.423568
53.285 10.168554
53.290 10.164848
53.295 11.014389
53.300 10.952312
53.305 10.942392
53.310 10.845718
53.315 10.821862
53.320 10.738249
53.325 10.204461
53.330 10.00546
53.335 10.289213
53.340 10.193439
53.345 9.655484
53.350 9.50964
53.355 9.680691
53.360 9.700863
53.365 9.67348
53.370 9.448906
53.375 9.675105
53.380 9.973127
53.385 9.968002
53.390 9.691379
53.395 9.451627
53.400 9.43864
53.405 9.519309
53.410 9.658521
53.415 9.421985
53.420 10.175735
53.425 10.578846
53.430 11.105835
53.435 10.823629
53.440 10.393819
53.445 10.039006
53.450 9.769734
53.455 9.232063
53.460 9.189105
53.465 9.18352
53.470 9.190505
53.475 9.716884
53.480 10.09708
53.485 9.992746
53.490 9.903442
53.495 9.737392
53.500 9.973864
53.505 10.283405
53.510 10.229103
53.515 10.16483
53.520 9.94845
53.525 9.822837
53.530 9.859922
53.535 9.52692
53.540 9.260352
53.545 9.636392
53.550 9.979305
53.555 10.54173
53.560 10.432643
53.565 10.2142
53.570 10.27952
53.575 10.006304
53.580 9.319832
53.585 9.255893
53.590 9.55885
53.595 10.104878
53.600 10.549184
53.605 11.191668
53.610 11.652464
53.615 11.608529
53.620 11.921489
53.625 11.613931
53.630 11.582417
53.635 11.347301
53.640 10.750217
53.645 10.410303
53.650 10.412943
53.655 10.028201
53.660 9.964721
53.665 9.810615
53.670 9.888405
53.675 10.096547
53.680 10.657718
53.685 11.1077
53.690 11.023491
53.695 11.125263
53.700 11.597006
53.705 12.000115
53.710 12.552992
53.715 12.384212
53.720 12.173556
53.725 12.471572
53.730 12.297236
53.735 11.470633
53.740 10.678938
53.745 9.819018
53.750 9.662903
53.755 9.317884
53.760 8.834974
53.765 8.753136
53.770 9.249072
53.775 9.482607
53.780 9.722771
53.785 9.833927
53.790 9.964366
53.795 10.265971
53.800 10.194446
53.805 10.540971
53.810 10.69318
53.815 10.927136
53.820 11.078373
53.825 10.61142
53.830 10.853299
53.835 10.99826
53.840 10.627172
53.845 10.678918
53.850 10.744757
53.855 10.683482
53.860 10.50999
53.865 10.504185
53.870 10.665719
53.875 10.676042
53.880 10.049239
53.885 9.86867
53.890 10.221155
53.895 10.103094
53.900 9.510775
53.905 8.976741
53.910 9.131467
53.915 9.304559
53.920 9.041546
53.925 8.63659
53.930 9.384267
53.935 9.73065
53.940 9.977048
53.945 9.92194
53.950 9.795322
53.955 10.220047
53.960 10.66278
53.965 10.813762
53.970 10.590924
53.975 10.650967
53.980 10.858214
53.985 10.928279
53.990 10.571856
53.995 10.122314
54.000 9.777982
54.005 9.844952
54.010 9.446324
54.015 9.315681
54.020 9.618517
54.025 10.019446
54.030 9.918349
54.035 9.858958
54.040 9.751026
54.045 9.985425
54.050 10.195751
54.055 9.837537
54.060 9.844096
54.065 10.163653
54.070 10.545506
54.075 11.032444
54.080 11.166502
54.085 11.121929
54.090 11.336197
54.095 11.034202
54.100 11.081564
54.105 10.719176
54.110 10.59591
54.115 10.776775
54.120 11.044208
54.125 11.180689
54.130 10.589504
54.135 10.446274
54.140 10.166309
54.145 9.896741
54.150 9.514714
54.155 8.918905
54.160 9.270306
54.165 9.885435
54.170 9.962882
54.175 10.30444
54.180 10.498077
54.185 10.633601
54.190 10.832195
54.195 10.388988
54.200 10.408621
54.205 10.52058
54.210 10.562699
54.215 10.457108
54.220 10.526644
54.225 10.919608
54.230 11.061458
54.235 11.919354
54.240 12.205065
54.245 12.498188
54.250 12.755527
54.255 13.04194
54.260 13.284955
54.265 12.967031
54.270 12.536633
54.275 12.583552
54.280 12.722121
54.285 12.705022
54.290 12.230948
54.295 11.770111
54.300 12.475125
54.305 12.515524
54.310 12.427727
54.315 12.056366
54.320 12.223509
54.325 12.554795
54.330 12.714929
54.335 12.113996
54.340 11.572867
54.345 10.398393
54.350 10.044305
54.355 9.923018
54.360 9.69827
54.365 9.949526
54.370 10.599508
54.375 10.929008
54.380 11.649054
54.385 11.964043
54.390 12.185189
54.395 12.236516
54.400 11.942414
54.405 11.298575
54.410 11.335155
54.415 11.112585
54.420 10.840641
54.425 10.325309
54.430 9.797113
54.435 9.677521
54.440 9.730493
54.445 10.449663
54.450 10.548918
54.455 10.632536
54.460 11.35359
54.465 12.09775
54.470 12.711268
54.475 12.782549
54.480 12.997293
54.485 13.310021
54.490 13.479127
54.495 13.230739
54.500 12.583565
54.505 12.171335
54.510 11.847605
54.515 11.622215
54.520 11.338356
54.525 10.605636
54.530 10.199173
54.535 10.506771
54.540 11.164967
54.545 11.216563
54.550 11.289701
54.555 11.672369
54.560 12.168193
54.565 12.395472
54.570 12.069604
54.575 11.418247
54.580 11.18114
54.585 11.07129
54.590 10.739842
54.595 10.757171
54.600 10.946879
54.605 10.809296
54.610 10.499795
54.615 10.582179
54.620 10.75455
54.625 10.94959
54.630 11.210977
54.635 11.50955
54.640 11.945242
54.645 12.738626
54.650 12.387883
54.655 12.112413
54.660 11.813048
54.665 11.247169
54.670 10.915154
54.675 11.331971
54.680 10.904024
54.685 11.392426
54.690 11.691175
54.695 11.96351
54.700 12.244539
54.705 12.030238
54.710 11.471569
54.715 11.370366
54.720 10.81209
54.725 10.787083
54.730 10.882142
54.735 11.115322
54.740 11.377377
54.745 11.599676
54.750 12.313337
54.755 12.61117
54.760 12.539264
54.765 12.220461
54.770 12.149939
54.775 12.337592
54.780 11.612306
54.785 11.205348
54.790 11.118814
54.795 11.711049
54.800 11.751521
54.805 11.846976
54.810 11.659213
54.815 11.48107
54.820 11.367203
54.825 11.632777
54.830 11.310357
54.835 11.289555
54.840 10.72859
54.845 10.821815
54.850 11.713075
54.855 11.637267
54.860 11.224872
54.865 11.071804
54.870 11.279769
54.875 11.754769
54.880 11.895424
54.885 11.777779
54.890 12.410613
54.895 12.838131
54.900 13.10453
54.905 13.004781
54.910 12.838941
54.915 12.697149
54.920 12.479788
54.925 11.99293
54.930 11.286736
54.935 10.974597
54.940 10.560446
54.945 10.667405
54.950 11.239717
54.955 11.053073
54.960 11.153915
54.965 11.717723
54.970 11.947341
54.975 12.318391
54.980 11.90139
54.985 11.271799
54.990 11.454023
54.995 11.757131
55.000 11.14492
55.005 11.109708
55.010 10.836292
55.015 10.819058
55.020 10.784629
55.025 10.468381
55.030 10.03084
55.035 10.438761
55.040 10.314569
55.045 10.554114
55.050 11.20998
55.055 11.440458
55.060 11.547184
55.065 11.673446
55.070 11.607532
55.075 11.823153
55.080 12.236416
55.085 11.619012
55.090 11.41711
55.095 11.116912
55.100 10.864833
55.105 11.179105
55.110 10.651273
55.115 10.288037
55.120 10.882598
55.125 11.149446
55.130 11.442651
55.135 11.802724
55.140 11.665857
55.145 11.620165
55.150 11.479554
55.155 10.852259
55.160 11.488307
55.165 11.31601
55.170 10.788786
55.175 10.774097
55.180 11.330961
55.185 11.472984
55.190 11.130096
55.195 10.684932
55.200 10.789239
55.205 10.720589
55.210 10.396075
55.215 9.963058
55.220 9.687646
55.225 10.190132
55.230 10.408646
55.235 10.731876
55.240 11.292829
55.245 11.783437
55.250 11.854784
55.255 11.780447
55.260 11.405538
55.265 11.76179
55.270 12.079438
55.275 11.613495
55.280 11.694001
55.285 12.133529
55.290 12.05223
55.295 11.79212
55.300 10.834909
55.305 10.400013
55.310 10.12524
55.315 9.877909
55.320 10.174205
55.325 10.739883
55.330 11.026045
55.335 11.453306
55.340 11.653312
55.345 11.68533
55.350 11.797791
55.355 11.260188
55.360 10.730007
55.365 10.753551
55.370 10.837999
55.375 10.982133
55.380 11.491163
55.385 11.273889
55.390 11.237629
55.395 11.974716
55.400 11.727942
55.405 11.328444
55.410 11.176413
55.415 11.08407
55.420 11.674672
55.425 11.839265
55.430 11.417522
55.435 11.718863
55.440 12.491516
55.445 13.020611
55.450 12.969455
55.455 12.405626
55.460 12.488853
55.465 13.193562
55.470 13.378129
55.475 12.884331
55.480 12.421926
55.485 13.080159
55.490 13.801982
55.495 13.485826
55.500 12.91007
55.505 12.724597
55.510 12.678907
55.515 12.420111
55.520 11.669098
55.525 11.582064
55.530 11.424356
55.535 11.355391
55.540 11.193632
55.545 11.11921
55.550 10.96149
55.555 11.057147
55.560 10.993187
55.565 10.979445
55.570 11.1546
55.575 11.034288
55.580 11.418531
55.585 11.76287
55.590 11.747562
55.595 12.021093
55.600 12.831982
55.605 13.31405
55.610 13.18391
55.615 13.194486
55.620 13.015603
55.625 12.926466
55.630 12.846799
55.635 12.280292
55.640 12.442649
55.645 12.902022
55.650 12.977935
55.655 12.944703
55.660 12.895801
55.665 13.06479
55.670 13.079024
55.675 12.801584
55.680 12.435931
55.685 12.376494
55.690 12.305561
55.695 12.325924
55.700 12.204252
55.705 12.090872
55.710 11.650009
55.715 11.534866
55.720 11.662039
55.725 11.888414
55.730 11.624892
55.735 11.062274
55.740 10.733782
55.745 11.448942
55.750 11.772583
55.755 11.41409
55.760 10.833251
55.765 10.966608
55.770 11.332743
55.775 11.613446
55.780 11.165155
55.785 11.18223
55.790 11.862745
55.795 12.668599
55.800 12.83714
55.805 12.755318
55.810 12.489991
55.815 12.608659
55.820 12.358216
55.825 12.421427
55.830 12.445634
55.835 12.876596
55.840 13.634016
55.845 13.593966
55.850 13.385509
55.855 13.409119
55.860 13.485567
55.865 13.383174
55.870 13.243526
55.875 12.674273
55.880 12.640881
55.885 12.896764
55.890 12.376546
55.895 11.853624
55.900 11.590114
55.905 11.086509
55.910 11.448963
55.915 11.548293
55.920 11.630964
55.925 12.122988
55.930 12.252174
55.935 12.509345
55.940 13.051287
55.945 13.467759
55.950 13.382676
55.955 13.447577
55.960 13.264576
55.965 12.928292
55.970 12.689093
55.975 12.396031
55.980 12.137418
55.985 12.016803
55.990 11.733339
55.995 12.220927
56.000 12.31938
56.005 11.915586
56.010 12.059952
56.015 12.419838
56.020 12.209146
56.025 11.965499
56.030 11.764312
56.035 12.551952
56.040 13.245625
56.045 12.648141
56.050 12.560531
56.055 12.862595
56.060 13.141149
56.065 12.918204
56.070 12.423867
56.075 12.011705
56.080 12.126259
56.085 12.267633
56.090 11.991259
56.095 11.752191
56.100 11.792061
56.105 12.093483
56.110 12.430537
56.115 12.594239
56.120 12.510557
56.125 12.765805
56.130 12.802092
56.135 12.904714
56.140 12.763617
56.145 12.926769
56.150 12.893528
56.155 12.943705
56.160 12.998116
56.165 13.319636
56.170 13.290386
56.175 13.474039
56.180 12.957927
56.185 12.775248
56.190 12.528633
56.195 11.995953
56.200 11.380301
56.205 11.328022
56.210 11.232469
56.215 11.948293
56.220 11.972176
56.225 12.624382
56.230 13.919263
56.235 14.607063
56.240 14.472792
56.245 14.454442
56.250 14.139532
56.255 14.548226
56.260 14.583516
56.265 13.75569
56.270 13.752193
56.275 14.137867
56.280 14.099679
56.285 13.939809
56.290 14.156921
56.295 14.478932
56.300 14.533483
56.305 14.408148
56.310 14.276373
56.315 14.144448
56.320 13.83162
56.325 13.273981
56.330 13.164855
56.335 12.987116
56.340 12.877725
56.345 13.078121
56.350 13.498088
56.355 13.774036
56.360 13.552343
56.365 13.579491
56.370 13.301639
56.375 12.903246
56.380 12.542543
56.385 12.308178
56.390 12.014632
56.395 11.882293
56.400 11.603469
56.405 11.784797
56.410 12.007833
56.415 12.00412
56.420 12.394218
56.425 12.822872
56.430 12.835546
56.435 12.831006
56.440 12.929977
56.445 13.236431
56.450 13.286708
56.455 13.59367
56.460 13.516315
56.465 13.553252
56.470 13.857387
56.475 14.110502
56.480 14.057011
56.485 13.968663
56.490 14.338641
56.495 14.773172
56.500 14.675637
56.505 14.442773
56.510 14.248222
56.515 13.420226
56.520 13.076323
56.525 12.443205
56.530 11.953532
56.535 12.191932
56.540 12.666405
56.545 12.600128
56.550 13.204856
56.555 13.294809
56.560 13.137656
56.565 13.512699
56.570 13.216885
56.575 12.758434
56.580 13.002781
56.585 13.1831
56.590 13.584774
56.595 13.587838
56.600 13.242854
56.605 13.394263
56.610 14.286864
56.615 14.244168
56.620 14.008427
56.625 13.577807
56.630 13.477278
56.635 13.468291
56.640 12.701746
56.645 12.330447
56.650 12.236152
56.655 12.258566
56.660 12.757067
56.665 12.589913
56.670 12.368411
56.675 12.941155
56.680 12.587934
56.685 12.399176
56.690 12.182673
56.695 12.256939
56.700 13.033587
56.705 13.491384
56.710 13.467736
56.715 14.108848
56.720 14.397266
56.725 14.137998
56.730 13.685198
56.735 13.763587
56.740 13.866041
56.745 13.4044
56.750 13.529578
56.755 13.655178
56.760 14.085222
56.765 14.676059
56.770 14.475105
56.775 14.666877
56.780 15.005535
56.785 14.378507
56.790 14.407337
56.795 14.104171
56.800 13.817142
56.805 14.118848
56.810 13.853189
56.815 13.745214
56.820 14.367491
56.825 13.930788
56.830 13.637246
56.835 13.359895
56.840 12.949217
56.845 13.186496
56.850 13.314929
56.855 13.000314
56.860 13.518064
56.865 14.551929
56.870 14.649682
56.875 14.677212
56.880 14.56536
56.885 14.111662
56.890 14.001942
56.895 13.601044
56.900 12.199138
56.905 12.150235
56.910 12.202035
56.915 12.371161
56.920 12.80619
56.925 13.329673
56.930 13.713871
56.935 14.294843
56.940 14.124834
56.945 13.679398
56.950 13.010516
56.955 12.776318
56.960 13.104529
56.965 13.00237
56.970 12.959957
56.975 13.21003
56.980 13.597101
56.985 14.181817
56.990 14.02063
56.995 13.150232
57.000 12.914311
57.005 13.079691
57.010 13.287177
57.015 13.323275
57.020 12.874437
57.025 12.77263
57.030 13.055537
57.035 13.381336
57.040 13.070396
57.045 12.970081
57.050 12.773713
57.055 13.146815
57.060 13.573428
57.065 13.868209
57.070 14.047439
57.075 13.601051
57.080 13.421579
57.085 13.630729
57.090 13.764442
57.095 13.562645
57.100 13.238845
57.105 13.244998
57.110 14.128442
57.115 14.422118
57.120 14.490045
57.125 14.274564
57.130 14.479233
57.135 14.509426
57.140 14.278969
57.145 14.480233
57.150 14.170452
57.155 13.744371
57.160 13.344939
57.165 12.887903
57.170 13.192509
57.175 13.113396
57.180 12.755276
57.185 12.446484
57.190 12.514022
57.195 13.584439
57.200 13.910707
57.205 13.3556
57.210 13.245814
57.215 13.625981
57.220 14.398786
57.225 14.514538
57.230 13.713098
57.235 13.597253
57.240 14.157026
57.245 14.192328
57.250 13.987903
57.255 13.918989
57.260 14.118239
57.265 14.491426
57.270 14.496865
57.275 14.724459
57.280 14.782212
57.285 14.695211
57.290 14.828578
57.295 14.536777
57.300 14.625189
57.305 14.387338
57.310 13.812557
57.315 13.771171
57.320 13.641539
57.325 13.120642
57.330 13.624483
57.335 13.86189
57.340 14.240725
57.345 14.406149
57.350 14.073025
57.355 14.199935
57.360 14.320359
57.365 13.939983
57.370 13.417004
57.375 13.326909
57.380 13.662507
57.385 14.302191
57.390 14.557868
57.395 14.790811
57.400 15.275505
57.405 15.9444
57.410 16.06609
57.415 16.093027
57.420 15.879804
57.425 15.901304
57.430 15.951638
57.435 15.375657
57.440 14.837188
57.445 14.619558
57.450 14.357682
57.455 14.611446
57.460 14.003648
57.465 13.780474
57.470 13.796871
57.475 13.890117
57.480 13.855716
57.485 13.684113
57.490 13.3243
57.495 13.647895
57.500 14.215013
57.505 14.412679
57.510 14.455721
57.515 14.666962
57.520 14.742131
57.525 15.032894
57.530 14.906161
57.535 14.455809
57.540 14.065206
57.545 14.128704
57.550 13.931422
57.555 14.621883
57.560 14.371083
57.565 14.347465
57.570 14.376234
57.575 14.584664
57.580 14.259909
57.585 14.33145
57.590 14.067715
57.595 14.220659
57.600 14.224309
57.605 14.213029
57.610 14.187724
57.615 14.550673
57.620 14.812089
57.625 15.146116
57.630 15.331889
57.635 15.293201
57.640 15.505275
57.645 15.722969
57.650 15.51911
57.655 15.559559
57.660 14.573182
57.665 14.117455
57.670 13.994414
57.675 13.737973
57.680 13.249829
57.685 13.370755
57.690 12.996016
57.695 13.016258
57.700 13.208138
57.705 13.483553
57.710 14.020015
57.715 14.105047
57.720 13.683546
57.725 13.819243
57.730 13.996943
57.735 14.400852
57.740 14.421741
57.745 14.408181
57.750 14.75493
57.755 15.460194
57.760 15.234766
57.765 15.17415
57.770 14.792706
57.775 14.709481
57.780 15.14749
57.785 15.147675
57.790 15.231134
57.795 15.92575
57.800 15.842595
57.805 15.787205
57.810 15.670263
57.815 15.714498
57.820 15.248772
57.825 14.987731
57.830 14.941549
57.835 14.943316
57.840 14.750158
57.845 14.60055
57.850 14.396378
57.855 14.843452
57.860 14.93355
57.865 14.68655
57.870 14.887877
57.875 15.215141
57.880 15.21429
57.885 15.399661
57.890 15.288631
57.895 15.199901
57.900 14.855323
57.905 14.708404
57.910 14.353719
57.915 14.028296
57.920 13.452037
57.925 13.037334
57.930 13.356387
57.935 13.816236
57.940 14.086287
57.945 14.308363
57.950 14.291231
57.955 14.421005
57.960 14.684175
57.965 14.344676
57.970 14.260288
57.975 13.925576
57.980 13.842779
57.985 13.673559
57.990 13.920098
57.995 14.09512
58.000 14.006589
58.005 13.562256
58.010 13.534159
58.015 13.640827
58.020 13.980158
58.025 13.755735
58.030 13.72742
58.035 13.760551
58.040 14.808894
58.045 14.942328
58.050 15.084849
58.055 15.56005
58.060 15.778974
58.065 15.736272
58.070 15.648011
58.075 15.255384
58.080 15.707915
58.085 15.751666
58.090 15.573627
58.095 15.716193
58.100 16.041174
58.105 16.102575
58.110 15.717344
58.115 15.523605
58.120 15.318559
58.125 14.818831
58.130 14.504733
58.135 14.419021
58.140 14.727733
58.145 15.43476
58.150 15.889441
58.155 16.021706
58.160 16.300966
58.165 16.66049
58.170 16.674597
58.175 16.645142
58.180 16.301464
58.185 15.8815
58.190 16.387819
58.195 16.023907
58.200 16.216148
58.205 16.279821
58.210 16.61132
58.215 16.526915
58.220 16.359787
58.225 16.12995
58.230 16.330746
58.235 16.000502
58.240 15.699713
58.245 15.340888
58.250 14.919259
58.255 14.381527
58.260 13.981592
58.265 13.715398
58.270 13.610422
58.275 13.570628
58.280 13.844646
58.285 14.358932
58.290 14.536584
58.295 14.241766
58.300 13.622041
58.305 13.71549
58.310 14.048917
58.315 13.717222
58.320 13.714358
58.325 13.720928
58.330 14.114764
58.335 14.362584
58.340 14.215091
58.345 13.941014
58.350 14.221614
58.355 13.997191
58.360 14.283515
58.365 14.459901
58.370 14.94894
58.375 15.014586
58.380 14.640741
58.385 14.284214
58.390 14.825868
58.395 14.967267
58.400 15.119153
58.405 14.790684
58.410 14.912977
58.415 15.352087
58.420 15.651608
58.425 15.771877
58.430 15.561035
58.435 15.10038
58.440 15.234632
58.445 15.152207
58.450 15.28757
58.455 15.053071
58.460 14.58
58.465 14.763926
58.470 15.341866
58.475 15.362607
58.480 15.117313
58.485 15.032624
58.490 15.272945
58.495 15.743162
58.500 15.487835
58.505 14.961708
58.510 14.923247
58.515 14.849249
58.520 14.700663
58.525 14.835303
58.530 15.063907
58.535 15.605534
58.540 15.411534
58.545 15.294282
58.550 15.646387
58.555 15.682774
58.560 15.660136
58.565 15.631506
58.570 16.010803
58.575 16.719519
58.580 16.915424
58.585 16.77318
58.590 16.318264
58.595 15.816403
58.600 15.408968
58.605 14.729089
58.610 14.934802
58.615 15.290281
58.620 16.173828
58.625 16.923426
58.630 17.098217
58.635 16.41493
58.640 16.225649
58.645 15.610677
58.650 15.31168
58.655 15.134265
58.660 14.839541
58.665 14.609318
58.670 15.330174
58.675 15.93205
58.680 15.990026
58.685 15.562001
58.690 15.284633
58.695 15.948427
58.700 16.405056
58.705 16.03548
58.710 15.964784
58.715 16.511045
58.720 16.82267
58.725 16.712681
58.730 16.275284
58.735 16.261404
58.740 17.035032
58.745 17.547081
58.750 17.38113
58.755 17.227537
58.760 17.021751
58.765 17.298199
58.770 17.236082
58.775 16.874235
58.780 16.505039
58.785 16.667202
58.790 17.046015
58.795 17.10099
58.800 16.244583
58.805 16.189785
58.810 16.033997
58.815 16.112177
58.820 15.787217
58.825 15.505227
58.830 15.769794
58.835 15.491426
58.840 14.501467
58.845 14.265996
58.850 13.790739
58.855 13.663095
58.860 13.704624
58.865 13.915479
58.870 14.798245
58.875 15.15815
58.880 15.31236
58.885 15.306969
58.890 15.600761
58.895 15.403894
58.900 15.60495
58.905 16.008051
58.910 16.693518
58.915 16.947773
58.920 16.761887
58.925 16.836639
58.930 16.827446
58.935 16.79892
58.940 16.482944
58.945 16.080559
58.950 16.201101
58.955 16.695854
58.960 17.127081
58.965 17.261122
58.970 16.707275
58.975 17.044712
58.980 17.180254
58.985 16.807816
58.990 16.036884
58.995 15.047051
59.000 14.691143
59.005 15.21725
59.010 15.263769
59.015 15.169177
59.020 15.427563
59.025 15.995677
59.030 16.4519
59.035 16.521893
59.040 16.532921
59.045 16.893976
59.050 17.375738
59.055 17.109907
59.060 17.003868
59.065 17.267002
59.070 17.232975
59.075 17.327816
59.080 17.186224
59.085 17.176071
59.090 17.112576
59.095 17.2673
59.100 17.294476
59.105 17.664543
59.110 17.326889
59.115 16.66997
59.120 16.257584
59.125 16.692957
59.130 16.656139
59.135 16.850115
59.140 16.707188
59.145 16.78335
59.150 17.185364
59.155 17.311172
59.160 17.470118
59.165 17.680178
59.170 17.424891
59.175 17.702265
59.180 17.939777
59.185 18.150171
59.190 18.786169
59.195 18.425125
59.200 17.952738
59.205 17.660391
59.210 17.512548
59.215 17.218063
59.220 16.815502
59.225 16.148632
59.230 16.525047
59.235 16.720535
59.240 16.821842
59.245 16.791233
59.250 16.586727
59.255 16.663504
59.260 16.628477
59.265 16.180868
59.270 16.24231
59.275 16.090111
59.280 16.275326
59.285 16.291328
59.290 16.340834
59.295 16.599474
59.300 16.597807
59.305 16.692322
59.310 17.014256
59.315 17.030392
59.320 17.318449
59.325 17.01125
59.330 17.053595
59.335 17.158276
59.340 17.51919
59.345 17.566994
59.350 17.50485
59.355 17.216066
59.360 17.161066
59.365 17.323479
59.370 17.655792
59.375 17.619019
59.380 17.448853
59.385 17.592302
59.390 17.765188
59.395 17.289112
59.400 17.144516
59.405 16.767334
59.410 15.85064
59.415 15.804242
59.420 15.750824
59.425 15.261847
59.430 15.980011
59.435 16.016134
59.440 16.196798
59.445 17.038504
59.450 16.754309
59.455 17.044403
59.460 17.965353
59.465 17.906345
59.470 18.002094
59.475 18.262087
59.480 18.374109
59.485 18.935911
59.490 19.090237
59.495 18.839781
59.500 18.709229
59.505 18.601982
59.510 18.168165
59.515 17.446512
59.520 17.596903
59.525 17.357389
59.530 17.602442
59.535 17.591139
59.540 17.63238
59.545 18.016092
59.550 18.613886
59.555 18.207346
59.560 18.464993
59.565 19.025116
59.570 18.747355
59.575 18.329487
59.580 18.064945
59.585 18.11087
59.590 17.98313
59.595 17.050385
59.600 16.25411
59.605 16.598783
59.610 17.273584
59.615 17.242414
59.620 16.785376
59.625 17.258364
59.630 18.439562
59.635 18.700991
59.640 18.347383
59.645 18.234467
59.650 18.425711
59.655 18.809214
59.660 18.617937
59.665 17.695293
59.670 17.725931
59.675 17.673372
59.680 17.796717
59.685 17.978024
59.690 17.698456
59.695 18.012585
59.700 18.042351
59.705 18.104111
59.710 18.548388
59.715 18.639891
59.720 18.638685
59.725 18.567638
59.730 18.670126
59.735 19.056442
59.740 19.234247
59.745 19.374475
59.750 18.9179
59.755 19.072666
59.760 19.606596
59.765 19.631693
59.770 19.365967
59.775 20.149298
59.780 20.888269
59.785 20.764071
59.790 20.360062
59.795 20.473822
59.800 20.695009
59.805 20.747465
59.810 19.749601
59.815 19.443823
59.820 19.782991
59.825 19.899618
59.830 19.168673
59.835 18.607302
59.840 19.139637
59.845 19.240923
59.850 18.749041
59.855 19.04384
59.860 19.247677
59.865 20.159174
59.870 20.5326
59.875 19.874943
59.880 20.121403
59.885 20.78895
59.890 20.804443
59.895 21.061609
59.900 21.401001
59.905 21.373049
59.910 21.742376
59.915 22.168505
59.920 22.141766
59.925 22.238491
59.930 21.754999
59.935 21.34639
59.940 22.056913
59.945 22.58567
59.950 21.851168
59.955 21.412401
59.960 20.968941
59.965 21.324688
59.970 21.314613
59.975 21.092743
59.980 20.582737
59.985 20.602503
59.990 20.977142
59.995 20.61397
60.000 19.921886
60.005 19.889936
60.010 19.435543
60.015 19.437984
60.020 19.299303
60.025 19.185745
60.030 20.040293
60.035 20.540667
60.040 20.224392
60.045 21.103893
60.050 21.838518
60.055 22.80512
60.060 23.019346
60.065 23.472137
60.070 23.385702
60.075 23.904079
60.080 24.400259
60.085 24.470898
60.090 24.395695
60.095 24.466211
60.100 24.174095
60.105 24.623798
60.110 24.399786
60.115 23.836472
60.120 23.830286
60.125 23.697647
60.130 23.610359
60.135 23.594414
60.140 23.193138
60.145 23.401173
60.150 23.335302
60.155 23.06378
60.160 23.114414
60.165 23.473736
60.170 23.80533
60.175 24.197515
60.180 23.934824
60.185 24.07184
60.190 24.010639
60.195 23.79422
60.200 23.538864
60.205 23.052505
60.210 22.846985
60.215 23.225317
60.220 22.745266
60.225 22.957016
60.230 23.010998
60.235 22.570515
60.240 22.803137
60.245 23.257494
60.250 22.872086
60.255 22.544661
60.260 22.480692
60.265 22.033651
60.270 21.540045
60.275 21.148403
60.280 20.675678
60.285 20.687647
60.290 20.151199
60.295 19.618696
60.300 19.659771
60.305 19.857174
60.310 20.361616
60.315 19.869141
60.320 20.053684
60.325 21.033815
60.330 21.441191
60.335 22.080425
60.340 22.361917
60.345 21.749512
60.350 22.08806
60.355 22.025782
60.360 21.807714
60.365 21.595758
60.370 21.79245
60.375 22.178255
60.380 22.810375
60.385 24.004107
60.390 24.178625
60.395 24.82682
60.400 24.884396
60.405 23.9757
60.410 23.256424
60.415 22.444389
60.420 20.73658
60.425 20.564682
60.430 19.556549
60.435 19.328171
60.440 19.813932
60.445 19.832029
60.450 20.030298
60.455 20.190306
60.460 20.052511
60.465 20.643179
60.470 21.079302
60.475 21.601406
60.480 21.695063
60.485 22.002748
60.490 22.282564
60.495 22.667128
60.500 22.572001
60.505 22.244114
60.510 21.195894
60.515 20.72979
60.520 20.233835
60.525 20.41098
60.530 20.090078
60.535 19.39962
60.540 18.790646
60.545 19.559771
60.550 20.478592
60.555 20.80055
60.560 20.665794
60.565 20.102638
60.570 20.446976
60.575 20.847145
60.580 20.967445
60.585 20.543713
60.590 20.426239
60.595 20.144585
60.600 20.500977
60.605 20.714186
60.610 20.720682
60.615 20.396692
60.620 19.972235
60.625 20.245365
60.630 20.281376
60.635 19.912474
60.640 19.61363
60.645 19.089273
60.650 18.703634
60.655 18.660728
60.660 18.805946
60.665 18.844318
60.670 18.943733
60.675 18.176653
60.680 18.59309
60.685 19.070738
60.690 19.366693
60.695 19.513735
60.700 20.408556
60.705 20.714451
60.710 21.335903
60.715 21.681799
60.720 21.562998
60.725 21.06057
60.730 20.326296
60.735 19.292538
60.740 19.068684
60.745 19.01111
60.750 19.013878
60.755 18.791391
60.760 18.94956
60.765 19.469614
60.770 19.894485
60.775 19.401888
60.780 19.024052
60.785 18.778322
60.790 18.811155
60.795 18.773411
60.800 18.144514
60.805 17.681803
60.810 18.356394
60.815 18.339735
60.820 18.101128
60.825 18.521784
60.830 18.505035
60.835 19.016756
60.840 19.601381
60.845 20.397318
60.850 20.843534
60.855 21.169853
60.860 21.45499
60.865 21.317932
60.870 20.705637
60.875 20.255693
60.880 20.039045
60.885 20.488091
60.890 20.254465
60.895 19.645906
60.900 19.913315
60.905 20.244358
60.910 20.218609
60.915 19.94499
60.920 18.828718
60.925 18.053391
60.930 18.172689
60.935 17.802546
60.940 17.855394
60.945 17.975683
60.950 17.66066
60.955 17.899855
60.960 18.611248
60.965 18.601086
60.970 18.945333
60.975 18.846659
60.980 18.581057
60.985 18.097588
60.990 18.472893
60.995 18.011158
61.000 17.752052
61.005 17.572289
61.010 17.166334
61.015 17.178314
61.020 17.562813
61.025 17.081707
61.030 17.477539
61.035 17.645771
61.040 17.466385
61.045 17.396324
61.050 17.445511
61.055 17.308418
61.060 17.493687
61.065 17.722849
61.070 17.859291
61.075 17.730026
61.080 18.534266
61.085 18.418968
61.090 18.465391
61.095 19.099911
61.100 19.676693
61.105 20.066549
61.110 20.153599
61.115 19.893803
61.120 20.123573
61.125 20.479683
61.130 19.766237
61.135 19.059868
61.140 19.382893
61.145 19.615368
61.150 19.411831
61.155 19.348328
61.160 19.264057
61.165 18.713144
61.170 18.446449
61.175 17.829973
61.180 17.563854
61.185 17.56415
61.190 17.313215
61.195 17.183451
61.200 18.002439
61.205 18.026751
61.210 18.119595
61.215 18.275183
61.220 17.822266
61.225 18.120571
61.230 18.425037
61.235 18.102167
61.240 18.162193
61.245 18.006802
61.250 17.8724
61.255 18.339636
61.260 18.076586
61.265 18.444569
61.270 18.576952
61.275 18.272577
61.280 18.551041
61.285 18.565582
61.290 18.52034
61.295 18.343496
61.300 17.783022
61.305 17.59889
61.310 18.095325
61.315 18.105473
61.320 18.326733
61.325 18.158731
61.330 17.908241
61.335 17.33737
61.340 17.089489
61.345 16.411816
61.350 15.765786
61.355 15.470496
61.360 15.631323
61.365 15.740605
61.370 15.994897
61.375 16.198727
61.380 17.185234
61.385 18.105755
61.390 18.237686
61.395 18.424927
61.400 18.197887
61.405 17.620373
61.410 17.525358
61.415 16.474735
61.420 15.693273
61.425 15.775624
61.430 15.267589
61.435 15.336348
61.440 15.383287
61.445 15.471729
61.450 15.585626
61.455 16.344528
61.460 15.82831
61.465 16.05694
61.470 16.239315
61.475 16.645813
61.480 16.255484
61.485 16.245432
61.490 16.053427
61.495 16.291933
61.500 16.194345
61.505 16.092539
61.510 16.133638
61.515 17.361866
61.520 17.626654
61.525 16.856586
61.530 16.910181
61.535 17.597492
61.540 18.159941
61.545 18.835653
61.550 19.221231
61.555 19.5049
61.560 19.873631
61.565 19.840628
61.570 19.543072
61.575 19.376204
61.580 18.582912
61.585 17.170076
61.590 16.691275
61.595 16.386885
61.600 16.19005
61.605 16.656982
61.610 16.487169
61.615 16.763861
61.620 17.238577
61.625 17.125183
61.630 17.221897
61.635 16.689167
61.640 16.062021
61.645 15.864895
61.650 15.608536
61.655 15.109579
61.660 15.244658
61.665 15.527312
61.670 16.048273
61.675 17.029713
61.680 16.92905
61.685 16.252356
61.690 16.888105
61.695 17.673788
61.700 17.843222
61.705 17.550343
61.710 16.479519
61.715 17.134951
61.720 17.895166
61.725 17.737486
61.730 16.880251
61.735 16.997175
61.740 16.934826
61.745 17.236425
61.750 17.032469
61.755 16.991259
61.760 17.296715
61.765 18.198877
61.770 18.308784
61.775 18.364166
61.780 17.966465
61.785 17.749994
61.790 17.54133
61.795 17.078863
61.800 16.822861
61.805 16.345276
61.810 16.274183
61.815 16.91515
61.820 16.930132
61.825 17.114296
61.830 17.309269
61.835 17.007875
61.840 17.439037
61.845 17.606369
61.850 17.630499
61.855 17.91667
61.860 18.157368
61.865 18.07395
61.870 18.160852
61.875 18.277748
61.880 18.434475
61.885 18.354305
61.890 18.86982
61.895 18.695318
61.900 18.92235
61.905 19.000673
61.910 18.897642
61.915 18.580297
61.920 18.46801
61.925 18.481174
61.930 18.180517
61.935 17.413244
61.940 16.841465
61.945 16.762835
61.950 16.694586
61.955 16.575191
61.960 16.505728
61.965 16.803957
61.970 17.69943
61.975 18.822182
61.980 18.916336
61.985 19.417305
61.990 19.207638
61.995 18.390745
62.000 17.946777
62.005 17.606422
62.010 17.537577
62.015 17.101921
62.020 17.064363
62.025 17.214418
62.030 17.566444
62.035 17.696289
62.040 17.680792
62.045 17.389345
62.050 18.169792
62.055 17.810246
62.060 17.608452
62.065 17.739513
62.070 17.868351
62.075 17.587761
62.080 17.396324
62.085 16.856323
62.090 16.897654
62.095 16.560402
62.100 15.882085
62.105 15.6752
62.110 15.776248
62.115 15.482315
62.120 15.230544
62.125 15.372725
62.130 15.949003
62.135 16.480614
62.140 16.814991
62.145 17.649549
62.150 18.254028
62.155 18.485212
62.160 18.718937
62.165 18.980768
62.170 18.779078
62.175 18.302727
62.180 17.768093
62.185 18.032906
62.190 18.404415
62.195 18.355618
62.200 18.692217
62.205 18.638498
62.210 18.915827
62.215 18.4624
62.220 17.720331
62.225 16.998953
62.230 16.658062
62.235 16.413221
62.240 16.869667
62.245 16.476929
62.250 16.148438
62.255 16.121571
62.260 16.269787
62.265 16.666679
62.270 16.405237
62.275 16.023663
62.280 16.472334
62.285 16.800772
62.290 16.561663
62.295 16.659679
62.300 16.252989
62.305 16.101782
62.310 16.586582
62.315 16.164309
62.320 16.100168
62.325 16.373402
62.330 16.860338
62.335 17.144293
62.340 16.961136
62.345 16.636374
62.350 17.36351
62.355 17.41559
62.360 17.914385
62.365 17.626324
62.370 17.364271
62.375 16.958883
62.380 16.898415
62.385 16.28651
62.390 15.815542
62.395 15.304708
62.400 15.223547
62.405 15.523072
62.410 16.34013
62.415 17.049545
62.420 17.664896
62.425 18.395586
62.430 18.653124
62.435 18.546471
62.440 18.178617
62.445 18.265543
62.450 18.451712
62.455 18.295847
62.460 18.198534
62.465 18.186531
62.470 18.108282
62.475 18.047323
62.480 17.990919
62.485 17.641237
62.490 18.082369
62.495 18.105093
62.500 18.216917
62.505 18.560453
62.510 19.095768
62.515 18.753241
62.520 18.147614
62.525 17.307735
62.530 16.901003
62.535 16.647141
62.540 16.880129
62.545 16.458296
62.550 15.537318
62.555 15.523685
62.560 15.985042
62.565 16.3799
62.570 15.972367
62.575 15.792628
62.580 15.99814
62.585 16.449366
62.590 16.276257
62.595 16.056704
62.600 16.4958
62.605 17.183077
62.610 16.858126
62.615 16.681364
62.620 17.490015
62.625 18.148094
62.630 18.276566
62.635 17.471128
62.640 16.588831
62.645 16.413412
62.650 16.286339
62.655 16.07469
62.660 15.722044
62.665 15.841047
62.670 16.093073
62.675 16.420929
62.680 16.73242
62.685 17.042177
62.690 17.406984
62.695 17.421127
62.700 17.202198
62.705 17.509943
62.710 17.602961
62.715 18.054234
62.720 17.885809
62.725 17.507954
62.730 18.268599
62.735 18.704172
62.740 18.940269
62.745 19.156656
62.750 19.033009
62.755 19.068701
62.760 18.962263
62.765 18.730654
62.770 18.147764
62.775 17.909454
62.780 17.524199
62.785 16.840784
62.790 16.844618
62.795 17.048012
62.800 16.787025
62.805 16.956591
62.810 16.607244
62.815 16.69375
62.820 16.955734
62.825 17.091206
62.830 16.800117
62.835 17.152803
62.840 16.721096
62.845 16.705893
62.850 16.628206
62.855 16.413721
62.860 16.157152
62.865 15.96683
62.870 15.915709
62.875 16.508907
62.880 16.66954
62.885 17.271929
62.890 17.130125
62.895 17.047522
62.900 17.459085
62.905 17.058405
62.910 16.92742
62.915 16.766176
62.920 16.331291
62.925 16.76314
62.930 16.707047
62.935 16.261099
62.940 16.352516
62.945 16.180998
62.950 16.522495
62.955 16.663988
62.960 17.13155
62.965 17.706591
62.970 18.223909
62.975 18.515018
62.980 18.419401
62.985 18.544485
62.990 18.37866
62.995 18.011364
63.000 17.634945
63.005 17.779154
63.010 18.18763
63.015 18.662699
63.020 18.850325
63.025 18.967062
63.030 18.542583
63.035 18.721111
63.040 18.484131
63.045 18.284273
63.050 18.137489
63.055 17.649405
63.060 17.456392
63.065 17.813574
63.070 18.199699
63.075 18.305166
63.080 17.94224
63.085 17.929382
63.090 18.225773
63.095 18.589077
63.100 18.353354
63.105 17.965475
63.110 17.743681
63.115 17.943243
63.120 17.66695
63.125 17.415577
63.130 17.012568
63.135 17.44091
63.140 17.333609
63.145 17.712656
63.150 17.990881
63.155 18.523087
63.160 18.596682
63.165 18.365717
63.170 18.12266
63.175 18.439543
63.180 18.321558
63.185 18.353979
63.190 18.251297
63.195 18.112013
63.200 18.251453
63.205 17.71723
63.210 17.128317
63.215 16.883698
63.220 16.328949
63.225 15.995905
63.230 16.660906
63.235 17.033615
63.240 17.571276
63.245 18.172209
63.250 18.75226
63.255 19.260496
63.260 19.906122
63.265 20.228386
63.270 20.010477
63.275 19.795273
63.280 19.712376
63.285 19.333033
63.290 18.746061
63.295 18.480753
63.300 18.106787
63.305 18.364403
63.310 18.413744
63.315 18.20219
63.320 18.181587
63.325 18.851028
63.330 18.726086
63.335 18.449139
63.340 17.971071
63.345 17.708878
63.350 17.688225
63.355 18.013954
63.360 17.830824
63.365 17.905285
63.370 17.779104
63.375 17.773663
63.380 18.038113
63.385 17.885044
63.390 16.822609
63.395 16.209282
63.400 16.229317
63.405 16.491495
63.410 16.543686
63.415 16.11232
63.420 15.643099
63.425 16.146257
63.430 16.572084
63.435 16.085676
63.440 16.191023
63.445 15.698586
63.450 15.664624
63.455 17.032507
63.460 17.368406
63.465 17.231522
63.470 17.508505
63.475 18.16048
63.480 19.008196
63.485 19.378138
63.490 18.721584
63.495 18.469595
63.500 18.604721
63.505 18.831388
63.510 18.245113
63.515 18.111183
63.520 17.752951
63.525 17.254847
63.530 17.225588
63.535 17.255085
63.540 17.120319
63.545 17.368614
63.550 17.856817
63.555 17.887312
63.560 17.938021
63.565 17.668814
63.570 17.84255
63.575 17.960283
63.580 17.545265
63.585 17.053652
63.590 17.184132
63.595 17.918438
63.600 17.812666
63.605 18.028116
63.610 18.119698
63.615 19.159449
63.620 19.617039
63.625 19.119909
63.630 18.839209
63.635 19.590548
63.640 19.255724
63.645 19.083355
63.650 18.476023
63.655 18.469788
63.660 18.801899
63.665 18.891302
63.670 18.615835
63.675 18.799585
63.680 18.579845
63.685 18.435902
63.690 18.398409
63.695 18.736404
63.700 18.930716
63.705 19.277142
63.710 19.298874
63.715 19.333473
63.720 19.160816
63.725 19.024958
63.730 18.558706
63.735 18.096806
63.740 17.929739
63.745 17.911947
63.750 17.581381
63.755 17.85359
63.760 17.931248
63.765 18.640097
63.770 18.904245
63.775 18.491541
63.780 18.255386
63.785 18.257044
63.790 18.10648
63.795 17.724567
63.800 16.970705
63.805 16.548779
63.810 16.711998
63.815 16.527344
63.820 16.197489
63.825 16.51873
63.830 16.623468
63.835 16.973175
63.840 17.236298
63.845 17.377827
63.850 17.498907
63.855 17.89436
63.860 17.58889
63.865 17.724529
63.870 17.676275
63.875 17.694584
63.880 17.454094
63.885 17.618813
63.890 17.577641
63.895 17.77529
63.900 17.810743
63.905 17.920567
63.910 18.090891
63.915 17.659843
63.920 17.384806
63.925 17.232063
63.930 17.102339
63.935 16.906385
63.940 16.250776
63.945 16.064875
63.950 16.696318
63.955 17.465071
63.960 18.131758
63.965 18.560814
63.970 19.433975
63.975 20.160839
63.980 20.553274
63.985 20.436901
63.990 19.988457
63.995 20.347818
64.000 20.480141
64.005 20.529001
64.010 20.347708
64.015 20.80435
64.020 21.474806
64.025 21.59239
64.030 21.013397
64.035 20.769415
64.040 20.540886
64.045 20.650455
64.050 20.255836
64.055 19.89139
64.060 19.620819
64.065 19.589018
64.070 19.340649
64.075 19.337376
64.080 19.348654
64.085 19.031385
64.090 18.827911
64.095 19.017321
64.100 18.906187
64.105 19.165161
64.110 19.301117
64.115 18.883091
64.120 18.802607
64.125 18.992136
64.130 18.904593
64.135 18.79421
64.140 18.291584
64.145 18.251257
64.150 18.385136
64.155 18.085217
64.160 18.050722
64.165 17.720076
64.170 17.593697
64.175 17.615652
64.180 17.216351
64.185 17.224422
64.190 17.418169
64.195 16.914286
64.200 17.178713
64.205 17.741405
64.210 18.010065
64.215 18.538591
64.220 18.82089
64.225 19.414791
64.230 20.152397
64.235 19.829863
64.240 19.332123
64.245 19.317665
64.250 18.576391
64.255 18.948605
64.260 18.932966
64.265 18.483938
64.270 19.028282
64.275 19.155083
64.280 19.196211
64.285 19.603491
64.290 19.091255
64.295 19.014427
64.300 19.272041
64.305 19.536774
64.310 19.738085
64.315 19.938189
64.320 19.986115
64.325 20.45215
64.330 19.869928
64.335 19.985916
64.340 19.72608
64.345 19.726353
64.350 19.642712
64.355 19.564285
64.360 18.680351
64.365 19.43819
64.370 19.489521
64.375 19.273949
64.380 19.62191
64.385 19.919641
64.390 20.032423
64.395 20.316542
64.400 20.12184
64.405 19.253822
64.410 19.117987
64.415 18.243582
64.420 18.044271
64.425 18.206367
64.430 17.891531
64.435 18.62673
64.440 19.833694
64.445 20.101271
64.450 20.17227
64.455 20.164362
64.460 20.286293
64.465 19.994722
64.470 19.581329
64.475 19.481863
64.480 19.774298
64.485 19.889963
64.490 19.177822
64.495 19.62672
64.500 20.277567
64.505 20.136095
64.510 19.950899
64.515 20.127232
64.520 20.374916
64.525 20.867989
64.530 20.318892
64.535 19.47753
64.540 18.991289
64.545 18.975737
64.550 19.135914
64.555 19.13616
64.560 19.194988
64.565 19.082098
64.570 19.549948
64.575 19.556108
64.580 19.219692
64.585 19.305899
64.590 19.382317
64.595 19.293861
64.600 19.463255
64.605 19.700239
64.610 20.16997
64.615 20.313967
64.620 20.34087
64.625 20.999094
64.630 21.222225
64.635 21.013418
64.640 20.548227
64.645 20.980831
64.650 20.949869
64.655 20.11412
64.660 19.211044
64.665 18.699942
64.670 19.154783
64.675 19.311201
64.680 18.463957
64.685 18.826836
64.690 18.898235
64.695 18.875549
64.700 18.949083
64.705 18.870441
64.710 18.649145
64.715 18.651491
64.720 18.049713
64.725 18.277878
64.730 18.267355
64.735 18.7593
64.740 19.207237
64.745 19.644506
64.750 19.198999
64.755 19.407896
64.760 19.471043
64.765 19.809732
64.770 19.661615
64.775 19.647707
64.780 20.01433
64.785 20.380323
64.790 20.480957
64.795 20.170443
64.800 19.94475
64.805 19.803629
64.810 19.308231
64.815 19.50378
64.820 20.214581
64.825 20.054455
64.830 20.762163
64.835 21.416592
64.840 21.414612
64.845 21.557215
64.850 21.124142
64.855 20.743668
64.860 21.233009
64.865 20.85017
64.870 20.328268
64.875 20.257826
64.880 20.205248
64.885 20.298338
64.890 20.324512
64.895 20.107273
64.900 20.333878
64.905 20.320074
64.910 20.448345
64.915 20.454067
64.920 20.972536
64.925 20.925545
64.930 20.962479
64.935 20.906878
64.940 20.997751
64.945 21.1581
64.950 21.149405
64.955 20.534002
64.960 20.671188
64.965 21.142832
64.970 21.146675
64.975 21.426489
64.980 21.713345
64.985 21.91585
64.990 22.303238
64.995 22.300354
65.000 21.803425
65.005 21.7202
65.010 21.313364
65.015 21.120596
65.020 21.489031
65.025 21.089447
65.030 20.569714
65.035 20.589266
65.040 21.068792
65.045 21.541582
65.050 21.824137
65.055 21.873358
65.060 22.074518
65.065 22.172514
65.070 22.93527
65.075 22.972824
65.080 23.126001
65.085 22.954182
65.090 22.659363
65.095 22.798035
65.100 22.757214
65.105 22.410498
65.110 22.165569
65.115 21.923466
65.120 22.519653
65.125 23.28574
65.130 23.283802
65.135 23.364931
65.140 23.423246
65.145 23.665949
65.150 23.514956
65.155 22.802052
65.160 22.098385
65.165 22.207603
65.170 22.931482
65.175 22.935743
65.180 23.15881
65.185 23.07015
65.190 23.374092
65.195 23.41186
65.200 23.441444
65.205 23.068571
65.210 22.856182
65.215 22.961147
65.220 23.206154
65.225 23.238876
65.230 23.317633
65.235 23.365284
65.240 23.537661
65.245 23.287205
65.250 22.524551
65.255 21.972807
65.260 21.688988
65.265 22.168468
65.270 23.41193
65.275 23.83267
65.280 24.110546
65.285 24.27739
65.290 24.600782
65.295 25.094076
65.300 25.238314
65.305 24.243633
65.310 24.042994
65.315 24.149799
65.320 24.452318
65.325 24.057713
65.330 23.900351
65.335 23.248283
65.340 22.715237
65.345 22.52001
65.350 22.844257
65.355 22.975718
65.360 23.570068
65.365 23.423758
65.370 23.329756
65.375 23.97514
65.380 24.702595
65.385 24.579
65.390 25.013739
65.395 25.50519
65.400 25.760101
65.405 25.739016
65.410 25.258293
65.415 24.542665
65.420 24.457664
65.425 23.882801
65.430 23.713503
65.435 23.944714
65.440 24.493176
65.445 24.793114
65.450 24.613363
65.455 24.442234
65.460 24.656279
65.465 24.131655
65.470 23.678097
65.475 23.834297
65.480 24.026354
65.485 24.518621
65.490 24.87022
65.495 24.685753
65.500 25.185389
65.505 25.722929
65.510 25.874163
65.515 26.159508
65.520 26.253098
65.525 26.550978
65.530 27.147551
65.535 27.715746
65.540 27.887579
65.545 28.373241
65.550 29.230371
65.555 29.727411
65.560 30.661804
65.565 31.332006
65.570 31.698442
65.575 32.443764
65.580 33.104012
65.585 32.851982
65.590 32.389927
65.595 32.243866
65.600 32.032158
65.605 31.321039
65.610 30.392717
65.615 29.819235
65.620 29.754498
65.625 30.06671
65.630 29.274498
65.635 28.352081
65.640 28.647484
65.645 29.921139
65.650 30.312382
65.655 31.103464
65.660 31.961517
65.665 32.655464
65.670 33.182648
65.675 33.640957
65.680 33.962624
65.685 34.81863
65.690 34.739395
65.695 34.014492
65.700 34.291317
65.705 35.174809
65.710 35.177666
65.715 34.094646
65.720 33.6814
65.725 33.884956
65.730 33.727074
65.735 33.602688
65.740 34.179977
65.745 35.110695
65.750 35.525558
65.755 34.968876
65.760 34.6633
65.765 35.602463
65.770 36.232449
65.775 34.799847
65.780 34.149387
65.785 34.279945
65.790 34.984592
65.795 35.790485
65.800 35.731239
65.805 35.486691
65.810 36.315575
65.815 36.31572
65.820 35.615997
65.825 35.157585
65.830 34.683666
65.835 34.126434
65.840 35.361759
65.845 35.870182
65.850 35.503002
65.855 36.278728
65.860 36.533798
65.865 36.715729
65.870 37.123947
65.875 36.469597
65.880 35.795223
65.885 36.096992
65.890 36.337833
65.895 36.31839
65.900 35.817951
65.905 35.834282
65.910 35.548164
65.915 36.239899
65.920 36.793755
65.925 37.113796
65.930 37.399189
65.935 38.322605
65.940 38.220913
65.945 37.998932
65.950 38.100662
65.955 38.67131
65.960 38.625233
65.965 38.861462
65.970 38.284046
65.975 38.207054
65.980 38.905537
65.985 38.47176
65.990 38.096924
65.995 37.81163
66.000 37.915459
66.005 38.696888
66.010 39.672054
66.015 39.974152
66.020 40.287846
66.025 40.134354
66.030 40.33263
66.035 40.083145
66.040 39.742634
66.045 39.561234
66.050 38.625252
66.055 38.356148
66.060 39.256519
66.065 39.4086
66.070 39.512699
66.075 39.071625
66.080 38.373436
66.085 38.874146
66.090 39.332832
66.095 39.23008
66.100 39.315109
66.105 38.571316
66.110 38.629364
66.115 38.300354
66.120 37.855663
66.125 37.3564
66.130 36.100842
66.135 35.878181
66.140 36.43478
66.145 36.733208
66.150 37.387566
66.155 37.409222
66.160 37.729206
66.165 37.91399
66.170 37.599594
66.175 37.557133
66.180 37.304417
66.185 36.815769
66.190 36.701637
66.195 36.679756
66.200 37.092625
66.205 37.258247
66.210 36.92947
66.215 37.442448
66.220 37.25956
66.225 36.878098
66.230 36.097191
66.235 35.301964
66.240 35.582611
66.245 36.335754
66.250 35.832157
66.255 35.689182
66.260 35.63121
66.265 35.285191
66.270 35.191151
66.275 35.027485
66.280 33.466518
66.285 33.557838
66.290 33.680187
66.295 33.545731
66.300 34.451584
66.305 34.672089
66.310 34.210938
66.315 34.071091
66.320 33.211124
66.325 32.74419
66.330 33.118622
66.335 32.802452
66.340 31.81455
66.345 31.030058
66.350 30.986387
66.355 30.897293
66.360 30.507664
66.365 29.638052
66.370 28.966095
66.375 29.071909
66.380 28.388325
66.385 27.815054
66.390 28.45787
66.395 29.286339
66.400 29.54402
66.405 29.349401
66.410 29.490076
66.415 30.341728
66.420 31.237629
66.425 30.819536
66.430 30.172293
66.435 29.912666
66.440 29.855474
66.445 29.49859
66.450 29.962948
66.455 30.094154
66.460 30.197712
66.465 30.513264
66.470 30.300524
66.475 30.353994
66.480 30.947893
66.485 30.045082
66.490 29.58535
66.495 29.827209
66.500 29.536953
66.505 29.575377
66.510 29.529991
66.515 29.137463
66.520 28.44586
66.525 28.022236
66.530 27.044947
66.535 26.559395
66.540 26.670256
66.545 26.849791
66.550 26.648159
66.555 27.211361
66.560 27.384525
66.565 27.32041
66.570 27.358599
66.575 26.743853
66.580 25.878452
66.585 25.59647
66.590 25.37722
66.595 25.231798
66.600 26.065235
66.605 26.547878
66.610 26.838957
66.615 27.126871
66.620 26.921314
66.625 27.356384
66.630 27.063547
66.635 26.746176
66.640 26.636076
66.645 26.687769
66.650 27.258675
66.655 26.898281
66.660 26.578781
66.665 26.407173
66.670 26.242861
66.675 26.244562
66.680 25.851912
66.685 25.444073
66.690 25.930523
66.695 26.095966
66.700 26.093172
66.705 26.091185
66.710 25.967272
66.715 25.764044
66.720 26.046366
66.725 25.674936
66.730 24.522541
66.735 24.35088
66.740 23.875183
66.745 23.354097
66.750 23.725941
66.755 23.776857
66.760 23.989891
66.765 24.653948
66.770 24.613266
66.775 25.102819
66.780 25.696619
66.785 25.032394
66.790 24.678593
66.795 24.746254
66.800 24.947399
66.805 24.807844
66.810 24.307178
66.815 23.787607
66.820 23.669817
66.825 23.674799
66.830 23.540287
66.835 22.683481
66.840 22.656288
66.845 22.470259
66.850 22.289114
66.855 21.64319
66.860 22.285791
66.865 22.653467
66.870 22.884171
66.875 23.097042
66.880 23.347532
66.885 24.051987
66.890 24.508053
66.895 23.501163
66.900 23.146975
66.905 22.794775
66.910 22.463869
66.915 22.066139
66.920 22.27515
66.925 22.797642
66.930 23.315943
66.935 23.154615
66.940 23.467386
66.945 23.464945
66.950 24.105591
66.955 23.452131
66.960 22.927744
66.965 22.792461
66.970 23.070408
66.975 23.821135
66.980 24.074448
66.985 23.870783
66.990 23.907124
66.995 23.7896
67.000 23.459766
67.005 23.930374
67.010 23.872494
67.015 23.426672
67.020 23.062326
67.025 23.17123
67.030 23.344969
67.035 22.792681
67.040 21.540075
67.045 20.864405
67.050 21.029047
67.055 20.930277
67.060 20.853886
67.065 20.533236
67.070 20.937769
67.075 21.715435
67.080 22.43792
67.085 22.315159
67.090 22.42766
67.095 22.372805
67.100 22.852703
67.105 22.841587
67.110 22.480103
67.115 22.510014
67.120 23.040707
67.125 22.941795
67.130 22.910246
67.135 22.615469
67.140 22.696239
67.145 22.604803
67.150 21.758446
67.155 21.459284
67.160 21.613848
67.165 21.665121
67.170 21.786198
67.175 21.184477
67.180 21.542242
67.185 21.88006
67.190 21.878931
67.195 21.994856
67.200 21.864285
67.205 21.710941
67.210 22.58206
67.215 22.793442
67.220 23.090103
67.225 23.081484
67.230 22.450552
67.235 22.639231
67.240 22.02396
67.245 20.900816
67.250 20.193146
67.255 19.73613
67.260 20.024693
67.265 20.475714
67.270 20.765583
67.275 21.481398
67.280 21.876846
67.285 22.075293
67.290 21.958189
67.295 21.767252
67.300 21.641546
67.305 21.687109
67.310 21.622026
67.315 21.643528
67.320 22.017965
67.325 22.475224
67.330 22.89225
67.335 22.788418
67.340 22.915838
67.345 23.053431
67.350 23.633507
67.355 23.600651
67.360 22.982304
67.365 22.567835
67.370 22.731537
67.375 22.756895
67.380 22.309488
67.385 21.837563
67.390 21.389658
67.395 21.810112
67.400 21.853186
67.405 21.38422
67.410 21.445545
67.415 21.592743
67.420 21.220472
67.425 20.839426
67.430 20.302933
67.435 20.249805
67.440 20.498558
67.445 20.689434
67.450 20.59556
67.455 21.227804
67.460 21.654091
67.465 22.223722
67.470 22.547634
67.475 22.520548
67.480 21.767378
67.485 21.457207
67.490 20.976568
67.495 20.962128
67.500 20.331619
67.505 19.481119
67.510 19.45137
67.515 20.344763
67.520 20.823061
67.525 20.911634
67.530 20.829208
67.535 21.680691
67.540 21.727076
67.545 21.790613
67.550 21.708546
67.555 21.854382
67.560 21.236193
67.565 21.33152
67.570 21.191324
67.575 21.31978
67.580 20.868492
67.585 21.021988
67.590 21.409399
67.595 22.106642
67.600 22.368988
67.605 22.631845
67.610 22.880033
67.615 22.698627
67.620 22.191154
67.625 21.951693
67.630 21.471601
67.635 21.182333
67.640 20.881903
67.645 21.129208
67.650 21.362755
67.655 20.964354
67.660 21.155592
67.665 21.403761
67.670 20.668493
67.675 20.403172
67.680 19.838709
67.685 19.732914
67.690 20.055946
67.695 19.855246
67.700 20.679598
67.705 21.798298
67.710 21.964931
67.715 22.387684
67.720 22.823784
67.725 23.356403
67.730 23.116474
67.735 23.014776
67.740 22.591581
67.745 22.488274
67.750 22.730183
67.755 23.013916
67.760 22.966942
67.765 22.960045
67.770 22.684809
67.775 22.614155
67.780 22.632524
67.785 21.893505
67.790 20.881407
67.795 20.710209
67.800 20.801607
67.805 20.385273
67.810 20.030956
67.815 20.135098
67.820 20.230103
67.825 20.142046
67.830 20.285416
67.835 20.657148
67.840 21.103884
67.845 21.661055
67.850 21.822952
67.855 22.716742
67.860 22.893803
67.865 22.690498
67.870 22.557602
67.875 22.291632
67.880 22.369827
67.885 22.343321
67.890 21.503593
67.895 21.568649
67.900 21.449186
67.905 21.025951
67.910 20.502806
67.915 19.829815
67.920 19.412338
67.925 19.729458
67.930 19.449297
67.935 19.196632
67.940 19.458183
67.945 19.776468
67.950 20.322813
67.955 20.405161
67.960 19.977757
67.965 20.221296
67.970 20.036037
67.975 19.983267
67.980 19.546047
67.985 19.379631
67.990 19.353081
67.995 19.238543
68.000 19.06484
68.005 18.753132
68.010 19.059868
68.015 19.768679
68.020 20.025429
68.025 20.174955
68.030 20.854338
68.035 20.972668
68.040 21.01367
68.045 20.84234
68.050 20.559372
68.055 20.74708
68.060 20.880262
68.065 20.692678
68.070 21.004776
68.075 21.041634
68.080 21.091385
68.085 21.72364
68.090 21.555309
68.095 21.967422
68.100 21.724409
68.105 21.706964
68.110 21.795315
68.115 21.840179
68.120 21.18569
68.125 21.057365
68.130 21.067644
68.135 20.933748
68.140 21.176241
68.145 21.409969
68.150 21.231956
68.155 21.39134
68.160 21.771494
68.165 21.426546
68.170 21.360561
68.175 21.314169
68.180 21.10688
68.185 21.13232
68.190 20.813601
68.195 20.368446
68.200 20.283566
68.205 20.418509
68.210 20.098339
68.215 20.36307
68.220 20.966801
68.225 21.242104
68.230 21.530308
68.235 21.969877
68.240 21.711649
68.245 21.681553
68.250 21.594749
68.255 20.810005
68.260 20.744461
68.265 21.038166
68.270 21.070887
68.275 21.09413
68.280 21.452112
68.285 21.877939
68.290 22.385553
68.295 21.826088
68.300 21.178307
68.305 21.173492
68.310 21.586803
68.315 21.613373
68.320 21.116316
68.325 20.917568
68.330 21.751535
68.335 21.846737
68.340 21.813076
68.345 21.744812
68.350 21.856791
68.355 21.856516
68.360 21.545572
68.365 21.679066
68.370 21.951237
68.375 22.3221
68.380 22.385035
68.385 21.674566
68.390 21.624748
68.395 22.200003
68.400 21.461
68.405 20.828447
68.410 20.567009
68.415 20.125294
68.420 20.633257
68.425 20.885408
68.430 20.776384
68.435 21.035866
68.440 21.396223
68.445 21.513245
68.450 22.297588
68.455 22.733751
68.460 22.604851
68.465 22.787855
68.470 23.120848
68.475 22.755682
68.480 22.697975
68.485 22.137075
68.490 21.980129
68.495 21.786501
68.500 21.663698
68.505 21.522242
68.510 22.048943
68.515 21.859907
68.520 21.283247
68.525 20.858469
68.530 20.920181
68.535 20.899189
68.540 20.884104
68.545 20.498297
68.550 20.462366
68.555 20.840416
68.560 21.083624
68.565 21.064785
68.570 21.229326
68.575 21.563822
68.580 21.72271
68.585 22.353706
68.590 22.945662
68.595 22.96591
68.600 23.268509
68.605 22.956743
68.610 22.923267
68.615 23.104242
68.620 22.621359
68.625 22.670225
68.630 22.886065
68.635 22.898537
68.640 23.28912
68.645 23.205822
68.650 22.712185
68.655 22.832952
68.660 22.622974
68.665 22.01013
68.670 21.600319
68.675 21.496416
68.680 21.64456
68.685 21.532158
68.690 21.101166
68.695 21.299726
68.700 21.285666
68.705 21.339355
68.710 21.822514
68.715 21.972324
68.720 22.211943
68.725 22.622988
68.730 22.394337
68.735 22.306892
68.740 22.190208
68.745 21.612667
68.750 22.038897
68.755 22.258245
68.760 22.501463
68.765 23.438612
68.770 24.043594
68.775 24.182959
68.780 24.274918
68.785 23.752644
68.790 23.760342
68.795 23.59059
68.800 23.045782
68.805 22.251017
68.810 21.805658
68.815 21.555889
68.820 22.238617
68.825 21.851837
68.830 21.36787
68.835 21.174732
68.840 22.137226
68.845 22.91946
68.850 23.269642
68.855 23.267736
68.860 23.114525
68.865 23.687752
68.870 24.042294
68.875 23.66275
68.880 23.812817
68.885 23.901251
68.890 24.340708
68.895 24.891287
68.900 25.408678
68.905 25.875048
68.910 26.619108
68.915 26.367085
68.920 26.164576
68.925 25.684641
68.930 25.028807
68.935 24.823315
68.940 24.780098
68.945 24.11253
68.950 24.123375
68.955 24.38887
68.960 24.527607
68.965 25.089851
68.970 24.947067
68.975 24.833237
68.980 24.779194
68.985 24.474617
68.990 24.68375
68.995 24.909798
69.000 24.96805
69.005 25.267134
69.010 24.889435
69.015 24.887373
69.020 24.899864
69.025 24.590981
69.030 24.757444
69.035 24.70295
69.040 23.833046
69.045 24.168406
69.050 24.697424
69.055 24.946671
69.060 24.707821
69.065 24.042927
69.070 23.340628
69.075 23.7267
69.080 24.070797
69.085 24.004839
69.090 23.852453
69.095 24.185041
69.100 25.124699
69.105 26.403049
69.110 26.841974
69.115 26.850971
69.120 26.918236
69.125 26.715544
69.130 26.320032
69.135 25.633068
69.140 26.387728
69.145 26.073055
69.150 25.433285
69.155 25.518225
69.160 25.118864
69.165 25.436672
69.170 26.256485
69.175 25.866947
69.180 26.574846
69.185 27.233625
69.190 27.095798
69.195 27.852667
69.200 27.530716
69.205 27.360758
69.210 26.900625
69.215 25.71707
69.220 24.983019
69.225 24.799656
69.230 24.922054
69.235 25.209906
69.240 24.918577
69.245 25.522856
69.250 26.105684
69.255 26.800632
69.260 27.655416
69.265 28.279455
69.270 28.268209
69.275 28.693485
69.280 28.53647
69.285 29.380136
69.290 29.635269
69.295 28.814402
69.300 28.493742
69.305 28.456318
69.310 28.673529
69.315 28.944048
69.320 28.522671
69.325 28.644764
69.330 28.988386
69.335 28.24025
69.340 28.58012
69.345 28.736341
69.350 29.220207
69.355 29.396412
69.360 29.025526
69.365 28.589174
69.370 29.229921
69.375 29.333006
69.380 28.564919
69.385 28.436363
69.390 28.194696
69.395 28.953741
69.400 29.117603
69.405 28.812647
69.410 27.986794
69.415 27.559418
69.420 27.074757
69.425 27.142073
69.430 27.116514
69.435 27.743956
69.440 28.130308
69.445 28.346226
69.450 29.187109
69.455 29.160097
69.460 28.967131
69.465 28.991892
69.470 28.913374
69.475 29.236355
69.480 29.738768
69.485 30.354971
69.490 30.880157
69.495 31.000967
69.500 31.097208
69.505 31.485392
69.510 30.761541
69.515 30.05921
69.520 29.807901
69.525 28.961273
69.530 28.599457
69.535 28.33322
69.540 28.343733
69.545 29.381073
69.550 30.112951
69.555 30.042171
69.560 30.560921
69.565 31.453186
69.570 31.897429
69.575 31.574774
69.580 30.862034
69.585 30.692984
69.590 30.487473
69.595 30.262007
69.600 30.278942
69.605 29.843681
69.610 29.748489
69.615 29.486332
69.620 29.149574
69.625 29.607704
69.630 29.727823
69.635 29.817608
69.640 30.206278
69.645 30.389566
69.650 30.498924
69.655 30.273142
69.660 30.456566
69.665 30.060389
69.670 29.296734
69.675 29.209473
69.680 29.772697
69.685 29.647053
69.690 29.048277
69.695 28.814867
69.700 28.805014
69.705 29.469456
69.710 28.797316
69.715 28.499277
69.720 28.884554
69.725 29.699924
69.730 30.516449
69.735 30.918299
69.740 30.486666
69.745 30.747196
69.750 30.417101
69.755 30.109068
69.760 29.743711
69.765 28.784052
69.770 28.647768
69.775 28.010765
69.780 27.363512
69.785 27.241474
69.790 26.205704
69.795 25.603794
69.800 25.42708
69.805 24.469265
69.810 25.150209
69.815 25.3657
69.820 25.570066
69.825 26.164389
69.830 26.643072
69.835 26.335009
69.840 26.420502
69.845 26.448898
69.850 26.209091
69.855 25.660398
69.860 25.273643
69.865 24.965847
69.870 24.744694
69.875 24.153645
69.880 23.340004
69.885 23.440287
69.890 23.567936
69.895 22.791046
69.900 22.560165
69.905 22.395651
69.910 22.483034
69.915 22.893345
69.920 22.690723
69.925 22.808285
69.930 23.44031
69.935 23.930918
69.940 24.221256
69.945 24.530767
69.950 24.241653
69.955 24.730684
69.960 24.449472
69.965 24.17663
69.970 24.200628
69.975 24.470795
69.980 24.37326
69.985 24.194149
69.990 23.858665
69.995 23.366339
70.000 23.603006
70.005 22.835182
70.010 22.334402
70.015 21.913347
70.020 21.810041
70.025 21.796476
70.030 21.94976
70.035 22.049559
70.040 22.208714
70.045 21.91037
70.050 22.176357
70.055 22.308388
70.060 22.415495
70.065 21.976692
70.070 21.911419
70.075 21.668533
70.080 22.12414
70.085 21.70878
70.090 21.660389
70.095 21.614933
70.100 21.70063
70.105 20.965681
70.110 20.908966
70.115 21.375816
70.120 21.79903
70.125 21.900055
70.130 22.165567
70.135 22.533022
70.140 22.801497
70.145 22.934628
70.150 22.892122
70.155 22.528646
70.160 22.187197
70.165 21.920916
70.170 21.207626
70.175 20.560562
70.180 19.554502
70.185 18.720972
70.190 18.514721
70.195 18.220537
70.200 17.862295
70.205 18.307943
70.210 18.510321
70.215 18.970493
70.220 19.17201
70.225 19.142576
70.230 19.330881
70.235 19.046144
70.240 19.172361
70.245 19.386251
70.250 19.514725
70.255 19.935524
70.260 19.777016
70.265 20.067484
70.270 20.339537
70.275 20.611637
70.280 20.951927
70.285 21.210945
70.290 20.72966
70.295 20.473568
70.300 20.14064
70.305 20.235579
70.310 20.320377
70.315 20.295727
70.320 20.061829
70.325 20.014723
70.330 20.246038
70.335 20.190594
70.340 19.479544
70.345 19.634663
70.350 19.336563
70.355 19.215485
70.360 19.084204
70.365 19.18092
70.370 19.433243
70.375 19.560066
70.380 19.298729
70.385 19.1448
70.390 19.144142
70.395 19.361666
70.400 19.375849
70.405 19.412384
70.410 18.872875
70.415 18.420391
70.420 18.244133
70.425 18.097321
70.430 17.914652
70.435 18.260744
70.440 18.299093
70.445 18.829748
70.450 18.865637
70.455 18.947834
70.460 18.758205
70.465 18.526886
70.470 18.497282
70.475 18.470943
70.480 18.353645
70.485 18.566048
70.490 19.093336
70.495 19.662971
70.500 19.921543
70.505 19.800407
70.510 19.960392
70.515 20.593901
70.520 20.860222
70.525 21.121702
70.530 20.975599
70.535 20.900341
70.540 21.068008
70.545 20.562901
70.550 20.231173
70.555 19.676533
70.560 19.260736
70.565 19.622717
70.570 19.759315
70.575 19.437571
70.580 19.137075
70.585 18.566753
70.590 18.630167
70.595 17.476019
70.600 16.818411
70.605 16.537136
70.610 17.196798
70.615 17.830618
70.620 18.046856
70.625 17.96007
70.630 18.215849
70.635 17.62005
70.640 17.41197
70.645 17.260899
70.650 17.697309
70.655 17.872755
70.660 18.900606
70.665 19.570726
70.670 20.498253
70.675 20.746424
70.680 20.348007
70.685 20.052567
70.690 20.401155
70.695 20.359396
70.700 19.942825
70.705 19.986237
70.710 20.042479
70.715 20.424227
70.720 20.624269
70.725 20.037548
70.730 19.942595
70.735 20.269268
70.740 19.636898
70.745 18.649401
70.750 18.297401
70.755 18.142485
70.760 18.947163
70.765 19.306721
70.770 19.380112
70.775 20.177818
70.780 20.592783
70.785 20.298384
70.790 20.224194
70.795 20.232351
70.800 20.442406
70.805 20.393076
70.810 20.500999
70.815 20.918764
70.820 21.192762
70.825 21.014185
70.830 20.282555
70.835 19.97225
70.840 19.734541
70.845 19.520185
70.850 19.999994
70.855 19.656204
70.860 19.425772
70.865 19.335197
70.870 19.365631
70.875 19.735106
70.880 19.072481
70.885 18.483564
70.890 19.131998
70.895 18.650408
70.900 17.898878
70.905 17.853168
70.910 17.893057
70.915 18.363152
70.920 18.39119
70.925 18.552032
70.930 19.330667
70.935 19.891586
70.940 20.214016
70.945 20.264082
70.950 20.322643
70.955 20.158772
70.960 19.899935
70.965 20.126131
70.970 20.299871
70.975 19.932053
70.980 20.086174
70.985 20.088528
70.990 20.244841
70.995 20.205189
71.000 19.831158
71.005 19.700237
71.010 19.980421
71.015 19.918385
71.020 19.76981
71.025 19.42235
71.030 19.17544
71.035 18.806879
71.040 19.006292
71.045 19.012636
71.050 18.991787
71.055 19.366453
71.060 19.956181
71.065 19.634266
71.070 19.798565
71.075 18.862328
71.080 18.722971
71.085 18.694927
71.090 18.181118
71.095 18.031017
71.100 17.912283
71.105 17.915388
71.110 18.190825
71.115 18.013042
71.120 18.288551
71.125 18.038813
71.130 17.895945
71.135 18.669123
71.140 18.587091
71.145 18.285608
71.150 17.558876
71.155 17.698591
71.160 17.794073
71.165 18.253021
71.170 18.240065
71.175 18.16004
71.180 18.5306
71.185 19.164907
71.190 18.868515
71.195 18.809624
71.200 18.32773
71.205 18.347866
71.210 18.686565
71.215 18.549845
71.220 17.682188
71.225 18.000963
71.230 18.405075
71.235 18.297596
71.240 17.992203
71.245 17.861622
71.250 19.109472
71.255 19.651016
71.260 19.440605
71.265 19.949011
71.270 20.61108
71.275 20.834204
71.280 21.004457
71.285 20.710934
71.290 20.871031
71.295 21.678843
71.300 20.654581
71.305 20.239723
71.310 20.330444
71.315 19.42234
71.320 18.982521
71.325 18.929283
71.330 18.797634
71.335 19.948095
71.340 19.938484
71.345 20.449917
71.350 20.723763
71.355 20.660282
71.360 20.212805
71.365 19.524277
71.370 19.042231
71.375 19.353262
71.380 19.039827
71.385 19.233553
71.390 19.395407
71.395 19.834896
71.400 20.080303
71.405 19.844812
71.410 20.00544
71.415 19.872143
71.420 19.989344
71.425 20.139151
71.430 20.206444
71.435 20.560545
71.440 20.385397
71.445 19.856777
71.450 19.573561
71.455 19.387672
71.460 19.244984
71.465 18.957151
71.470 19.482452
71.475 18.919889
71.480 19.003332
71.485 19.459711
71.490 18.800083
71.495 18.160219
71.500 17.697006
71.505 17.019197
71.510 17.804697
71.515 18.138378
71.520 17.936312
71.525 18.163799
71.530 18.305309
71.535 19.086597
71.540 19.558233
71.545 19.299606
71.550 18.867495
71.555 18.383924
71.560 18.792503
71.565 18.351692
71.570 17.986021
71.575 17.908634
71.580 17.779867
71.585 18.5917
71.590 19.776035
71.595 19.771463
71.600 19.983248
71.605 19.887381
71.610 19.995358
71.615 19.846968
71.620 19.50634
71.625 19.094213
71.630 19.532944
71.635 20.00775
71.640 20.608103
71.645 20.66131
71.650 20.933987
71.655 21.074848
71.660 20.846476
71.665 20.463102
71.670 20.024679
71.675 19.24399
71.680 19.78142
71.685 20.031986
71.690 19.97031
71.695 20.374754
71.700 20.603437
71.705 19.880754
71.710 19.384476
71.715 19.168322
71.720 19.156366
71.725 18.614784
71.730 18.552977
71.735 18.41017
71.740 19.222845
71.745 19.924181
71.750 20.470608
71.755 20.608839
71.760 20.676048
71.765 20.115839
71.770 20.460354
71.775 20.434643
71.780 19.676233
71.785 18.990042
71.790 18.494656
71.795 18.879442
71.800 19.198879
71.805 18.870823
71.810 18.70998
71.815 18.381067
71.820 17.914133
71.825 18.116436
71.830 17.805393
71.835 17.837406
71.840 17.681236
71.845 17.700506
71.850 17.637247
71.855 17.994785
71.860 18.537472
71.865 19.135448
71.870 19.547209
71.875 20.215027
71.880 20.609995
71.885 20.965399
71.890 20.635462
71.895 20.463274
71.900 19.921223
71.905 19.553148
71.910 19.714357
71.915 19.823645
71.920 19.611942
71.925 19.88312
71.930 19.917324
71.935 19.905478
71.940 19.45883
71.945 18.448469
71.950 18.477833
71.955 18.265112
71.960 17.984615
71.965 17.695862
71.970 17.582228
71.975 17.72629
71.980 17.96863
71.985 17.877934
71.990 18.142248
71.995 18.452982
72.000 18.724798
72.005 19.309828
72.010 19.252451
72.015 19.454735
72.020 19.505697
72.025 19.236811
72.030 18.879715
72.035 18.833883
72.040 18.590612
72.045 18.326351
72.050 18.224483
72.055 18.429522
72.060 19.169653
72.065 19.0709
72.070 19.081774
72.075 19.331966
72.080 19.301332
72.085 19.464748
72.090 19.465065
72.095 19.202526
72.100 19.397654
72.105 19.417704
72.110 19.447874
72.115 19.893261
72.120 19.451059
72.125 18.99074
72.130 18.556753
72.135 18.62071
72.140 18.421667
72.145 17.938889
72.150 17.425924
72.155 17.128384
72.160 17.283987
72.165 17.539036
72.170 17.538977
72.175 17.947126
72.180 18.67284
72.185 19.207935
72.190 19.765818
72.195 19.27013
72.200 19.349773
72.205 19.507784
72.210 19.333138
72.215 18.441467
72.220 18.093149
72.225 17.733038
72.230 17.901369
72.235 17.56168
72.240 17.496956
72.245 17.793793
72.250 18.003393
72.255 18.106926
72.260 18.723656
72.265 19.085833
72.270 18.968885
72.275 18.548397
72.280 18.46879
72.285 18.534986
72.290 18.283154
72.295 17.455122
72.300 17.271856
72.305 17.268435
72.310 17.363457
72.315 18.024038
72.320 18.476048
72.325 18.409025
72.330 18.993359
72.335 19.446407
72.340 19.719435
72.345 19.656996
72.350 19.115744
72.355 19.007006
72.360 18.773056
72.365 18.340645
72.370 18.208721
72.375 18.43482
72.380 18.299414
72.385 18.502613
72.390 18.360783
72.395 18.652735
72.400 18.714176
72.405 18.864487
72.410 19.329731
72.415 19.503061
72.420 19.533474
72.425 19.580835
72.430 19.963343
72.435 19.730509
72.440 19.185421
72.445 18.924406
72.450 18.934593
72.455 18.932043
72.460 18.816746
72.465 19.135187
72.470 19.159473
72.475 18.43606
72.480 17.978201
72.485 18.052448
72.490 18.229424
72.495 17.721382
72.500 16.939882
72.505 17.122252
72.510 17.537508
72.515 17.457981
72.520 17.035135
72.525 17.113848
72.530 17.168636
72.535 17.312416
72.540 16.958675
72.545 16.813921
72.550 17.080256
72.555 16.671041
72.560 17.291271
72.565 17.577719
72.570 17.824911
72.575 18.37476
72.580 18.820232
72.585 19.192871
72.590 19.813503
72.595 19.618052
72.600 19.785316
72.605 19.821161
72.610 19.099207
72.615 18.741924
72.620 18.858541
72.625 18.473459
72.630 17.348604
72.635 17.004141
72.640 17.189901
72.645 17.84276
72.650 17.642515
72.655 16.835445
72.660 17.426617
72.665 18.218391
72.670 18.44862
72.675 18.022436
72.680 18.184177
72.685 18.275068
72.690 18.11932
72.695 18.216637
72.700 18.197474
72.705 18.288593
72.710 18.144382
72.715 17.930916
72.720 18.673054
72.725 18.890753
72.730 18.548176
72.735 17.946642
72.740 17.971596
72.745 18.619007
72.750 19.0665
72.755 19.052578
72.760 18.731436
72.765 18.618723
72.770 18.45845
72.775 18.14393
72.780 17.654804
72.785 17.465837
72.790 17.563471
72.795 17.651514
72.800 17.629215
72.805 17.560925
72.810 17.341572
72.815 17.107222
72.820 16.733727
72.825 16.867958
72.830 17.082674
72.835 17.889301
72.840 18.269835
72.845 18.669489
72.850 19.547497
72.855 19.661625
72.860 19.52401
72.865 19.571123
72.870 19.608076
72.875 19.573214
72.880 19.137463
72.885 18.587402
72.890 18.123859
72.895 17.962778
72.900 17.488022
72.905 17.3202
72.910 17.350168
72.915 17.152409
72.920 17.090012
72.925 16.801796
72.930 17.145412
72.935 17.169327
72.940 17.098547
72.945 16.985432
72.950 16.90089
72.955 16.959146
72.960 17.591257
72.965 16.675255
72.970 16.380211
72.975 16.061338
72.980 16.19492
72.985 16.536081
72.990 16.680777
72.995 16.377563
73.000 17.235989
