!@!!GADDS PLOTSO FILE: Chi integration type
!@!!Title/SampleName: map-114
!@!!Comment: ?
!@!!User: Bruker Instrument Administrator
!@!!Site: University of Illinois Chicago
!@!!Frame: map-114_01_000.gfrm
!@!!Wavelengths    1.54184   1.54056   1.54439
!@!!Frame angles: 2Theta: 63.000 Omega: 50.000 Phi: 0.000 Chi: 90.000
!@!!Integration range: 2Theta: 53.000 to 73.000  Gamma: -105.000 to -75.000
!@!!Integration method: bin normalized
!@!N
!@!SS
!@!M
!@!L 0.0 0.0 0.0 0.0
!@!XDegrees
!@!YCounts
53.000 9.327132
53.005 9.706152
53.010 9.666298
53.015 9.293038
53.020 9.260399
53.025 9.361715
53.030 9.313346
53.035 9.085626
53.040 8.447981
53.045 8.554869
53.050 8.263514
53.055 8.379141
53.060 8.257503
53.065 8.677097
53.070 8.735812
53.075 9.2162
53.080 9.085241
53.085 8.735102
53.090 8.251863
53.095 8.685982
53.100 8.469207
53.105 8.502069
53.110 8.161729
53.115 8.443388
53.120 8.992168
53.125 8.79756
53.130 8.309245
53.135 8.26298
53.140 8.364411
53.145 8.274768
53.150 7.850494
53.155 7.877403
53.160 7.937496
53.165 7.979017
53.170 7.83808
53.175 8.1763
53.180 8.606573
53.185 8.945468
53.190 8.819924
53.195 8.66523
53.200 8.764109
53.205 8.594558
53.210 7.96076
53.215 7.770653
53.220 7.893108
53.225 8.181258
53.230 8.261679
53.235 7.786137
53.240 7.95308
53.245 8.449644
53.250 8.310662
53.255 8.266851
53.260 8.36696
53.265 8.79842
53.270 9.170958
53.275 9.17864
53.280 8.772509
53.285 8.926132
53.290 9.4957
53.295 9.470667
53.300 9.145673
53.305 8.661436
53.310 8.472087
53.315 9.095489
53.320 9.213965
53.325 9.091842
53.330 9.342341
53.335 9.673751
53.340 9.937932
53.345 9.817045
53.350 9.489079
53.355 9.36726
53.360 8.763905
53.365 8.701767
53.370 8.841669
53.375 8.910974
53.380 9.055417
53.385 9.286662
53.390 9.71744
53.395 10.406395
53.400 10.447368
53.405 10.390504
53.410 9.918574
53.415 9.812428
53.420 9.593463
53.425 9.100359
53.430 8.757827
53.435 8.515826
53.440 8.85483
53.445 9.370112
53.450 8.970624
53.455 9.007419
53.460 9.246698
53.465 9.039179
53.470 9.1393
53.475 9.112839
53.480 8.914411
53.485 8.794033
53.490 8.820446
53.495 8.555542
53.500 8.726935
53.505 8.535239
53.510 8.334832
53.515 8.334851
53.520 8.806141
53.525 8.913342
53.530 9.041731
53.535 9.325865
53.540 9.722951
53.545 10.029334
53.550 9.824015
53.555 9.577635
53.560 9.578475
53.565 9.61755
53.570 9.213614
53.575 8.881321
53.580 8.832638
53.585 9.088222
53.590 8.821357
53.595 8.665094
53.600 8.578867
53.605 8.899476
53.610 9.265473
53.615 9.39677
53.620 9.112041
53.625 8.786341
53.630 8.645069
53.635 9.174281
53.640 8.870759
53.645 8.341009
53.650 8.182457
53.655 8.649469
53.660 9.021196
53.665 9.090367
53.670 8.616857
53.675 8.503539
53.680 8.647292
53.685 8.389144
53.690 8.261836
53.695 8.033828
53.700 7.84132
53.705 8.015673
53.710 8.007979
53.715 8.031825
53.720 7.937883
53.725 8.008596
53.730 8.253781
53.735 8.668553
53.740 8.869006
53.745 8.917637
53.750 9.337246
53.755 9.763888
53.760 10.182745
53.765 10.095466
53.770 9.559714
53.775 9.736302
53.780 9.698358
53.785 9.418724
53.790 9.383324
53.795 8.835647
53.800 8.92312
53.805 9.282327
53.810 8.909655
53.815 8.945662
53.820 9.154828
53.825 9.230488
53.830 9.098249
53.835 8.922848
53.840 8.881336
53.845 9.354478
53.850 9.748177
53.855 9.561872
53.860 9.394967
53.865 9.917753
53.870 9.526035
53.875 8.897354
53.880 8.760944
53.885 8.378148
53.890 8.255101
53.895 8.504264
53.900 8.306353
53.905 8.958475
53.910 9.099423
53.915 8.537722
53.920 8.216501
53.925 8.015708
53.930 7.667196
53.935 7.992908
53.940 7.924015
53.945 8.125603
53.950 8.520065
53.955 8.656931
53.960 9.189131
53.965 9.434024
53.970 8.91888
53.975 8.845745
53.980 8.771836
53.985 8.992946
53.990 9.093331
53.995 8.770789
54.000 8.829533
54.005 9.343254
54.010 9.363151
54.015 9.498965
54.020 9.461724
54.025 9.595299
54.030 9.378168
54.035 9.319648
54.040 9.156385
54.045 9.384223
54.050 9.533065
54.055 9.1858
54.060 8.782156
54.065 8.439488
54.070 8.324933
54.075 8.063627
54.080 7.934214
54.085 7.919347
54.090 8.230144
54.095 8.988295
54.100 9.422341
54.105 9.948466
54.110 10.532467
54.115 10.570564
54.120 10.117607
54.125 9.55486
54.130 9.177605
54.135 9.227573
54.140 8.924953
54.145 8.608116
54.150 8.612272
54.155 9.317778
54.160 9.845757
54.165 10.123153
54.170 9.693705
54.175 9.482851
54.180 9.232296
54.185 9.033276
54.190 8.593211
54.195 8.36536
54.200 8.31357
54.205 8.961876
54.210 9.219623
54.215 9.636341
54.220 9.850974
54.225 10.122006
54.230 10.092393
54.235 9.914617
54.240 9.574327
54.245 9.063503
54.250 9.012709
54.255 9.116224
54.260 9.122664
54.265 8.954897
54.270 8.845944
54.275 8.73322
54.280 9.311625
54.285 9.436086
54.290 9.331029
54.295 9.426127
54.300 9.751804
54.305 10.039729
54.310 10.311345
54.315 10.150287
54.320 10.203591
54.325 9.874057
54.330 9.529135
54.335 9.575442
54.340 9.470606
54.345 9.528067
54.350 9.367316
54.355 9.456758
54.360 9.954228
54.365 9.930386
54.370 9.734127
54.375 9.785016
54.380 10.153707
54.385 10.164365
54.390 9.999823
54.395 10.024946
54.400 10.457351
54.405 10.339964
54.410 9.961246
54.415 9.561083
54.420 9.377954
54.425 9.576973
54.430 9.540569
54.435 8.955976
54.440 8.73659
54.445 9.104428
54.450 8.994617
54.455 9.119794
54.460 9.047793
54.465 9.239855
54.470 9.730658
54.475 9.936944
54.480 10.209603
54.485 10.542917
54.490 10.223787
54.495 9.965759
54.500 9.739791
54.505 9.549976
54.510 9.207848
54.515 8.326438
54.520 8.202116
54.525 8.393811
54.530 8.301331
54.535 8.262619
54.540 8.189511
54.545 8.336159
54.550 8.686597
54.555 8.855071
54.560 9.16576
54.565 9.213684
54.570 9.397035
54.575 9.52274
54.580 9.891216
54.585 10.678571
54.590 11.103278
54.595 11.047534
54.600 10.921391
54.605 10.840251
54.610 10.877604
54.615 10.723019
54.620 10.20647
54.625 9.791101
54.630 9.938759
54.635 9.934199
54.640 9.76259
54.645 9.980277
54.650 9.857623
54.655 10.172952
54.660 10.359214
54.665 10.647396
54.670 10.906715
54.675 11.391352
54.680 11.633527
54.685 11.638348
54.690 11.287725
54.695 11.08406
54.700 10.942513
54.705 11.050817
54.710 10.837202
54.715 10.843369
54.720 10.646139
54.725 10.755024
54.730 11.035382
54.735 11.104744
54.740 11.143144
54.745 11.514753
54.750 11.207917
54.755 10.80656
54.760 10.574781
54.765 10.451965
54.770 10.438913
54.775 10.276781
54.780 9.673598
54.785 9.699481
54.790 10.011373
54.795 10.058921
54.800 9.623306
54.805 9.440427
54.810 9.156885
54.815 8.99409
54.820 8.820286
54.825 8.929947
54.830 8.837101
54.835 9.066052
54.840 9.209565
54.845 9.097008
54.850 9.843524
54.855 10.025834
54.860 9.840921
54.865 10.227738
54.870 10.402682
54.875 10.431921
54.880 10.619333
54.885 9.988421
54.890 9.766798
54.895 9.89894
54.900 9.77687
54.905 9.357834
54.910 9.44303
54.915 9.593607
54.920 9.830939
54.925 10.091437
54.930 10.014804
54.935 9.991564
54.940 10.829946
54.945 11.156671
54.950 11.317052
54.955 10.975031
54.960 10.632537
54.965 10.446461
54.970 10.363999
54.975 9.910324
54.980 10.060003
54.985 10.328498
54.990 10.599071
54.995 11.015344
55.000 11.237354
55.005 11.36208
55.010 11.43697
55.015 10.743735
55.020 10.561249
55.025 10.961683
55.030 10.976934
55.035 10.961159
55.040 10.822516
55.045 10.765947
55.050 11.268314
55.055 11.14119
55.060 10.751971
55.065 10.539122
55.070 10.233786
55.075 10.222628
55.080 10.395853
55.085 9.987184
55.090 10.39889
55.095 10.725012
55.100 11.252856
55.105 11.883137
55.110 11.817831
55.115 11.570804
55.120 11.600641
55.125 11.366879
55.130 10.810935
55.135 10.08497
55.140 9.203984
55.145 9.15697
55.150 9.523986
55.155 9.704042
55.160 9.741295
55.165 9.974293
55.170 10.274639
55.175 10.811437
55.180 10.751773
55.185 10.462502
55.190 10.751881
55.195 10.863377
55.200 11.339221
55.205 11.178298
55.210 10.41158
55.215 9.653379
55.220 8.755723
55.225 7.516502
55.230 7.071346
55.235 6.869002
55.240 6.625042
55.245 7.344914
55.250 8.552443
55.255 9.44372
55.260 10.173873
55.265 10.418287
55.270 10.289735
55.275 10.626283
55.280 10.593356
55.285 10.34005
55.290 10.220579
55.295 9.880349
55.300 9.659294
55.305 9.904694
55.310 10.245893
55.315 10.510461
55.320 10.58939
55.325 10.982773
55.330 11.657532
55.335 12.022188
55.340 11.922117
55.345 11.691651
55.350 11.278534
55.355 11.249022
55.360 11.039346
55.365 10.465925
55.370 9.981978
55.375 9.986257
55.380 10.091424
55.385 9.63983
55.390 9.389376
55.395 9.500009
55.400 9.580626
55.405 10.007365
55.410 10.195798
55.415 10.379502
55.420 10.400087
55.425 10.432998
55.430 10.364929
55.435 10.452482
55.440 10.367551
55.445 10.252197
55.450 10.578774
55.455 10.486851
55.460 10.660184
55.465 11.070107
55.470 11.069552
55.475 10.703522
55.480 10.358153
55.485 10.129032
55.490 10.366405
55.495 10.324451
55.500 10.017331
55.505 10.287202
55.510 10.447689
55.515 10.594917
55.520 10.736371
55.525 10.362589
55.530 10.09708
55.535 9.89454
55.540 9.49231
55.545 9.205308
55.550 9.343379
55.555 9.343299
55.560 9.954034
55.565 10.121422
55.570 10.108646
55.575 10.398474
55.580 10.666418
55.585 10.317231
55.590 10.515141
55.595 10.406673
55.600 10.650506
55.605 10.699099
55.610 10.723022
55.615 11.15466
55.620 11.640025
55.625 11.692555
55.630 11.748824
55.635 11.665131
55.640 11.646136
55.645 11.702577
55.650 11.654463
55.655 11.337946
55.660 11.185346
55.665 11.402399
55.670 11.571304
55.675 11.595966
55.680 11.260179
55.685 11.034204
55.690 11.118602
55.695 10.680861
55.700 10.316712
55.705 10.544874
55.710 10.139191
55.715 10.160494
55.720 9.98624
55.725 10.246391
55.730 10.403392
55.735 10.036745
55.740 9.739634
55.745 10.003178
55.750 9.604062
55.755 9.358598
55.760 9.021023
55.765 9.262244
55.770 9.305072
55.775 9.118604
55.780 9.283348
55.785 9.579814
55.790 9.522058
55.795 9.918473
55.800 10.098372
55.805 10.001225
55.810 10.381458
55.815 10.29296
55.820 10.929317
55.825 11.003363
55.830 10.763493
55.835 10.958206
55.840 11.140468
55.845 10.661384
55.850 10.555664
55.855 10.160707
55.860 10.403322
55.865 10.608179
55.870 10.187832
55.875 10.103132
55.880 10.449884
55.885 10.757195
55.890 10.970517
55.895 10.598653
55.900 9.936505
55.905 10.306875
55.910 11.390014
55.915 11.72823
55.920 11.666224
55.925 11.743039
55.930 12.23171
55.935 12.673073
55.940 12.236297
55.945 12.092892
55.950 12.447599
55.955 12.378555
55.960 12.006301
55.965 11.60295
55.970 11.05103
55.975 10.93283
55.980 10.223806
55.985 9.916173
55.990 9.920762
55.995 10.352279
56.000 10.570175
56.005 10.586972
56.010 9.957771
56.015 10.207993
56.020 9.985406
56.025 9.789233
56.030 9.548372
56.035 9.591586
56.040 10.457881
56.045 11.002919
56.050 10.665035
56.055 10.695261
56.060 10.509949
56.065 10.358002
56.070 10.400985
56.075 10.388169
56.080 10.733097
56.085 10.999957
56.090 10.809633
56.095 11.05988
56.100 11.22964
56.105 10.972292
56.110 10.470859
56.115 10.315371
56.120 10.457421
56.125 10.443499
56.130 10.146149
56.135 10.26218
56.140 10.89479
56.145 10.950588
56.150 11.009962
56.155 11.205282
56.160 11.715201
56.165 11.575081
56.170 11.477186
56.175 11.461522
56.180 11.515371
56.185 10.953284
56.190 10.651022
56.195 10.458042
56.200 10.789368
56.205 10.606651
56.210 10.288689
56.215 10.095126
56.220 10.559045
56.225 10.68852
56.230 10.582914
56.235 10.903224
56.240 10.867185
56.245 11.293495
56.250 11.731919
56.255 11.506605
56.260 11.218619
56.265 11.18449
56.270 10.581474
56.275 10.640135
56.280 10.105821
56.285 9.759978
56.290 9.821533
56.295 9.964112
56.300 10.420078
56.305 10.677671
56.310 10.641866
56.315 10.64238
56.320 11.363421
56.325 12.410757
56.330 12.714741
56.335 12.422977
56.340 12.451142
56.345 12.472715
56.350 12.681446
56.355 12.238785
56.360 11.530554
56.365 11.393358
56.370 11.462196
56.375 11.628411
56.380 11.387294
56.385 11.187135
56.390 10.803479
56.395 10.752596
56.400 11.025843
56.405 10.878542
56.410 10.615561
56.415 11.088313
56.420 11.139401
56.425 11.334094
56.430 11.818239
56.435 11.937766
56.440 12.366486
56.445 12.472766
56.450 12.317027
56.455 12.089704
56.460 11.909426
56.465 11.84466
56.470 11.720403
56.475 11.680583
56.480 11.856631
56.485 11.91515
56.490 12.648191
56.495 13.2461
56.500 13.07729
56.505 12.913334
56.510 13.163775
56.515 13.215044
56.520 13.382236
56.525 13.250074
56.530 12.951735
56.535 12.807759
56.540 12.872512
56.545 12.693071
56.550 12.661701
56.555 12.400507
56.560 12.170418
56.565 11.613569
56.570 11.196255
56.575 11.435511
56.580 11.413286
56.585 11.866688
56.590 11.960118
56.595 12.106256
56.600 12.603308
56.605 12.665833
56.610 12.175568
56.615 12.199556
56.620 12.053364
56.625 12.037004
56.630 12.078826
56.635 12.506015
56.640 13.042064
56.645 13.196679
56.650 13.182208
56.655 12.869746
56.660 12.938603
56.665 12.66939
56.670 12.583099
56.675 12.563191
56.680 12.337936
56.685 12.180184
56.690 12.236201
56.695 12.11033
56.700 12.157802
56.705 11.963568
56.710 11.709459
56.715 11.842978
56.720 11.762041
56.725 11.949945
56.730 12.313138
56.735 12.001505
56.740 11.9418
56.745 12.176587
56.750 12.222627
56.755 12.034454
56.760 11.469463
56.765 11.173981
56.770 11.117477
56.775 11.392167
56.780 11.039316
56.785 10.847997
56.790 11.196421
56.795 11.461706
56.800 11.06566
56.805 10.833513
56.810 10.550567
56.815 10.916058
56.820 11.41402
56.825 11.051343
56.830 10.873508
56.835 11.191785
56.840 11.23744
56.845 11.17489
56.850 11.016459
56.855 11.119836
56.860 11.637269
56.865 12.367234
56.870 12.688266
56.875 12.657268
56.880 12.795497
56.885 12.376385
56.890 11.983975
56.895 12.060062
56.900 11.932136
56.905 11.81291
56.910 11.829886
56.915 11.808296
56.920 12.042735
56.925 11.704003
56.930 10.755755
56.935 10.094715
56.940 10.488225
56.945 10.505838
56.950 10.41962
56.955 10.851528
56.960 11.245206
56.965 11.537027
56.970 11.855528
56.975 11.763586
56.980 11.952847
56.985 12.32093
56.990 11.976396
56.995 12.392612
57.000 12.636358
57.005 12.942524
57.010 12.91894
57.015 13.001915
57.020 12.823922
57.025 12.839021
57.030 12.570292
57.035 12.686946
57.040 12.578671
57.045 12.698371
57.050 12.493086
57.055 12.604074
57.060 12.425516
57.065 12.558905
57.070 12.842773
57.075 12.924208
57.080 12.409375
57.085 12.497361
57.090 12.346014
57.095 12.397063
57.100 12.009725
57.105 11.188182
57.110 10.792204
57.115 11.177563
57.120 11.399799
57.125 11.259295
57.130 11.459086
57.135 11.526084
57.140 11.588274
57.145 11.305807
57.150 10.896429
57.155 10.561501
57.160 10.893268
57.165 10.960532
57.170 10.867233
57.175 10.621991
57.180 10.866076
57.185 10.952166
57.190 10.759031
57.195 9.990711
57.200 9.614851
57.205 10.16161
57.210 10.405496
57.215 10.000815
57.220 9.908033
57.225 9.906158
57.230 10.206925
57.235 10.405489
57.240 10.315823
57.245 10.697401
57.250 11.36918
57.255 11.618433
57.260 11.832864
57.265 12.211917
57.270 12.087667
57.275 12.049354
57.280 12.340366
57.285 12.372869
57.290 12.743242
57.295 13.322832
57.300 13.066931
57.305 13.171301
57.310 12.799014
57.315 12.407012
57.320 12.430485
57.325 12.157223
57.330 12.290435
57.335 12.507303
57.340 12.618628
57.345 13.252448
57.350 13.396633
57.355 13.233772
57.360 13.357249
57.365 13.186
57.370 13.030371
57.375 12.776509
57.380 12.527844
57.385 12.20534
57.390 12.154907
57.395 11.675497
57.400 11.486004
57.405 11.475921
57.410 11.804317
57.415 11.701146
57.420 12.34575
57.425 13.421706
57.430 13.647935
57.435 13.908699
57.440 14.105295
57.445 13.88853
57.450 13.778028
57.455 13.132032
57.460 12.426734
57.465 12.593419
57.470 12.428284
57.475 12.191838
57.480 12.579285
57.485 12.57572
57.490 12.613571
57.495 12.121881
57.500 11.634719
57.505 11.796622
57.510 11.895
57.515 11.485832
57.520 12.10222
57.525 12.365656
57.530 12.780632
57.535 13.186128
57.540 13.576126
57.545 13.765737
57.550 13.815342
57.555 13.289709
57.560 13.14901
57.565 12.945957
57.570 13.166675
57.575 13.572242
57.580 13.825063
57.585 14.069378
57.590 14.181027
57.595 14.12589
57.600 14.323453
57.605 14.125628
57.610 13.304864
57.615 12.992809
57.620 13.005211
57.625 13.10239
57.630 13.387515
57.635 13.259092
57.640 12.390709
57.645 12.171802
57.650 12.051099
57.655 11.863499
57.660 11.644377
57.665 11.166933
57.670 11.125634
57.675 11.517081
57.680 11.890786
57.685 11.918545
57.690 12.413884
57.695 12.707138
57.700 12.596687
57.705 12.663375
57.710 12.783388
57.715 13.034039
57.720 13.532725
57.725 13.365603
57.730 12.877158
57.735 13.218444
57.740 13.200948
57.745 12.819282
57.750 12.39236
57.755 12.084097
57.760 12.431623
57.765 13.122951
57.770 13.483432
57.775 13.850647
57.780 14.371576
57.785 14.526614
57.790 14.766613
57.795 14.204762
57.800 13.633276
57.805 12.669587
57.810 12.045313
57.815 11.811122
57.820 11.922835
57.825 11.765992
57.830 11.861513
57.835 12.031419
57.840 12.555691
57.845 13.040091
57.850 13.024627
57.855 12.573352
57.860 12.455769
57.865 12.857278
57.870 13.225686
57.875 13.302979
57.880 12.973663
57.885 13.010077
57.890 13.473011
57.895 13.478255
57.900 13.823452
57.905 14.105608
57.910 14.265995
57.915 14.460612
57.920 14.557883
57.925 14.193753
57.930 13.950331
57.935 13.247294
57.940 12.626761
57.945 12.191441
57.950 12.309893
57.955 12.173716
57.960 12.001757
57.965 12.081366
57.970 12.464775
57.975 12.548092
57.980 12.312443
57.985 12.655015
57.990 12.955395
57.995 13.392247
58.000 13.039296
58.005 12.685641
58.010 12.701636
58.015 12.923986
58.020 12.153701
58.025 12.045888
58.030 11.958906
58.035 12.317359
58.040 12.902426
58.045 13.894343
58.050 14.044102
58.055 14.423799
58.060 14.410578
58.065 14.459866
58.070 14.933051
58.075 14.825479
58.080 14.129641
58.085 14.100898
58.090 14.04367
58.095 14.103848
58.100 14.148812
58.105 13.535526
58.110 12.960626
58.115 13.091953
58.120 13.218547
58.125 12.91676
58.130 12.828608
58.135 13.05203
58.140 12.903765
58.145 12.924633
58.150 12.677032
58.155 12.726754
58.160 12.695673
58.165 12.714611
58.170 12.610499
58.175 13.12751
58.180 13.761507
58.185 13.673757
58.190 13.122723
58.195 13.319004
58.200 13.242286
58.205 13.116247
58.210 12.572074
58.215 12.297036
58.220 12.402143
58.225 12.872935
58.230 13.265428
58.235 13.409279
58.240 13.959955
58.245 14.415208
58.250 14.926519
58.255 14.827191
58.260 14.523248
58.265 14.734989
58.270 14.553962
58.275 14.274082
58.280 14.244451
58.285 14.225062
58.290 14.37855
58.295 14.700892
58.300 14.288971
58.305 14.460758
58.310 14.642382
58.315 14.376389
58.320 13.975057
58.325 14.344873
58.330 14.148117
58.335 14.227669
58.340 14.239087
58.345 13.777543
58.350 13.794057
58.355 14.51526
58.360 14.601388
58.365 14.788761
58.370 14.644224
58.375 14.793056
58.380 15.106677
58.385 14.671351
58.390 14.754924
58.395 14.899975
58.400 14.256763
58.405 14.074525
58.410 13.830966
58.415 13.73226
58.420 14.359603
58.425 14.008802
58.430 13.946904
58.435 14.547639
58.440 14.563183
58.445 14.741526
58.450 15.258529
58.455 14.901444
58.460 15.441651
58.465 15.688035
58.470 15.538568
58.475 15.428695
58.480 15.32198
58.485 14.873378
58.490 14.470162
58.495 14.127604
58.500 14.423658
58.505 15.245736
58.510 15.242656
58.515 15.741683
58.520 15.751795
58.525 15.860437
58.530 15.605158
58.535 15.217183
58.540 14.880394
58.545 15.226383
58.550 15.184817
58.555 15.106451
58.560 15.398996
58.565 15.568569
58.570 15.372877
58.575 15.935865
58.580 15.799404
58.585 15.760323
58.590 15.945313
58.595 15.404171
58.600 15.126002
58.605 15.183461
58.610 15.209761
58.615 15.464703
58.620 15.503224
58.625 15.936767
58.630 16.17548
58.635 16.433855
58.640 16.688164
58.645 16.097603
58.650 15.835874
58.655 15.803043
58.660 15.611138
58.665 15.741341
58.670 15.697777
58.675 15.305005
58.680 14.901422
58.685 14.494411
58.690 14.730497
58.695 14.949341
58.700 15.173921
58.705 15.041082
58.710 15.497684
58.715 16.37569
58.720 16.855829
58.725 17.339621
58.730 17.139894
58.735 17.030928
58.740 17.570007
58.745 18.085661
58.750 18.388548
58.755 18.231874
58.760 18.006729
58.765 18.562101
58.770 18.655703
58.775 17.918009
58.780 17.066168
58.785 16.597712
58.790 16.531624
58.795 16.568663
58.800 16.329163
58.805 16.994215
58.810 17.362867
58.815 17.382425
58.820 17.162992
58.825 17.397003
58.830 17.095179
58.835 16.887629
58.840 16.170738
58.845 16.619883
58.850 16.633741
58.855 16.404137
58.860 16.478203
58.865 16.679945
58.870 16.718653
58.875 17.106804
58.880 16.531839
58.885 16.496555
58.890 16.648849
58.895 16.298271
58.900 16.214735
58.905 16.411638
58.910 16.761311
58.915 17.45203
58.920 17.579988
58.925 17.696476
58.930 18.029045
58.935 17.786171
58.940 17.495609
58.945 16.567022
58.950 16.181244
58.955 16.219378
58.960 15.927245
58.965 15.462824
58.970 15.558872
58.975 16.206221
58.980 17.10429
58.985 16.802282
58.990 16.738483
58.995 17.004099
59.000 17.653954
59.005 18.199747
59.010 17.09593
59.015 15.985417
59.020 16.011024
59.025 16.517984
59.030 16.37454
59.035 16.16041
59.040 15.969878
59.045 16.065861
59.050 16.657291
59.055 16.9424
59.060 16.398558
59.065 16.603245
59.070 16.633915
59.075 16.631941
59.080 17.268862
59.085 17.360996
59.090 17.377035
59.095 17.46475
59.100 17.447906
59.105 17.122894
59.110 17.042528
59.115 16.756372
59.120 16.224194
59.125 15.960771
59.130 16.013399
59.135 15.6685
59.140 15.126174
59.145 14.665664
59.150 14.855881
59.155 15.678149
59.160 15.627466
59.165 15.583779
59.170 16.000648
59.175 16.700521
59.180 16.795826
59.185 16.771187
59.190 16.271206
59.195 16.530073
59.200 16.467297
59.205 16.634333
59.210 17.00654
59.215 17.088324
59.220 17.335636
59.225 17.858662
59.230 18.387928
59.235 18.44846
59.240 18.077257
59.245 17.720087
59.250 17.866188
59.255 17.147846
59.260 16.720802
59.265 16.197367
59.270 16.161093
59.275 16.025291
59.280 15.795076
59.285 15.416456
59.290 15.741724
59.295 15.953219
59.300 15.799457
59.305 15.548686
59.310 15.63351
59.315 15.747996
59.320 16.279852
59.325 16.583441
59.330 16.569239
59.335 16.827223
59.340 16.755861
59.345 16.524574
59.350 16.578318
59.355 16.55394
59.360 16.066406
59.365 15.646438
59.370 15.72382
59.375 16.235102
59.380 16.827019
59.385 17.039127
59.390 17.451225
59.395 17.358192
59.400 17.821453
59.405 17.642023
59.410 17.188465
59.415 16.890381
59.420 16.302416
59.425 15.735937
59.430 16.566217
59.435 16.453426
59.440 16.389822
59.445 16.718204
59.450 17.347584
59.455 17.675863
59.460 17.407066
59.465 16.61627
59.470 16.577404
59.475 16.480272
59.480 16.605991
59.485 16.328753
59.490 16.369463
59.495 16.536095
59.500 16.365406
59.505 16.405371
59.510 16.456066
59.515 15.929113
59.520 15.871808
59.525 15.790183
59.530 15.664124
59.535 15.72301
59.540 15.483877
59.545 15.575583
59.550 15.838962
59.555 15.575728
59.560 15.69304
59.565 15.944879
59.570 16.312826
59.575 16.606613
59.580 16.456739
59.585 15.87615
59.590 15.568878
59.595 15.616531
59.600 15.517994
59.605 15.667175
59.610 15.63309
59.615 15.789062
59.620 16.081942
59.625 16.55085
59.630 16.875177
59.635 16.551487
59.640 15.886198
59.645 15.824628
59.650 15.945028
59.655 15.990368
59.660 15.861723
59.665 15.443022
59.670 15.928077
59.675 16.617115
59.680 16.862965
59.685 16.822561
59.690 16.44162
59.695 15.971837
59.700 16.637968
59.705 17.059031
59.710 16.910666
59.715 16.309711
59.720 16.477364
59.725 17.136541
59.730 17.370991
59.735 17.21245
59.740 17.12578
59.745 16.963566
59.750 17.609554
59.755 17.732107
59.760 17.926889
59.765 17.948706
59.770 17.272346
59.775 16.707541
59.780 16.952127
59.785 17.087992
59.790 16.695271
59.795 16.948963
59.800 17.109327
59.805 17.566376
59.810 17.750061
59.815 17.109135
59.820 16.337397
59.825 16.050367
59.830 15.639013
59.835 15.767467
59.840 16.557503
59.845 17.462788
59.850 17.617334
59.855 18.112024
59.860 18.361286
59.865 18.611433
59.870 18.014252
59.875 16.781662
59.880 16.723839
59.885 17.338638
59.890 17.664989
59.895 18.100964
59.900 17.968512
59.905 17.42016
59.910 16.728333
59.915 15.765626
59.920 15.196501
59.925 15.228635
59.930 15.168058
59.935 15.256789
59.940 16.188829
59.945 16.907198
59.950 17.143744
59.955 17.356083
59.960 16.381254
59.965 16.332993
59.970 16.444218
59.975 16.122709
59.980 16.02459
59.985 16.424982
59.990 16.975344
59.995 17.154764
60.000 17.411318
60.005 17.479389
60.010 17.59898
60.015 17.40904
60.020 16.321825
60.025 16.142597
60.030 16.551426
60.035 16.364574
60.040 16.388618
60.045 16.434462
60.050 16.41025
60.055 17.226068
60.060 17.058331
60.065 16.508524
60.070 15.950162
60.075 15.766088
60.080 15.451956
60.085 15.882014
60.090 16.466555
60.095 16.742781
60.100 16.947527
60.105 17.197771
60.110 17.286783
60.115 17.971167
60.120 17.752247
60.125 16.851074
60.130 16.616867
60.135 16.914574
60.140 16.771225
60.145 16.81579
60.150 16.638628
60.155 16.416552
60.160 16.553349
60.165 15.917665
60.170 15.325457
60.175 15.194451
60.180 14.914736
60.185 14.746682
60.190 14.680901
60.195 14.501649
60.200 14.73467
60.205 14.841675
60.210 14.839808
60.215 15.018743
60.220 14.753313
60.225 14.411516
60.230 14.099728
60.235 13.985208
60.240 13.977375
60.245 13.784458
60.250 13.718111
60.255 13.707295
60.260 13.777457
60.265 14.143873
60.270 14.368802
60.275 14.18612
60.280 14.431313
60.285 14.52318
60.290 14.592332
60.295 14.694626
60.300 14.401276
60.305 14.968472
60.310 15.467562
60.315 15.431222
60.320 15.147257
60.325 15.864069
60.330 15.673649
60.335 15.884196
60.340 15.412677
60.345 15.044556
60.350 14.754905
60.355 14.879552
60.360 14.858935
60.365 15.03061
60.370 15.269613
60.375 15.25343
60.380 15.208619
60.385 15.715446
60.390 15.803844
60.395 15.74273
60.400 15.529423
60.405 14.861265
60.410 14.725338
60.415 14.637907
60.420 14.64933
60.425 14.328995
60.430 13.753811
60.435 14.054691
60.440 14.640493
60.445 15.18082
60.450 15.002239
60.455 14.786232
60.460 15.161859
60.465 15.795073
60.470 15.827584
60.475 15.375433
60.480 14.918983
60.485 14.854517
60.490 14.802484
60.495 14.531549
60.500 14.171391
60.505 14.259892
60.510 14.352437
60.515 14.504743
60.520 14.82504
60.525 15.043736
60.530 14.964592
60.535 14.40629
60.540 14.138589
60.545 14.247489
60.550 14.229922
60.555 14.084662
60.560 13.783305
60.565 13.899668
60.570 14.431775
60.575 14.316016
60.580 14.36863
60.585 14.704432
60.590 14.777133
60.595 14.775546
60.600 14.656471
60.605 14.707573
60.610 15.35691
60.615 15.102692
60.620 15.378176
60.625 15.155504
60.630 15.039934
60.635 14.513788
60.640 14.41758
60.645 13.958192
60.650 13.862019
60.655 13.970407
60.660 14.005589
60.665 14.122597
60.670 14.713403
60.675 14.589901
60.680 14.25607
60.685 13.675243
60.690 12.769981
60.695 12.81279
60.700 12.784841
60.705 13.12235
60.710 13.089825
60.715 13.20752
60.720 13.70799
60.725 14.074294
60.730 13.945951
60.735 14.088523
60.740 14.088031
60.745 14.111947
60.750 14.594999
60.755 15.099842
60.760 15.207711
60.765 15.090336
60.770 14.66379
60.775 14.43261
60.780 14.445518
60.785 14.175991
60.790 13.750851
60.795 13.870254
60.800 14.361188
60.805 14.790788
60.810 14.383738
60.815 14.295108
60.820 13.789175
60.825 13.744122
60.830 13.573801
60.835 13.225889
60.840 13.578494
60.845 14.130843
60.850 14.517383
60.855 14.863054
60.860 15.025759
60.865 15.120226
60.870 15.087797
60.875 14.888707
60.880 14.436882
60.885 14.351378
60.890 14.573919
60.895 14.529264
60.900 14.536073
60.905 14.794867
60.910 14.479307
60.915 14.563859
60.920 14.178013
60.925 14.303731
60.930 13.885388
60.935 14.198456
60.940 13.827776
60.945 14.011116
60.950 14.04795
60.955 14.485761
60.960 14.94639
60.965 14.895271
60.970 14.760009
60.975 14.606845
60.980 14.65946
60.985 14.391555
60.990 13.711398
60.995 12.650298
61.000 12.929097
61.005 12.610778
61.010 12.314355
61.015 12.416576
61.020 12.820193
61.025 12.822185
61.030 13.122036
61.035 12.802032
61.040 12.981415
61.045 13.500085
61.050 13.434059
61.055 12.824882
61.060 12.940538
61.065 13.05599
61.070 13.444319
61.075 13.361995
61.080 13.186288
61.085 13.254889
61.090 13.59586
61.095 13.372327
61.100 13.209244
61.105 12.868695
61.110 12.942478
61.115 13.029131
61.120 13.012616
61.125 13.50327
61.130 14.181128
61.135 14.475109
61.140 14.960626
61.145 15.13191
61.150 14.765884
61.155 14.666354
61.160 14.249743
61.165 13.731997
61.170 14.044175
61.175 13.78931
61.180 13.27252
61.185 13.738701
61.190 14.421621
61.195 14.619147
61.200 14.876157
61.205 14.824571
61.210 14.948585
61.215 15.513768
61.220 14.897098
61.225 15.265818
61.230 15.951673
61.235 15.777599
61.240 15.633424
61.245 15.514849
61.250 15.339504
61.255 15.645676
61.260 15.484179
61.265 15.857045
61.270 15.976826
61.275 16.102234
61.280 16.078625
61.285 15.884797
61.290 15.621577
61.295 14.895361
61.300 14.582189
61.305 14.683992
61.310 14.390205
61.315 14.429316
61.320 14.742352
61.325 14.786776
61.330 15.037939
61.335 14.69546
61.340 14.077462
61.345 14.219656
61.350 14.371369
61.355 14.464214
61.360 14.792389
61.365 14.725051
61.370 14.212595
61.375 14.806764
61.380 14.545558
61.385 14.545135
61.390 15.266188
61.395 14.945508
61.400 15.186811
61.405 16.137508
61.410 15.925689
61.415 16.128378
61.420 15.830097
61.425 15.331181
61.430 15.215109
61.435 14.937916
61.440 14.150666
61.445 14.226669
61.450 14.063705
61.455 14.269125
61.460 14.055735
61.465 14.017607
61.470 13.944602
61.475 14.10995
61.480 14.51906
61.485 14.670222
61.490 14.528426
61.495 14.485456
61.500 14.467803
61.505 14.560683
61.510 14.475156
61.515 14.32645
61.520 14.170735
61.525 14.258255
61.530 14.30267
61.535 14.497336
61.540 14.2034
61.545 14.012172
61.550 14.08876
61.555 14.171425
61.560 13.922552
61.565 13.768257
61.570 13.774288
61.575 14.529352
61.580 14.640722
61.585 14.242271
61.590 14.120129
61.595 14.028398
61.600 13.809326
61.605 13.59309
61.610 13.589715
61.615 13.78622
61.620 13.857527
61.625 14.061433
61.630 13.99512
61.635 14.222211
61.640 14.155856
61.645 13.748928
61.650 14.010706
61.655 13.788936
61.660 13.495403
61.665 13.654507
61.670 13.635996
61.675 13.387012
61.680 13.366199
61.685 13.065488
61.690 13.305246
61.695 13.395192
61.700 13.916783
61.705 14.087716
61.710 14.559194
61.715 14.90417
61.720 14.947141
61.725 15.110708
61.730 15.058506
61.735 14.721849
61.740 14.350097
61.745 14.524716
61.750 14.334544
61.755 14.154552
61.760 14.089542
61.765 14.347491
61.770 14.705583
61.775 15.252998
61.780 15.25531
61.785 15.198379
61.790 15.278402
61.795 15.262186
61.800 14.916802
61.805 14.164915
61.810 13.921191
61.815 13.906281
61.820 14.857232
61.825 15.257794
61.830 15.246772
61.835 16.270285
61.840 16.95256
61.845 16.891308
61.850 16.542582
61.855 16.06168
61.860 16.295717
61.865 16.378862
61.870 16.047798
61.875 16.463978
61.880 16.733707
61.885 16.660343
61.890 16.493013
61.895 16.75593
61.900 16.800774
61.905 16.765242
61.910 16.426149
61.915 16.16699
61.920 16.511023
61.925 16.219742
61.930 15.635123
61.935 15.60476
61.940 15.554093
61.945 15.271791
61.950 15.323144
61.955 15.242963
61.960 15.40921
61.965 15.290068
61.970 15.326069
61.975 15.291655
61.980 15.160999
61.985 15.134796
61.990 15.278565
61.995 15.005713
62.000 15.012859
62.005 15.087064
62.010 14.742792
62.015 14.978987
62.020 14.893513
62.025 15.013656
62.030 15.346086
62.035 15.687473
62.040 15.603195
62.045 15.668504
62.050 15.549559
62.055 14.923425
62.060 14.568554
62.065 14.522233
62.070 14.251027
62.075 14.270761
62.080 14.104569
62.085 14.626215
62.090 15.55262
62.095 15.886536
62.100 15.451713
62.105 15.408961
62.110 15.023432
62.115 14.835926
62.120 14.115635
62.125 13.324788
62.130 13.052712
62.135 13.76342
62.140 14.41182
62.145 15.018739
62.150 15.733436
62.155 16.049284
62.160 16.659267
62.165 16.942158
62.170 17.095806
62.175 17.150928
62.180 17.352072
62.185 17.092514
62.190 17.105761
62.195 16.916584
62.200 16.802406
62.205 17.007011
62.210 16.766678
62.215 16.345039
62.220 16.434244
62.225 16.226328
62.230 15.974606
62.235 16.090961
62.240 15.239718
62.245 15.229335
62.250 15.243659
62.255 14.975584
62.260 15.576131
62.265 15.723494
62.270 15.521646
62.275 16.128469
62.280 16.160254
62.285 16.249355
62.290 16.344879
62.295 16.123173
62.300 16.263742
62.305 15.744566
62.310 15.296886
62.315 15.068905
62.320 15.179051
62.325 15.246673
62.330 14.952197
62.335 14.884391
62.340 15.08392
62.345 14.777259
62.350 14.563391
62.355 14.378994
62.360 14.404873
62.365 14.546138
62.370 14.85402
62.375 14.738595
62.380 14.859719
62.385 14.816054
62.390 14.664968
62.395 14.722634
62.400 14.957267
62.405 15.008423
62.410 15.385453
62.415 15.946733
62.420 15.808914
62.425 15.820744
62.430 15.726631
62.435 15.548999
62.440 15.458376
62.445 15.831259
62.450 15.486544
62.455 15.808554
62.460 15.750239
62.465 15.88297
62.470 16.042336
62.475 15.968018
62.480 16.050503
62.485 16.128746
62.490 16.385662
62.495 16.685442
62.500 16.399792
62.505 16.103552
62.510 15.961947
62.515 14.911535
62.520 14.648007
62.525 14.49737
62.530 14.406518
62.535 14.578822
62.540 14.380878
62.545 14.75784
62.550 15.539559
62.555 15.35045
62.560 14.656605
62.565 14.451216
62.570 14.780274
62.575 14.91932
62.580 14.753017
62.585 14.176095
62.590 14.122285
62.595 14.367253
62.600 14.108791
62.605 13.815847
62.610 13.823974
62.615 13.583579
62.620 13.600748
62.625 13.948655
62.630 14.211594
62.635 14.23098
62.640 14.30802
62.645 13.692861
62.650 14.008643
62.655 14.098949
62.660 13.897398
62.665 13.848465
62.670 14.390997
62.675 14.738767
62.680 15.368457
62.685 15.547089
62.690 15.953495
62.695 16.589947
62.700 16.224863
62.705 15.928797
62.710 16.231075
62.715 16.263746
62.720 15.931396
62.725 15.76777
62.730 15.943866
62.735 16.363585
62.740 16.257555
62.745 16.061831
62.750 16.147745
62.755 16.142616
62.760 15.537889
62.765 15.306948
62.770 15.34911
62.775 14.926309
62.780 14.494491
62.785 14.622497
62.790 14.919697
62.795 15.926825
62.800 16.347652
62.805 16.853487
62.810 17.208107
62.815 17.293833
62.820 16.7999
62.825 16.86541
62.830 16.390902
62.835 16.047997
62.840 15.222854
62.845 15.209671
62.850 15.583034
62.855 15.822703
62.860 15.513965
62.865 15.377567
62.870 15.579624
62.875 15.985698
62.880 15.997464
62.885 15.681747
62.890 15.726168
62.895 15.567117
62.900 15.22004
62.905 15.068795
62.910 15.039999
62.915 14.477059
62.920 14.090272
62.925 14.180703
62.930 14.636893
62.935 14.820415
62.940 14.584873
62.945 14.429932
62.950 14.472546
62.955 14.832066
62.960 14.913349
62.965 14.654191
62.970 14.827569
62.975 15.258332
62.980 15.472934
62.985 15.744165
62.990 15.540809
62.995 15.081034
63.000 15.117703
63.005 14.966557
63.010 15.133787
63.015 15.508484
63.020 16.124519
63.025 16.521439
63.030 16.562267
63.035 16.948629
63.040 16.673046
63.045 16.115322
63.050 16.003342
63.055 15.886106
63.060 15.856686
63.065 16.121284
63.070 16.03006
63.075 16.232382
63.080 16.479258
63.085 16.517124
63.090 16.155197
63.095 15.850196
63.100 15.875443
63.105 15.575049
63.110 15.52908
63.115 15.526163
63.120 15.638188
63.125 15.533027
63.130 15.402143
63.135 14.985667
63.140 14.869498
63.145 14.716987
63.150 14.665124
63.155 14.886615
63.160 15.200735
63.165 15.331567
63.170 15.757058
63.175 16.164991
63.180 17.015581
63.185 17.076021
63.190 16.865217
63.195 16.636005
63.200 16.486599
63.205 15.98093
63.210 15.938312
63.215 15.748976
63.220 15.290399
63.225 15.060916
63.230 15.343819
63.235 15.411511
63.240 15.128476
63.245 14.955666
63.250 15.020068
63.255 15.33133
63.260 14.985111
63.265 15.056788
63.270 15.268991
63.275 15.620815
63.280 15.344974
63.285 14.726504
63.290 14.661113
63.295 14.892602
63.300 15.046445
63.305 15.599535
63.310 16.419388
63.315 16.72261
63.320 16.90526
63.325 17.514448
63.330 18.02492
63.335 17.531763
63.340 17.04277
63.345 16.781181
63.350 16.327162
63.355 16.564901
63.360 16.253632
63.365 16.135036
63.370 16.205534
63.375 15.832446
63.380 15.732181
63.385 15.883492
63.390 15.646475
63.395 15.93003
63.400 16.127718
63.405 16.240721
63.410 15.887095
63.415 15.63131
63.420 15.958856
63.425 16.403524
63.430 16.599539
63.435 16.631512
63.440 17.035555
63.445 17.797186
63.450 18.196119
63.455 18.714861
63.460 18.837639
63.465 18.259453
63.470 17.946627
63.475 18.031021
63.480 17.700859
63.485 17.459995
63.490 17.506329
63.495 17.302925
63.500 17.570547
63.505 17.312067
63.510 16.874504
63.515 16.681452
63.520 16.170826
63.525 15.738206
63.530 15.424134
63.535 15.198493
63.540 15.449719
63.545 15.084652
63.550 15.285287
63.555 15.805177
63.560 15.92902
63.565 15.943897
63.570 15.984337
63.575 16.411293
63.580 16.633989
63.585 16.778534
63.590 17.017046
63.595 17.478004
63.600 17.866949
63.605 17.554173
63.610 16.931725
63.615 17.120325
63.620 17.316236
63.625 17.087708
63.630 16.444538
63.635 16.060795
63.640 16.021034
63.645 16.044321
63.650 15.956489
63.655 15.901791
63.660 15.868066
63.665 15.936296
63.670 16.508772
63.675 16.747744
63.680 16.909073
63.685 16.981281
63.690 17.282875
63.695 17.532551
63.700 17.610191
63.705 16.838728
63.710 16.774651
63.715 16.607508
63.720 16.260468
63.725 15.497139
63.730 14.980353
63.735 15.045708
63.740 15.407739
63.745 15.403225
63.750 15.54321
63.755 15.857225
63.760 16.33276
63.765 16.44788
63.770 15.923229
63.775 15.461251
63.780 15.626154
63.785 15.544236
63.790 15.671697
63.795 15.782533
63.800 15.94445
63.805 16.169088
63.810 16.762526
63.815 17.041584
63.820 17.343939
63.825 17.234196
63.830 17.348879
63.835 17.55966
63.840 17.998562
63.845 17.503834
63.850 17.589079
63.855 17.355629
63.860 17.110861
63.865 17.46608
63.870 17.08177
63.875 16.883598
63.880 16.883299
63.885 17.263128
63.890 17.832319
63.895 17.645454
63.900 17.168478
63.905 17.398075
63.910 17.901108
63.915 18.462601
63.920 18.130283
63.925 17.791822
63.930 17.995314
63.935 17.772308
63.940 17.718771
63.945 17.520821
63.950 17.508383
63.955 17.657345
63.960 17.924561
63.965 17.826641
63.970 17.803961
63.975 17.805361
63.980 17.569052
63.985 17.809076
63.990 17.823551
63.995 17.904139
64.000 18.096354
64.005 18.743549
64.010 19.372433
64.015 20.495699
64.020 19.942606
64.025 19.634956
64.030 19.632998
64.035 20.090092
64.040 20.045784
64.045 19.066975
64.050 18.190317
64.055 18.123379
64.060 18.023283
64.065 18.292744
64.070 18.467163
64.075 18.781719
64.080 19.607851
64.085 19.899294
64.090 20.219025
64.095 20.703545
64.100 20.281002
64.105 19.713266
64.110 19.198303
64.115 19.267845
64.120 19.54505
64.125 19.541115
64.130 19.316475
64.135 19.337416
64.140 19.470102
64.145 19.041655
64.150 18.65728
64.155 18.196148
64.160 17.854076
64.165 17.94655
64.170 18.321743
64.175 18.590679
64.180 19.336447
64.185 19.052042
64.190 18.941525
64.195 19.078714
64.200 18.822775
64.205 18.498432
64.210 18.756685
64.215 18.556963
64.220 18.489552
64.225 18.599855
64.230 18.613096
64.235 19.285616
64.240 19.809248
64.245 19.908545
64.250 20.144855
64.255 20.796825
64.260 21.625402
64.265 21.580751
64.270 21.538382
64.275 21.17627
64.280 20.280561
64.285 19.964018
64.290 20.105228
64.295 19.503942
64.300 19.721079
64.305 19.511221
64.310 19.161283
64.315 19.258728
64.320 19.053867
64.325 18.858967
64.330 18.847858
64.335 18.819435
64.340 18.857191
64.345 19.401936
64.350 19.811022
64.355 20.168491
64.360 20.171486
64.365 20.320961
64.370 20.51174
64.375 20.381105
64.380 20.646658
64.385 20.284491
64.390 20.071316
64.395 20.727495
64.400 21.15394
64.405 21.330946
64.410 21.215788
64.415 21.134336
64.420 21.427601
64.425 21.742729
64.430 21.131582
64.435 20.959846
64.440 20.731461
64.445 20.695753
64.450 20.588449
64.455 20.729906
64.460 20.582607
64.465 20.632353
64.470 20.263391
64.475 19.74839
64.480 19.642445
64.485 19.61994
64.490 19.448757
64.495 19.659906
64.500 19.696079
64.505 19.806978
64.510 20.593849
64.515 20.667244
64.520 20.532101
64.525 20.957579
64.530 20.430189
64.535 20.412289
64.540 20.153605
64.545 20.305273
64.550 20.008265
64.555 20.064819
64.560 19.342348
64.565 19.767971
64.570 19.543215
64.575 19.690691
64.580 19.081236
64.585 19.250244
64.590 19.474396
64.595 19.876348
64.600 20.050087
64.605 20.478556
64.610 20.222828
64.615 20.512087
64.620 20.741213
64.625 20.546383
64.630 20.560055
64.635 20.482464
64.640 20.925152
64.645 21.484068
64.650 21.493753
64.655 21.169199
64.660 21.559799
64.665 21.73093
64.670 21.818224
64.675 20.970804
64.680 20.542747
64.685 20.71962
64.690 21.263432
64.695 21.095743
64.700 20.649832
64.705 20.548712
64.710 21.234756
64.715 21.883669
64.720 21.493759
64.725 20.575436
64.730 20.730783
64.735 21.411247
64.740 21.246607
64.745 21.119392
64.750 20.855183
64.755 21.264458
64.760 22.090429
64.765 21.680912
64.770 21.450045
64.775 21.76156
64.780 21.507078
64.785 21.811262
64.790 21.885393
64.795 21.400373
64.800 21.531233
64.805 21.891083
64.810 22.209751
64.815 22.889887
64.820 22.914389
64.825 23.095478
64.830 23.489893
64.835 23.591555
64.840 23.313063
64.845 23.439436
64.850 22.736395
64.855 22.162422
64.860 22.12184
64.865 22.049854
64.870 22.229511
64.875 21.731798
64.880 21.284363
64.885 21.361103
64.890 21.152126
64.895 20.897499
64.900 20.494919
64.905 20.77335
64.910 20.689362
64.915 21.133438
64.920 21.427031
64.925 21.671722
64.930 21.94257
64.935 22.466818
64.940 21.93895
64.945 22.605581
64.950 21.937323
64.955 22.089401
64.960 22.062033
64.965 21.830809
64.970 21.458647
64.975 21.961079
64.980 22.081966
64.985 22.741528
64.990 23.610207
64.995 24.0912
65.000 24.85511
65.005 24.91227
65.010 24.879391
65.015 24.66506
65.020 25.561003
65.025 25.503649
65.030 25.233356
65.035 24.950808
65.040 24.983421
65.045 25.331785
65.050 25.673157
65.055 24.580711
65.060 23.947407
65.065 24.254091
65.070 24.461393
65.075 24.51104
65.080 24.416035
65.085 24.446072
65.090 24.550304
65.095 25.768526
65.100 25.88051
65.105 25.799063
65.110 25.545815
65.115 24.912523
65.120 24.829153
65.125 24.906546
65.130 24.37196
65.135 24.400139
65.140 24.673584
65.145 24.473679
65.150 24.033873
65.155 23.946449
65.160 23.866911
65.165 23.718086
65.170 22.823769
65.175 22.256653
65.180 23.011547
65.185 23.447199
65.190 22.846989
65.195 22.121815
65.200 21.575037
65.205 21.793926
65.210 22.243263
65.215 22.286963
65.220 22.842564
65.225 23.588646
65.230 24.179966
65.235 23.957499
65.240 24.108303
65.245 24.107044
65.250 23.859726
65.255 23.022173
65.260 22.887735
65.265 23.643562
65.270 23.596958
65.275 24.012243
65.280 24.466654
65.285 24.60298
65.290 24.93928
65.295 24.579851
65.300 24.274506
65.305 24.680416
65.310 24.647774
65.315 23.983786
65.320 23.753963
65.325 23.663277
65.330 23.596827
65.335 23.66503
65.340 24.233585
65.345 24.265265
65.350 24.556423
65.355 24.192406
65.360 23.660372
65.365 23.211514
65.370 22.489105
65.375 22.345659
65.380 21.768156
65.385 21.661106
65.390 21.96941
65.395 22.437687
65.400 22.810783
65.405 22.525093
65.410 22.077221
65.415 21.921215
65.420 21.478777
65.425 21.556734
65.430 21.597982
65.435 21.226236
65.440 21.803139
65.445 21.858562
65.450 22.627853
65.455 22.486668
65.460 22.511099
65.465 22.544537
65.470 22.490578
65.475 21.525202
65.480 21.488268
65.485 21.078033
65.490 21.326429
65.495 21.248899
65.500 20.923962
65.505 21.571222
65.510 21.888643
65.515 21.805719
65.520 22.137718
65.525 22.199522
65.530 22.37184
65.535 22.622463
65.540 22.279554
65.545 22.173544
65.550 22.091055
65.555 21.65052
65.560 21.759226
65.565 22.360662
65.570 23.115406
65.575 22.919134
65.580 23.410971
65.585 23.21451
65.590 23.266373
65.595 22.84646
65.600 22.59297
65.605 22.550014
65.610 22.861191
65.615 22.535057
65.620 22.916555
65.625 23.042557
65.630 23.053431
65.635 22.427959
65.640 22.605804
65.645 23.375462
65.650 23.546782
65.655 23.365416
65.660 23.236631
65.665 23.371208
65.670 22.836342
65.675 21.691008
65.680 21.371677
65.685 21.150549
65.690 21.720808
65.695 22.318644
65.700 22.725704
65.705 23.826565
65.710 24.469469
65.715 24.581068
65.720 24.590816
65.725 24.598875
65.730 24.390106
65.735 24.673172
65.740 24.313028
65.745 23.964331
65.750 24.199472
65.755 24.398552
65.760 23.351244
65.765 23.673676
65.770 23.685577
65.775 24.245987
65.780 24.914707
65.785 25.204224
65.790 25.720192
65.795 26.817293
65.800 26.552229
65.805 26.535051
65.810 26.214609
65.815 25.207283
65.820 24.899065
65.825 24.740108
65.830 24.340141
65.835 24.39642
65.840 24.434732
65.845 24.86035
65.850 25.349131
65.855 25.869261
65.860 26.335901
65.865 26.585676
65.870 26.899462
65.875 27.404884
65.880 27.810291
65.885 28.082212
65.890 28.274607
65.895 28.030695
65.900 28.334534
65.905 28.154762
65.910 27.851881
65.915 28.015924
65.920 27.80522
65.925 27.634718
65.930 28.165342
65.935 28.784147
65.940 28.134071
65.945 27.337763
65.950 26.474918
65.955 26.61541
65.960 26.399736
65.965 26.033251
65.970 26.135715
65.975 27.483866
65.980 28.47587
65.985 29.509279
65.990 29.686392
65.995 30.103666
66.000 30.431564
66.005 30.220819
66.010 29.240885
66.015 29.241323
66.020 28.656113
66.025 29.446331
66.030 29.695036
66.035 30.210962
66.040 30.613199
66.045 31.280321
66.050 31.342321
66.055 31.144394
66.060 30.945183
66.065 31.905636
66.070 31.02269
66.075 31.078419
66.080 31.422503
66.085 32.246899
66.090 32.900082
66.095 32.943867
66.100 31.967541
66.105 32.599319
66.110 32.861794
66.115 31.81036
66.120 31.425779
66.125 31.473028
66.130 31.128805
66.135 31.196592
66.140 30.930042
66.145 31.170794
66.150 31.785107
66.155 31.470444
66.160 31.818151
66.165 32.448437
66.170 32.741276
66.175 33.091686
66.180 32.205635
66.185 32.281319
66.190 32.898262
66.195 32.508808
66.200 32.174606
66.205 32.973106
66.210 33.383057
66.215 34.000378
66.220 33.356976
66.225 33.063427
66.230 33.844261
66.235 34.778812
66.240 34.674896
66.245 34.792919
66.250 35.1548
66.255 36.57159
66.260 36.61116
66.265 36.073753
66.270 35.339401
66.275 34.515514
66.280 34.361526
66.285 35.00684
66.290 34.753342
66.295 34.186745
66.300 33.77552
66.305 33.455338
66.310 33.650406
66.315 33.186825
66.320 32.030289
66.325 31.601391
66.330 31.756376
66.335 32.076157
66.340 31.881332
66.345 32.138855
66.350 32.569164
66.355 32.665462
66.360 33.083828
66.365 33.722805
66.370 34.415771
66.375 34.021175
66.380 32.812199
66.385 32.578175
66.390 32.719833
66.395 32.023869
66.400 31.314602
66.405 30.195059
66.410 30.908157
66.415 31.567387
66.420 30.950266
66.425 30.509508
66.430 30.735569
66.435 30.445477
66.440 30.661386
66.445 30.013535
66.450 29.685909
66.455 29.861563
66.460 29.802591
66.465 29.583864
66.470 29.943037
66.475 29.140755
66.480 28.792887
66.485 28.483191
66.490 28.434557
66.495 28.095884
66.500 27.340858
66.505 26.49798
66.510 27.507236
66.515 26.97019
66.520 25.982033
66.525 25.977776
66.530 25.965137
66.535 25.569536
66.540 25.24445
66.545 24.191347
66.550 24.554071
66.555 23.953306
66.560 23.294886
66.565 23.323788
66.570 22.893961
66.575 22.826134
66.580 23.220636
66.585 23.761822
66.590 24.463005
66.595 24.102247
66.600 24.209475
66.605 24.663336
66.610 24.612913
66.615 24.498322
66.620 24.154066
66.625 23.560001
66.630 22.862843
66.635 22.807806
66.640 22.846899
66.645 22.617918
66.650 21.791847
66.655 21.550695
66.660 21.716202
66.665 21.595129
66.670 20.790991
66.675 20.001007
66.680 20.032221
66.685 19.958231
66.690 18.942545
66.695 18.468506
66.700 18.309067
66.705 19.205494
66.710 20.249012
66.715 20.161831
66.720 20.123642
66.725 19.972652
66.730 20.38809
66.735 20.693413
66.740 19.94171
66.745 19.437004
66.750 19.228535
66.755 19.570066
66.760 19.821466
66.765 19.575033
66.770 19.325094
66.775 19.504349
66.780 19.234486
66.785 19.232012
66.790 18.447411
66.795 18.317938
66.800 18.811237
66.805 18.813496
66.810 18.620581
66.815 18.63645
66.820 18.361271
66.825 18.451773
66.830 18.282425
66.835 17.897348
66.840 17.858847
66.845 17.974947
66.850 17.962116
66.855 18.187143
66.860 19.007584
66.865 19.076008
66.870 19.719593
66.875 19.794329
66.880 19.52244
66.885 19.766958
66.890 19.599594
66.895 19.547096
66.900 19.494192
66.905 19.56476
66.910 19.350218
66.915 19.593082
66.920 19.279415
66.925 19.501875
66.930 19.203043
66.935 19.714127
66.940 19.516338
66.945 19.416468
66.950 19.176119
66.955 19.158079
66.960 19.387238
66.965 19.641325
66.970 19.216703
66.975 19.760811
66.980 20.505875
66.985 20.775305
66.990 21.16494
66.995 20.728123
67.000 20.642874
67.005 21.069746
67.010 20.771156
67.015 20.065435
67.020 19.482275
67.025 18.95841
67.030 18.979073
67.035 18.48889
67.040 18.107037
67.045 18.276197
67.050 18.542233
67.055 18.829952
67.060 18.928204
67.065 18.349009
67.070 18.403381
67.075 18.40888
67.080 17.957123
67.085 18.418753
67.090 18.221952
67.095 18.517542
67.100 18.466841
67.105 18.069227
67.110 17.60228
67.115 17.249212
67.120 16.751432
67.125 16.466063
67.130 16.301916
67.135 16.658598
67.140 16.415535
67.145 16.80125
67.150 17.380016
67.155 17.520712
67.160 18.197731
67.165 18.877808
67.170 18.687584
67.175 18.750822
67.180 18.812809
67.185 18.785839
67.190 19.156643
67.195 18.91909
67.200 18.856709
67.205 19.033964
67.210 18.906197
67.215 18.494629
67.220 18.217369
67.225 17.768709
67.230 17.313314
67.235 16.971939
67.240 17.338806
67.245 17.487482
67.250 17.311577
67.255 17.681242
67.260 18.180653
67.265 18.454132
67.270 18.563442
67.275 18.480453
67.280 18.394346
67.285 18.828432
67.290 18.867453
67.295 18.375004
67.300 18.374727
67.305 18.785162
67.310 19.086592
67.315 19.617447
67.320 19.503429
67.325 18.902657
67.330 19.085342
67.335 19.017736
67.340 18.504105
67.345 17.942785
67.350 17.525843
67.355 17.541409
67.360 17.951157
67.365 17.745077
67.370 17.487909
67.375 17.849941
67.380 18.154083
67.385 18.756447
67.390 19.058374
67.395 18.805962
67.400 18.817883
67.405 18.680511
67.410 18.759562
67.415 18.836729
67.420 18.671036
67.425 18.11709
67.430 17.964367
67.435 18.487713
67.440 18.763517
67.445 18.358717
67.450 18.203995
67.455 17.837337
67.460 18.094931
67.465 18.406216
67.470 18.331244
67.475 18.278885
67.480 18.205395
67.485 18.64126
67.490 18.625261
67.495 18.524197
67.500 18.765823
67.505 18.933916
67.510 19.312616
67.515 19.582941
67.520 19.192596
67.525 19.429897
67.530 19.430634
67.535 19.069139
67.540 18.410442
67.545 18.199223
67.550 18.205162
67.555 18.597904
67.560 18.876455
67.565 18.77622
67.570 18.25452
67.575 18.353037
67.580 18.425516
67.585 18.456751
67.590 17.99184
67.595 18.003319
67.600 18.34008
67.605 18.430906
67.610 18.334129
67.615 18.146366
67.620 17.995037
67.625 18.142622
67.630 18.180521
67.635 18.628695
67.640 19.153198
67.645 19.194777
67.650 19.087952
67.655 19.514261
67.660 19.773602
67.665 19.658001
67.670 19.517262
67.675 19.548559
67.680 19.901926
67.685 19.629562
67.690 19.0063
67.695 18.048618
67.700 17.065237
67.705 16.848125
67.710 17.034866
67.715 17.449036
67.720 17.849077
67.725 17.584534
67.730 17.701223
67.735 17.896002
67.740 18.468517
67.745 17.94639
67.750 17.160397
67.755 17.40971
67.760 18.301413
67.765 18.834377
67.770 18.55064
67.775 18.121052
67.780 18.319807
67.785 18.403391
67.790 17.501461
67.795 16.920982
67.800 17.352121
67.805 17.668791
67.810 17.938204
67.815 18.051128
67.820 17.955397
67.825 18.213337
67.830 18.100658
67.835 17.297907
67.840 17.29767
67.845 16.799782
67.850 16.66968
67.855 17.363932
67.860 17.380199
67.865 17.695181
67.870 18.505255
67.875 18.382648
67.880 18.753904
67.885 18.525518
67.890 18.073854
67.895 18.250473
67.900 18.507915
67.905 18.49431
67.910 18.895147
67.915 18.832544
67.920 19.212147
67.925 19.525087
67.930 19.625593
67.935 18.96093
67.940 18.20125
67.945 17.773869
67.950 17.93327
67.955 17.976223
67.960 17.996437
67.965 18.040842
67.970 18.477623
67.975 18.989744
67.980 18.909412
67.985 18.513865
67.990 17.898521
67.995 17.654522
68.000 17.058262
68.005 17.092907
68.010 17.000648
68.015 16.642412
68.020 16.444267
68.025 16.867336
68.030 17.172483
68.035 18.092047
68.040 18.623945
68.045 18.68157
68.050 19.191006
68.055 19.848785
68.060 19.471415
68.065 19.330217
68.070 19.467737
68.075 19.388546
68.080 19.422964
68.085 19.237181
68.090 19.058968
68.095 19.590769
68.100 19.414377
68.105 18.628534
68.110 18.120518
68.115 18.141308
68.120 18.083723
68.125 18.049061
68.130 17.972862
68.135 18.499277
68.140 18.63835
68.145 18.635094
68.150 18.498892
68.155 18.389332
68.160 18.047682
68.165 17.567503
68.170 17.035685
68.175 16.582378
68.180 16.78886
68.185 16.787746
68.190 16.960373
68.195 16.757286
68.200 16.465567
68.205 16.167337
68.210 16.105455
68.215 15.734788
68.220 16.388027
68.225 16.447868
68.230 17.014629
68.235 17.864531
68.240 17.536488
68.245 17.884317
68.250 18.328371
68.255 18.112181
68.260 18.635147
68.265 18.827473
68.270 18.945946
68.275 19.809052
68.280 20.127724
68.285 19.953215
68.290 20.372936
68.295 20.447651
68.300 19.836967
68.305 19.453863
68.310 19.061289
68.315 18.490208
68.320 18.564344
68.325 18.209093
68.330 18.15807
68.335 18.141285
68.340 18.131872
68.345 18.681894
68.350 19.487734
68.355 19.659859
68.360 19.420774
68.365 19.267178
68.370 19.413494
68.375 19.075592
68.380 18.404024
68.385 18.02009
68.390 17.923594
68.395 17.664461
68.400 17.637779
68.405 17.796089
68.410 18.686602
68.415 18.949078
68.420 19.212326
68.425 19.470354
68.430 20.134314
68.435 19.930182
68.440 19.592613
68.445 19.42539
68.450 20.004036
68.455 19.924118
68.460 19.666023
68.465 19.74472
68.470 19.932741
68.475 19.898825
68.480 19.589838
68.485 19.160852
68.490 18.79073
68.495 18.835144
68.500 19.152313
68.505 19.782082
68.510 20.296488
68.515 20.82505
68.520 20.565413
68.525 20.500822
68.530 19.840925
68.535 19.042236
68.540 18.332474
68.545 18.067732
68.550 18.096731
68.555 17.620771
68.560 17.450159
68.565 17.444496
68.570 17.442141
68.575 17.931242
68.580 17.669895
68.585 16.88051
68.590 17.45558
68.595 17.987724
68.600 18.74861
68.605 18.922163
68.610 19.235369
68.615 19.564863
68.620 20.037931
68.625 19.663363
68.630 18.91234
68.635 18.108715
68.640 17.852894
68.645 16.868311
68.650 16.493029
68.655 16.488234
68.660 17.280819
68.665 17.955452
68.670 17.984356
68.675 18.140846
68.680 18.436947
68.685 18.898705
68.690 18.776413
68.695 18.807266
68.700 18.750055
68.705 18.905914
68.710 18.927261
68.715 18.790693
68.720 18.105747
68.725 18.345882
68.730 18.251804
68.735 18.528662
68.740 18.843592
68.745 19.028194
68.750 19.317343
68.755 19.533855
68.760 19.412273
68.765 19.566956
68.770 19.239155
68.775 18.922724
68.780 18.779644
68.785 19.154968
68.790 19.034031
68.795 18.717209
68.800 18.589083
68.805 19.327421
68.810 19.849159
68.815 19.402227
68.820 19.051773
68.825 19.173449
68.830 18.906425
68.835 19.31698
68.840 19.045942
68.845 18.434093
68.850 18.651497
68.855 19.048384
68.860 19.267616
68.865 19.968454
68.870 19.351652
68.875 19.664421
68.880 20.922668
68.885 21.369963
68.890 21.500486
68.895 21.343445
68.900 21.238159
68.905 21.295918
68.910 21.198433
68.915 20.408762
68.920 20.004547
68.925 19.59841
68.930 19.549129
68.935 19.585606
68.940 20.072145
68.945 19.821295
68.950 20.059441
68.955 20.174828
68.960 20.833982
68.965 21.04302
68.970 21.110033
68.975 20.425255
68.980 20.45566
68.985 20.558357
68.990 20.684954
68.995 20.177986
69.000 20.157946
69.005 20.165403
69.010 20.946241
69.015 21.392712
69.020 21.363909
69.025 21.273998
69.030 21.535919
69.035 21.883127
69.040 22.465975
69.045 22.423176
69.050 22.242184
69.055 22.787518
69.060 22.721411
69.065 22.794764
69.070 23.124788
69.075 22.739565
69.080 23.158983
69.085 22.976011
69.090 23.272995
69.095 23.602926
69.100 24.207077
69.105 23.87723
69.110 23.809946
69.115 23.487583
69.120 23.642412
69.125 22.966677
69.130 22.54129
69.135 22.315737
69.140 22.122946
69.145 22.4888
69.150 22.527563
69.155 22.386875
69.160 22.835928
69.165 23.069105
69.170 23.185688
69.175 23.663984
69.180 23.595184
69.185 23.936764
69.190 24.279491
69.195 24.701019
69.200 24.842365
69.205 24.975163
69.210 25.068991
69.215 25.030312
69.220 24.886137
69.225 25.611403
69.230 25.88513
69.235 25.610704
69.240 25.076756
69.245 24.530212
69.250 24.082851
69.255 23.973637
69.260 23.218836
69.265 23.190426
69.270 24.688404
69.275 25.80933
69.280 26.909552
69.285 28.108019
69.290 28.773046
69.295 28.634481
69.300 28.399351
69.305 27.53871
69.310 27.070656
69.315 27.279383
69.320 27.383076
69.325 27.707293
69.330 27.830339
69.335 27.965412
69.340 27.698023
69.345 28.122282
69.350 28.665279
69.355 28.782906
69.360 28.60648
69.365 28.508148
69.370 28.151258
69.375 28.269876
69.380 27.668566
69.385 26.784382
69.390 26.947031
69.395 27.290438
69.400 27.357954
69.405 27.575016
69.410 28.309849
69.415 28.615891
69.420 28.322351
69.425 28.009912
69.430 28.616005
69.435 29.381578
69.440 29.869419
69.445 29.550541
69.450 30.530537
69.455 31.637285
69.460 31.236919
69.465 31.078926
69.470 31.15275
69.475 31.397511
69.480 32.306335
69.485 32.547024
69.490 32.743145
69.495 33.009502
69.500 32.630272
69.505 32.297344
69.510 32.117695
69.515 31.677162
69.520 31.597605
69.525 31.48876
69.530 31.863071
69.535 32.64127
69.540 32.787537
69.545 32.342564
69.550 31.702068
69.555 31.566589
69.560 30.766771
69.565 30.337275
69.570 29.572113
69.575 29.946915
69.580 30.405195
69.585 30.376844
69.590 29.67395
69.595 30.363972
69.600 31.100252
69.605 31.198557
69.610 30.853222
69.615 30.724312
69.620 31.44717
69.625 30.987492
69.630 30.135408
69.635 29.774603
69.640 29.890997
69.645 29.903261
69.650 29.246763
69.655 28.725468
69.660 28.852179
69.665 28.83157
69.670 28.967583
69.675 29.117504
69.680 28.603937
69.685 28.65736
69.690 28.115608
69.695 28.649162
69.700 29.312408
69.705 28.9793
69.710 27.950241
69.715 27.852869
69.720 28.113567
69.725 28.228699
69.730 27.88904
69.735 27.172941
69.740 27.471712
69.745 28.196299
69.750 28.358227
69.755 27.99202
69.760 27.027687
69.765 26.058611
69.770 25.123499
69.775 23.851017
69.780 23.463661
69.785 23.989101
69.790 24.045715
69.795 24.762953
69.800 25.046474
69.805 25.547289
69.810 25.890423
69.815 26.222502
69.820 25.784006
69.825 26.115238
69.830 26.780436
69.835 27.157261
69.840 27.061279
69.845 27.040178
69.850 25.976141
69.855 25.361092
69.860 24.437227
69.865 23.815449
69.870 23.701632
69.875 23.201889
69.880 23.24118
69.885 23.836847
69.890 23.587021
69.895 23.586876
69.900 23.301445
69.905 22.940754
69.910 23.075621
69.915 22.548929
69.920 22.053595
69.925 21.430145
69.930 21.126566
69.935 20.470764
69.940 20.423801
69.945 20.310759
69.950 20.442396
69.955 20.415604
69.960 20.791559
69.965 20.95385
69.970 20.989271
69.975 21.063368
69.980 20.804394
69.985 20.790251
69.990 21.057117
69.995 21.361797
70.000 20.956461
70.005 20.386915
70.010 20.474064
70.015 20.774868
70.020 20.738497
70.025 20.611088
70.030 20.715147
70.035 21.576303
70.040 21.558165
70.045 21.025005
70.050 20.749807
70.055 20.983109
70.060 20.756931
70.065 20.187149
70.070 19.978092
70.075 19.86253
70.080 19.502903
70.085 19.850056
70.090 19.518528
70.095 18.741413
70.100 18.582375
70.105 18.558359
70.110 19.024014
70.115 20.010475
70.120 20.098213
70.125 20.382498
70.130 21.038643
70.135 20.795876
70.140 20.620712
70.145 21.295568
70.150 20.053219
70.155 19.10251
70.160 18.404064
70.165 17.944351
70.170 17.462656
70.175 16.923979
70.180 15.941116
70.185 15.943239
70.190 16.219624
70.195 16.713791
70.200 16.550589
70.205 16.835342
70.210 17.153889
70.215 17.50025
70.220 17.574028
70.225 17.585318
70.230 17.622795
70.235 18.203646
70.240 17.999372
70.245 18.15642
70.250 18.524403
70.255 19.134907
70.260 19.367249
70.265 18.639935
70.270 18.244699
70.275 18.474709
70.280 18.597277
70.285 18.251289
70.290 17.616829
70.295 17.733519
70.300 18.296848
70.305 18.709883
70.310 18.641214
70.315 18.389002
70.320 18.758862
70.325 19.365435
70.330 19.440327
70.335 19.430567
70.340 19.427708
70.345 19.649822
70.350 19.244558
70.355 19.149633
70.360 18.581154
70.365 18.469456
70.370 18.333004
70.375 18.046417
70.380 18.105488
70.385 17.533531
70.390 17.207497
70.395 17.261118
70.400 17.947443
70.405 17.861071
70.410 18.06072
70.415 18.321636
70.420 19.339128
70.425 19.619671
70.430 20.235905
70.435 19.909735
70.440 20.157822
70.445 19.407772
70.450 18.901066
70.455 18.265076
70.460 17.713467
70.465 17.178043
70.470 17.014221
70.475 16.871206
70.480 17.074659
70.485 17.764647
70.490 18.071039
70.495 17.846254
70.500 17.717722
70.505 18.008541
70.510 18.266321
70.515 18.330528
70.520 17.986027
70.525 18.273232
70.530 18.542179
70.535 18.281494
70.540 18.02791
70.545 18.169941
70.550 18.381475
70.555 17.920206
70.560 18.008068
70.565 18.49966
70.570 18.849573
70.575 18.887806
70.580 18.679049
70.585 18.490772
70.590 18.838873
70.595 18.626038
70.600 18.595646
70.605 18.182693
70.610 17.965309
70.615 18.275211
70.620 18.191996
70.625 17.744619
70.630 17.416763
70.635 17.400864
70.640 17.115856
70.645 17.172089
70.650 17.111193
70.655 18.075212
70.660 18.258751
70.665 18.104927
70.670 18.175116
70.675 18.425795
70.680 18.392605
70.685 18.407133
70.690 18.019722
70.695 18.145096
70.700 17.606449
70.705 17.765072
70.710 18.091236
70.715 17.831499
70.720 17.283312
70.725 17.291918
70.730 17.576593
70.735 18.292278
70.740 18.03417
70.745 17.619003
70.750 17.704451
70.755 18.037268
70.760 17.663265
70.765 18.12557
70.770 18.02577
70.775 17.774286
70.780 17.711046
70.785 17.526558
70.790 17.82386
70.795 17.668236
70.800 18.110167
70.805 17.75033
70.810 18.415455
70.815 18.445063
70.820 18.578058
70.825 18.701313
70.830 18.841726
70.835 18.117514
70.840 18.189617
70.845 17.931406
70.850 18.614662
70.855 18.773312
70.860 18.861725
70.865 18.212818
70.870 18.04464
70.875 18.185719
70.880 18.445276
70.885 17.903791
70.890 17.457098
70.895 17.384991
70.900 17.376871
70.905 17.510284
70.910 17.214844
70.915 16.838947
70.920 17.004698
70.925 17.385939
70.930 17.908562
70.935 18.184937
70.940 18.609713
70.945 18.446886
70.950 17.8881
70.955 17.25457
70.960 17.107031
70.965 16.935032
70.970 17.00979
70.975 16.804245
70.980 17.34157
70.985 18.228701
70.990 18.298754
70.995 18.265869
71.000 17.993391
71.005 18.247015
71.010 18.375658
71.015 18.681469
71.020 18.341526
71.025 17.978228
71.030 17.656946
71.035 17.392588
71.040 17.255354
71.045 17.430954
71.050 17.715437
71.055 17.755127
71.060 18.231655
71.065 18.168552
71.070 18.080528
71.075 17.899284
71.080 17.631361
71.085 17.60565
71.090 17.703308
71.095 17.949173
71.100 17.933731
71.105 17.95289
71.110 17.741938
71.115 17.553596
71.120 17.120655
71.125 16.77652
71.130 17.046417
71.135 17.107882
71.140 17.265476
71.145 17.521109
71.150 17.65279
71.155 17.759684
71.160 17.46015
71.165 17.137402
71.170 17.274813
71.175 17.281202
71.180 16.920225
71.185 16.788897
71.190 16.675777
71.195 16.510405
71.200 16.284445
71.205 16.960476
71.210 16.449919
71.215 16.313372
71.220 16.44664
71.225 16.630383
71.230 16.694576
71.235 16.394178
71.240 15.891975
71.245 15.806654
71.250 15.77929
71.255 16.256273
71.260 16.60701
71.265 17.460613
71.270 17.84738
71.275 18.049278
71.280 17.999256
71.285 18.033215
71.290 17.656956
71.295 17.21031
71.300 17.253721
71.305 17.478182
71.310 17.889149
71.315 18.292088
71.320 18.105116
71.325 18.544741
71.330 18.52339
71.335 17.972668
71.340 17.511501
71.345 17.065907
71.350 17.12612
71.355 16.986286
71.360 16.71003
71.365 16.887197
71.370 17.129412
71.375 17.475857
71.380 17.679996
71.385 17.683001
71.390 17.741827
71.395 17.841509
71.400 18.243835
71.405 18.099487
71.410 18.668879
71.415 18.655909
71.420 18.33622
71.425 18.114552
71.430 18.062431
71.435 17.82189
71.440 17.447227
71.445 17.297817
71.450 17.665192
71.455 18.185049
71.460 18.524797
71.465 18.594959
71.470 18.607874
71.475 18.951052
71.480 18.769737
71.485 18.585798
71.490 18.084751
71.495 18.028316
71.500 17.521103
71.505 16.942562
71.510 16.266651
71.515 16.37006
71.520 16.830013
71.525 16.918903
71.530 16.374079
71.535 17.012129
71.540 18.12402
71.545 18.444324
71.550 18.400152
71.555 18.252254
71.560 18.132771
71.565 18.131296
71.570 17.210278
71.575 16.763737
71.580 16.542152
71.585 16.302948
71.590 16.05999
71.595 16.025436
71.600 16.441839
71.605 16.895828
71.610 16.615465
71.615 16.805626
71.620 17.022108
71.625 17.366577
71.630 18.053062
71.635 17.981804
71.640 17.73597
71.645 17.368677
71.650 17.068935
71.655 17.424297
71.660 16.969461
71.665 16.361851
71.670 16.151289
71.675 16.252941
71.680 16.58058
71.685 16.366348
71.690 15.887355
71.695 16.344696
71.700 16.777103
71.705 17.289034
71.710 17.933889
71.715 18.302889
71.720 18.673208
71.725 18.761274
71.730 18.541435
71.735 18.007713
71.740 17.618277
71.745 17.553028
71.750 17.510317
71.755 17.157036
71.760 17.047073
71.765 17.055637
71.770 17.293566
71.775 17.169426
71.780 16.875555
71.785 16.78326
71.790 16.784676
71.795 17.023201
71.800 17.100399
71.805 17.093254
71.810 16.998848
71.815 16.921488
71.820 16.894611
71.825 16.421928
71.830 16.171185
71.835 16.299299
71.840 16.082464
71.845 16.446421
71.850 16.748613
71.855 16.62619
71.860 16.916422
71.865 17.625824
71.870 18.219416
71.875 18.884916
71.880 19.101515
71.885 19.031046
71.890 19.364645
71.895 18.91436
71.900 18.483963
71.905 17.655626
71.910 16.917961
71.915 16.406628
71.920 16.910759
71.925 16.599176
71.930 16.6355
71.935 16.50725
71.940 16.763103
71.945 16.208693
71.950 15.920905
71.955 16.007744
71.960 16.45322
71.965 16.345158
71.970 16.027973
71.975 16.115721
71.980 16.455965
71.985 16.181976
71.990 15.629682
71.995 14.877385
72.000 14.966204
72.005 14.86727
72.010 14.944998
72.015 15.610648
72.020 15.71484
72.025 16.423622
72.030 16.691916
72.035 16.333172
72.040 16.459427
72.045 16.515511
72.050 16.361195
72.055 16.314928
72.060 16.266319
72.065 16.821968
72.070 17.031145
72.075 17.213854
72.080 17.429861
72.085 17.965372
72.090 17.820032
72.095 17.223558
72.100 17.076384
72.105 17.336527
72.110 16.925644
72.115 16.382479
72.120 16.601025
72.125 16.504045
72.130 16.739716
72.135 16.73859
72.140 16.598181
72.145 16.305262
72.150 16.123106
72.155 15.789636
72.160 16.319326
72.165 16.431427
72.170 16.084866
72.175 16.369871
72.180 16.825676
72.185 16.835403
72.190 16.693304
72.195 16.63081
72.200 16.561388
72.205 17.056093
72.210 16.87994
72.215 17.220034
72.220 17.284904
72.225 17.399427
72.230 17.683147
72.235 17.738449
72.240 18.13434
72.245 17.951456
72.250 17.610918
72.255 17.924637
72.260 18.21019
72.265 18.401741
72.270 18.170509
72.275 18.124237
72.280 18.174755
72.285 18.331039
72.290 18.225739
72.295 17.949158
72.300 18.443016
72.305 18.735662
72.310 18.30271
72.315 18.543409
72.320 17.906153
72.325 17.493101
72.330 16.653629
72.335 16.022379
72.340 15.814259
72.345 15.485239
72.350 15.007413
72.355 15.466501
72.360 15.286354
72.365 15.763704
72.370 15.75709
72.375 15.894532
72.380 16.423714
72.385 16.209553
72.390 15.918262
72.395 16.392805
72.400 16.018476
72.405 15.741543
72.410 16.032778
72.415 16.228441
72.420 16.721182
72.425 16.921425
72.430 16.947754
72.435 17.241066
72.440 17.184702
72.445 16.892534
72.450 16.967283
72.455 16.458771
72.460 16.085932
72.465 15.89513
72.470 15.459122
72.475 15.25555
72.480 15.204033
72.485 15.050925
72.490 15.998528
72.495 16.265558
72.500 16.672089
72.505 17.647919
72.510 17.931787
72.515 17.933109
72.520 18.226727
72.525 17.887869
72.530 17.697161
72.535 18.115282
72.540 17.744068
72.545 17.533602
72.550 17.529613
72.555 17.714216
72.560 17.686911
72.565 17.768616
72.570 17.005245
72.575 16.567335
72.580 16.70393
72.585 16.420946
72.590 16.340296
72.595 16.306793
72.600 16.685034
72.605 17.063198
72.610 17.347795
72.615 17.417128
72.620 16.994459
72.625 16.960886
72.630 16.292448
72.635 15.927692
72.640 15.509264
72.645 16.218636
72.650 16.488342
72.655 16.584391
72.660 16.431656
72.665 16.834011
72.670 16.760109
72.675 16.59865
72.680 15.879146
72.685 15.558385
72.690 15.422019
72.695 15.903971
72.700 15.622523
72.705 15.874191
72.710 16.117847
72.715 16.066767
72.720 16.027941
72.725 15.784708
72.730 15.894563
72.735 15.941086
72.740 16.016808
72.745 16.199387
72.750 16.308434
72.755 16.441465
72.760 16.39403
72.765 16.620932
72.770 16.539539
72.775 16.222389
72.780 15.714625
72.785 15.70486
72.790 15.296728
72.795 15.474456
72.800 15.33727
72.805 15.661909
72.810 15.666814
72.815 15.738759
72.820 15.995528
72.825 16.500196
72.830 16.1411
72.835 15.834232
72.840 15.398954
72.845 15.584093
72.850 15.723386
72.855 15.665596
72.860 15.562741
72.865 15.506695
72.870 15.592674
72.875 15.767363
72.880 16.013655
72.885 15.323743
72.890 15.237921
72.895 15.711287
72.900 16.307775
72.905 16.715464
72.910 16.30711
72.915 16.516262
72.920 17.131165
72.925 17.768986
72.930 17.330608
72.935 17.010235
72.940 16.931204
72.945 16.921913
72.950 16.238476
72.955 15.867104
72.960 15.048481
72.965 15.199883
72.970 14.970977
72.975 15.294095
72.980 15.91377
72.985 16.708639
72.990 16.82995
72.995 16.737726
73.000 17.216143
