!@!!GADDS PLOTSO FILE: Chi integration type
!@!!Title/SampleName: map-2a
!@!!Comment: ?
!@!!User: Bruker Instrument Administrator
!@!!Site: University of Illinois Chicago
!@!!Frame: map-2a_01_000.gfrm
!@!!Wavelengths    1.54184   1.54056   1.54439
!@!!Frame angles: 2Theta: 63.000 Omega: 50.000 Phi: 0.000 Chi: 90.000
!@!!Integration range: 2Theta: 53.000 to 73.000  Gamma: -105.000 to -75.000
!@!!Integration method: bin normalized
!@!N
!@!SS
!@!M
!@!L 0.0 0.0 0.0 0.0
!@!XDegrees
!@!YCounts
53.000 7.06787
53.005 6.878699
53.010 7.015562
53.015 7.129122
53.020 6.949844
53.025 7.006495
53.030 7.100013
53.035 7.272975
53.040 7.41221
53.045 7.657989
53.050 7.907959
53.055 7.954548
53.060 7.840695
53.065 7.611982
53.070 7.666392
53.075 7.541666
53.080 7.28075
53.085 7.638025
53.090 7.706553
53.095 7.416021
53.100 7.441084
53.105 7.624475
53.110 7.812726
53.115 7.664629
53.120 7.234257
53.125 7.167509
53.130 7.486817
53.135 7.402647
53.140 7.072218
53.145 7.082816
53.150 7.126321
53.155 7.083297
53.160 7.16037
53.165 7.092856
53.170 6.717504
53.175 6.626688
53.180 6.34203
53.185 6.145863
53.190 6.194302
53.195 6.079014
53.200 6.606542
53.205 7.037358
53.210 7.167327
53.215 7.415133
53.220 7.49884
53.225 7.355395
53.230 7.486084
53.235 7.133898
53.240 7.155368
53.245 7.028769
53.250 7.370476
53.255 7.534853
53.260 8.120209
53.265 8.235843
53.270 8.03266
53.275 7.93749
53.280 7.981254
53.285 7.90927
53.290 8.204478
53.295 8.045403
53.300 8.011089
53.305 7.753879
53.310 8.011703
53.315 7.829589
53.320 7.71668
53.325 7.359167
53.330 7.455832
53.335 7.582852
53.340 8.005733
53.345 7.941881
53.350 7.961571
53.355 7.534037
53.360 7.405972
53.365 7.289348
53.370 7.0073
53.375 6.644915
53.380 6.522192
53.385 6.756971
53.390 6.911116
53.395 6.764779
53.400 6.730909
53.405 7.048344
53.410 7.408745
53.415 7.726651
53.420 7.859224
53.425 7.805562
53.430 8.008883
53.435 8.007392
53.440 7.910903
53.445 7.539283
53.450 7.181362
53.455 7.501257
53.460 7.746312
53.465 7.674292
53.470 7.589333
53.475 7.556262
53.480 7.558846
53.485 7.833858
53.490 7.692583
53.495 7.847381
53.500 8.375188
53.505 8.66855
53.510 8.734591
53.515 8.983049
53.520 8.724699
53.525 9.005383
53.530 8.874446
53.535 8.236367
53.540 8.039733
53.545 7.895988
53.550 7.978159
53.555 7.975167
53.560 7.674642
53.565 7.72908
53.570 7.836252
53.575 8.179129
53.580 8.534346
53.585 8.240969
53.590 7.935987
53.595 8.137247
53.600 7.982159
53.605 7.70331
53.610 7.167156
53.615 7.20479
53.620 7.697571
53.625 7.5831
53.630 7.050232
53.635 7.071434
53.640 7.707274
53.645 7.645427
53.650 7.386237
53.655 6.953999
53.660 6.837803
53.665 6.923216
53.670 6.953812
53.675 6.889968
53.680 7.165195
53.685 7.483886
53.690 7.662603
53.695 8.042218
53.700 8.687379
53.705 8.827002
53.710 8.891041
53.715 8.886377
53.720 8.790478
53.725 8.995674
53.730 8.656188
53.735 8.379193
53.740 8.074697
53.745 7.605907
53.750 7.399533
53.755 7.790147
53.760 8.113108
53.765 8.204936
53.770 8.156677
53.775 8.415664
53.780 8.925714
53.785 9.033411
53.790 8.687716
53.795 8.597069
53.800 8.922753
53.805 9.342297
53.810 9.262383
53.815 9.041735
53.820 8.987227
53.825 8.810697
53.830 8.439816
53.835 7.492373
53.840 6.880441
53.845 7.119183
53.850 6.934832
53.855 6.823439
53.860 6.886921
53.865 6.904026
53.870 6.993813
53.875 7.165079
53.880 7.460386
53.885 7.488527
53.890 7.474238
53.895 7.888796
53.900 8.409409
53.905 8.459384
53.910 8.168544
53.915 7.87155
53.920 7.823184
53.925 7.717276
53.930 7.446174
53.935 7.510782
53.940 7.561472
53.945 7.645773
53.950 7.548102
53.955 7.566188
53.960 7.298439
53.965 7.302693
53.970 7.525759
53.975 8.028658
53.980 8.557588
53.985 9.238098
53.990 9.845176
53.995 9.665854
54.000 9.38553
54.005 9.121699
54.010 8.921688
54.015 8.343936
54.020 7.965539
54.025 8.350365
54.030 8.625288
54.035 9.043658
54.040 9.194397
54.045 9.497895
54.050 9.326147
54.055 9.095777
54.060 8.848969
54.065 8.762797
54.070 8.561153
54.075 8.547643
54.080 8.652781
54.085 8.735088
54.090 8.671754
54.095 8.35494
54.100 8.311031
54.105 8.280645
54.110 7.90016
54.115 7.956213
54.120 8.059454
54.125 8.289546
54.130 8.62003
54.135 8.693716
54.140 8.434863
54.145 8.644094
54.150 8.703759
54.155 8.906744
54.160 8.383245
54.165 9.082918
54.170 9.18639
54.175 9.375192
54.180 9.27121
54.185 9.108692
54.190 9.143069
54.195 9.260387
54.200 8.800858
54.205 8.79743
54.210 8.910251
54.215 8.999119
54.220 9.020308
54.225 9.155484
54.230 9.221763
54.235 9.540527
54.240 9.241202
54.245 8.94478
54.250 8.801785
54.255 9.121723
54.260 9.724906
54.265 9.354206
54.270 9.116748
54.275 9.162541
54.280 9.374197
54.285 9.546358
54.290 9.36356
54.295 9.090794
54.300 9.345842
54.305 9.55912
54.310 9.416673
54.315 9.530531
54.320 9.483118
54.325 9.10341
54.330 9.208657
54.335 8.962137
54.340 9.082208
54.345 9.344869
54.350 9.490324
54.355 9.273838
54.360 8.869452
54.365 8.754684
54.370 8.973013
54.375 8.741259
54.380 8.438213
54.385 8.124957
54.390 8.261112
54.395 8.834195
54.400 8.950389
54.405 9.013431
54.410 9.219687
54.415 9.754544
54.420 9.955949
54.425 9.984342
54.430 9.527233
54.435 9.320539
54.440 9.091969
54.445 8.873414
54.450 8.597211
54.455 8.415316
54.460 8.200052
54.465 8.409236
54.470 8.517233
54.475 8.598826
54.480 8.716458
54.485 8.637384
54.490 8.781331
54.495 8.944153
54.500 8.947944
54.505 9.735606
54.510 9.744635
54.515 9.725776
54.520 9.548931
54.525 9.744803
54.530 9.794673
54.535 10.046233
54.540 10.236425
54.545 9.961443
54.550 9.503542
54.555 9.828944
54.560 9.915283
54.565 9.701221
54.570 8.918365
54.575 7.937386
54.580 7.768973
54.585 8.091828
54.590 7.998285
54.595 8.356179
54.600 8.282839
54.605 8.277225
54.610 8.743861
54.615 9.259411
54.620 9.585446
54.625 9.222886
54.630 9.031282
54.635 9.153286
54.640 9.35599
54.645 9.432764
54.650 9.515752
54.655 9.508623
54.660 9.714908
54.665 9.820476
54.670 9.89862
54.675 9.64273
54.680 9.074399
54.685 8.779806
54.690 8.572523
54.695 8.555787
54.700 8.392358
54.705 8.46785
54.710 8.792348
54.715 8.902822
54.720 9.159626
54.725 9.335843
54.730 9.63541
54.735 9.799473
54.740 9.704118
54.745 9.631655
54.750 9.897409
54.755 9.76347
54.760 9.933061
54.765 9.872204
54.770 10.326663
54.775 10.870634
54.780 11.181795
54.785 10.980495
54.790 10.957543
54.795 10.890767
54.800 10.755158
54.805 10.470347
54.810 10.200056
54.815 9.669122
54.820 9.208908
54.825 8.833366
54.830 8.410985
54.835 7.98695
54.840 7.626227
54.845 8.05991
54.850 8.337309
54.855 8.766744
54.860 9.32141
54.865 9.383537
54.870 9.480906
54.875 9.421667
54.880 9.098256
54.885 9.212146
54.890 9.14525
54.895 8.708899
54.900 9.088767
54.905 8.77725
54.910 9.095265
54.915 9.625487
54.920 9.743355
54.925 9.67029
54.930 9.607935
54.935 9.39466
54.940 9.983438
54.945 9.711783
54.950 9.75985
54.955 10.073811
54.960 9.969597
54.965 10.425313
54.970 10.807141
54.975 10.76083
54.980 11.010694
54.985 10.903159
54.990 11.022137
54.995 10.873795
55.000 10.283937
55.005 10.103685
55.010 10.137117
55.015 9.794053
55.020 9.486586
55.025 9.652174
55.030 10.170455
55.035 10.417491
55.040 10.512647
55.045 10.711963
55.050 10.541658
55.055 10.824933
55.060 10.474046
55.065 10.488569
55.070 10.746692
55.075 10.097243
55.080 9.967045
55.085 9.869494
55.090 10.026276
55.095 10.320533
55.100 10.499496
55.105 10.590195
55.110 10.932819
55.115 11.188155
55.120 11.239173
55.125 10.907657
55.130 10.333945
55.135 9.586512
55.140 9.301358
55.145 9.163251
55.150 9.45991
55.155 9.503223
55.160 9.514087
55.165 9.474229
55.170 9.32338
55.175 9.279009
55.180 9.250918
55.185 8.550964
55.190 8.388723
55.195 8.53455
55.200 8.7164
55.205 8.866575
55.210 9.092504
55.215 9.329379
55.220 9.73477
55.225 9.703208
55.230 9.197577
55.235 8.937802
55.240 9.332611
55.245 9.26335
55.250 8.919967
55.255 8.310714
55.260 8.464174
55.265 8.827714
55.270 8.83717
55.275 8.431723
55.280 8.260236
55.285 8.674089
55.290 8.885024
55.295 9.094049
55.300 9.517976
55.305 9.654211
55.310 9.789594
55.315 9.636308
55.320 9.695686
55.325 9.768414
55.330 9.211967
55.335 8.930667
55.340 9.296379
55.345 9.386306
55.350 9.230062
55.355 8.776405
55.360 8.881728
55.365 9.183591
55.370 8.970618
55.375 8.490772
55.380 9.060768
55.385 9.475296
55.390 9.683805
55.395 9.857809
55.400 10.055124
55.405 10.181599
55.410 10.336307
55.415 9.960711
55.420 10.268158
55.425 10.267444
55.430 9.83751
55.435 10.045504
55.440 10.36755
55.445 10.177516
55.450 10.062628
55.455 10.065362
55.460 10.110043
55.465 10.310951
55.470 9.920853
55.475 10.057746
55.480 10.295117
55.485 9.898634
55.490 9.820544
55.495 10.098501
55.500 10.28872
55.505 10.942247
55.510 10.895522
55.515 11.037635
55.520 11.670044
55.525 11.483786
55.530 11.419097
55.535 11.128765
55.540 10.741061
55.545 10.531881
55.550 10.346508
55.555 9.856152
55.560 9.980837
55.565 10.153761
55.570 10.424024
55.575 10.466493
55.580 10.667455
55.585 10.75769
55.590 10.561652
55.595 10.46496
55.600 9.696916
55.605 9.595706
55.610 9.759306
55.615 9.575798
55.620 9.37825
55.625 9.41785
55.630 9.407866
55.635 9.535536
55.640 9.376536
55.645 9.148133
55.650 9.65645
55.655 10.043851
55.660 10.250668
55.665 10.469108
55.670 10.327946
55.675 10.2068
55.680 9.894646
55.685 9.7732
55.690 9.528347
55.695 9.505928
55.700 9.831095
55.705 9.986858
55.710 9.658449
55.715 10.03382
55.720 9.986162
55.725 10.126583
55.730 10.151356
55.735 10.061759
55.740 9.94698
55.745 10.214487
55.750 10.086992
55.755 10.009361
55.760 9.954855
55.765 9.758885
55.770 10.063391
55.775 10.31379
55.780 10.368683
55.785 10.018521
55.790 10.052398
55.795 10.037961
55.800 10.005348
55.805 9.64386
55.810 9.76473
55.815 10.024898
55.820 10.433144
55.825 10.400629
55.830 10.101794
55.835 10.764549
55.840 11.296131
55.845 11.278304
55.850 11.345029
55.855 11.09095
55.860 11.553698
55.865 11.998134
55.870 11.141016
55.875 10.372351
55.880 9.903251
55.885 10.101982
55.890 10.342662
55.895 10.169699
55.900 9.717021
55.905 10.090966
55.910 11.128949
55.915 11.143537
55.920 11.203942
55.925 11.082143
55.930 11.304052
55.935 11.626953
55.940 11.50701
55.945 11.669815
55.950 11.984911
55.955 11.544482
55.960 11.38464
55.965 11.077202
55.970 10.972208
55.975 11.14625
55.980 10.525907
55.985 9.999224
55.990 10.236262
55.995 9.905347
56.000 9.942949
56.005 9.921418
56.010 9.38919
56.015 9.52014
56.020 9.795437
56.025 9.632686
56.030 9.918133
56.035 10.053231
56.040 9.722263
56.045 9.836294
56.050 9.824429
56.055 9.744204
56.060 9.873178
56.065 9.944461
56.070 9.954214
56.075 10.244365
56.080 10.422268
56.085 10.378274
56.090 10.61689
56.095 10.838018
56.100 10.76612
56.105 10.899487
56.110 11.16924
56.115 11.250906
56.120 11.622419
56.125 11.877448
56.130 11.433074
56.135 11.209949
56.140 11.448831
56.145 11.229977
56.150 10.678856
56.155 10.43962
56.160 10.533975
56.165 10.85883
56.170 11.451756
56.175 11.286195
56.180 11.501721
56.185 12.129004
56.190 11.93394
56.195 11.444315
56.200 11.733842
56.205 11.273702
56.210 11.613898
56.215 11.759115
56.220 11.307394
56.225 11.83921
56.230 12.213846
56.235 11.877402
56.240 11.94891
56.245 11.925999
56.250 12.072237
56.255 12.088157
56.260 11.696556
56.265 11.691238
56.270 11.544383
56.275 11.281742
56.280 10.576086
56.285 10.570089
56.290 11.06643
56.295 11.538591
56.300 11.534842
56.305 12.050279
56.310 12.38904
56.315 12.43819
56.320 11.601231
56.325 10.957451
56.330 10.424729
56.335 10.23335
56.340 10.196294
56.345 9.9771
56.350 10.266378
56.355 10.740374
56.360 11.026489
56.365 11.068254
56.370 11.188129
56.375 10.94984
56.380 11.011957
56.385 11.258812
56.390 11.443286
56.395 11.375554
56.400 11.507665
56.405 11.74879
56.410 11.345648
56.415 11.474329
56.420 11.122059
56.425 10.824024
56.430 10.617759
56.435 10.172664
56.440 9.902109
56.445 10.398019
56.450 10.207959
56.455 10.181565
56.460 10.757159
56.465 10.938419
56.470 11.182723
56.475 11.587451
56.480 11.607064
56.485 11.968803
56.490 11.873203
56.495 11.571601
56.500 11.697556
56.505 12.018833
56.510 11.957217
56.515 11.438506
56.520 11.20234
56.525 11.66137
56.530 12.116469
56.535 11.880496
56.540 11.343126
56.545 11.571282
56.550 11.797237
56.555 11.671656
56.560 11.371691
56.565 11.366424
56.570 11.811679
56.575 12.239627
56.580 12.211899
56.585 12.386404
56.590 12.854771
56.595 12.543557
56.600 12.305927
56.605 12.106207
56.610 11.86047
56.615 11.717085
56.620 11.559552
56.625 10.959726
56.630 10.851377
56.635 10.66277
56.640 10.725698
56.645 11.088144
56.650 11.169372
56.655 11.177258
56.660 11.281655
56.665 11.470131
56.670 11.440496
56.675 11.326011
56.680 11.302343
56.685 11.167613
56.690 11.485058
56.695 11.4987
56.700 11.372263
56.705 11.47051
56.710 11.309602
56.715 11.073879
56.720 11.072687
56.725 11.091194
56.730 11.939601
56.735 12.413164
56.740 12.458773
56.745 12.222429
56.750 12.251046
56.755 12.429279
56.760 12.194135
56.765 11.327358
56.770 10.831805
56.775 11.109452
56.780 11.43197
56.785 12.082135
56.790 12.097726
56.795 12.020166
56.800 12.429602
56.805 12.696822
56.810 12.683698
56.815 12.71691
56.820 12.270271
56.825 12.206129
56.830 12.184899
56.835 11.960719
56.840 11.954167
56.845 11.797852
56.850 11.724108
56.855 11.452262
56.860 11.472804
56.865 11.250238
56.870 10.913344
56.875 10.851006
56.880 10.762111
56.885 10.651455
56.890 10.725973
56.895 11.350764
56.900 11.74597
56.905 11.852061
56.910 11.761444
56.915 11.557803
56.920 11.456048
56.925 11.358448
56.930 10.679478
56.935 10.468345
56.940 10.665216
56.945 10.268126
56.950 10.703963
56.955 10.813772
56.960 10.730115
56.965 10.998317
56.970 11.085121
56.975 11.024801
56.980 10.8994
56.985 10.459374
56.990 10.502622
56.995 10.97695
57.000 11.167353
57.005 11.554873
57.010 11.627115
57.015 11.977362
57.020 12.280931
57.025 12.440984
57.030 12.05598
57.035 11.538894
57.040 11.085392
57.045 11.200438
57.050 12.075411
57.055 12.480417
57.060 12.140953
57.065 12.371243
57.070 12.867222
57.075 13.471066
57.080 12.938168
57.085 12.337536
57.090 12.045688
57.095 12.30865
57.100 12.118897
57.105 12.106383
57.110 12.175819
57.115 12.526312
57.120 12.107765
57.125 12.059396
57.130 11.763257
57.135 12.660598
57.140 12.676128
57.145 12.450365
57.150 12.295318
57.155 12.215029
57.160 12.524745
57.165 12.613077
57.170 11.787757
57.175 12.120744
57.180 12.560551
57.185 12.734264
57.190 12.953147
57.195 12.708184
57.200 12.751288
57.205 12.874055
57.210 12.046186
57.215 11.839369
57.220 11.992249
57.225 12.28242
57.230 12.441738
57.235 12.86745
57.240 12.776485
57.245 12.659299
57.250 13.027813
57.255 12.572428
57.260 12.495624
57.265 12.430649
57.270 12.120394
57.275 12.325284
57.280 12.957641
57.285 12.548372
57.290 12.88899
57.295 12.724538
57.300 13.084086
57.305 13.163882
57.310 13.444715
57.315 13.699937
57.320 13.81227
57.325 13.872531
57.330 13.592736
57.335 13.072165
57.340 12.921238
57.345 12.642687
57.350 12.255322
57.355 12.493633
57.360 12.211502
57.365 12.476105
57.370 12.965186
57.375 13.103177
57.380 13.012378
57.385 13.002101
57.390 13.196387
57.395 13.782574
57.400 13.637253
57.405 13.484135
57.410 13.386301
57.415 13.453563
57.420 13.497405
57.425 13.155688
57.430 12.955789
57.435 12.955888
57.440 12.62511
57.445 12.491104
57.450 12.877076
57.455 12.826244
57.460 12.60777
57.465 12.500923
57.470 12.341144
57.475 12.697561
57.480 13.161472
57.485 12.584476
57.490 13.083949
57.495 13.343529
57.500 13.333171
57.505 13.330769
57.510 13.332639
57.515 13.400647
57.520 13.326911
57.525 13.017056
57.530 12.701114
57.535 12.754288
57.540 12.779238
57.545 12.421408
57.550 11.827268
57.555 12.096637
57.560 12.353353
57.565 12.929847
57.570 12.797954
57.575 13.034372
57.580 13.479748
57.585 13.662098
57.590 13.876567
57.595 13.799262
57.600 13.847376
57.605 13.837617
57.610 13.697279
57.615 13.297735
57.620 13.296555
57.625 12.941882
57.630 12.902279
57.635 12.291245
57.640 12.245196
57.645 12.498992
57.650 12.446911
57.655 11.896324
57.660 11.73103
57.665 11.342734
57.670 11.624472
57.675 11.648527
57.680 11.32291
57.685 11.415579
57.690 11.766524
57.695 12.020282
57.700 12.422314
57.705 12.659346
57.710 12.751442
57.715 13.118574
57.720 13.745023
57.725 13.792747
57.730 13.539594
57.735 13.442533
57.740 13.52492
57.745 13.407868
57.750 12.944756
57.755 12.554224
57.760 12.66271
57.765 12.979589
57.770 13.072016
57.775 13.113542
57.780 13.458266
57.785 13.589104
57.790 13.580874
57.795 13.330792
57.800 12.8167
57.805 12.367834
57.810 12.201497
57.815 12.131039
57.820 11.934837
57.825 11.870337
57.830 12.098218
57.835 11.974189
57.840 11.836145
57.845 11.537697
57.850 11.580375
57.855 11.894233
57.860 11.974716
57.865 12.552488
57.870 12.971347
57.875 13.065094
57.880 12.761353
57.885 12.173511
57.890 12.016729
57.895 12.330372
57.900 12.506959
57.905 13.010203
57.910 13.207731
57.915 13.755019
57.920 14.283285
57.925 14.555411
57.930 14.531918
57.935 14.64335
57.940 14.180917
57.945 14.406798
57.950 14.282995
57.955 14.019407
57.960 13.872406
57.965 13.336225
57.970 12.890598
57.975 13.216353
57.980 13.075487
57.985 13.020813
57.990 13.010889
57.995 13.172719
58.000 13.601671
58.005 13.853064
58.010 13.743668
58.015 13.601006
58.020 13.682813
58.025 13.674628
58.030 13.409933
58.035 13.363546
58.040 13.145826
58.045 13.402264
58.050 13.667384
58.055 13.394095
58.060 13.562271
58.065 13.612621
58.070 13.119558
58.075 12.710814
58.080 12.45954
58.085 12.453374
58.090 13.145587
58.095 13.388465
58.100 13.810308
58.105 14.364141
58.110 14.946232
58.115 15.236375
58.120 15.216267
58.125 14.802099
58.130 14.509196
58.135 14.4619
58.140 14.547902
58.145 14.187361
58.150 14.235848
58.155 14.016149
58.160 13.76581
58.165 13.514896
58.170 13.166911
58.175 12.612615
58.180 12.624389
58.185 12.831753
58.190 13.05322
58.195 13.057779
58.200 13.260435
58.205 13.480182
58.210 13.889989
58.215 13.688557
58.220 13.405253
58.225 13.128211
58.230 13.552308
58.235 13.745458
58.240 13.675916
58.245 13.445512
58.250 13.602798
58.255 14.164562
58.260 14.627405
58.265 14.804296
58.270 15.019199
58.275 14.998733
58.280 15.483985
58.285 15.653811
58.290 14.995996
58.295 14.445784
58.300 14.080846
58.305 13.611217
58.310 13.756114
58.315 13.174623
58.320 12.666521
58.325 12.893856
58.330 12.888788
58.335 12.414041
58.340 12.489328
58.345 12.406873
58.350 12.503463
58.355 12.403373
58.360 12.718488
58.365 13.651314
58.370 13.709043
58.375 13.650491
58.380 13.5914
58.385 13.72024
58.390 14.127568
58.395 13.716967
58.400 13.503264
58.405 13.471103
58.410 13.39642
58.415 13.223777
58.420 12.711168
58.425 12.791485
58.430 12.98283
58.435 12.862324
58.440 13.028135
58.445 13.190694
58.450 13.399295
58.455 13.534392
58.460 12.940778
58.465 12.911203
58.470 12.971837
58.475 13.125821
58.480 13.232838
58.485 13.420664
58.490 13.932927
58.495 14.980406
58.500 14.943284
58.505 15.078631
58.510 15.081105
58.515 14.832277
58.520 14.586628
58.525 14.247583
58.530 13.889167
58.535 13.783746
58.540 13.10803
58.545 12.81614
58.550 12.829937
58.555 12.889864
58.560 13.069203
58.565 13.042569
58.570 13.384913
58.575 14.315431
58.580 14.52595
58.585 14.395541
58.590 14.184162
58.595 14.34244
58.600 14.353269
58.605 14.234254
58.610 14.139769
58.615 14.776694
58.620 15.250389
58.625 15.67416
58.630 15.713119
58.635 15.396872
58.640 14.87078
58.645 14.204098
58.650 13.841079
58.655 13.684795
58.660 13.673491
58.665 13.653066
58.670 14.398922
58.675 15.175475
58.680 15.373204
58.685 15.540929
58.690 15.991359
58.695 16.253191
58.700 16.513323
58.705 16.426167
58.710 16.632816
58.715 16.8901
58.720 16.803761
58.725 16.725468
58.730 16.845634
58.735 16.274088
58.740 15.856099
58.745 15.36324
58.750 15.064805
58.755 14.405443
58.760 13.542944
58.765 12.901169
58.770 12.844521
58.775 12.905828
58.780 13.35001
58.785 13.384863
58.790 14.011887
58.795 14.824631
58.800 14.920052
58.805 15.069338
58.810 15.080624
58.815 14.872006
58.820 14.906982
58.825 14.796115
58.830 14.45399
58.835 13.942932
58.840 13.90157
58.845 13.855157
58.850 13.406911
58.855 13.72218
58.860 13.591657
58.865 13.48227
58.870 13.826303
58.875 13.694637
58.880 13.999397
58.885 14.555228
58.890 14.517889
58.895 14.983535
58.900 15.409314
58.905 15.94327
58.910 16.738474
58.915 16.436764
58.920 16.428728
58.925 15.830676
58.930 15.774522
58.935 15.840096
58.940 15.676927
58.945 15.050368
58.950 15.124724
58.955 14.718843
58.960 14.997814
58.965 14.835251
58.970 14.705652
58.975 14.499645
58.980 15.179577
58.985 15.227518
58.990 15.441292
58.995 15.203107
59.000 14.850105
59.005 14.768197
59.010 14.733911
59.015 14.593561
59.020 15.117659
59.025 15.017085
59.030 15.03657
59.035 15.428299
59.040 16.281803
59.045 16.205755
59.050 15.601118
59.055 15.156759
59.060 15.367204
59.065 16.30537
59.070 16.185413
59.075 15.522628
59.080 15.732951
59.085 16.009174
59.090 16.348484
59.095 16.418394
59.100 15.624981
59.105 15.227295
59.110 15.448327
59.115 15.509795
59.120 15.768579
59.125 15.68488
59.130 15.508068
59.135 15.959026
59.140 16.444622
59.145 15.973644
59.150 15.985602
59.155 15.793908
59.160 15.655556
59.165 15.641374
59.170 15.287339
59.175 14.895926
59.180 14.766173
59.185 14.910508
59.190 14.805079
59.195 15.219831
59.200 14.91651
59.205 14.650428
59.210 14.978109
59.215 15.537768
59.220 15.461958
59.225 15.197381
59.230 15.439572
59.235 15.703351
59.240 16.048283
59.245 16.202513
59.250 15.83663
59.255 15.386881
59.260 15.541623
59.265 15.951934
59.270 16.311314
59.275 16.316883
59.280 15.506109
59.285 15.175117
59.290 15.438135
59.295 15.69879
59.300 14.912514
59.305 14.717576
59.310 14.786296
59.315 15.170261
59.320 15.230985
59.325 14.78136
59.330 14.466291
59.335 14.715044
59.340 14.99027
59.345 14.996671
59.350 15.305235
59.355 16.129816
59.360 16.669889
59.365 16.807673
59.370 16.447529
59.375 16.083323
59.380 16.278795
59.385 16.120646
59.390 15.898893
59.395 15.845424
59.400 15.435939
59.405 15.495571
59.410 15.603921
59.415 15.722487
59.420 15.886977
59.425 15.96629
59.430 16.749132
59.435 17.211937
59.440 17.474751
59.445 17.280163
59.450 16.704489
59.455 16.364344
59.460 15.891924
59.465 15.363448
59.470 15.609672
59.475 15.751018
59.480 15.771276
59.485 16.199062
59.490 16.434505
59.495 17.461744
59.500 17.373453
59.505 17.143747
59.510 17.195818
59.515 17.797171
59.520 17.697695
59.525 17.253679
59.530 16.740866
59.535 16.695564
59.540 16.915705
59.545 17.038137
59.550 16.841997
59.555 17.602152
59.560 17.918041
59.565 17.614704
59.570 18.023937
59.575 17.732996
59.580 17.032305
59.585 16.495897
59.590 15.843117
59.595 15.909048
59.600 15.791992
59.605 15.491772
59.610 15.573781
59.615 16.08959
59.620 16.333378
59.625 16.635981
59.630 16.84465
59.635 17.234829
59.640 17.154858
59.645 17.418863
59.650 17.781504
59.655 18.476212
59.660 18.83787
59.665 19.306789
59.670 19.523304
59.675 19.744081
59.680 19.770483
59.685 19.971737
59.690 20.137838
59.695 20.475286
59.700 21.500086
59.705 22.116737
59.710 22.685238
59.715 22.909775
59.720 22.431705
59.725 21.721102
59.730 21.176121
59.735 20.412985
59.740 19.985289
59.745 19.45915
59.750 19.97464
59.755 20.017044
59.760 19.556538
59.765 19.6215
59.770 19.232475
59.775 19.131495
59.780 18.995882
59.785 18.608528
59.790 18.843382
59.795 19.123964
59.800 18.843098
59.805 18.557489
59.810 18.773258
59.815 18.939148
59.820 18.889299
59.825 18.886223
59.830 19.240511
59.835 19.233967
59.840 18.804764
59.845 18.512369
59.850 18.596327
59.855 19.120575
59.860 19.759012
59.865 19.588394
59.870 20.026848
59.875 20.846336
59.880 21.351585
59.885 21.23317
59.890 20.746077
59.895 20.14879
59.900 20.321026
59.905 20.008392
59.910 19.74523
59.915 19.817419
59.920 19.374987
59.925 19.235376
59.930 19.740294
59.935 19.77809
59.940 19.981073
59.945 19.590666
59.950 19.055191
59.955 19.521307
59.960 19.74791
59.965 19.77326
59.970 20.104317
59.975 20.004551
59.980 20.321598
59.985 20.094551
59.990 20.354082
59.995 20.948542
60.000 20.464653
60.005 20.477943
60.010 20.550383
60.015 20.707544
60.020 21.22888
60.025 20.454533
60.030 19.621881
60.035 19.675301
60.040 19.805943
60.045 20.09071
60.050 20.564007
60.055 20.557726
60.060 21.302353
60.065 21.272146
60.070 21.042459
60.075 20.58983
60.080 20.802074
60.085 20.502804
60.090 20.53537
60.095 20.834137
60.100 21.157225
60.105 21.585024
60.110 21.670517
60.115 21.50495
60.120 21.414948
60.125 21.271475
60.130 21.295256
60.135 21.449968
60.140 21.327095
60.145 21.657709
60.150 21.769543
60.155 21.410025
60.160 21.042482
60.165 20.482681
60.170 20.356895
60.175 20.101843
60.180 19.679367
60.185 20.643583
60.190 21.587101
60.195 21.524202
60.200 21.669804
60.205 21.646341
60.210 21.621073
60.215 21.27326
60.220 20.044226
60.225 20.016394
60.230 20.185902
60.235 20.572626
60.240 20.880867
60.245 20.884783
60.250 20.863598
60.255 20.436874
60.260 20.039764
60.265 20.103132
60.270 19.470999
60.275 18.921688
60.280 19.395735
60.285 20.170218
60.290 20.76351
60.295 20.951189
60.300 21.029209
60.305 21.534231
60.310 21.585928
60.315 21.442524
60.320 21.320257
60.325 21.26862
60.330 21.303028
60.335 21.45458
60.340 21.056032
60.345 21.216928
60.350 21.566208
60.355 21.117056
60.360 20.821033
60.365 20.566687
60.370 19.981054
60.375 19.645039
60.380 19.153915
60.385 18.69853
60.390 18.731775
60.395 19.411037
60.400 19.227551
60.405 20.028227
60.410 20.172565
60.415 20.119446
60.420 20.204815
60.425 20.422064
60.430 20.44162
60.435 20.278498
60.440 19.36318
60.445 19.330753
60.450 19.523521
60.455 19.4377
60.460 18.916372
60.465 18.364483
60.470 18.516315
60.475 18.840006
60.480 18.992765
60.485 18.984625
60.490 18.55484
60.495 18.963465
60.500 18.323687
60.505 18.564308
60.510 18.493818
60.515 18.130121
60.520 18.210663
60.525 17.981953
60.530 17.697777
60.535 17.912628
60.540 17.551615
60.545 16.67247
60.550 16.546869
60.555 16.782816
60.560 16.966089
60.565 16.728571
60.570 16.671885
60.575 16.525631
60.580 17.209427
60.585 17.227304
60.590 16.556925
60.595 16.692858
60.600 16.87056
60.605 16.901514
60.610 17.248581
60.615 17.521894
60.620 17.345291
60.625 17.387283
60.630 17.662485
60.635 17.639322
60.640 17.797459
60.645 17.606026
60.650 17.30562
60.655 17.62009
60.660 17.437883
60.665 16.707195
60.670 16.123817
60.675 15.832328
60.680 16.25354
60.685 16.501402
60.690 16.162874
60.695 16.366119
60.700 16.807848
60.705 17.290485
60.710 17.152977
60.715 16.788889
60.720 17.042305
60.725 17.466255
60.730 17.884899
60.735 17.979525
60.740 18.236214
60.745 18.742479
60.750 18.574715
60.755 18.255079
60.760 18.347477
60.765 18.401989
60.770 18.190493
60.775 17.932089
60.780 17.824306
60.785 17.888084
60.790 17.469004
60.795 17.058352
60.800 16.204327
60.805 15.726963
60.810 15.594702
60.815 15.541807
60.820 15.410695
60.825 15.384484
60.830 15.49748
60.835 15.750896
60.840 15.972322
60.845 15.831003
60.850 15.659406
60.855 15.595675
60.860 15.980591
60.865 15.912878
60.870 15.473287
60.875 15.071531
60.880 14.35221
60.885 13.806492
60.890 14.457073
60.895 14.33003
60.900 14.707079
60.905 15.307261
60.910 15.431711
60.915 16.359091
60.920 17.100441
60.925 16.611017
60.930 16.469038
60.935 16.703775
60.940 17.249596
60.945 17.606831
60.950 17.494436
60.955 17.396923
60.960 17.375257
60.965 17.256561
60.970 16.883118
60.975 16.256844
60.980 16.155989
60.985 15.581407
60.990 15.095794
60.995 15.280423
61.000 15.53931
61.005 15.401935
61.010 15.95055
61.015 16.014532
61.020 16.558184
61.025 16.20809
61.030 15.669013
61.035 15.456116
61.040 15.47615
61.045 15.507572
61.050 15.539062
61.055 15.317949
61.060 15.97978
61.065 16.339546
61.070 16.049574
61.075 15.468306
61.080 14.749996
61.085 14.53108
61.090 14.958417
61.095 14.942008
61.100 15.013818
61.105 15.159533
61.110 15.767517
61.115 16.302105
61.120 16.422255
61.125 16.076212
61.130 15.543106
61.135 15.459289
61.140 16.062252
61.145 16.539026
61.150 16.477598
61.155 16.566954
61.160 16.793312
61.165 16.790749
61.170 16.595448
61.175 16.579741
61.180 16.008366
61.185 15.492489
61.190 15.167077
61.195 14.851459
61.200 15.167259
61.205 15.632669
61.210 15.656718
61.215 16.074295
61.220 16.569691
61.225 16.943848
61.230 17.256163
61.235 17.407087
61.240 17.247105
61.245 17.20743
61.250 17.028967
61.255 17.015152
61.260 16.838064
61.265 16.633568
61.270 16.327423
61.275 16.499353
61.280 16.598574
61.285 16.358694
61.290 16.184172
61.295 16.147488
61.300 16.166609
61.305 16.796118
61.310 16.826897
61.315 16.90778
61.320 16.773239
61.325 16.739861
61.330 16.845415
61.335 16.93265
61.340 16.179228
61.345 15.637248
61.350 15.994465
61.355 16.613331
61.360 16.902845
61.365 16.48428
61.370 16.356079
61.375 16.642839
61.380 16.647932
61.385 16.421236
61.390 16.035606
61.395 15.903838
61.400 16.003071
61.405 15.665231
61.410 15.158607
61.415 14.656152
61.420 14.634354
61.425 14.457461
61.430 14.475664
61.435 14.776318
61.440 15.014591
61.445 15.256742
61.450 15.670829
61.455 15.412414
61.460 15.487716
61.465 15.043295
61.470 15.061482
61.475 15.839106
61.480 16.447958
61.485 16.544598
61.490 16.517927
61.495 16.676376
61.500 16.55821
61.505 16.815128
61.510 16.723339
61.515 16.400202
61.520 16.083109
61.525 15.925159
61.530 15.969112
61.535 16.293255
61.540 15.935719
61.545 16.26384
61.550 16.729433
61.555 17.651915
61.560 18.144175
61.565 18.321102
61.570 18.324244
61.575 17.840767
61.580 17.273499
61.585 16.873381
61.590 16.122314
61.595 15.929154
61.600 15.928923
61.605 16.116568
61.610 16.636255
61.615 16.447372
61.620 16.377165
61.625 16.548767
61.630 16.208742
61.635 16.568827
61.640 16.999212
61.645 17.143301
61.650 16.948595
61.655 16.569521
61.660 16.688375
61.665 17.428896
61.670 16.8936
61.675 16.500605
61.680 16.073866
61.685 15.894114
61.690 16.266922
61.695 16.022337
61.700 15.38824
61.705 15.455616
61.710 15.466892
61.715 15.744775
61.720 16.177723
61.725 15.822087
61.730 15.637763
61.735 15.872397
61.740 15.877072
61.745 16.286726
61.750 16.845896
61.755 16.870275
61.760 16.648317
61.765 16.791103
61.770 17.119221
61.775 16.809849
61.780 16.511936
61.785 15.901184
61.790 15.42829
61.795 16.025736
61.800 15.972796
61.805 15.889185
61.810 16.050962
61.815 15.751007
61.820 15.812758
61.825 16.438667
61.830 16.534344
61.835 16.137392
61.840 15.982368
61.845 15.549441
61.850 15.528722
61.855 15.575352
61.860 15.395037
61.865 15.486335
61.870 15.823458
61.875 15.524111
61.880 16.220369
61.885 16.924347
61.890 17.307688
61.895 17.115189
61.900 16.581177
61.905 16.364008
61.910 16.723938
61.915 16.269402
61.920 15.353016
61.925 14.462378
61.930 14.876659
61.935 15.324086
61.940 15.556753
61.945 15.600775
61.950 15.922893
61.955 16.211924
61.960 16.035019
61.965 15.698721
61.970 15.72478
61.975 15.272215
61.980 14.927179
61.985 14.721845
61.990 14.685826
61.995 14.632191
62.000 14.427015
62.005 14.098076
62.010 14.40162
62.015 14.427843
62.020 14.43736
62.025 14.424671
62.030 14.331505
62.035 14.759528
62.040 14.727785
62.045 15.281992
62.050 15.893615
62.055 16.513557
62.060 17.678938
62.065 18.130905
62.070 18.255421
62.075 18.040802
62.080 17.427437
62.085 16.875454
62.090 16.372831
62.095 15.69854
62.100 15.27355
62.105 15.299393
62.110 16.238415
62.115 16.398363
62.120 16.417372
62.125 17.011915
62.130 17.950523
62.135 18.791836
62.140 18.101742
62.145 17.873358
62.150 18.134495
62.155 18.49703
62.160 17.700253
62.165 17.220083
62.170 16.864641
62.175 16.835085
62.180 16.427563
62.185 16.023848
62.190 15.902007
62.195 16.393263
62.200 16.373734
62.205 16.511337
62.210 17.210976
62.215 17.140295
62.220 17.251606
62.225 17.136007
62.230 17.152479
62.235 16.789865
62.240 16.356274
62.245 15.728152
62.250 15.696305
62.255 14.911996
62.260 14.544175
62.265 14.085526
62.270 14.366991
62.275 14.738543
62.280 15.294747
62.285 15.675956
62.290 16.420626
62.295 16.521711
62.300 16.670084
62.305 16.616451
62.310 16.820076
62.315 16.570179
62.320 16.324791
62.325 16.440132
62.330 16.141184
62.335 15.628962
62.340 15.082877
62.345 14.34757
62.350 14.135107
62.355 14.749454
62.360 14.503096
62.365 14.251142
62.370 14.628164
62.375 14.831239
62.380 15.836658
62.385 16.477764
62.390 16.242157
62.395 16.333162
62.400 16.855087
62.405 16.979486
62.410 17.22032
62.415 16.76338
62.420 16.624599
62.425 15.972525
62.430 16.201532
62.435 16.408882
62.440 16.254528
62.445 16.400072
62.450 16.913769
62.455 17.035347
62.460 17.576208
62.465 17.393356
62.470 17.332884
62.475 17.619465
62.480 17.47431
62.485 16.70685
62.490 16.043108
62.495 15.785369
62.500 15.642339
62.505 15.346589
62.510 14.918962
62.515 14.925208
62.520 15.016932
62.525 15.30262
62.530 14.970107
62.535 14.900187
62.540 14.837316
62.545 15.010592
62.550 15.37785
62.555 15.57493
62.560 15.683059
62.565 16.289793
62.570 16.330587
62.575 16.393982
62.580 16.068405
62.585 15.311513
62.590 15.240673
62.595 14.91993
62.600 14.781954
62.605 14.937267
62.610 14.792353
62.615 15.188313
62.620 15.364644
62.625 15.083298
62.630 14.888419
62.635 14.400279
62.640 14.260645
62.645 14.325489
62.650 14.529807
62.655 14.697511
62.660 15.33811
62.665 16.025661
62.670 16.535185
62.675 17.49297
62.680 17.663872
62.685 17.455164
62.690 17.5152
62.695 17.461475
62.700 16.849646
62.705 16.56591
62.710 15.69032
62.715 15.460731
62.720 15.891492
62.725 15.817898
62.730 15.844
62.735 16.489586
62.740 16.472635
62.745 16.745443
62.750 16.815943
62.755 16.663603
62.760 16.583733
62.765 16.228565
62.770 15.701745
62.775 16.109219
62.780 16.341743
62.785 16.332861
62.790 16.365955
62.795 16.284103
62.800 16.81778
62.805 17.011076
62.810 16.759609
62.815 16.571665
62.820 16.485033
62.825 16.602404
62.830 16.339371
62.835 15.761377
62.840 15.906938
62.845 16.085512
62.850 16.056002
62.855 16.046915
62.860 16.216507
62.865 16.03124
62.870 15.842853
62.875 15.553361
62.880 14.958729
62.885 14.741854
62.890 14.086049
62.895 13.622465
62.900 14.490911
62.905 15.189479
62.910 15.213436
62.915 15.642952
62.920 16.308231
62.925 17.35541
62.930 17.194405
62.935 16.662937
62.940 16.288576
62.945 15.955173
62.950 15.775156
62.955 15.024458
62.960 14.114917
62.965 14.135713
62.970 14.817345
62.975 15.608159
62.980 15.970975
62.985 16.180204
62.990 17.269382
62.995 18.173536
63.000 18.375328
63.005 18.066015
63.010 17.440617
63.015 17.612854
63.020 17.556316
63.025 16.627779
63.030 16.425688
63.035 16.495342
63.040 16.026863
63.045 16.344608
63.050 16.416313
63.055 16.494854
63.060 16.565424
63.065 16.204319
63.070 16.203217
63.075 16.314695
63.080 16.345278
63.085 16.040945
63.090 15.774878
63.095 15.861074
63.100 15.885388
63.105 15.837974
63.110 15.628218
63.115 15.569791
63.120 15.656373
63.125 16.265404
63.130 16.428673
63.135 16.45694
63.140 16.22304
63.145 16.377974
63.150 16.482132
63.155 16.808193
63.160 16.850071
63.165 17.294191
63.170 17.640533
63.175 17.820866
63.180 17.907217
63.185 17.665108
63.190 17.159113
63.195 16.527786
63.200 16.458466
63.205 15.921021
63.210 15.727925
63.215 15.782305
63.220 15.763982
63.225 15.892373
63.230 16.144424
63.235 15.593977
63.240 15.927878
63.245 16.259653
63.250 15.926717
63.255 15.911507
63.260 16.359035
63.265 16.223766
63.270 16.498835
63.275 16.786568
63.280 16.587666
63.285 16.927143
63.290 16.936892
63.295 16.325092
63.300 16.519684
63.305 16.474493
63.310 16.69125
63.315 17.239157
63.320 17.020954
63.325 16.65045
63.330 17.033808
63.335 17.341652
63.340 16.996828
63.345 16.437721
63.350 16.695608
63.355 17.025347
63.360 17.471622
63.365 17.485765
63.370 17.13566
63.375 17.553757
63.380 17.910948
63.385 17.915815
63.390 18.093927
63.395 18.099356
63.400 17.859346
63.405 17.955864
63.410 17.991583
63.415 17.78536
63.420 17.186848
63.425 16.19405
63.430 15.705284
63.435 15.826638
63.440 15.600457
63.445 15.46355
63.450 15.684889
63.455 15.698555
63.460 16.807678
63.465 17.169613
63.470 17.428476
63.475 17.510653
63.480 17.641272
63.485 17.915878
63.490 17.658775
63.495 17.440792
63.500 17.195129
63.505 16.991005
63.510 17.042696
63.515 16.674313
63.520 16.000814
63.525 15.639344
63.530 15.927231
63.535 16.561684
63.540 17.010632
63.545 17.048256
63.550 17.117298
63.555 17.483536
63.560 18.081333
63.565 17.489559
63.570 16.995872
63.575 16.763294
63.580 16.622637
63.585 16.88019
63.590 17.293238
63.595 17.317009
63.600 17.240715
63.605 17.378477
63.610 17.378212
63.615 18.0406
63.620 18.312784
63.625 17.798958
63.630 16.971575
63.635 16.918079
63.640 16.528667
63.645 16.095215
63.650 15.540999
63.655 15.229205
63.660 15.479012
63.665 16.338028
63.670 16.600534
63.675 17.108719
63.680 17.538559
63.685 18.06937
63.690 18.065117
63.695 17.834995
63.700 17.781439
63.705 17.036385
63.710 16.803127
63.715 16.502062
63.720 16.034016
63.725 16.187351
63.730 16.871756
63.735 17.076635
63.740 17.784466
63.745 17.763842
63.750 17.743193
63.755 17.27034
63.760 16.804251
63.765 16.45188
63.770 16.066797
63.775 16.274578
63.780 16.441732
63.785 16.641796
63.790 16.838625
63.795 16.889874
63.800 16.760946
63.805 17.160097
63.810 16.86508
63.815 15.899932
63.820 15.287697
63.825 15.337204
63.830 15.463078
63.835 15.46825
63.840 15.386486
63.845 15.6089
63.850 16.525307
63.855 17.032118
63.860 17.045397
63.865 16.805279
63.870 16.569159
63.875 16.379528
63.880 16.182508
63.885 16.158991
63.890 16.273876
63.895 16.20653
63.900 16.792175
63.905 16.441824
63.910 16.149967
63.915 16.44352
63.920 16.12188
63.925 15.796821
63.930 16.129072
63.935 16.111237
63.940 16.98019
63.945 17.628822
63.950 17.788187
63.955 18.194351
63.960 18.424866
63.965 18.175697
63.970 18.126984
63.975 17.562811
63.980 16.786533
63.985 16.202442
63.990 16.17518
63.995 16.633116
64.000 16.601536
64.005 16.672382
64.010 17.158724
64.015 18.261982
64.020 19.160439
64.025 19.233564
64.030 19.18866
64.035 19.364719
64.040 19.386
64.045 19.357008
64.050 18.97419
64.055 18.208904
64.060 17.542122
64.065 17.823462
64.070 17.708467
64.075 18.248817
64.080 18.362396
64.085 18.961147
64.090 19.820955
64.095 20.495796
64.100 19.95447
64.105 19.386923
64.110 18.072279
64.115 17.918997
64.120 17.396963
64.125 16.740248
64.130 16.101524
64.135 16.702473
64.140 17.795584
64.145 18.476065
64.150 18.260746
64.155 17.765844
64.160 18.121593
64.165 18.928734
64.170 18.619015
64.175 18.824583
64.180 18.716228
64.185 18.294584
64.190 18.642002
64.195 17.88125
64.200 17.249811
64.205 16.657499
64.210 16.598469
64.215 17.191801
64.220 17.364607
64.225 16.927658
64.230 17.274445
64.235 17.925426
64.240 18.141142
64.245 17.208084
64.250 16.408854
64.255 16.624525
64.260 16.831974
64.265 16.997213
64.270 16.544039
64.275 16.600517
64.280 17.112186
64.285 17.697502
64.290 17.551901
64.295 17.989256
64.300 17.608675
64.305 17.477402
64.310 17.170725
64.315 16.769611
64.320 16.187138
64.325 16.09799
64.330 16.276381
64.335 16.641262
64.340 17.113935
64.345 17.330133
64.350 17.366423
64.355 17.410885
64.360 17.593527
64.365 17.620083
64.370 17.381285
64.375 17.192896
64.380 17.721115
64.385 18.132696
64.390 18.453264
64.395 18.466183
64.400 18.389006
64.405 18.256544
64.410 18.19598
64.415 17.949837
64.420 17.616137
64.425 17.471062
64.430 17.127018
64.435 16.684746
64.440 16.536579
64.445 16.401918
64.450 16.30533
64.455 16.969778
64.460 17.573746
64.465 17.939417
64.470 18.364439
64.475 18.613733
64.480 18.827436
64.485 19.344202
64.490 19.316236
64.495 18.982468
64.500 18.820557
64.505 19.094181
64.510 19.0431
64.515 19.168859
64.520 18.947527
64.525 18.434736
64.530 18.804146
64.535 18.948135
64.540 18.319965
64.545 18.721523
64.550 18.645914
64.555 18.421833
64.560 18.295691
64.565 18.072632
64.570 18.24263
64.575 18.753218
64.580 18.724903
64.585 18.612991
64.590 18.401957
64.595 18.43367
64.600 18.440571
64.605 18.268183
64.610 17.822796
64.615 17.613985
64.620 18.077589
64.625 18.800928
64.630 19.359596
64.635 18.936335
64.640 18.955956
64.645 19.230177
64.650 18.822943
64.655 18.219959
64.660 18.019474
64.665 17.877871
64.670 18.078896
64.675 18.468691
64.680 19.057493
64.685 19.303717
64.690 19.642721
64.695 19.74757
64.700 19.528109
64.705 19.76244
64.710 19.348186
64.715 19.262568
64.720 19.792166
64.725 20.061356
64.730 19.615904
64.735 19.894421
64.740 19.977358
64.745 20.071808
64.750 20.10463
64.755 19.684868
64.760 19.351128
64.765 19.397404
64.770 19.672859
64.775 19.551207
64.780 19.661024
64.785 19.775476
64.790 20.329063
64.795 20.682434
64.800 21.209841
64.805 21.038826
64.810 20.86554
64.815 21.165764
64.820 21.32198
64.825 20.68536
64.830 20.260632
64.835 19.611803
64.840 19.616091
64.845 19.826321
64.850 19.539371
64.855 19.60803
64.860 19.757998
64.865 19.806297
64.870 20.419634
64.875 20.217232
64.880 20.059765
64.885 20.196838
64.890 20.153378
64.895 20.273655
64.900 20.761787
64.905 20.568293
64.910 21.232964
64.915 21.086441
64.920 20.360353
64.925 19.535995
64.930 19.816195
64.935 19.973509
64.940 20.10117
64.945 19.662527
64.950 20.31126
64.955 21.062088
64.960 21.303608
64.965 20.754969
64.970 20.589878
64.975 20.657295
64.980 20.772734
64.985 20.562426
64.990 20.347887
64.995 20.865955
65.000 21.585922
65.005 21.510349
65.010 21.279251
65.015 21.440676
65.020 22.272909
65.025 22.054914
65.030 21.855587
65.035 21.267372
65.040 20.848053
65.045 20.803158
65.050 20.424112
65.055 20.175947
65.060 21.069149
65.065 21.795364
65.070 21.972292
65.075 22.505949
65.080 22.388023
65.085 22.662529
65.090 22.269426
65.095 21.950018
65.100 21.536036
65.105 21.703548
65.110 21.77634
65.115 21.680151
65.120 21.877226
65.125 22.668056
65.130 22.562778
65.135 22.292231
65.140 21.961954
65.145 21.607548
65.150 21.804279
65.155 21.505291
65.160 21.132032
65.165 20.844704
65.170 20.632076
65.175 20.687395
65.180 20.65811
65.185 20.541248
65.190 20.246635
65.195 19.188217
65.200 19.633202
65.205 19.912661
65.210 19.848307
65.215 19.970718
65.220 20.320185
65.225 20.883295
65.230 21.503523
65.235 20.884298
65.240 20.799099
65.245 20.941925
65.250 21.200626
65.255 20.921951
65.260 20.691244
65.265 20.343008
65.270 21.510021
65.275 21.835655
65.280 22.30378
65.285 22.062643
65.290 21.986906
65.295 22.367334
65.300 22.18343
65.305 21.5502
65.310 21.075752
65.315 20.579908
65.320 21.434425
65.325 21.715502
65.330 22.276186
65.335 23.129354
65.340 22.737543
65.345 23.661545
65.350 24.252745
65.355 24.285793
65.360 24.043619
65.365 23.349148
65.370 23.048603
65.375 23.116743
65.380 22.853834
65.385 22.165527
65.390 21.620354
65.395 21.887449
65.400 21.925791
65.405 22.395948
65.410 22.421505
65.415 22.338324
65.420 22.662987
65.425 23.223806
65.430 22.961395
65.435 23.698229
65.440 24.055248
65.445 24.787268
65.450 25.025679
65.455 24.748732
65.460 24.368765
65.465 24.773733
65.470 23.88093
65.475 22.733849
65.480 23.070204
65.485 23.064514
65.490 23.094418
65.495 23.82411
65.500 24.016069
65.505 25.156862
65.510 26.480307
65.515 26.451277
65.520 26.761135
65.525 27.194868
65.530 26.940928
65.535 26.832972
65.540 26.793749
65.545 26.893017
65.550 26.992107
65.555 27.351545
65.560 27.68824
65.565 27.968313
65.570 28.738052
65.575 28.517509
65.580 28.378817
65.585 28.217413
65.590 27.768816
65.595 28.337999
65.600 28.211655
65.605 27.586775
65.610 27.7917
65.615 27.299105
65.620 27.434084
65.625 27.257929
65.630 26.819492
65.635 27.505817
65.640 27.947243
65.645 27.980871
65.650 28.22636
65.655 28.202101
65.660 29.022478
65.665 29.562349
65.670 29.205687
65.675 28.982859
65.680 29.418158
65.685 29.971373
65.690 30.625751
65.695 30.925186
65.700 30.928684
65.705 31.726641
65.710 32.070839
65.715 31.572317
65.720 31.570507
65.725 31.377436
65.730 31.173145
65.735 31.505905
65.740 30.728598
65.745 31.083494
65.750 32.352406
65.755 33.02792
65.760 33.477131
65.765 33.73505
65.770 33.464252
65.775 33.853809
65.780 33.732555
65.785 33.295761
65.790 32.949615
65.795 32.92741
65.800 33.038712
65.805 33.548222
65.810 34.81044
65.815 35.431286
65.820 35.715183
65.825 35.829998
65.830 35.518929
65.835 36.063293
65.840 35.845291
65.845 35.068615
65.850 35.53503
65.855 35.076382
65.860 35.404427
65.865 35.920387
65.870 35.098244
65.875 34.811146
65.880 35.143623
65.885 35.017628
65.890 36.010006
65.895 36.409393
65.900 36.695412
65.905 37.157852
65.910 37.578175
65.915 37.83382
65.920 37.856388
65.925 38.15958
65.930 38.140198
65.935 38.359245
65.940 38.503082
65.945 37.644321
65.950 37.959251
65.955 37.550999
65.960 37.230175
65.965 37.415951
65.970 37.212509
65.975 37.384537
65.980 37.412022
65.985 37.437172
65.990 38.332512
65.995 38.616211
66.000 39.190014
66.005 39.795757
66.010 39.729935
66.015 39.451874
66.020 39.191109
66.025 38.879395
66.030 39.02253
66.035 38.206146
66.040 37.841293
66.045 38.339527
66.050 38.963169
66.055 38.747589
66.060 37.87178
66.065 37.680813
66.070 37.841179
66.075 38.378586
66.080 38.76606
66.085 38.672417
66.090 39.034237
66.095 39.389492
66.100 38.716579
66.105 38.174664
66.110 37.338223
66.115 37.014824
66.120 37.072536
66.125 37.086735
66.130 37.63224
66.135 38.344044
66.140 38.408142
66.145 38.243919
66.150 38.141079
66.155 37.701046
66.160 37.863571
66.165 38.405975
66.170 38.466614
66.175 38.759235
66.180 38.162071
66.185 37.890259
66.190 37.837238
66.195 37.198025
66.200 36.327
66.205 35.758713
66.210 35.624775
66.215 37.240822
66.220 37.710693
66.225 37.930069
66.230 37.424931
66.235 37.742828
66.240 37.970619
66.245 37.205597
66.250 35.797085
66.255 35.79274
66.260 35.594521
66.265 36.276497
66.270 35.304832
66.275 34.792961
66.280 35.120262
66.285 35.913605
66.290 35.972683
66.295 35.703964
66.300 35.014305
66.305 34.750576
66.310 34.696411
66.315 34.629017
66.320 33.884731
66.325 33.450359
66.330 32.816063
66.335 32.830559
66.340 33.204746
66.345 32.600021
66.350 32.4631
66.355 31.803926
66.360 31.441689
66.365 31.74025
66.370 31.059366
66.375 30.322624
66.380 30.104622
66.385 29.768925
66.390 29.750761
66.395 29.68656
66.400 29.58058
66.405 30.086264
66.410 30.203798
66.415 30.537699
66.420 30.336313
66.425 30.511154
66.430 30.301937
66.435 30.204645
66.440 29.603291
66.445 29.172812
66.450 27.990515
66.455 27.754629
66.460 27.353985
66.465 27.867004
66.470 28.157938
66.475 28.993713
66.480 29.581041
66.485 30.078672
66.490 30.126022
66.495 30.058201
66.500 29.885101
66.505 30.07844
66.510 29.316319
66.515 28.477097
66.520 28.296112
66.525 28.212742
66.530 27.786966
66.535 27.042471
66.540 26.33992
66.545 26.509733
66.550 27.026077
66.555 27.070862
66.560 26.302429
66.565 26.406597
66.570 26.821175
66.575 26.591213
66.580 26.065159
66.585 25.926403
66.590 25.758781
66.595 25.769737
66.600 25.169048
66.605 25.037262
66.610 24.888292
66.615 24.550371
66.620 24.081633
66.625 23.264366
66.630 23.577335
66.635 23.849684
66.640 23.728954
66.645 23.358191
66.650 23.364685
66.655 23.374121
66.660 24.373852
66.665 24.407711
66.670 24.456964
66.675 23.924358
66.680 24.37225
66.685 24.487236
66.690 24.444817
66.695 23.606346
66.700 23.241522
66.705 23.531528
66.710 23.902348
66.715 23.630852
66.720 23.486036
66.725 23.44973
66.730 23.789829
66.735 23.576426
66.740 23.044275
66.745 22.648056
66.750 22.915306
66.755 23.023451
66.760 22.963554
66.765 22.946428
66.770 22.790915
66.775 22.551151
66.780 22.815706
66.785 22.530565
66.790 22.092796
66.795 21.588436
66.800 21.406942
66.805 22.223961
66.810 22.546356
66.815 23.002983
66.820 22.92555
66.825 23.580053
66.830 24.601
66.835 24.22438
66.840 23.51857
66.845 23.149082
66.850 23.486534
66.855 23.24519
66.860 22.500782
66.865 21.877638
66.870 22.384668
66.875 22.188448
66.880 21.835417
66.885 20.831442
66.890 21.594086
66.895 21.958046
66.900 21.472998
66.905 20.409681
66.910 20.519709
66.915 20.81864
66.920 20.899647
66.925 19.618118
66.930 19.704035
66.935 20.177523
66.940 20.29413
66.945 20.875628
66.950 20.679932
66.955 20.64192
66.960 21.059954
66.965 20.489391
66.970 20.708715
66.975 20.962904
66.980 20.225752
66.985 20.008358
66.990 20.364193
66.995 20.801636
67.000 21.105522
67.005 21.70787
67.010 21.933535
67.015 22.416454
67.020 22.496965
67.025 22.032465
67.030 22.105127
67.035 22.842346
67.040 22.254181
67.045 22.17202
67.050 21.808113
67.055 21.736366
67.060 22.313299
67.065 21.644337
67.070 20.805176
67.075 20.452915
67.080 19.872881
67.085 19.940399
67.090 20.228144
67.095 20.100903
67.100 20.375822
67.105 20.339258
67.110 20.657192
67.115 20.69466
67.120 20.948355
67.125 21.036192
67.130 20.81843
67.135 20.619904
67.140 20.646072
67.145 20.333696
67.150 20.109438
67.155 20.155355
67.160 20.174807
67.165 20.483925
67.170 20.694206
67.175 20.586304
67.180 21.095049
67.185 21.371204
67.190 20.659437
67.195 20.303616
67.200 20.35778
67.205 19.932709
67.210 20.288919
67.215 19.859453
67.220 19.81856
67.225 20.242647
67.230 19.87187
67.235 19.882137
67.240 20.029533
67.245 20.212896
67.250 20.589302
67.255 20.977654
67.260 21.310932
67.265 21.51576
67.270 21.670326
67.275 21.404602
67.280 20.76897
67.285 20.788549
67.290 20.195332
67.295 19.807053
67.300 19.540623
67.305 18.976513
67.310 18.50843
67.315 18.457123
67.320 18.97975
67.325 19.63072
67.330 19.862911
67.335 19.859518
67.340 19.852238
67.345 20.57699
67.350 20.532217
67.355 20.29442
67.360 19.962025
67.365 19.85877
67.370 19.762983
67.375 20.323914
67.380 20.584545
67.385 20.64591
67.390 20.614874
67.395 20.971731
67.400 21.584743
67.405 21.909664
67.410 21.077164
67.415 20.762302
67.420 20.348137
67.425 19.801935
67.430 19.320702
67.435 19.011044
67.440 19.156279
67.445 19.724236
67.450 20.303822
67.455 20.842188
67.460 20.809084
67.465 21.027163
67.470 20.900152
67.475 20.830011
67.480 20.468653
67.485 20.021498
67.490 20.37241
67.495 20.334652
67.500 19.99474
67.505 20.002853
67.510 20.104843
67.515 20.35235
67.520 20.662083
67.525 20.492147
67.530 20.866518
67.535 20.923021
67.540 20.912691
67.545 21.213507
67.550 21.347221
67.555 21.290422
67.560 21.448847
67.565 21.574488
67.570 21.787685
67.575 21.890219
67.580 21.682417
67.585 21.328342
67.590 20.954468
67.595 20.872622
67.600 20.474644
67.605 19.998169
67.610 19.448059
67.615 19.409136
67.620 19.782421
67.625 20.550163
67.630 20.877731
67.635 20.998299
67.640 21.585754
67.645 21.72681
67.650 21.75053
67.655 21.496378
67.660 21.096457
67.665 21.002167
67.670 21.34952
67.675 21.239546
67.680 21.493507
67.685 21.838352
67.690 21.777412
67.695 21.65266
67.700 21.042543
67.705 21.089407
67.710 21.378222
67.715 21.133953
67.720 20.725636
67.725 20.559906
67.730 20.691914
67.735 20.673557
67.740 20.267176
67.745 19.371353
67.750 19.796673
67.755 20.315414
67.760 20.025385
67.765 19.81328
67.770 20.084042
67.775 20.581802
67.780 20.700369
67.785 19.856907
67.790 19.542669
67.795 19.358406
67.800 19.679819
67.805 20.551031
67.810 20.014961
67.815 19.958807
67.820 20.060837
67.825 19.532408
67.830 19.530552
67.835 19.213045
67.840 18.438034
67.845 18.313818
67.850 18.35648
67.855 18.041849
67.860 17.949314
67.865 17.738623
67.870 17.10784
67.875 16.97698
67.880 17.108297
67.885 17.458994
67.890 18.044992
67.895 19.195313
67.900 19.789436
67.905 20.035273
67.910 20.371439
67.915 20.612288
67.920 20.891977
67.925 21.459059
67.930 21.933651
67.935 22.440527
67.940 22.441889
67.945 22.319353
67.950 22.201256
67.955 21.679371
67.960 21.25049
67.965 20.280699
67.970 19.536928
67.975 19.54364
67.980 19.7391
67.985 20.205154
67.990 20.418308
67.995 19.790071
68.000 19.40588
68.005 18.993921
68.010 19.082058
68.015 18.831675
68.020 18.641506
68.025 18.806189
68.030 18.883959
68.035 19.103968
68.040 19.50728
68.045 19.420437
68.050 19.5103
68.055 19.906025
68.060 19.947372
68.065 20.232727
68.070 20.514172
68.075 20.916708
68.080 20.434561
68.085 20.15634
68.090 19.916986
68.095 19.530401
68.100 19.236113
68.105 19.742189
68.110 19.626112
68.115 20.031103
68.120 19.860285
68.125 19.955431
68.130 20.606178
68.135 20.881723
68.140 20.355961
68.145 20.334902
68.150 20.466459
68.155 20.456493
68.160 20.307579
68.165 20.039228
68.170 19.494253
68.175 19.25889
68.180 19.542391
68.185 19.338018
68.190 19.511753
68.195 19.588863
68.200 20.028496
68.205 20.503052
68.210 20.833698
68.215 21.228336
68.220 21.093761
68.225 21.017195
68.230 21.196119
68.235 20.81077
68.240 20.913925
68.245 20.385281
68.250 20.194305
68.255 20.184971
68.260 19.422863
68.265 19.357386
68.270 19.498613
68.275 19.956131
68.280 20.388256
68.285 20.258587
68.290 20.605549
68.295 21.189602
68.300 20.720419
68.305 20.160166
68.310 19.91534
68.315 20.359953
68.320 20.801037
68.325 20.378019
68.330 20.252762
68.335 21.012089
68.340 21.13357
68.345 20.883459
68.350 20.432798
68.355 20.126289
68.360 20.303701
68.365 19.893206
68.370 19.453108
68.375 19.448229
68.380 19.297771
68.385 19.153357
68.390 19.566343
68.395 20.086302
68.400 20.257198
68.405 20.624823
68.410 20.506666
68.415 20.617161
68.420 20.891138
68.425 20.676867
68.430 19.939608
68.435 19.747206
68.440 19.00621
68.445 18.978073
68.450 19.658802
68.455 19.216562
68.460 19.116936
68.465 19.567944
68.470 19.722897
68.475 20.94993
68.480 21.638956
68.485 21.227667
68.490 21.523432
68.495 22.152002
68.500 22.008127
68.505 21.670092
68.510 21.174013
68.515 20.815378
68.520 20.319792
68.525 19.608646
68.530 19.144144
68.535 19.387291
68.540 19.723063
68.545 19.925758
68.550 20.373991
68.555 20.911589
68.560 21.573751
68.565 22.21627
68.570 22.114317
68.575 21.519728
68.580 21.123262
68.585 20.703066
68.590 20.495487
68.595 19.407894
68.600 18.695814
68.605 19.0259
68.610 19.105907
68.615 19.29847
68.620 19.217648
68.625 19.519463
68.630 20.028156
68.635 20.018642
68.640 20.261641
68.645 20.31706
68.650 20.475464
68.655 20.749971
68.660 20.879539
68.665 20.644209
68.670 20.738182
68.675 20.387281
68.680 20.408134
68.685 20.068144
68.690 18.967508
68.695 18.875692
68.700 19.122282
68.705 18.906202
68.710 18.953129
68.715 19.028009
68.720 18.982014
68.725 19.7542
68.730 20.001839
68.735 20.605705
68.740 20.880178
68.745 20.63818
68.750 20.797626
68.755 21.458982
68.760 21.350811
68.765 21.791494
68.770 21.544611
68.775 21.18586
68.780 21.010067
68.785 21.106831
68.790 20.656622
68.795 20.336176
68.800 19.89403
68.805 19.909472
68.810 19.769342
68.815 19.494961
68.820 19.270216
68.825 20.251812
68.830 20.406496
68.835 20.237583
68.840 20.069237
68.845 20.475109
68.850 21.470106
68.855 22.123365
68.860 21.404165
68.865 21.53768
68.870 21.6661
68.875 22.10902
68.880 22.186035
68.885 21.897614
68.890 21.637905
68.895 21.992224
68.900 21.734854
68.905 21.663786
68.910 21.703924
68.915 21.5641
68.920 20.914383
68.925 21.060692
68.930 21.091249
68.935 21.328514
68.940 21.838297
68.945 22.031761
68.950 22.582537
68.955 22.801075
68.960 22.637785
68.965 22.988855
68.970 24.164782
68.975 24.848288
68.980 24.972204
68.985 25.453789
68.990 25.421898
68.995 24.821943
69.000 23.825224
69.005 22.724024
69.010 22.575579
69.015 22.735556
69.020 22.300009
69.025 22.76499
69.030 23.49366
69.035 23.90974
69.040 23.982906
69.045 23.575413
69.050 23.25202
69.055 23.424763
69.060 23.589153
69.065 23.383963
69.070 23.208895
69.075 23.349566
69.080 23.704361
69.085 24.200451
69.090 24.122982
69.095 24.479284
69.100 24.957018
69.105 25.506084
69.110 25.519163
69.115 25.230789
69.120 25.154215
69.125 25.385813
69.130 25.023897
69.135 24.339392
69.140 24.574875
69.145 24.417343
69.150 24.220448
69.155 24.376778
69.160 24.142708
69.165 24.590145
69.170 25.329445
69.175 25.486254
69.180 25.54052
69.185 25.643232
69.190 24.910887
69.195 24.533457
69.200 24.003536
69.205 23.695965
69.210 23.16361
69.215 23.608982
69.220 24.143261
69.225 24.918211
69.230 25.40015
69.235 25.019098
69.240 25.525473
69.245 25.645555
69.250 25.450497
69.255 25.367031
69.260 26.028221
69.265 26.378149
69.270 27.338047
69.275 27.256281
69.280 27.291552
69.285 27.816156
69.290 28.050402
69.295 27.411121
69.300 26.984003
69.305 26.576086
69.310 26.817936
69.315 26.811695
69.320 26.543455
69.325 25.96509
69.330 26.128752
69.335 26.74485
69.340 26.881264
69.345 26.860777
69.350 26.758762
69.355 26.740351
69.360 27.496746
69.365 27.437986
69.370 27.613569
69.375 27.940718
69.380 28.066446
69.385 29.122671
69.390 29.793276
69.395 28.970078
69.400 28.733543
69.405 28.305546
69.410 28.799974
69.415 29.324419
69.420 29.071394
69.425 29.27491
69.430 29.736357
69.435 30.359541
69.440 30.939974
69.445 30.349842
69.450 30.781157
69.455 30.7096
69.460 30.688122
69.465 30.923277
69.470 30.522379
69.475 30.44552
69.480 30.832199
69.485 31.027718
69.490 30.561163
69.495 30.002693
69.500 29.701002
69.505 29.458107
69.510 29.077429
69.515 28.630161
69.520 28.349089
69.525 27.892853
69.530 28.446638
69.535 29.141994
69.540 29.244173
69.545 29.344305
69.550 29.365324
69.555 29.520069
69.560 29.817255
69.565 29.745895
69.570 29.723158
69.575 29.476395
69.580 29.789932
69.585 29.573854
69.590 29.884018
69.595 29.743603
69.600 29.951763
69.605 30.552721
69.610 30.84458
69.615 30.75342
69.620 31.617373
69.625 32.184589
69.630 32.453564
69.635 32.028561
69.640 32.067467
69.645 31.744078
69.650 31.057123
69.655 31.343161
69.660 31.093065
69.665 30.963926
69.670 30.946463
69.675 31.023064
69.680 30.790203
69.685 30.672646
69.690 30.041462
69.695 29.893438
69.700 30.133091
69.705 29.821793
69.710 29.433966
69.715 29.702276
69.720 29.867994
69.725 29.689165
69.730 29.569548
69.735 29.092314
69.740 28.637844
69.745 28.089336
69.750 27.515026
69.755 27.032413
69.760 26.877806
69.765 26.198521
69.770 26.232597
69.775 26.233971
69.780 26.437984
69.785 26.99073
69.790 27.094679
69.795 27.312716
69.800 27.612335
69.805 27.997799
69.810 28.303511
69.815 28.325815
69.820 27.828314
69.825 26.865038
69.830 26.477585
69.835 26.426857
69.840 25.744991
69.845 25.345587
69.850 24.880611
69.855 24.883112
69.860 24.611603
69.865 24.151436
69.870 23.9979
69.875 24.609501
69.880 25.240351
69.885 25.060812
69.890 24.935522
69.895 25.150484
69.900 25.01137
69.905 24.856649
69.910 24.02734
69.915 23.432833
69.920 23.963989
69.925 23.980911
69.930 24.209654
69.935 24.198589
69.940 24.606119
69.945 25.059134
69.950 24.333244
69.955 24.273258
69.960 24.206896
69.965 23.796633
69.970 22.927103
69.975 22.125788
69.980 21.596773
69.985 22.342844
69.990 22.308031
69.995 22.106461
70.000 22.188581
70.005 22.573841
70.010 22.666224
70.015 22.684561
70.020 22.226713
70.025 21.681984
70.030 21.167612
70.035 21.17676
70.040 21.198156
70.045 21.140409
70.050 21.33135
70.055 21.182806
70.060 21.755644
70.065 21.384293
70.070 21.174452
70.075 20.963547
70.080 20.465704
70.085 20.130243
70.090 20.276707
70.095 20.12145
70.100 21.072653
70.105 21.057501
70.110 21.176563
70.115 21.741789
70.120 21.676643
70.125 21.395588
70.130 21.495913
70.135 21.522438
70.140 21.715588
70.145 21.31225
70.150 21.136122
70.155 20.974083
70.160 21.112953
70.165 20.726341
70.170 20.156332
70.175 20.189051
70.180 19.821983
70.185 19.416309
70.190 19.475264
70.195 19.617373
70.200 19.043001
70.205 18.141844
70.210 17.812506
70.215 17.685617
70.220 17.512615
70.225 17.407301
70.230 17.323593
70.235 17.791965
70.240 18.310331
70.245 18.376707
70.250 19.009201
70.255 20.242527
70.260 20.36718
70.265 20.775402
70.270 21.012653
70.275 20.67169
70.280 20.475861
70.285 20.069611
70.290 19.294338
70.295 19.239431
70.300 18.501696
70.305 18.84252
70.310 19.680326
70.315 19.578684
70.320 19.6327
70.325 19.386478
70.330 19.269024
70.335 18.97887
70.340 18.465647
70.345 17.661053
70.350 18.459917
70.355 18.537172
70.360 18.444141
70.365 18.610477
70.370 19.18874
70.375 19.376696
70.380 19.298635
70.385 19.240652
70.390 19.211933
70.395 19.66995
70.400 19.741779
70.405 19.44747
70.410 19.140808
70.415 18.998219
70.420 18.511675
70.425 18.584999
70.430 19.013119
70.435 18.821077
70.440 19.080141
70.445 19.15571
70.450 18.757057
70.455 19.510134
70.460 19.534624
70.465 19.53953
70.470 19.888508
70.475 20.171791
70.480 20.950397
70.485 21.61256
70.490 20.734272
70.495 20.284111
70.500 19.925306
70.505 19.669821
70.510 19.371723
70.515 19.156603
70.520 19.17631
70.525 19.453526
70.530 19.819441
70.535 19.494545
70.540 19.480267
70.545 20.007053
70.550 19.333303
70.555 18.974016
70.560 18.730116
70.565 18.904127
70.570 19.340616
70.575 18.629993
70.580 18.508812
70.585 19.155945
70.590 18.734682
70.595 18.723005
70.600 18.685001
70.605 19.247341
70.610 19.829189
70.615 19.514202
70.620 19.297565
70.625 19.860271
70.630 19.876783
70.635 19.263779
70.640 18.681513
70.645 18.596779
70.650 18.639019
70.655 18.399824
70.660 18.256044
70.665 18.093067
70.670 18.627859
70.675 19.068312
70.680 19.310181
70.685 19.989937
70.690 20.904655
70.695 20.82506
70.700 20.565704
70.705 20.312195
70.710 19.834099
70.715 18.946795
70.720 18.814108
70.725 19.083908
70.730 19.021063
70.735 18.970646
70.740 18.78072
70.745 18.486256
70.750 18.860308
70.755 18.839169
70.760 18.289139
70.765 18.424671
70.770 18.422865
70.775 18.678196
70.780 18.799767
70.785 18.519266
70.790 18.82972
70.795 18.871519
70.800 18.888308
70.805 19.226772
70.810 19.605455
70.815 20.150982
70.820 20.775997
70.825 19.6702
70.830 19.703423
70.835 19.903296
70.840 19.867701
70.845 19.140076
70.850 18.698412
70.855 18.793646
70.860 19.54929
70.865 19.371475
70.870 19.320999
70.875 19.441147
70.880 19.561039
70.885 19.059839
70.890 18.544516
70.895 17.724247
70.900 17.692619
70.905 17.811316
70.910 18.308874
70.915 18.340197
70.920 18.581768
70.925 19.167984
70.930 19.933189
70.935 20.421854
70.940 20.000097
70.945 19.063133
70.950 18.811474
70.955 18.75016
70.960 18.362612
70.965 18.261923
70.970 18.153938
70.975 18.574982
70.980 18.771887
70.985 19.039782
70.990 19.10133
70.995 18.537542
71.000 18.091864
71.005 18.034416
71.010 17.681795
71.015 18.15473
71.020 18.601429
71.025 17.852043
71.030 18.371536
71.035 18.206541
71.040 18.084211
71.045 18.151461
71.050 17.696146
71.055 17.478693
71.060 18.105734
71.065 18.03685
71.070 17.992077
71.075 18.301903
71.080 18.438349
71.085 18.056414
71.090 18.038179
71.095 18.449688
71.100 18.993099
71.105 19.143358
71.110 18.577698
71.115 18.588118
71.120 18.838598
71.125 18.767893
71.130 18.47905
71.135 18.3025
71.140 18.464727
71.145 18.765501
71.150 18.864523
71.155 19.5812
71.160 19.571449
71.165 19.154016
71.170 19.19339
71.175 19.23423
71.180 19.082123
71.185 19.306864
71.190 19.378428
71.195 18.93388
71.200 18.809153
71.205 18.972658
71.210 19.229677
71.215 19.06407
71.220 18.1299
71.225 18.326639
71.230 19.354757
71.235 20.257332
71.240 20.628408
71.245 20.456264
71.250 20.863306
71.255 20.782534
71.260 20.399609
71.265 20.180687
71.270 19.186174
71.275 18.327881
71.280 17.921465
71.285 17.938421
71.290 17.968683
71.295 17.104208
71.300 16.377966
71.305 17.160862
71.310 17.44116
71.315 17.610195
71.320 17.322786
71.325 17.774052
71.330 17.995243
71.335 18.020416
71.340 17.902792
71.345 18.605471
71.350 18.576414
71.355 18.650318
71.360 18.911591
71.365 19.613199
71.370 20.431448
71.375 20.303333
71.380 20.186001
71.385 20.549761
71.390 20.620287
71.395 20.284824
71.400 19.985094
71.405 19.437834
71.410 19.14282
71.415 19.530182
71.420 19.040596
71.425 18.844154
71.430 18.824331
71.435 18.294994
71.440 18.51874
71.445 18.794447
71.450 18.9105
71.455 19.09947
71.460 19.378908
71.465 19.774612
71.470 20.444962
71.475 20.355747
71.480 19.754749
71.485 19.300522
71.490 19.331741
71.495 19.110481
71.500 19.071762
71.505 18.378744
71.510 18.733652
71.515 18.840286
71.520 18.709047
71.525 19.035501
71.530 19.049995
71.535 18.857077
71.540 18.460186
71.545 17.988445
71.550 17.831408
71.555 17.764236
71.560 17.370504
71.565 16.773983
71.570 16.428619
71.575 16.549776
71.580 16.107979
71.585 15.990396
71.590 15.82849
71.595 16.108696
71.600 15.970853
71.605 16.328377
71.610 17.17001
71.615 17.776007
71.620 17.882311
71.625 17.896046
71.630 18.287046
71.635 18.888708
71.640 18.662121
71.645 17.634409
71.650 17.352484
71.655 17.228609
71.660 17.663626
71.665 17.621309
71.670 18.06566
71.675 18.402096
71.680 18.922153
71.685 19.054918
71.690 18.849714
71.695 18.180515
71.700 17.744114
71.705 17.030531
71.710 16.598785
71.715 16.559748
71.720 17.042582
71.725 16.949703
71.730 17.239304
71.735 17.199219
71.740 17.624117
71.745 17.635399
71.750 17.759777
71.755 17.90667
71.760 18.241375
71.765 18.328016
71.770 18.806772
71.775 18.462465
71.780 18.754755
71.785 18.664454
71.790 18.253792
71.795 17.894697
71.800 17.785305
71.805 17.833569
71.810 18.323843
71.815 17.88192
71.820 17.927818
71.825 18.040535
71.830 18.137751
71.835 18.38225
71.840 18.202242
71.845 18.298201
71.850 18.481886
71.855 18.208055
71.860 18.563007
71.865 18.731268
71.870 18.222757
71.875 18.1014
71.880 17.586967
71.885 17.719074
71.890 17.898333
71.895 17.93553
71.900 17.914631
71.905 17.612427
71.910 18.152931
71.915 18.500338
71.920 18.143681
71.925 18.339518
71.930 18.67848
71.935 18.790045
71.940 18.892443
71.945 18.792273
71.950 18.385189
71.955 18.285725
71.960 17.412146
71.965 17.285894
71.970 17.214468
71.975 17.355474
71.980 17.294006
71.985 17.735786
71.990 17.843409
71.995 17.824511
72.000 17.345615
72.005 17.195791
72.010 16.775024
72.015 17.143568
72.020 17.522429
72.025 18.120356
72.030 18.836855
72.035 19.649696
72.040 19.91181
72.045 20.376427
72.050 20.180237
72.055 19.761263
72.060 19.619839
72.065 18.815689
72.070 18.438122
72.075 18.200495
72.080 17.767445
72.085 17.243429
72.090 16.873055
72.095 17.089664
72.100 18.078392
72.105 18.164726
72.110 18.34137
72.115 18.257523
72.120 18.736254
72.125 19.112816
72.130 18.954407
72.135 19.144676
72.140 19.225719
72.145 19.126293
72.150 19.156742
72.155 19.227135
72.160 18.990881
72.165 18.446615
72.170 18.116137
72.175 18.38381
72.180 18.088476
72.185 17.329168
72.190 17.072466
72.195 16.742857
72.200 16.61285
72.205 15.993706
72.210 15.666537
72.215 16.037529
72.220 16.040138
72.225 15.952646
72.230 16.619955
72.235 16.657784
72.240 17.068535
72.245 17.606441
72.250 18.707912
72.255 18.757303
72.260 18.968554
72.265 18.599575
72.270 18.380373
72.275 18.687513
72.280 18.60214
72.285 18.295769
72.290 18.800385
72.295 18.437418
72.300 18.768795
72.305 19.246014
72.310 19.367704
72.315 19.371529
72.320 19.481903
72.325 19.414053
72.330 19.568468
72.335 19.530344
72.340 19.443237
72.345 18.934868
72.350 18.974735
72.355 18.783232
72.360 18.718691
72.365 18.515709
72.370 17.964775
72.375 17.379847
72.380 17.789543
72.385 18.108385
72.390 18.051411
72.395 17.763216
72.400 18.036568
72.405 18.016443
72.410 17.814209
72.415 17.070425
72.420 16.378073
72.425 16.030828
72.430 15.911727
72.435 15.944033
72.440 16.540354
72.445 16.635809
72.450 16.774685
72.455 16.663824
72.460 16.864372
72.465 16.603464
72.470 16.469915
72.475 16.646641
72.480 17.053736
72.485 17.205727
72.490 17.3342
72.495 17.652092
72.500 18.229246
72.505 17.990198
72.510 17.668518
72.515 17.133753
72.520 17.374029
72.525 17.767426
72.530 17.789225
72.535 18.0429
72.540 18.335447
72.545 18.373116
72.550 18.811718
72.555 19.026346
72.560 18.640749
72.565 18.264563
72.570 17.533354
72.575 17.541351
72.580 18.016506
72.585 18.453144
72.590 19.007225
72.595 18.741627
72.600 19.070724
72.605 19.230669
72.610 19.150719
72.615 18.769663
72.620 17.997858
72.625 17.400133
72.630 17.327885
72.635 16.916866
72.640 16.71373
72.645 16.239588
72.650 15.770793
72.655 15.664085
72.660 15.65326
72.665 15.956216
72.670 16.021984
72.675 16.585762
72.680 17.239433
72.685 17.236982
72.690 17.127842
72.695 16.953028
72.700 17.10784
72.705 17.308449
72.710 17.141155
72.715 17.184874
72.720 17.245348
72.725 17.254698
72.730 17.824223
72.735 17.632788
72.740 16.997293
72.745 16.850216
72.750 16.681688
72.755 16.678356
72.760 17.020809
72.765 16.961607
72.770 17.043793
72.775 17.353937
72.780 17.191553
72.785 16.859716
72.790 15.75347
72.795 15.327694
72.800 15.35196
72.805 14.900642
72.810 14.523281
72.815 14.671047
72.820 15.271542
72.825 16.379862
72.830 15.799423
72.835 15.872308
72.840 16.181646
72.845 16.441145
72.850 16.092192
72.855 15.998061
72.860 15.966143
72.865 16.579023
72.870 16.49889
72.875 16.993227
72.880 16.655087
72.885 16.319302
72.890 16.339441
72.895 16.607378
72.900 16.707619
72.905 16.780766
72.910 16.766754
72.915 17.495739
72.920 18.489262
72.925 18.633848
72.930 18.724176
72.935 18.656727
72.940 18.650988
72.945 18.522871
72.950 18.122932
72.955 17.533636
72.960 17.227295
72.965 17.146088
72.970 17.119659
72.975 17.09177
72.980 16.928318
72.985 17.259653
72.990 17.103859
72.995 17.126545
73.000 16.917578
