!@!!GADDS PLOTSO FILE: Chi integration type
!@!!Title/SampleName: map-e3
!@!!Comment: ?
!@!!User: Bruker Instrument Administrator
!@!!Site: University of Illinois Chicago
!@!!Frame: map-e3_01_000.gfrm
!@!!Wavelengths    1.54184   1.54056   1.54439
!@!!Frame angles: 2Theta: 63.000 Omega: 50.000 Phi: 0.000 Chi: 90.000
!@!!Integration range: 2Theta: 53.000 to 73.000  Gamma: -105.000 to -75.000
!@!!Integration method: bin normalized
!@!N
!@!SS
!@!M
!@!L 0.0 0.0 0.0 0.0
!@!XDegrees
!@!YCounts
53.000 6.024096
53.005 5.915291
53.010 5.905459
53.015 5.833825
53.020 5.706327
53.025 5.464136
53.030 5.485887
53.035 5.662863
53.040 5.717606
53.045 5.929629
53.050 6.495247
53.055 6.809395
53.060 7.3294
53.065 7.177675
53.070 6.989354
53.075 7.011608
53.080 6.77944
53.085 6.392281
53.090 6.373857
53.095 6.094118
53.100 6.147998
53.105 6.074864
53.110 6.382061
53.115 6.598652
53.120 6.195131
53.125 5.740154
53.130 5.629909
53.135 5.630369
53.140 5.314149
53.145 4.722908
53.150 4.754774
53.155 4.814598
53.160 4.851894
53.165 4.848581
53.170 4.940717
53.175 5.134685
53.180 4.985492
53.185 5.020263
53.190 5.341372
53.195 5.477141
53.200 5.609152
53.205 5.868474
53.210 6.01704
53.215 6.315365
53.220 6.240678
53.225 5.994822
53.230 5.949816
53.235 5.782475
53.240 5.380139
53.245 5.285705
53.250 5.091344
53.255 5.287838
53.260 5.798766
53.265 5.938808
53.270 6.059053
53.275 6.032572
53.280 5.781906
53.285 5.56246
53.290 5.194819
53.295 4.898605
53.300 4.730752
53.305 4.69903
53.310 4.909552
53.315 5.434886
53.320 6.001915
53.325 6.157012
53.330 6.221012
53.335 6.439923
53.340 6.554851
53.345 6.704244
53.350 6.465787
53.355 6.43906
53.360 6.535187
53.365 6.647099
53.370 6.578792
53.375 6.469337
53.380 6.348133
53.385 6.630255
53.390 6.66981
53.395 6.759952
53.400 6.566762
53.405 6.762317
53.410 6.906144
53.415 6.967373
53.420 6.795252
53.425 6.518763
53.430 6.569592
53.435 6.632678
53.440 6.099614
53.445 6.015094
53.450 5.956156
53.455 6.249655
53.460 6.284645
53.465 6.12703
53.470 6.394703
53.475 6.580306
53.480 6.920043
53.485 6.980455
53.490 7.119751
53.495 7.260143
53.500 7.517141
53.505 7.829836
53.510 7.781145
53.515 7.622077
53.520 7.141051
53.525 6.419574
53.530 6.212988
53.535 5.863925
53.540 5.834529
53.545 5.645187
53.550 5.636998
53.555 6.066561
53.560 6.720037
53.565 7.090871
53.570 7.389675
53.575 7.260805
53.580 7.585303
53.585 7.603236
53.590 7.589873
53.595 7.297362
53.600 7.003895
53.605 6.688835
53.610 6.670847
53.615 6.544624
53.620 6.740849
53.625 6.46619
53.630 6.374906
53.635 6.486467
53.640 6.516528
53.645 6.704548
53.650 6.630491
53.655 6.223668
53.660 6.38143
53.665 6.353798
53.670 6.563838
53.675 6.600705
53.680 6.658145
53.685 6.598002
53.690 6.835615
53.695 6.742154
53.700 6.741085
53.705 6.607079
53.710 6.668669
53.715 6.568199
53.720 7.012253
53.725 7.226043
53.730 7.365427
53.735 6.970682
53.740 7.252926
53.745 7.07011
53.750 7.167707
53.755 6.819896
53.760 6.624347
53.765 6.621989
53.770 7.294361
53.775 7.414809
53.780 7.563804
53.785 7.501492
53.790 8.107653
53.795 8.572423
53.800 8.55484
53.805 8.105236
53.810 7.682205
53.815 7.341907
53.820 6.885756
53.825 6.402795
53.830 6.017483
53.835 5.891011
53.840 6.024342
53.845 6.474029
53.850 6.655736
53.855 6.759309
53.860 6.494925
53.865 6.298844
53.870 6.145944
53.875 5.869645
53.880 6.080088
53.885 6.263429
53.890 6.357956
53.895 6.865524
53.900 7.068822
53.905 7.661097
53.910 7.720033
53.915 7.401713
53.920 7.388299
53.925 7.326057
53.930 7.396134
53.935 7.159475
53.940 6.926882
53.945 6.868524
53.950 7.018817
53.955 7.251529
53.960 7.18283
53.965 6.940082
53.970 7.07152
53.975 6.891924
53.980 6.794702
53.985 6.606941
53.990 6.471448
53.995 6.985301
54.000 6.952144
54.005 7.470688
54.010 7.665235
54.015 7.901644
54.020 8.028819
54.025 7.948459
54.030 7.668391
54.035 7.685196
54.040 7.147574
54.045 7.009357
54.050 6.999223
54.055 6.939051
54.060 6.701285
54.065 6.596858
54.070 6.264031
54.075 6.363423
54.080 6.467413
54.085 6.586334
54.090 6.838454
54.095 7.14311
54.100 7.626219
54.105 8.170348
54.110 8.348827
54.115 8.129858
54.120 8.143786
54.125 8.215062
54.130 8.021449
54.135 7.629793
54.140 7.347894
54.145 7.321024
54.150 7.523349
54.155 7.130737
54.160 6.888138
54.165 7.010853
54.170 7.111586
54.175 7.311118
54.180 6.97236
54.185 6.684869
54.190 6.978503
54.195 7.166385
54.200 6.879785
54.205 6.874518
54.210 7.00974
54.215 7.434607
54.220 7.63477
54.225 7.895969
54.230 8.142123
54.235 8.747036
54.240 8.770121
54.245 8.450249
54.250 8.290298
54.255 8.157704
54.260 7.825176
54.265 8.088487
54.270 7.909982
54.275 7.536101
54.280 7.944132
54.285 7.793494
54.290 8.207417
54.295 8.470962
54.300 8.542371
54.305 9.009801
54.310 9.251107
54.315 9.320437
54.320 9.101252
54.325 8.614082
54.330 8.488923
54.335 7.900484
54.340 7.739914
54.345 7.623916
54.350 7.468574
54.355 7.71136
54.360 8.035855
54.365 8.443168
54.370 8.638008
54.375 8.743926
54.380 8.894254
54.385 8.777491
54.390 8.45558
54.395 7.686152
54.400 7.039838
54.405 6.691733
54.410 6.459692
54.415 6.132129
54.420 5.972907
54.425 6.105615
54.430 6.387948
54.435 6.722065
54.440 6.608584
54.445 6.744143
54.450 7.220296
54.455 7.544979
54.460 7.958966
54.465 8.0548
54.470 8.130563
54.475 7.936281
54.480 7.774797
54.485 7.323738
54.490 7.511233
54.495 7.568058
54.500 7.726506
54.505 8.046314
54.510 8.935267
54.515 9.350134
54.520 9.4034
54.525 8.889578
54.530 8.814802
54.535 8.983563
54.540 8.962291
54.545 8.688485
54.550 8.774023
54.555 9.298478
54.560 9.634182
54.565 9.439988
54.570 9.223955
54.575 8.899232
54.580 8.682444
54.585 8.303407
54.590 8.051512
54.595 7.809727
54.600 7.570806
54.605 7.623597
54.610 7.724168
54.615 8.15609
54.620 8.660948
54.625 8.912207
54.630 8.931298
54.635 8.851233
54.640 8.664791
54.645 8.543806
54.650 8.910306
54.655 8.439001
54.660 7.995227
54.665 8.400354
54.670 8.424896
54.675 8.263786
54.680 7.902462
54.685 7.929805
54.690 8.446034
54.695 8.72911
54.700 8.195292
54.705 8.340939
54.710 8.75736
54.715 8.673325
54.720 8.362073
54.725 8.250011
54.730 8.152581
54.735 8.259663
54.740 8.430373
54.745 8.213429
54.750 8.259203
54.755 8.006987
54.760 7.831596
54.765 8.099741
54.770 8.090697
54.775 8.33573
54.780 8.538722
54.785 8.531473
54.790 8.624843
54.795 8.765279
54.800 8.813799
54.805 8.477674
54.810 8.197977
54.815 8.260574
54.820 8.534514
54.825 8.271317
54.830 8.311149
54.835 8.169412
54.840 8.183539
54.845 8.089016
54.850 8.00133
54.855 7.916321
54.860 8.228916
54.865 7.796183
54.870 7.90291
54.875 7.944279
54.880 8.11417
54.885 8.031939
54.890 8.129575
54.895 7.902134
54.900 8.233503
54.905 8.552743
54.910 8.860638
54.915 9.399981
54.920 9.688518
54.925 9.624629
54.930 9.894447
54.935 10.169093
54.940 9.383173
54.945 9.098716
54.950 8.680941
54.955 8.386383
54.960 8.556417
54.965 8.64466
54.970 8.536065
54.975 9.021151
54.980 9.080941
54.985 9.208792
54.990 9.589899
54.995 9.568487
55.000 9.259736
55.005 9.446397
55.010 9.511016
55.015 9.432496
55.020 9.092822
55.025 8.98274
55.030 9.16717
55.035 9.385179
55.040 8.968803
55.045 9.042603
55.050 9.346963
55.055 9.825946
55.060 9.626489
55.065 9.257036
55.070 9.000933
55.075 9.024715
55.080 8.950964
55.085 8.527712
55.090 8.752372
55.095 8.65344
55.100 8.631527
55.105 8.83235
55.110 9.214756
55.115 9.020242
55.120 8.840859
55.125 8.64341
55.130 9.31778
55.135 9.814786
55.140 9.907175
55.145 9.874135
55.150 9.719643
55.155 9.728264
55.160 9.438089
55.165 8.745467
55.170 8.443419
55.175 8.453933
55.180 8.550098
55.185 8.901602
55.190 8.734855
55.195 8.821445
55.200 9.029053
55.205 8.959836
55.210 8.585779
55.215 8.852378
55.220 9.185864
55.225 9.246797
55.230 9.330624
55.235 8.899297
55.240 8.779752
55.245 9.08089
55.250 8.653422
55.255 8.425356
55.260 8.306444
55.265 8.860827
55.270 9.553267
55.275 9.726449
55.280 9.664842
55.285 9.754093
55.290 9.821726
55.295 9.734615
55.300 9.033214
55.305 8.768568
55.310 8.746051
55.315 8.292026
55.320 8.426986
55.325 8.606736
55.330 8.920281
55.335 8.828665
55.340 8.322046
55.345 7.975689
55.350 8.016341
55.355 7.8918
55.360 8.104321
55.365 7.943789
55.370 8.785294
55.375 9.551367
55.380 10.140275
55.385 10.14382
55.390 9.869886
55.395 9.820181
55.400 10.020415
55.405 9.272545
55.410 9.029778
55.415 8.69212
55.420 8.373448
55.425 8.151739
55.430 7.805959
55.435 7.735
55.440 8.051486
55.445 8.16422
55.450 8.417954
55.455 8.880151
55.460 9.432423
55.465 9.680693
55.470 9.512379
55.475 9.363461
55.480 9.33076
55.485 9.324456
55.490 9.467418
55.495 9.379881
55.500 9.661167
55.505 9.61153
55.510 9.92291
55.515 9.857858
55.520 9.686618
55.525 9.228393
55.530 9.016106
55.535 8.599019
55.540 8.425166
55.545 8.40032
55.550 8.144785
55.555 8.493572
55.560 8.663414
55.565 9.065223
55.570 9.10756
55.575 9.225621
55.580 9.391423
55.585 9.489932
55.590 9.507557
55.595 9.615073
55.600 9.027226
55.605 9.184873
55.610 9.366516
55.615 9.344839
55.620 9.370561
55.625 9.078593
55.630 9.129848
55.635 9.541698
55.640 9.781799
55.645 9.862423
55.650 9.743475
55.655 9.768747
55.660 9.971034
55.665 10.421685
55.670 10.24068
55.675 10.181417
55.680 10.145211
55.685 10.426949
55.690 10.501308
55.695 10.411942
55.700 10.380958
55.705 10.327598
55.710 9.675117
55.715 9.302583
55.720 9.166243
55.725 9.236483
55.730 8.826236
55.735 9.063436
55.740 9.889434
55.745 10.456854
55.750 10.844921
55.755 10.976232
55.760 11.136668
55.765 11.228667
55.770 11.163912
55.775 10.676178
55.780 10.172076
55.785 9.855793
55.790 9.645707
55.795 9.776406
55.800 9.461829
55.805 8.927518
55.810 9.299553
55.815 9.658259
55.820 9.725693
55.825 9.260374
55.830 9.236242
55.835 9.633286
55.840 9.834664
55.845 9.9071
55.850 9.961904
55.855 9.960947
55.860 10.365706
55.865 10.311012
55.870 10.045956
55.875 10.126988
55.880 9.874162
55.885 10.060618
55.890 10.664097
55.895 10.880659
55.900 11.57635
55.905 11.829632
55.910 11.987285
55.915 12.588215
55.920 12.341682
55.925 11.887165
55.930 11.819997
55.935 11.1231
55.940 11.330438
55.945 11.458499
55.950 11.135832
55.955 11.261935
55.960 11.051675
55.965 10.415154
55.970 10.546659
55.975 10.693065
55.980 10.352969
55.985 9.816948
55.990 9.572332
55.995 9.900345
56.000 10.085493
56.005 10.082668
56.010 9.439607
56.015 9.466839
56.020 9.426593
56.025 9.258668
56.030 9.20876
56.035 9.010218
56.040 8.750098
56.045 8.552488
56.050 8.780631
56.055 9.481904
56.060 9.746006
56.065 9.797485
56.070 10.084254
56.075 10.315242
56.080 10.398589
56.085 10.623433
56.090 10.447965
56.095 10.574966
56.100 10.415373
56.105 10.201491
56.110 10.478335
56.115 10.346441
56.120 9.969293
56.125 9.557569
56.130 9.362045
56.135 9.596395
56.140 9.776368
56.145 9.262675
56.150 9.180964
56.155 9.344894
56.160 10.045592
56.165 10.222113
56.170 10.422824
56.175 10.532178
56.180 10.597189
56.185 10.376019
56.190 9.970018
56.195 9.391351
56.200 9.449132
56.205 9.826996
56.210 10.143869
56.215 10.504059
56.220 10.592093
56.225 10.616782
56.230 11.16733
56.235 11.451489
56.240 11.593777
56.245 11.363158
56.250 10.900625
56.255 10.990591
56.260 11.293514
56.265 10.888966
56.270 10.111393
56.275 9.500398
56.280 9.323653
56.285 9.890891
56.290 10.58048
56.295 10.60671
56.300 10.799108
56.305 11.086262
56.310 10.9571
56.315 11.342849
56.320 11.086969
56.325 10.728911
56.330 10.937376
56.335 11.22434
56.340 11.591329
56.345 11.708982
56.350 11.485079
56.355 11.107561
56.360 10.61674
56.365 10.265293
56.370 9.836645
56.375 9.300505
56.380 9.114274
56.385 9.523585
56.390 9.886662
56.395 10.500896
56.400 10.450784
56.405 10.853578
56.410 11.636382
56.415 11.631325
56.420 11.168741
56.425 10.69074
56.430 10.408776
56.435 10.422195
56.440 10.316168
56.445 9.950303
56.450 10.199484
56.455 10.399753
56.460 10.664283
56.465 10.546592
56.470 11.1687
56.475 11.354292
56.480 11.195414
56.485 10.979351
56.490 11.18136
56.495 11.473763
56.500 11.301681
56.505 10.575951
56.510 10.566965
56.515 10.7668
56.520 10.632569
56.525 10.904194
56.530 11.226689
56.535 11.771331
56.540 12.089059
56.545 11.840324
56.550 11.727174
56.555 11.832112
56.560 10.900061
56.565 10.735263
56.570 10.487236
56.575 10.171226
56.580 10.324947
56.585 10.224051
56.590 10.365916
56.595 10.660541
56.600 10.339161
56.605 10.448598
56.610 10.587202
56.615 11.089602
56.620 11.310411
56.625 11.545786
56.630 11.834013
56.635 11.588465
56.640 11.973186
56.645 11.709295
56.650 11.723113
56.655 11.62248
56.660 12.034657
56.665 11.993389
56.670 11.929773
56.675 12.004395
56.680 12.328362
56.685 12.018497
56.690 12.162865
56.695 11.457307
56.700 11.39665
56.705 10.947553
56.710 10.766183
56.715 10.883384
56.720 11.040467
56.725 11.021365
56.730 11.085546
56.735 11.628721
56.740 12.617941
56.745 12.627766
56.750 12.305169
56.755 12.064007
56.760 12.333632
56.765 12.585447
56.770 12.454717
56.775 11.668013
56.780 11.592658
56.785 11.85806
56.790 11.827269
56.795 11.419994
56.800 11.151131
56.805 10.848675
56.810 10.811557
56.815 10.647646
56.820 10.689153
56.825 10.934711
56.830 10.979939
56.835 10.995399
56.840 11.43317
56.845 11.250242
56.850 11.37287
56.855 11.332295
56.860 11.241903
56.865 11.265616
56.870 11.672186
56.875 12.276884
56.880 12.686761
56.885 12.32445
56.890 12.290706
56.895 12.305408
56.900 11.736104
56.905 11.318871
56.910 11.06003
56.915 11.06021
56.920 10.790859
56.925 10.575377
56.930 10.586885
56.935 11.241083
56.940 11.132272
56.945 10.785554
56.950 11.023531
56.955 11.37182
56.960 11.269377
56.965 11.247089
56.970 11.219836
56.975 11.283262
56.980 11.862651
56.985 12.229837
56.990 12.725335
56.995 12.940082
57.000 12.966337
57.005 13.105882
57.010 13.408496
57.015 12.981987
57.020 12.69704
57.025 12.970407
57.030 12.951597
57.035 12.747821
57.040 12.419967
57.045 12.368708
57.050 12.337489
57.055 12.065601
57.060 11.455274
57.065 11.438218
57.070 11.748204
57.075 11.592174
57.080 11.192558
57.085 11.661457
57.090 11.964756
57.095 12.320273
57.100 12.789586
57.105 12.912623
57.110 13.287976
57.115 13.493969
57.120 12.810372
57.125 12.320835
57.130 11.903219
57.135 11.533072
57.140 11.581339
57.145 11.032896
57.150 11.245283
57.155 11.549216
57.160 11.977557
57.165 12.222491
57.170 12.048609
57.175 11.945947
57.180 12.16587
57.185 11.729606
57.190 11.827999
57.195 11.58654
57.200 11.680199
57.205 12.254557
57.210 11.971145
57.215 11.774827
57.220 12.077794
57.225 11.995826
57.230 12.275245
57.235 12.31717
57.240 12.015979
57.245 12.179025
57.250 12.870127
57.255 13.117226
57.260 13.1467
57.265 12.845073
57.270 12.552354
57.275 12.427728
57.280 12.71547
57.285 12.161278
57.290 12.028085
57.295 12.398794
57.300 12.334415
57.305 12.043444
57.310 11.960658
57.315 11.622624
57.320 11.749651
57.325 11.750265
57.330 11.467198
57.335 11.447361
57.340 11.989103
57.345 12.134522
57.350 11.858115
57.355 11.552655
57.360 11.159002
57.365 11.256747
57.370 11.715971
57.375 11.921102
57.380 12.13168
57.385 12.429915
57.390 13.228716
57.395 13.683458
57.400 13.935949
57.405 13.376712
57.410 13.110804
57.415 13.274698
57.420 13.686723
57.425 12.761131
57.430 12.722095
57.435 12.42128
57.440 12.785849
57.445 12.436037
57.450 11.848502
57.455 11.297467
57.460 11.471337
57.465 11.448512
57.470 11.932247
57.475 11.857857
57.480 12.015397
57.485 12.48885
57.490 12.789555
57.495 13.02869
57.500 12.923124
57.505 12.365047
57.510 12.073821
57.515 12.35152
57.520 11.912115
57.525 11.684778
57.530 11.626965
57.535 11.669616
57.540 11.876197
57.545 12.179553
57.550 12.121052
57.555 13.004376
57.560 13.303728
57.565 13.724473
57.570 13.356264
57.575 13.40482
57.580 13.417914
57.585 13.605597
57.590 12.815297
57.595 12.729511
57.600 12.183797
57.605 12.556815
57.610 12.772032
57.615 12.546821
57.620 12.558384
57.625 13.172373
57.630 12.995096
57.635 13.372444
57.640 13.391928
57.645 13.770993
57.650 14.210619
57.655 14.173699
57.660 14.10494
57.665 13.865491
57.670 13.952332
57.675 13.645116
57.680 13.622447
57.685 13.406703
57.690 13.415162
57.695 13.250396
57.700 13.60716
57.705 13.380224
57.710 13.535392
57.715 13.442688
57.720 13.247316
57.725 13.25966
57.730 13.618708
57.735 13.746614
57.740 13.617693
57.745 13.707376
57.750 13.971598
57.755 14.319704
57.760 14.008558
57.765 13.965734
57.770 13.79301
57.775 13.906417
57.780 13.711409
57.785 13.371974
57.790 13.556807
57.795 14.053595
57.800 14.319342
57.805 14.588466
57.810 14.548532
57.815 14.575242
57.820 14.619429
57.825 14.354964
57.830 14.535959
57.835 13.967864
57.840 13.955179
57.845 13.969774
57.850 14.061165
57.855 13.958721
57.860 13.580761
57.865 13.043056
57.870 13.339547
57.875 13.3999
57.880 13.158291
57.885 12.881931
57.890 12.944304
57.895 13.222351
57.900 13.085456
57.905 12.510606
57.910 12.141195
57.915 12.614006
57.920 12.889887
57.925 13.165703
57.930 13.084466
57.935 13.411122
57.940 13.534609
57.945 14.044923
57.950 13.961558
57.955 13.636482
57.960 13.638857
57.965 13.803895
57.970 13.95773
57.975 14.199644
57.980 13.741696
57.985 13.748109
57.990 13.945514
57.995 14.254266
58.000 14.383514
58.005 14.22358
58.010 14.363853
58.015 14.572406
58.020 14.701256
58.025 14.929862
58.030 14.515452
58.035 14.095181
58.040 14.075899
58.045 14.169779
58.050 14.468458
58.055 14.284698
58.060 14.335024
58.065 14.473829
58.070 14.688406
58.075 15.216475
58.080 15.042546
58.085 14.738723
58.090 14.807317
58.095 14.983596
58.100 15.234686
58.105 15.595601
58.110 15.403221
58.115 15.530373
58.120 16.284821
58.125 16.536232
58.130 16.459492
58.135 16.322145
58.140 16.393087
58.145 16.60648
58.150 17.220251
58.155 16.740007
58.160 16.412008
58.165 16.408533
58.170 16.752235
58.175 16.073231
58.180 15.872598
58.185 15.643593
58.190 15.838617
58.195 15.989252
58.200 16.157696
58.205 16.351269
58.210 17.076342
58.215 17.48628
58.220 17.414398
58.225 17.873167
58.230 17.791842
58.235 17.364428
58.240 17.150867
58.245 16.874657
58.250 17.221704
58.255 17.649584
58.260 17.43026
58.265 17.63751
58.270 17.786905
58.275 17.603228
58.280 17.571356
58.285 17.841896
58.290 17.911219
58.295 18.461716
58.300 18.772123
58.305 19.075815
58.310 20.109344
58.315 20.704136
58.320 20.384333
58.325 20.758081
58.330 20.967596
58.335 21.550579
58.340 21.813011
58.345 21.562719
58.350 20.99614
58.355 20.771568
58.360 20.411612
58.365 20.591106
58.370 20.509874
58.375 20.514637
58.380 20.469648
58.385 20.906624
58.390 21.389914
58.395 21.471945
58.400 21.552692
58.405 21.422831
58.410 21.382093
58.415 21.886877
58.420 22.379353
58.425 22.80512
58.430 23.22048
58.435 23.565605
58.440 23.74197
58.445 23.982855
58.450 23.487585
58.455 22.578947
58.460 22.158318
58.465 21.653208
58.470 21.038189
58.475 21.653265
58.480 22.031639
58.485 22.620543
58.490 24.282503
58.495 24.870066
58.500 25.207947
58.505 25.402624
58.510 25.191113
58.515 25.227779
58.520 25.376638
58.525 25.023823
58.530 25.223921
58.535 25.129936
58.540 25.627796
58.545 25.963188
58.550 26.256735
58.555 26.246277
58.560 26.037001
58.565 26.231339
58.570 26.824934
58.575 27.208681
58.580 26.462261
58.585 25.956537
58.590 25.965471
58.595 25.649748
58.600 25.262655
58.605 25.086435
58.610 24.849842
58.615 25.88847
58.620 25.814096
58.625 25.4963
58.630 25.681154
58.635 26.025568
58.640 25.598568
58.645 25.342331
58.650 25.041744
58.655 25.287083
58.660 26.303688
58.665 25.766771
58.670 24.757917
58.675 24.620016
58.680 24.466543
58.685 24.237555
58.690 24.209179
58.695 24.364212
58.700 24.19084
58.705 24.448652
58.710 24.5525
58.715 24.629238
58.720 24.70788
58.725 24.454466
58.730 24.287367
58.735 24.239334
58.740 24.09235
58.745 23.916536
58.750 23.818888
58.755 23.370279
58.760 23.190302
58.765 22.811203
58.770 22.809658
58.775 22.096289
58.780 21.181669
58.785 20.773029
58.790 20.915735
58.795 20.805424
58.800 20.936821
58.805 21.426542
58.810 22.162794
58.815 22.598829
58.820 22.224401
58.825 21.707941
58.830 20.745049
58.835 19.52607
58.840 19.123672
58.845 18.598019
58.850 18.158665
58.855 18.17119
58.860 18.301292
58.865 18.381428
58.870 18.473629
58.875 18.332468
58.880 18.095592
58.885 18.152905
58.890 17.835346
58.895 18.029871
58.900 18.511608
58.905 18.043976
58.910 17.647665
58.915 17.985641
58.920 18.014992
58.925 18.295305
58.930 18.221592
58.935 17.739883
58.940 17.511871
58.945 17.640223
58.950 17.460541
58.955 17.265617
58.960 16.917467
58.965 16.222054
58.970 15.753746
58.975 15.651689
58.980 15.340062
58.985 15.030736
58.990 14.883177
58.995 14.829739
59.000 15.084347
59.005 15.09062
59.010 15.469713
59.015 15.985671
59.020 15.70406
59.025 15.509069
59.030 15.731869
59.035 16.251219
59.040 16.920279
59.045 16.670559
59.050 16.298504
59.055 16.802565
59.060 16.918732
59.065 16.917992
59.070 16.598377
59.075 16.523531
59.080 16.4515
59.085 16.133509
59.090 15.685281
59.095 16.08308
59.100 16.035164
59.105 15.917463
59.110 15.378828
59.115 15.039307
59.120 15.222121
59.125 15.205579
59.130 15.074511
59.135 15.162491
59.140 15.545958
59.145 15.57385
59.150 15.880462
59.155 15.717302
59.160 15.578501
59.165 15.099461
59.170 14.912203
59.175 14.80313
59.180 15.377939
59.185 15.431165
59.190 15.600874
59.195 15.714587
59.200 15.79581
59.205 15.790051
59.210 15.487251
59.215 15.05478
59.220 14.693799
59.225 14.043647
59.230 13.836269
59.235 13.143238
59.240 12.645733
59.245 12.817293
59.250 13.402825
59.255 13.2722
59.260 13.8269
59.265 14.180651
59.270 15.245351
59.275 15.630469
59.280 15.292187
59.285 14.692878
59.290 14.730787
59.295 14.883447
59.300 14.29407
59.305 13.21208
59.310 12.687263
59.315 12.843813
59.320 12.983548
59.325 13.044557
59.330 13.185623
59.335 13.837827
59.340 14.31338
59.345 14.26747
59.350 14.742823
59.355 14.886466
59.360 15.377186
59.365 15.064575
59.370 14.405457
59.375 14.836695
59.380 15.294724
59.385 14.789396
59.390 14.8189
59.395 14.4276
59.400 14.681875
59.405 15.165039
59.410 14.675612
59.415 14.596058
59.420 15.06504
59.425 15.475168
59.430 15.905542
59.435 15.941364
59.440 15.895635
59.445 15.849513
59.450 15.60306
59.455 14.944557
59.460 14.4275
59.465 14.122397
59.470 14.061427
59.475 14.319551
59.480 14.488447
59.485 14.374004
59.490 14.477775
59.495 14.225882
59.500 14.469589
59.505 14.515735
59.510 14.550794
59.515 14.35
59.520 14.706464
59.525 14.677849
59.530 14.828424
59.535 14.888133
59.540 14.787161
59.545 14.806838
59.550 14.816188
59.555 14.716353
59.560 15.280574
59.565 14.883198
59.570 14.404749
59.575 14.448063
59.580 14.420191
59.585 14.644079
59.590 14.331454
59.595 13.889784
59.600 14.283566
59.605 14.670413
59.610 14.554622
59.615 14.672549
59.620 14.708219
59.625 15.101553
59.630 15.131363
59.635 14.996822
59.640 14.473363
59.645 14.672532
59.650 14.46042
59.655 14.465279
59.660 15.048955
59.665 15.750511
59.670 15.528956
59.675 15.343037
59.680 15.108388
59.685 15.249363
59.690 14.816852
59.695 14.445626
59.700 14.063604
59.705 14.373132
59.710 14.90267
59.715 14.815085
59.720 15.013656
59.725 15.411518
59.730 15.671275
59.735 15.983145
59.740 15.702708
59.745 15.466002
59.750 15.423747
59.755 15.135757
59.760 14.697979
59.765 14.391569
59.770 14.117554
59.775 14.46464
59.780 14.683503
59.785 14.633904
59.790 14.818304
59.795 14.752336
59.800 14.630651
59.805 14.425601
59.810 14.213468
59.815 14.003752
59.820 14.033872
59.825 14.05479
59.830 14.016764
59.835 13.96312
59.840 13.615972
59.845 13.626604
59.850 13.403692
59.855 13.122684
59.860 13.259229
59.865 12.814387
59.870 12.309076
59.875 12.230964
59.880 11.877282
59.885 11.996222
59.890 12.28089
59.895 12.416243
59.900 12.894081
59.905 13.437711
59.910 13.757818
59.915 14.377062
59.920 14.150254
59.925 13.745945
59.930 13.508347
59.935 13.44161
59.940 13.445943
59.945 13.33339
59.950 13.283935
59.955 13.968967
59.960 14.467118
59.965 14.828706
59.970 15.32981
59.975 15.00666
59.980 14.030127
59.985 13.684369
59.990 13.680208
59.995 13.336258
60.000 13.040205
60.005 13.30598
60.010 14.030855
60.015 15.42774
60.020 15.954504
60.025 15.874159
60.030 15.64309
60.035 15.543714
60.040 15.288092
60.045 15.175701
60.050 14.84005
60.055 14.138829
60.060 13.85611
60.065 13.961898
60.070 13.721925
60.075 13.68726
60.080 13.214627
60.085 12.809883
60.090 13.144413
60.095 13.291833
60.100 13.407184
60.105 13.784745
60.110 13.515328
60.115 13.790335
60.120 14.453125
60.125 14.60901
60.130 14.544779
60.135 14.383638
60.140 14.028935
60.145 14.004626
60.150 13.878574
60.155 13.50469
60.160 13.242728
60.165 13.389598
60.170 14.011552
60.175 14.445744
60.180 14.623758
60.185 14.908772
60.190 14.976837
60.195 14.913351
60.200 14.495858
60.205 14.194934
60.210 13.972241
60.215 14.077405
60.220 14.429765
60.225 14.465984
60.230 14.517597
60.235 14.807699
60.240 14.709243
60.245 14.630527
60.250 14.60227
60.255 13.872667
60.260 13.844861
60.265 13.675113
60.270 13.477007
60.275 13.31286
60.280 13.405025
60.285 13.250809
60.290 13.199779
60.295 12.888787
60.300 13.097411
60.305 13.563517
60.310 13.950969
60.315 13.811595
60.320 13.561518
60.325 14.010199
60.330 14.072781
60.335 13.878595
60.340 12.9703
60.345 12.734157
60.350 12.9486
60.355 13.196811
60.360 12.979987
60.365 13.100747
60.370 13.194809
60.375 13.726547
60.380 13.623189
60.385 13.41383
60.390 13.228376
60.395 13.643395
60.400 13.986057
60.405 13.891912
60.410 13.503562
60.415 13.523722
60.420 13.974665
60.425 14.242842
60.430 14.313244
60.435 14.234733
60.440 14.356928
60.445 14.746161
60.450 14.593464
60.455 14.341335
60.460 14.432631
60.465 14.031793
60.470 14.340676
60.475 14.689618
60.480 14.849027
60.485 15.13119
60.490 14.777503
60.495 14.77243
60.500 14.461687
60.505 14.551857
60.510 14.749323
60.515 14.540802
60.520 14.75231
60.525 14.984902
60.530 15.029855
60.535 15.630122
60.540 16.214622
60.545 16.391853
60.550 16.416315
60.555 16.222824
60.560 16.262098
60.565 16.389317
60.570 15.942524
60.575 15.254512
60.580 15.568533
60.585 15.967622
60.590 16.214666
60.595 16.32132
60.600 16.104856
60.605 15.929452
60.610 15.994282
60.615 15.845458
60.620 15.800553
60.625 15.652575
60.630 15.55934
60.635 15.816517
60.640 15.719288
60.645 15.471991
60.650 15.224695
60.655 14.96441
60.660 14.974535
60.665 14.659235
60.670 14.345849
60.675 14.370342
60.680 14.425258
60.685 13.93387
60.690 13.797205
60.695 14.056828
60.700 14.015557
60.705 14.530837
60.710 14.824932
60.715 14.776018
60.720 15.044474
60.725 14.834502
60.730 14.30337
60.735 14.316292
60.740 13.5882
60.745 12.915414
60.750 12.936848
60.755 12.983005
60.760 13.00524
60.765 13.153942
60.770 13.103857
60.775 13.384562
60.780 13.952475
60.785 13.728501
60.790 13.32128
60.795 13.929215
60.800 14.343547
60.805 14.375386
60.810 14.727261
60.815 14.601505
60.820 14.850451
60.825 15.368091
60.830 14.84131
60.835 14.369099
60.840 14.255671
60.845 14.384457
60.850 14.383593
60.855 14.828812
60.860 14.528271
60.865 14.601467
60.870 15.080609
60.875 15.780652
60.880 15.845065
60.885 15.850778
60.890 15.70272
60.895 15.884557
60.900 15.472874
60.905 15.101603
60.910 14.716918
60.915 13.94787
60.920 13.292609
60.925 12.793871
60.930 13.235929
60.935 13.515581
60.940 13.328278
60.945 13.151337
60.950 13.567645
60.955 14.415537
60.960 14.720321
60.965 14.331795
60.970 14.570544
60.975 14.6162
60.980 14.229604
60.985 13.85089
60.990 13.743416
60.995 13.590919
61.000 13.623564
61.005 13.366684
61.010 14.126566
61.015 15.167933
61.020 15.643039
61.025 15.601218
61.030 15.745552
61.035 15.751415
61.040 15.839647
61.045 15.682586
61.050 15.209912
61.055 14.726763
61.060 14.975813
61.065 15.219043
61.070 15.672692
61.075 15.59706
61.080 15.147798
61.085 15.307618
61.090 15.580802
61.095 15.064767
61.100 15.074259
61.105 14.434302
61.110 14.262562
61.115 14.916466
61.120 14.904097
61.125 14.205325
61.130 14.251934
61.135 14.357438
61.140 14.549262
61.145 15.037638
61.150 14.921619
61.155 15.183123
61.160 15.674242
61.165 15.740561
61.170 15.500898
61.175 15.94621
61.180 15.679041
61.185 15.231277
61.190 15.406441
61.195 16.470097
61.200 16.62788
61.205 16.987602
61.210 16.543627
61.215 16.479231
61.220 16.699444
61.225 16.432886
61.230 15.293524
61.235 15.032479
61.240 14.801897
61.245 14.962053
61.250 14.733274
61.255 14.458847
61.260 14.333087
61.265 14.695348
61.270 14.554714
61.275 14.370749
61.280 14.338092
61.285 14.382985
61.290 14.201495
61.295 13.998947
61.300 13.501336
61.305 13.546556
61.310 13.862133
61.315 14.132117
61.320 14.576884
61.325 14.628572
61.330 14.754816
61.335 15.079313
61.340 14.995871
61.345 14.478874
61.350 14.094526
61.355 13.84323
61.360 13.99246
61.365 13.777333
61.370 13.055517
61.375 13.29047
61.380 13.401175
61.385 12.976189
61.390 12.656822
61.395 12.458399
61.400 12.840155
61.405 13.491198
61.410 13.607528
61.415 13.921105
61.420 14.525974
61.425 15.063484
61.430 15.55311
61.435 15.8522
61.440 16.003508
61.445 15.422333
61.450 15.211589
61.455 14.993851
61.460 14.614223
61.465 14.208309
61.470 14.124901
61.475 14.251673
61.480 14.634774
61.485 15.002463
61.490 15.070776
61.495 15.236444
61.500 15.347427
61.505 15.10674
61.510 14.845794
61.515 15.13381
61.520 14.651571
61.525 13.928134
61.530 13.723819
61.535 13.916717
61.540 14.117717
61.545 14.57901
61.550 14.562966
61.555 15.016137
61.560 15.354002
61.565 15.813241
61.570 15.679637
61.575 15.353697
61.580 14.969864
61.585 14.615971
61.590 14.722841
61.595 14.635633
61.600 14.076123
61.605 14.168542
61.610 13.84724
61.615 13.425308
61.620 13.663218
61.625 13.814346
61.630 13.862178
61.635 14.096489
61.640 14.343227
61.645 14.88779
61.650 15.080399
61.655 14.96483
61.660 15.187757
61.665 15.491261
61.670 15.182918
61.675 15.154677
61.680 14.980819
61.685 15.275522
61.690 15.145692
61.695 14.726841
61.700 15.195478
61.705 15.087168
61.710 14.912036
61.715 14.74955
61.720 14.730368
61.725 15.002945
61.730 14.879006
61.735 14.21755
61.740 14.128985
61.745 13.616274
61.750 13.943876
61.755 13.957186
61.760 14.744761
61.765 15.188875
61.770 15.6779
61.775 16.038076
61.780 16.790352
61.785 16.586653
61.790 16.640692
61.795 16.022758
61.800 15.886602
61.805 15.373934
61.810 15.502378
61.815 15.408499
61.820 15.697613
61.825 15.905845
61.830 15.549391
61.835 15.536882
61.840 16.2948
61.845 16.446573
61.850 16.548605
61.855 16.448107
61.860 15.770135
61.865 15.940737
61.870 15.883649
61.875 15.872905
61.880 15.628147
61.885 15.718978
61.890 15.785764
61.895 16.08259
61.900 16.255411
61.905 16.177845
61.910 16.112173
61.915 16.070894
61.920 15.97298
61.925 15.891232
61.930 15.520058
61.935 15.533763
61.940 15.397892
61.945 15.621163
61.950 15.695622
61.955 15.837996
61.960 15.867002
61.965 16.325891
61.970 15.902823
61.975 16.091278
61.980 15.50602
61.985 15.493842
61.990 14.971961
61.995 14.57053
62.000 14.751992
62.005 15.272817
62.010 14.999432
62.015 14.950782
62.020 15.182591
62.025 15.66112
62.030 15.774919
62.035 15.032396
62.040 14.709265
62.045 15.454553
62.050 15.970195
62.055 16.001673
62.060 15.93839
62.065 15.825957
62.070 15.957764
62.075 16.101082
62.080 15.75409
62.085 15.504045
62.090 15.48695
62.095 15.678478
62.100 15.717366
62.105 16.287119
62.110 15.858906
62.115 15.682128
62.120 15.751464
62.125 15.773223
62.130 15.496894
62.135 15.749022
62.140 15.867687
62.145 15.785776
62.150 15.23578
62.155 15.055501
62.160 14.827084
62.165 14.615212
62.170 14.509621
62.175 14.66843
62.180 15.360379
62.185 15.921245
62.190 16.06772
62.195 15.961071
62.200 16.11677
62.205 16.438768
62.210 16.236343
62.215 16.218096
62.220 16.128103
62.225 15.421594
62.230 15.24898
62.235 15.633254
62.240 15.447901
62.245 15.303342
62.250 15.312499
62.255 15.129791
62.260 16.107563
62.265 16.395691
62.270 15.981734
62.275 16.010893
62.280 15.908996
62.285 15.508554
62.290 15.4204
62.295 14.940573
62.300 14.535792
62.305 14.674707
62.310 14.452958
62.315 14.297554
62.320 14.892252
62.325 14.875557
62.330 14.834328
62.335 14.865335
62.340 14.60755
62.345 14.868229
62.350 14.907423
62.355 14.586387
62.360 14.673623
62.365 14.784668
62.370 14.985638
62.375 15.057796
62.380 14.943967
62.385 15.128119
62.390 15.251307
62.395 15.022223
62.400 15.160442
62.405 15.900952
62.410 16.410444
62.415 16.585608
62.420 16.240927
62.425 15.717938
62.430 15.745649
62.435 15.732622
62.440 15.017459
62.445 14.921525
62.450 15.642618
62.455 16.259949
62.460 16.664679
62.465 16.973751
62.470 16.64781
62.475 16.42071
62.480 15.977215
62.485 15.289941
62.490 15.01906
62.495 15.438932
62.500 15.822285
62.505 15.935771
62.510 16.397995
62.515 16.34774
62.520 16.548086
62.525 16.396435
62.530 15.947768
62.535 15.358594
62.540 15.461799
62.545 15.196585
62.550 14.858275
62.555 14.34263
62.560 13.754761
62.565 13.296016
62.570 13.183334
62.575 13.069665
62.580 13.051248
62.585 13.200746
62.590 13.56995
62.595 13.950119
62.600 14.376539
62.605 14.528222
62.610 14.524516
62.615 14.505313
62.620 14.506224
62.625 14.312874
62.630 14.527907
62.635 14.793641
62.640 14.646514
62.645 14.411576
62.650 14.678259
62.655 14.816417
62.660 14.841606
62.665 14.971021
62.670 15.125795
62.675 15.127181
62.680 15.053882
62.685 15.441114
62.690 15.909716
62.695 16.208971
62.700 16.164158
62.705 15.890068
62.710 16.435524
62.715 16.580706
62.720 16.223101
62.725 15.906789
62.730 16.030918
62.735 16.436165
62.740 17.011503
62.745 17.163488
62.750 17.389715
62.755 17.534811
62.760 16.900398
62.765 16.306599
62.770 15.957402
62.775 15.171921
62.780 14.950213
62.785 14.510407
62.790 14.146332
62.795 14.282302
62.800 14.450928
62.805 14.277971
62.810 14.62076
62.815 14.888927
62.820 15.167808
62.825 15.530919
62.830 16.485924
62.835 16.661358
62.840 16.346956
62.845 16.266371
62.850 16.005186
62.855 16.207462
62.860 15.922219
62.865 15.319965
62.870 14.75191
62.875 14.847885
62.880 14.996719
62.885 14.873215
62.890 14.313057
62.895 13.639906
62.900 13.744062
62.905 14.056973
62.910 14.234728
62.915 14.272691
62.920 14.340434
62.925 14.958794
62.930 15.459394
62.935 15.628089
62.940 15.931649
62.945 16.158049
62.950 16.046038
62.955 16.385565
62.960 16.44512
62.965 16.814123
62.970 16.773399
62.975 17.400503
62.980 17.484806
62.985 17.495249
62.990 17.331858
62.995 17.433674
63.000 16.958025
63.005 16.74362
63.010 16.127523
63.015 15.852045
63.020 15.696642
63.025 15.358845
63.030 14.632238
63.035 14.457578
63.040 15.016829
63.045 14.649225
63.050 14.818196
63.055 14.572861
63.060 14.749187
63.065 15.280438
63.070 15.251247
63.075 15.138714
63.080 15.671068
63.085 15.644081
63.090 16.197853
63.095 16.55204
63.100 16.64533
63.105 17.063856
63.110 16.820057
63.115 16.923061
63.120 17.041744
63.125 16.904943
63.130 16.654978
63.135 16.489826
63.140 15.843475
63.145 14.866404
63.150 14.24653
63.155 14.200328
63.160 13.779868
63.165 13.679979
63.170 14.002928
63.175 14.608261
63.180 15.373791
63.185 15.586015
63.190 15.489695
63.195 16.051657
63.200 16.272484
63.205 15.562447
63.210 15.319352
63.215 15.539802
63.220 15.643046
63.225 16.011078
63.230 15.751191
63.235 16.154285
63.240 16.163754
63.245 16.360544
63.250 16.856621
63.255 17.025597
63.260 16.831272
63.265 17.051466
63.270 16.940197
63.275 17.549463
63.280 16.962749
63.285 16.665911
63.290 16.734995
63.295 17.167261
63.300 16.738953
63.305 16.808012
63.310 17.493015
63.315 18.276155
63.320 18.317566
63.325 17.796082
63.330 17.583355
63.335 17.971144
63.340 17.989206
63.345 17.92075
63.350 17.652794
63.355 17.544455
63.360 17.508558
63.365 17.746582
63.370 18.369139
63.375 17.94742
63.380 17.208561
63.385 17.258236
63.390 17.340485
63.395 17.453901
63.400 16.939493
63.405 16.469725
63.410 16.917921
63.415 17.467245
63.420 17.720301
63.425 18.189421
63.430 18.838623
63.435 18.918144
63.440 18.885275
63.445 18.917788
63.450 19.103786
63.455 19.567921
63.460 19.624603
63.465 19.318733
63.470 19.180969
63.475 19.15909
63.480 18.958334
63.485 18.321783
63.490 18.397356
63.495 18.233397
63.500 17.827488
63.505 17.863192
63.510 17.897707
63.515 18.786598
63.520 19.069271
63.525 18.541206
63.530 18.453121
63.535 19.387005
63.540 19.651026
63.545 19.610464
63.550 19.028833
63.555 19.130054
63.560 19.50033
63.565 19.04501
63.570 18.403387
63.575 19.029087
63.580 19.122379
63.585 19.629791
63.590 19.474737
63.595 18.753366
63.600 19.369783
63.605 19.318268
63.610 18.800503
63.615 18.712414
63.620 18.369783
63.625 18.81386
63.630 19.034286
63.635 18.491638
63.640 18.171223
63.645 18.103127
63.650 18.129591
63.655 17.714451
63.660 17.747547
63.665 18.530762
63.670 18.920359
63.675 19.873055
63.680 20.080017
63.685 19.64142
63.690 19.31065
63.695 18.992643
63.700 18.098276
63.705 17.704906
63.710 17.815754
63.715 17.830639
63.720 18.01689
63.725 18.704502
63.730 19.183847
63.735 19.821018
63.740 19.875069
63.745 19.263557
63.750 18.998463
63.755 18.998405
63.760 18.508331
63.765 18.325024
63.770 18.772284
63.775 19.334621
63.780 20.037907
63.785 20.468964
63.790 20.742966
63.795 21.046732
63.800 20.748512
63.805 20.370333
63.810 19.868254
63.815 19.671349
63.820 20.022705
63.825 19.772051
63.830 19.68767
63.835 20.079607
63.840 20.385399
63.845 20.554211
63.850 20.811216
63.855 20.951454
63.860 21.826307
63.865 22.047573
63.870 22.302443
63.875 22.600977
63.880 22.971128
63.885 23.250038
63.890 23.31575
63.895 23.027529
63.900 23.342678
63.905 23.767258
63.910 24.064281
63.915 24.76404
63.920 25.27593
63.925 25.821543
63.930 26.256697
63.935 26.579536
63.940 26.605169
63.945 27.088985
63.950 26.184177
63.955 26.40748
63.960 26.149048
63.965 26.210266
63.970 26.00807
63.975 26.099117
63.980 26.60887
63.985 26.91202
63.990 26.569288
63.995 26.899485
64.000 27.285692
64.005 27.881151
64.010 28.419554
64.015 28.82765
64.020 29.657104
64.025 30.022924
64.030 30.012295
64.035 30.33777
64.040 30.983528
64.045 31.432978
64.050 31.368715
64.055 31.00757
64.060 30.967226
64.065 31.260191
64.070 30.98139
64.075 30.640316
64.080 30.516804
64.085 30.719036
64.090 31.844975
64.095 32.44492
64.100 32.740723
64.105 33.245884
64.110 33.22118
64.115 33.195717
64.120 32.185875
64.125 31.388315
64.130 31.266251
64.135 31.745226
64.140 31.631575
64.145 30.844376
64.150 30.783049
64.155 31.671879
64.160 31.491503
64.165 31.456795
64.170 30.297338
64.175 29.869827
64.180 30.452988
64.185 31.683216
64.190 32.465927
64.195 32.609512
64.200 32.865864
64.205 33.854984
64.210 35.109592
64.215 35.355503
64.220 34.001049
64.225 33.449505
64.230 33.727192
64.235 33.601982
64.240 32.829632
64.245 31.717819
64.250 30.969536
64.255 32.119976
64.260 32.584885
64.265 32.625595
64.270 32.879025
64.275 33.218098
64.280 33.48288
64.285 33.598576
64.290 33.534943
64.295 33.216148
64.300 33.455997
64.305 32.999004
64.310 32.621964
64.315 32.706108
64.320 32.609447
64.325 32.143696
64.330 31.808458
64.335 30.619432
64.340 30.672689
64.345 31.071226
64.350 31.326101
64.355 31.187578
64.360 31.090845
64.365 31.003832
64.370 31.55422
64.375 31.602867
64.380 31.235298
64.385 30.704824
64.390 30.001495
64.395 29.626719
64.400 29.466402
64.405 28.332167
64.410 28.116919
64.415 27.812138
64.420 27.867313
64.425 28.568918
64.430 28.428455
64.435 28.501621
64.440 29.243874
64.445 29.064154
64.450 29.006544
64.455 28.832785
64.460 28.586952
64.465 27.608404
64.470 26.433571
64.475 26.155161
64.480 26.034311
64.485 25.879713
64.490 25.531261
64.495 25.573776
64.500 26.275885
64.505 26.456514
64.510 26.379177
64.515 26.061319
64.520 26.10792
64.525 26.168861
64.530 25.714394
64.535 25.924105
64.540 26.479321
64.545 25.880905
64.550 25.168056
64.555 24.301071
64.560 23.896147
64.565 23.344248
64.570 22.543894
64.575 22.054634
64.580 21.771917
64.585 22.329357
64.590 22.769037
64.595 22.544849
64.600 22.676174
64.605 22.090464
64.610 22.145706
64.615 22.86528
64.620 22.656172
64.625 22.190544
64.630 21.892611
64.635 21.428612
64.640 21.179823
64.645 20.783945
64.650 20.452612
64.655 20.111187
64.660 20.032246
64.665 20.172039
64.670 20.330263
64.675 20.621098
64.680 20.78616
64.685 20.189016
64.690 19.474312
64.695 19.310562
64.700 18.918488
64.705 18.95303
64.710 18.768784
64.715 18.218655
64.720 18.174257
64.725 18.330439
64.730 19.011938
64.735 19.408861
64.740 19.703342
64.745 19.79936
64.750 19.835892
64.755 20.528942
64.760 20.791449
64.765 20.247051
64.770 20.031931
64.775 19.508333
64.780 18.878716
64.785 18.334204
64.790 17.772783
64.795 17.577318
64.800 17.845497
64.805 17.926897
64.810 17.602373
64.815 17.873106
64.820 18.487659
64.825 18.702995
64.830 18.758118
64.835 18.084099
64.840 17.755491
64.845 18.238825
64.850 18.431799
64.855 19.029987
64.860 19.285244
64.865 19.482061
64.870 20.604919
64.875 21.045269
64.880 21.105707
64.885 20.932365
64.890 20.703478
64.895 21.406565
64.900 21.196922
64.905 20.715403
64.910 20.332438
64.915 20.279036
64.920 20.481375
64.925 19.377199
64.930 18.615641
64.935 19.374659
64.940 20.07622
64.945 20.285885
64.950 20.913263
64.955 21.253168
64.960 21.882763
64.965 21.597275
64.970 21.041637
64.975 20.922213
64.980 20.97945
64.985 20.355551
64.990 20.068642
64.995 19.926991
65.000 20.341408
65.005 20.446682
65.010 19.933933
65.015 19.992619
65.020 20.680454
65.025 20.532555
65.030 20.559273
65.035 20.48168
65.040 20.151222
65.045 20.200768
65.050 20.331079
65.055 20.013336
65.060 20.356228
65.065 20.176256
65.070 20.394608
65.075 20.64257
65.080 20.497377
65.085 19.72817
65.090 19.356461
65.095 19.196688
65.100 19.59244
65.105 19.596409
65.110 19.846243
65.115 20.140924
65.120 20.346024
65.125 19.862234
65.130 19.520576
65.135 19.188017
65.140 18.911587
65.145 19.060942
65.150 19.719841
65.155 20.408051
65.160 20.877472
65.165 21.447531
65.170 21.115086
65.175 20.856379
65.180 20.105436
65.185 19.75198
65.190 19.097294
65.195 19.13891
65.200 19.034689
65.205 19.541054
65.210 19.774239
65.215 20.218275
65.220 20.18041
65.225 20.431244
65.230 20.9405
65.235 20.789604
65.240 20.874664
65.245 21.35463
65.250 21.395531
65.255 21.211069
65.260 20.877783
65.265 20.325127
65.270 20.604519
65.275 20.340509
65.280 19.836956
65.285 19.851143
65.290 19.856373
65.295 19.726744
65.300 19.8396
65.305 19.706537
65.310 19.918224
65.315 19.681435
65.320 19.577951
65.325 19.882923
65.330 20.231335
65.335 20.226513
65.340 19.642576
65.345 19.54924
65.350 19.648624
65.355 19.849785
65.360 19.445217
65.365 19.38122
65.370 19.466333
65.375 19.819128
65.380 19.630188
65.385 19.324339
65.390 19.060564
65.395 18.834097
65.400 18.414028
65.405 18.955181
65.410 19.327143
65.415 19.325195
65.420 19.047491
65.425 18.862595
65.430 19.537029
65.435 20.28924
65.440 19.801407
65.445 20.205591
65.450 20.809654
65.455 21.585732
65.460 22.298946
65.465 22.460297
65.470 22.439953
65.475 22.394169
65.480 22.397003
65.485 22.439251
65.490 22.742876
65.495 22.510952
65.500 22.305252
65.505 22.3451
65.510 22.800791
65.515 22.789917
65.520 22.891342
65.525 22.31827
65.530 21.996653
65.535 22.350489
65.540 23.129704
65.545 23.336704
65.550 23.072956
65.555 23.146687
65.560 23.50979
65.565 23.610628
65.570 23.612019
65.575 22.591053
65.580 22.775122
65.585 23.129166
65.590 22.684141
65.595 22.353586
65.600 22.309187
65.605 22.381533
65.610 22.783979
65.615 23.061354
65.620 23.451622
65.625 23.711262
65.630 24.231701
65.635 24.605598
65.640 24.635929
65.645 25.426481
65.650 25.438124
65.655 25.939795
65.660 26.74118
65.665 27.172016
65.670 28.021521
65.675 28.67215
65.680 29.505037
65.685 30.392944
65.690 30.722416
65.695 30.326817
65.700 29.662386
65.705 29.25544
65.710 29.487572
65.715 29.484362
65.720 29.471758
65.725 30.215082
65.730 31.563372
65.735 32.850365
65.740 32.995861
65.745 33.023266
65.750 33.708546
65.755 34.510029
65.760 34.914234
65.765 35.466347
65.770 35.740635
65.775 36.509945
65.780 36.935051
65.785 35.972919
65.790 35.008171
65.795 34.843105
65.800 34.716801
65.805 34.85994
65.810 34.653851
65.815 34.924198
65.820 35.815388
65.825 36.688507
65.830 36.843426
65.835 36.641552
65.840 37.252583
65.845 37.869457
65.850 38.038517
65.855 37.841274
65.860 37.57798
65.865 37.528481
65.870 37.255096
65.875 37.387115
65.880 36.796921
65.885 36.856766
65.890 37.330769
65.895 38.637856
65.900 39.44698
65.905 39.992863
65.910 39.978802
65.915 41.033279
65.920 42.014618
65.925 41.946461
65.930 40.847977
65.935 40.34758
65.940 40.363274
65.945 39.901451
65.950 39.297073
65.955 38.667305
65.960 39.07159
65.965 39.219212
65.970 39.488731
65.975 40.090919
65.980 40.503235
65.985 41.189987
65.990 41.338257
65.995 41.915657
66.000 42.841675
66.005 42.553635
66.010 41.711391
66.015 41.267147
66.020 40.921974
66.025 40.263508
66.030 39.517513
66.035 38.396149
66.040 38.109493
66.045 38.193298
66.050 39.00531
66.055 38.223682
66.060 38.263206
66.065 37.989929
66.070 37.728474
66.075 38.128174
66.080 37.738964
66.085 36.791206
66.090 37.051754
66.095 36.382645
66.100 36.296051
66.105 36.79137
66.110 35.746098
66.115 36.172493
66.120 35.865982
66.125 36.118526
66.130 36.879425
66.135 36.844978
66.140 36.229855
66.145 36.652542
66.150 36.689457
66.155 36.806271
66.160 36.205891
66.165 35.072357
66.170 34.549076
66.175 34.941124
66.180 33.732483
66.185 32.532692
66.190 32.102448
66.195 31.914949
66.200 31.952919
66.205 31.39801
66.210 30.800972
66.215 31.178541
66.220 30.419939
66.225 30.018755
66.230 30.212034
66.235 29.94795
66.240 29.470848
66.245 29.026981
66.250 29.239536
66.255 30.06126
66.260 29.367706
66.265 28.386395
66.270 28.340219
66.275 28.703659
66.280 28.56184
66.285 27.800377
66.290 27.473392
66.295 28.000622
66.300 28.419579
66.305 27.874413
66.310 26.970421
66.315 26.032036
66.320 25.175566
66.325 24.776947
66.330 24.023031
66.335 22.714556
66.340 22.29616
66.345 21.604528
66.350 22.021748
66.355 22.177208
66.360 21.597315
66.365 21.647614
66.370 22.154531
66.375 21.939119
66.380 21.80912
66.385 21.484871
66.390 21.389154
66.395 21.146488
66.400 20.480127
66.405 20.303061
66.410 19.914631
66.415 19.490446
66.420 19.461994
66.425 19.482027
66.430 19.30195
66.435 19.316936
66.440 18.98208
66.445 19.569153
66.450 19.757643
66.455 19.687967
66.460 19.819096
66.465 20.808426
66.470 20.334387
66.475 20.139452
66.480 19.917198
66.485 19.936068
66.490 19.874987
66.495 19.544039
66.500 19.303766
66.505 20.023737
66.510 20.19257
66.515 19.685472
66.520 19.552687
66.525 19.595724
66.530 19.639858
66.535 19.599722
66.540 19.839886
66.545 19.93854
66.550 19.752411
66.555 19.63814
66.560 19.056938
66.565 19.077908
66.570 19.212486
66.575 19.18269
66.580 19.590933
66.585 20.325199
66.590 20.397057
66.595 20.371639
66.600 20.628775
66.605 19.97962
66.610 19.778814
66.615 19.575348
66.620 19.241138
66.625 19.201654
66.630 18.86762
66.635 18.539204
66.640 18.794373
66.645 18.567144
66.650 18.046389
66.655 17.912041
66.660 17.882036
66.665 18.264717
66.670 17.831701
66.675 17.513113
66.680 17.434273
66.685 17.611765
66.690 17.485682
66.695 17.494591
66.700 17.50103
66.705 17.976822
66.710 18.493729
66.715 18.724659
66.720 18.856848
66.725 18.848207
66.730 19.009043
66.735 18.821697
66.740 18.409222
66.745 17.800152
66.750 17.541239
66.755 17.311487
66.760 17.540239
66.765 17.523798
66.770 17.835707
66.775 17.917774
66.780 17.696245
66.785 17.579472
66.790 17.861588
66.795 17.72543
66.800 17.592331
66.805 17.563391
66.810 17.453583
66.815 17.617069
66.820 17.433764
66.825 17.260536
66.830 16.891857
66.835 16.732288
66.840 16.649462
66.845 16.915352
66.850 16.99925
66.855 16.996967
66.860 17.012541
66.865 17.002514
66.870 16.902266
66.875 17.239447
66.880 17.280201
66.885 17.388107
66.890 17.600632
66.895 17.602766
66.900 17.620275
66.905 17.609367
66.910 17.199524
66.915 17.430977
66.920 17.975485
66.925 18.06316
66.930 18.087463
66.935 18.487886
66.940 18.947243
66.945 18.673094
66.950 18.095318
66.955 17.161167
66.960 16.970856
66.965 16.652777
66.970 16.740755
66.975 16.483749
66.980 16.868582
66.985 16.782593
66.990 17.159885
66.995 17.115347
67.000 17.538767
67.005 17.328581
67.010 16.88241
67.015 16.773706
67.020 16.916704
67.025 16.816286
67.030 16.880371
67.035 16.513515
67.040 16.069771
67.045 16.446486
67.050 16.527981
67.055 16.222797
67.060 16.287716
67.065 16.091726
67.070 16.101984
67.075 16.667685
67.080 16.630165
67.085 16.897076
67.090 16.995718
67.095 17.029703
67.100 17.347069
67.105 17.615803
67.110 17.785934
67.115 18.110304
67.120 18.194567
67.125 18.467463
67.130 18.440796
67.135 18.501513
67.140 17.841272
67.145 17.4711
67.150 16.543837
67.155 15.942724
67.160 15.708336
67.165 15.223154
67.170 15.243451
67.175 15.465885
67.180 15.49819
67.185 15.801414
67.190 16.442484
67.195 16.25959
67.200 16.26548
67.205 16.216471
67.210 16.109833
67.215 16.874874
67.220 17.282478
67.225 17.238672
67.230 18.094398
67.235 18.495176
67.240 18.628101
67.245 18.714943
67.250 18.842171
67.255 18.64712
67.260 18.820929
67.265 18.639723
67.270 18.318432
67.275 18.587141
67.280 18.865307
67.285 18.206575
67.290 18.001585
67.295 17.589773
67.300 17.777004
67.305 17.81982
67.310 17.94714
67.315 17.543459
67.320 17.546448
67.325 17.978935
67.330 17.470955
67.335 17.113575
67.340 16.88619
67.345 17.001232
67.350 17.535839
67.355 17.706373
67.360 17.823391
67.365 18.478544
67.370 18.526287
67.375 19.096569
67.380 18.282972
67.385 17.772467
67.390 17.400274
67.395 17.072035
67.400 16.57292
67.405 16.662863
67.410 16.220192
67.415 16.091703
67.420 16.709503
67.425 16.983118
67.430 16.860394
67.435 17.283541
67.440 17.128429
67.445 17.231602
67.450 17.459465
67.455 17.318781
67.460 17.691963
67.465 17.775574
67.470 17.647907
67.475 18.301571
67.480 18.519642
67.485 19.638767
67.490 19.572453
67.495 19.67223
67.500 19.726482
67.505 20.036367
67.510 19.88674
67.515 19.512075
67.520 19.045687
67.525 18.880146
67.530 18.732351
67.535 19.023201
67.540 18.528957
67.545 18.458002
67.550 18.241787
67.555 18.258125
67.560 18.392035
67.565 18.023294
67.570 17.698303
67.575 17.991907
67.580 17.567591
67.585 17.303028
67.590 16.366838
67.595 16.322584
67.600 16.816563
67.605 17.32501
67.610 17.196856
67.615 18.066
67.620 18.248487
67.625 18.516836
67.630 18.3473
67.635 18.325796
67.640 18.240416
67.645 18.153227
67.650 17.728796
67.655 17.675896
67.660 17.459423
67.665 17.050947
67.670 16.575655
67.675 16.45738
67.680 16.346521
67.685 16.54771
67.690 16.136778
67.695 16.643301
67.700 17.001589
67.705 16.71513
67.710 16.412895
67.715 16.190283
67.720 16.318708
67.725 17.185076
67.730 16.717163
67.735 16.772079
67.740 17.275362
67.745 17.587477
67.750 17.873644
67.755 17.660753
67.760 17.117741
67.765 17.363359
67.770 17.545183
67.775 17.483885
67.780 17.497419
67.785 17.398556
67.790 17.881145
67.795 17.793411
67.800 18.076035
67.805 18.110476
67.810 18.133318
67.815 17.957411
67.820 18.055483
67.825 17.463791
67.830 17.391748
67.835 17.148653
67.840 16.34646
67.845 15.909316
67.850 16.057028
67.855 15.671665
67.860 15.707294
67.865 15.864156
67.870 15.946197
67.875 16.228838
67.880 16.883959
67.885 16.841173
67.890 17.040117
67.895 17.472456
67.900 17.551182
67.905 17.545549
67.910 17.93985
67.915 17.65114
67.920 17.580299
67.925 18.138821
67.930 18.223873
67.935 18.557587
67.940 18.857
67.945 18.506126
67.950 18.270422
67.955 18.117062
67.960 17.575073
67.965 17.816381
67.970 18.015257
67.975 17.462498
67.980 17.399767
67.985 17.518887
67.990 17.181496
67.995 16.849533
68.000 16.905466
68.005 16.695101
68.010 16.774689
68.015 16.609146
68.020 16.502527
68.025 17.260309
68.030 17.305254
68.035 16.860218
68.040 17.256065
68.045 17.778713
68.050 17.9676
68.055 18.375143
68.060 18.115656
68.065 18.196966
68.070 18.785969
68.075 18.310642
68.080 17.877281
68.085 18.386713
68.090 18.608446
68.095 18.846382
68.100 18.766581
68.105 18.839195
68.110 19.210892
68.115 19.282921
68.120 18.527464
68.125 17.682606
68.130 17.373934
68.135 17.512899
68.140 17.174276
68.145 17.095238
68.150 17.082203
68.155 17.386276
68.160 18.111429
68.165 18.045576
68.170 17.949492
68.175 17.904467
68.180 18.118357
68.185 18.860926
68.190 19.522083
68.195 19.477024
68.200 19.770859
68.205 19.979282
68.210 19.773516
68.215 19.402617
68.220 18.292524
68.225 17.83103
68.230 17.872229
68.235 17.647528
68.240 17.507105
68.245 17.841915
68.250 17.882566
68.255 18.419439
68.260 18.923796
68.265 19.632433
68.270 20.154999
68.275 20.171331
68.280 20.060047
68.285 20.594162
68.290 20.742788
68.295 20.068316
68.300 19.334425
68.305 18.61521
68.310 18.502058
68.315 18.029345
68.320 17.62359
68.325 17.175596
68.330 16.980003
68.335 17.053463
68.340 16.914663
68.345 17.231682
68.350 17.875385
68.355 17.604959
68.360 17.92835
68.365 17.908998
68.370 18.086409
68.375 18.061184
68.380 18.181829
68.385 17.821995
68.390 17.856346
68.395 17.577873
68.400 17.585926
68.405 18.232656
68.410 18.47504
68.415 18.387819
68.420 18.454306
68.425 18.557791
68.430 18.815697
68.435 19.177231
68.440 18.367052
68.445 18.288769
68.450 18.688423
68.455 18.496752
68.460 18.544081
68.465 18.544052
68.470 18.153898
68.475 18.3563
68.480 18.203909
68.485 18.133141
68.490 18.405123
68.495 18.709866
68.500 19.11134
68.505 19.675022
68.510 19.805376
68.515 19.715197
68.520 19.280319
68.525 19.617025
68.530 19.851479
68.535 19.733299
68.540 19.483397
68.545 19.552811
68.550 20.332249
68.555 21.260044
68.560 21.102715
68.565 20.941288
68.570 20.600882
68.575 20.458004
68.580 20.516436
68.585 20.147041
68.590 19.466738
68.595 19.137989
68.600 18.931749
68.605 19.248873
68.610 19.94519
68.615 19.923428
68.620 19.939497
68.625 19.790915
68.630 19.530666
68.635 19.668703
68.640 19.699411
68.645 19.299603
68.650 19.209799
68.655 19.342358
68.660 19.639513
68.665 19.890808
68.670 19.592802
68.675 19.526093
68.680 19.81555
68.685 19.93755
68.690 19.994745
68.695 20.760145
68.700 21.095631
68.705 21.398741
68.710 21.349319
68.715 21.020725
68.720 20.654921
68.725 21.103865
68.730 21.235031
68.735 21.562349
68.740 21.652298
68.745 21.431046
68.750 22.067629
68.755 22.677235
68.760 21.906706
68.765 21.487356
68.770 21.995533
68.775 22.371019
68.780 22.594343
68.785 22.643326
68.790 22.858047
68.795 23.423296
68.800 23.654488
68.805 23.431326
68.810 23.919966
68.815 24.122234
68.820 24.145565
68.825 23.809149
68.830 23.792341
68.835 24.305483
68.840 24.358547
68.845 24.13353
68.850 24.264328
68.855 24.557636
68.860 25.038263
68.865 25.083267
68.870 25.353254
68.875 25.241066
68.880 25.635939
68.885 26.485289
68.890 26.435808
68.895 26.490202
68.900 27.358559
68.905 27.488834
68.910 27.923796
68.915 28.703911
68.920 28.942062
68.925 30.090326
68.930 30.357815
68.935 30.87229
68.940 31.187923
68.945 31.038015
68.950 31.117846
68.955 31.080629
68.960 30.999786
68.965 31.987411
68.970 32.011681
68.975 32.223553
68.980 32.416397
68.985 32.223614
68.990 32.799603
68.995 32.476135
69.000 32.551876
69.005 33.064041
69.010 33.342945
69.015 33.875134
69.020 33.771999
69.025 33.19455
69.030 33.878704
69.035 33.673611
69.040 34.339634
69.045 34.812439
69.050 34.617023
69.055 34.863846
69.060 35.042736
69.065 35.120499
69.070 35.531937
69.075 35.405315
69.080 35.791851
69.085 36.514969
69.090 37.362915
69.095 37.558987
69.100 37.725281
69.105 37.978825
69.110 37.999573
69.115 37.826141
69.120 37.319054
69.125 37.003445
69.130 37.312622
69.135 37.023983
69.140 36.963074
69.145 37.384571
69.150 37.49728
69.155 37.917797
69.160 37.460278
69.165 37.041492
69.170 36.818333
69.175 35.877678
69.180 35.04575
69.185 34.869965
69.190 33.890842
69.195 33.787651
69.200 33.859982
69.205 33.585281
69.210 33.713078
69.215 34.216534
69.220 34.399784
69.225 34.786125
69.230 35.304657
69.235 34.873741
69.240 35.064888
69.245 34.799114
69.250 34.320053
69.255 34.507511
69.260 34.437382
69.265 34.082611
69.270 34.695518
69.275 34.769051
69.280 34.817482
69.285 34.089405
69.290 34.405518
69.295 34.792561
69.300 34.227921
69.305 34.029884
69.310 34.155682
69.315 33.860233
69.320 34.193954
69.325 33.591946
69.330 33.193127
69.335 33.629364
69.340 33.400909
69.345 32.717522
69.350 32.601028
69.355 31.866985
69.360 30.754107
69.365 30.70977
69.370 30.002178
69.375 29.713697
69.380 29.887814
69.385 29.929749
69.390 30.853733
69.395 31.863533
69.400 31.610958
69.405 31.083727
69.410 30.159592
69.415 28.984013
69.420 27.742258
69.425 26.44766
69.430 26.24209
69.435 26.295013
69.440 27.031832
69.445 28.342951
69.450 28.87052
69.455 29.373772
69.460 29.214657
69.465 28.205894
69.470 27.66972
69.475 27.078718
69.480 26.236677
69.485 25.944845
69.490 25.777351
69.495 25.579165
69.500 26.016991
69.505 25.864706
69.510 25.598942
69.515 25.651615
69.520 25.244226
69.525 24.670948
69.530 24.163536
69.535 23.969618
69.540 24.073206
69.545 24.009975
69.550 23.677773
69.555 24.046387
69.560 24.616703
69.565 25.244255
69.570 25.300016
69.575 24.913534
69.580 24.879728
69.585 24.452776
69.590 23.766397
69.595 23.017994
69.600 22.44663
69.605 22.069979
69.610 21.703028
69.615 21.101114
69.620 21.348305
69.625 21.610296
69.630 21.379358
69.635 21.113813
69.640 20.674345
69.645 20.669428
69.650 21.038208
69.655 20.820803
69.660 20.518726
69.665 20.765081
69.670 20.876547
69.675 21.831858
69.680 22.130751
69.685 21.982647
69.690 22.253317
69.695 21.769724
69.700 22.10428
69.705 21.657755
69.710 21.0233
69.715 20.693687
69.720 19.90954
69.725 19.946848
69.730 19.926105
69.735 20.231054
69.740 20.571035
69.745 20.646948
69.750 20.356205
69.755 20.779507
69.760 20.276901
69.765 20.171349
69.770 19.344467
69.775 18.922686
69.780 18.852797
69.785 19.048517
69.790 19.307734
69.795 19.685629
69.800 19.735771
69.805 19.889204
69.810 20.247622
69.815 20.535173
69.820 19.926634
69.825 19.149483
69.830 19.062826
69.835 19.429331
69.840 18.937351
69.845 18.464363
69.850 18.446907
69.855 19.168781
69.860 19.012152
69.865 18.678762
69.870 17.949896
69.875 18.887224
69.880 19.414873
69.885 19.23288
69.890 18.827862
69.895 19.317686
69.900 19.532673
69.905 19.866795
69.910 18.977642
69.915 18.142616
69.920 18.099915
69.925 17.930155
69.930 17.480282
69.935 17.378424
69.940 17.213316
69.945 17.637072
69.950 18.336109
69.955 18.628477
69.960 18.585926
69.965 18.932852
69.970 18.522058
69.975 18.490486
69.980 18.713629
69.985 18.107103
69.990 17.76893
69.995 17.27318
70.000 17.304642
70.005 17.416468
70.010 17.097006
70.015 16.458694
70.020 16.002129
70.025 16.171692
70.030 16.704901
70.035 16.647167
70.040 16.566956
70.045 16.478588
70.050 16.765955
70.055 17.257219
70.060 17.491245
70.065 17.256493
70.070 17.755617
70.075 18.055832
70.080 18.099253
70.085 18.119438
70.090 18.15258
70.095 18.271772
70.100 18.371639
70.105 17.867815
70.110 18.27697
70.115 18.374634
70.120 18.783449
70.125 18.70669
70.130 18.654646
70.135 18.40229
70.140 18.319412
70.145 18.568356
70.150 19.134945
70.155 18.48823
70.160 18.469166
70.165 18.161766
70.170 17.522049
70.175 17.776634
70.180 17.520872
70.185 17.44385
70.190 17.751837
70.195 17.871574
70.200 18.119078
70.205 18.597788
70.210 18.280762
70.215 18.15531
70.220 17.81921
70.225 17.54632
70.230 17.384779
70.235 17.598375
70.240 17.638996
70.245 17.743011
70.250 17.692835
70.255 17.833586
70.260 18.05364
70.265 17.776274
70.270 18.174761
70.275 18.417236
70.280 17.875008
70.285 17.487965
70.290 17.759888
70.295 17.889572
70.300 17.805185
70.305 17.203728
70.310 16.941589
70.315 16.999279
70.320 17.125143
70.325 16.687057
70.330 16.795979
70.335 16.950602
70.340 16.929993
70.345 16.769152
70.350 16.709377
70.355 17.000557
70.360 16.676386
70.365 16.190456
70.370 16.149597
70.375 16.675339
70.380 16.819899
70.385 16.599302
70.390 16.602253
70.395 17.11566
70.400 17.411619
70.405 17.24745
70.410 17.100016
70.415 16.510818
70.420 16.344269
70.425 15.928062
70.430 15.555017
70.435 15.537071
70.440 15.663845
70.445 15.814191
70.450 16.517351
70.455 16.400827
70.460 16.491604
70.465 16.592981
70.470 16.892427
70.475 17.078234
70.480 17.643587
70.485 18.196796
70.490 19.2192
70.495 19.782261
70.500 20.436445
70.505 20.205776
70.510 19.969069
70.515 19.9221
70.520 19.389095
70.525 19.03504
70.530 19.225294
70.535 18.942488
70.540 19.119993
70.545 19.397402
70.550 19.261438
70.555 19.512163
70.560 19.292042
70.565 19.328671
70.570 19.392227
70.575 19.220482
70.580 18.70717
70.585 18.531099
70.590 18.215141
70.595 18.186623
70.600 18.073633
70.605 17.581003
70.610 17.489111
70.615 17.416185
70.620 17.695086
70.625 17.55603
70.630 17.089163
70.635 16.16403
70.640 16.28966
70.645 15.78879
70.650 15.626756
70.655 15.626544
70.660 15.584757
70.665 16.197819
70.670 16.855423
70.675 17.097675
70.680 17.301357
70.685 16.975313
70.690 17.322973
70.695 17.718987
70.700 17.258846
70.705 17.476311
70.710 17.485903
70.715 17.637669
70.720 18.217907
70.725 18.282871
70.730 18.248329
70.735 18.223297
70.740 17.948809
70.745 17.801773
70.750 17.386633
70.755 17.315289
70.760 16.920855
70.765 16.481571
70.770 16.057398
70.775 16.346148
70.780 17.205135
70.785 17.432501
70.790 17.112579
70.795 17.686464
70.800 18.130249
70.805 18.20109
70.810 17.962982
70.815 17.401482
70.820 17.376015
70.825 17.396679
70.830 17.294403
70.835 17.400955
70.840 17.637259
70.845 17.585192
70.850 17.850061
70.855 17.91585
70.860 17.734039
70.865 17.577087
70.870 16.934034
70.875 17.127337
70.880 16.778379
70.885 16.904743
70.890 17.19014
70.895 16.858171
70.900 16.865864
70.905 17.546711
70.910 17.746759
70.915 17.774096
70.920 17.556002
70.925 18.262705
70.930 18.389784
70.935 18.747852
70.940 18.604973
70.945 17.857805
70.950 17.640614
70.955 17.270159
70.960 16.697798
70.965 16.952976
70.970 17.232361
70.975 17.227652
70.980 17.552656
70.985 18.072548
70.990 18.396641
70.995 17.999178
71.000 17.176949
71.005 16.262178
71.010 16.238834
71.015 16.102381
71.020 16.317415
71.025 16.734158
71.030 17.575306
71.035 18.419882
71.040 18.701283
71.045 18.537603
71.050 18.48654
71.055 17.799112
71.060 17.97303
71.065 17.725086
71.070 17.658815
71.075 17.727863
71.080 17.813683
71.085 18.105951
71.090 18.024378
71.095 18.068188
71.100 18.476681
71.105 18.67898
71.110 18.436975
71.115 18.075779
71.120 17.645346
71.125 17.569405
71.130 17.280312
71.135 17.306282
71.140 17.14147
71.145 17.317339
71.150 17.651493
71.155 18.108139
71.160 18.170195
71.165 17.720331
71.170 17.293652
71.175 17.13833
71.180 17.564047
71.185 17.354807
71.190 17.353651
71.195 17.392113
71.200 17.448935
71.205 17.908278
71.210 18.262104
71.215 18.088715
71.220 17.773727
71.225 17.450066
71.230 17.237144
71.235 16.935825
71.240 16.2887
71.245 16.388798
71.250 17.331202
71.255 17.933407
71.260 18.266525
71.265 18.387589
71.270 18.304575
71.275 18.559456
71.280 17.947794
71.285 16.959167
71.290 16.920309
71.295 16.725155
71.300 17.116007
71.305 17.673815
71.310 17.32711
71.315 17.365353
71.320 17.934469
71.325 17.992479
71.330 18.322088
71.335 18.056093
71.340 18.20331
71.345 18.417318
71.350 18.642538
71.355 18.816936
71.360 18.65373
71.365 18.185841
71.370 18.036818
71.375 17.515427
71.380 17.288616
71.385 16.944527
71.390 16.828432
71.395 16.610695
71.400 16.862154
71.405 17.269217
71.410 17.73905
71.415 17.50708
71.420 17.084099
71.425 17.246426
71.430 17.692059
71.435 17.842115
71.440 17.149235
71.445 17.052395
71.450 17.57983
71.455 17.563089
71.460 17.637783
71.465 17.437948
71.470 17.570572
71.475 17.363403
71.480 17.397724
71.485 18.006903
71.490 18.566418
71.495 18.707394
71.500 19.169891
71.505 19.451878
71.510 20.228291
71.515 20.20509
71.520 19.75901
71.525 18.677286
71.530 18.546068
71.535 18.158161
71.540 17.939024
71.545 17.891657
71.550 18.231686
71.555 17.581423
71.560 17.492416
71.565 16.979237
71.570 16.230648
71.575 16.658846
71.580 15.90685
71.585 15.965527
71.590 16.732635
71.595 17.44219
71.600 18.046095
71.605 18.086212
71.610 17.950199
71.615 17.918276
71.620 17.510008
71.625 17.241047
71.630 16.928173
71.635 16.827797
71.640 16.785522
71.645 17.071564
71.650 17.342426
71.655 17.384178
71.660 17.290686
71.665 17.075802
71.670 17.172663
71.675 17.039265
71.680 17.072344
71.685 16.809721
71.690 16.69005
71.695 16.830069
71.700 16.76899
71.705 16.8694
71.710 17.418068
71.715 17.720694
71.720 17.916462
71.725 17.697172
71.730 17.697271
71.735 18.332762
71.740 18.086937
71.745 17.449224
71.750 16.795465
71.755 16.894062
71.760 17.457659
71.765 17.84374
71.770 17.830421
71.775 17.770409
71.780 17.884474
71.785 18.01442
71.790 17.945347
71.795 17.525267
71.800 17.053831
71.805 16.794197
71.810 16.611036
71.815 16.830215
71.820 17.064827
71.825 17.585276
71.830 18.014828
71.835 17.933565
71.840 18.410521
71.845 18.839054
71.850 18.810997
71.855 18.472126
71.860 18.414869
71.865 18.437103
71.870 18.559332
71.875 18.030441
71.880 17.853924
71.885 18.335035
71.890 18.498407
71.895 18.140825
71.900 17.651314
71.905 17.409077
71.910 18.267775
71.915 18.276995
71.920 18.035284
71.925 17.75424
71.930 17.677616
71.935 17.697721
71.940 17.312473
71.945 16.980707
71.950 16.445866
71.955 15.977246
71.960 16.054064
71.965 16.494776
71.970 16.982876
71.975 17.21052
71.980 17.285515
71.985 17.483263
71.990 17.651001
71.995 17.709499
72.000 17.474741
72.005 17.148457
72.010 16.877926
72.015 16.684624
72.020 16.658279
72.025 17.193562
72.030 16.313004
72.035 16.674866
72.040 17.367504
72.045 17.805048
72.050 17.714323
72.055 17.35306
72.060 17.273689
72.065 17.604523
72.070 16.887058
72.075 16.62711
72.080 16.27408
72.085 16.755278
72.090 17.209417
72.095 17.461052
72.100 17.299866
72.105 17.975027
72.110 17.947718
72.115 18.145067
72.120 17.858732
72.125 17.495838
72.130 17.668425
72.135 17.98031
72.140 17.242151
72.145 17.168888
72.150 16.444477
72.155 16.496502
72.160 16.413248
72.165 16.155979
72.170 15.97466
72.175 15.949572
72.180 16.257248
72.185 17.217024
72.190 18.139
72.195 18.408997
72.200 18.205446
72.205 18.264223
72.210 18.697933
72.215 18.21175
72.220 17.702005
72.225 17.458292
72.230 17.163288
72.235 17.236715
72.240 17.058828
72.245 17.29645
72.250 18.210373
72.255 18.100927
72.260 17.799053
72.265 18.001118
72.270 18.434999
72.275 18.40267
72.280 17.935783
72.285 17.021215
72.290 16.633615
72.295 16.988552
72.300 17.428774
72.305 17.375248
72.310 17.42758
72.315 17.498419
72.320 17.740551
72.325 17.724558
72.330 17.106667
72.335 16.681129
72.340 16.714121
72.345 16.868481
72.350 16.814531
72.355 17.01395
72.360 17.640818
72.365 17.853943
72.370 17.720242
72.375 17.671074
72.380 17.657068
72.385 17.416744
72.390 16.756639
72.395 16.818199
72.400 16.76528
72.405 16.875124
72.410 16.920692
72.415 17.257877
72.420 17.155243
72.425 17.115503
72.430 16.80109
72.435 16.412811
72.440 16.093441
72.445 16.001406
72.450 16.74699
72.455 17.566065
72.460 17.941187
72.465 18.290085
72.470 18.722469
72.475 18.907446
72.480 18.128572
72.485 17.227921
72.490 16.765799
72.495 16.59844
72.500 16.231581
72.505 16.050817
72.510 16.323875
72.515 16.898626
72.520 17.384613
72.525 17.602478
72.530 17.447144
72.535 18.096779
72.540 18.183084
72.545 18.298363
72.550 18.157572
72.555 18.47155
72.560 18.357756
72.565 18.361631
72.570 18.035412
72.575 18.005121
72.580 17.972212
72.585 17.837996
72.590 16.615393
72.595 16.329033
72.600 16.549625
72.605 16.607277
72.610 16.499022
72.615 15.932821
72.620 16.450396
72.625 17.947487
72.630 17.489683
72.635 17.255293
72.640 16.759823
72.645 16.779997
72.650 16.639074
72.655 15.892447
72.660 16.233345
72.665 16.527447
72.670 17.137514
72.675 17.422882
72.680 17.784815
72.685 17.238405
72.690 16.764532
72.695 16.990179
72.700 16.716606
72.705 16.766062
72.710 16.794273
72.715 16.769423
72.720 17.538437
72.725 18.395664
72.730 17.663752
72.735 17.39942
72.740 17.131824
72.745 17.451237
72.750 17.580032
72.755 17.297806
72.760 17.271122
72.765 17.871469
72.770 17.403082
72.775 17.049053
72.780 16.627943
72.785 16.586473
72.790 16.489735
72.795 15.743491
72.800 15.182813
72.805 15.852901
72.810 16.247559
72.815 16.617893
72.820 16.670658
72.825 16.83098
72.830 17.166424
72.835 17.193888
72.840 17.075871
72.845 16.999191
72.850 16.620243
72.855 16.156834
72.860 16.2383
72.865 15.970358
72.870 16.223528
72.875 16.335636
72.880 16.047352
72.885 15.926717
72.890 15.956559
72.895 15.897679
72.900 16.055569
72.905 14.906213
72.910 14.16371
72.915 14.653075
72.920 14.83314
72.925 15.164497
72.930 14.898243
72.935 15.112213
72.940 15.856586
72.945 16.507673
72.950 16.583683
72.955 16.945112
72.960 16.529133
72.965 17.360451
72.970 17.694485
72.975 17.536549
72.980 17.036825
72.985 16.912277
72.990 16.835735
72.995 16.892998
73.000 16.314619
