!@!!GADDS PLOTSO FILE: Chi integration type
!@!!Title/SampleName: map-115
!@!!Comment: ?
!@!!User: Bruker Instrument Administrator
!@!!Site: University of Illinois Chicago
!@!!Frame: map-115_01_000.gfrm
!@!!Wavelengths    1.54184   1.54056   1.54439
!@!!Frame angles: 2Theta: 63.000 Omega: 50.000 Phi: 0.000 Chi: 90.000
!@!!Integration range: 2Theta: 53.000 to 73.000  Gamma: -105.000 to -75.000
!@!!Integration method: bin normalized
!@!N
!@!SS
!@!M
!@!L 0.0 0.0 0.0 0.0
!@!XDegrees
!@!YCounts
53.000 7.300706
53.005 7.194816
53.010 7.092974
53.015 6.902274
53.020 6.988551
53.025 6.72234
53.030 6.396969
53.035 6.565564
53.040 6.927737
53.045 7.452779
53.050 7.792179
53.055 7.775226
53.060 7.561332
53.065 8.174675
53.070 8.330729
53.075 8.041216
53.080 7.792172
53.085 7.651669
53.090 7.695651
53.095 7.887956
53.100 7.344029
53.105 7.403938
53.110 7.666677
53.115 7.456005
53.120 7.614136
53.125 7.914247
53.130 7.996881
53.135 8.211783
53.140 7.94537
53.145 7.886971
53.150 8.000278
53.155 7.956879
53.160 7.797349
53.165 8.045077
53.170 7.835334
53.175 8.017604
53.180 8.136929
53.185 8.137237
53.190 7.955945
53.195 7.723355
53.200 7.24508
53.205 7.013499
53.210 6.753119
53.215 6.867686
53.220 6.967017
53.225 7.485654
53.230 7.866131
53.235 8.016538
53.240 8.118701
53.245 8.559319
53.250 8.870805
53.255 9.018268
53.260 8.51943
53.265 7.938455
53.270 7.843239
53.275 7.961259
53.280 7.830577
53.285 7.182385
53.290 7.048653
53.295 7.363425
53.300 7.495862
53.305 7.581415
53.310 7.076066
53.315 6.803159
53.320 6.920709
53.325 6.279415
53.330 6.090782
53.335 6.131709
53.340 6.332432
53.345 6.925245
53.350 7.132381
53.355 7.014425
53.360 7.47916
53.365 7.598481
53.370 8.085744
53.375 8.367899
53.380 8.270973
53.385 8.048356
53.390 8.329475
53.395 8.817904
53.400 8.871799
53.405 8.528334
53.410 8.448871
53.415 8.425228
53.420 8.684941
53.425 8.518437
53.430 7.870392
53.435 7.959554
53.440 7.561186
53.445 7.628796
53.450 7.515318
53.455 7.746407
53.460 7.665137
53.465 7.862814
53.470 7.825377
53.475 7.672112
53.480 7.430419
53.485 7.883941
53.490 7.786604
53.495 7.585578
53.500 7.654448
53.505 8.113008
53.510 8.413419
53.515 8.317759
53.520 7.928977
53.525 8.051577
53.530 8.625585
53.535 8.398317
53.540 8.54831
53.545 8.57813
53.550 8.56459
53.555 8.426355
53.560 8.538141
53.565 8.448718
53.570 8.220605
53.575 7.540172
53.580 7.174572
53.585 7.204595
53.590 7.706097
53.595 7.497549
53.600 7.258473
53.605 7.505506
53.610 8.070408
53.615 8.470784
53.620 8.64301
53.625 8.515613
53.630 8.412014
53.635 8.755884
53.640 8.489491
53.645 8.288932
53.650 7.804734
53.655 7.404968
53.660 7.122004
53.665 7.142385
53.670 6.78072
53.675 6.710114
53.680 6.914826
53.685 7.491912
53.690 7.613758
53.695 7.600132
53.700 7.641269
53.705 7.89722
53.710 7.777008
53.715 7.592949
53.720 7.218728
53.725 7.073194
53.730 7.007106
53.735 7.025589
53.740 7.336325
53.745 7.512826
53.750 7.37747
53.755 7.472482
53.760 7.522876
53.765 7.780232
53.770 7.652853
53.775 7.471832
53.780 7.55118
53.785 7.862324
53.790 7.715935
53.795 7.895951
53.800 7.920486
53.805 7.806915
53.810 7.989892
53.815 7.761189
53.820 7.558648
53.825 7.48249
53.830 7.148398
53.835 6.727751
53.840 6.603381
53.845 6.636984
53.850 6.854603
53.855 7.010238
53.860 7.294299
53.865 7.535237
53.870 8.06732
53.875 7.915387
53.880 7.857957
53.885 7.803203
53.890 7.60514
53.895 7.392967
53.900 7.412038
53.905 7.738078
53.910 7.974755
53.915 8.11956
53.920 7.986597
53.925 8.254806
53.930 8.609536
53.935 8.346591
53.940 7.803731
53.945 7.739203
53.950 7.625637
53.955 7.951324
53.960 7.75355
53.965 7.980582
53.970 8.411756
53.975 8.339343
53.980 8.53752
53.985 8.705613
53.990 8.471362
53.995 8.402169
54.000 7.954082
54.005 7.927489
54.010 7.815242
54.015 7.148664
54.020 7.083447
54.025 7.275366
54.030 7.385606
54.035 7.718074
54.040 7.871762
54.045 8.254457
54.050 8.877901
54.055 9.392492
54.060 9.322953
54.065 9.184602
54.070 8.780017
54.075 9.0253
54.080 8.835687
54.085 8.195931
54.090 7.531356
54.095 7.305599
54.100 7.101683
54.105 7.086843
54.110 6.8841
54.115 7.105408
54.120 7.460093
54.125 7.266649
54.130 7.547393
54.135 7.552952
54.140 7.089218
54.145 7.077829
54.150 6.763837
54.155 6.457177
54.160 6.640898
54.165 6.820558
54.170 7.139786
54.175 7.6053
54.180 8.076469
54.185 8.335057
54.190 8.482543
54.195 8.606725
54.200 9.113418
54.205 8.934985
54.210 8.577128
54.215 8.202674
54.220 8.275738
54.225 8.509765
54.230 8.301856
54.235 8.181705
54.240 8.21126
54.245 8.065764
54.250 7.865503
54.255 7.566319
54.260 7.999325
54.265 7.697186
54.270 7.567612
54.275 7.314251
54.280 7.536281
54.285 7.793018
54.290 7.993977
54.295 7.71989
54.300 7.762456
54.305 7.846718
54.310 8.051729
54.315 8.322941
54.320 8.437438
54.325 8.506429
54.330 8.304632
54.335 8.327436
54.340 8.478446
54.345 8.30452
54.350 8.087629
54.355 8.271015
54.360 8.25934
54.365 8.315595
54.370 7.793263
54.375 7.728636
54.380 7.990839
54.385 7.880431
54.390 7.602545
54.395 7.288931
54.400 7.025825
54.405 6.933394
54.410 6.947028
54.415 6.760453
54.420 6.642767
54.425 6.66872
54.430 7.214237
54.435 7.573478
54.440 8.045243
54.445 8.581209
54.450 8.895428
54.455 8.809567
54.460 8.949424
54.465 8.954122
54.470 8.920606
54.475 8.414226
54.480 8.028201
54.485 8.086479
54.490 8.375019
54.495 8.514405
54.500 8.391801
54.505 8.603795
54.510 8.616763
54.515 8.70553
54.520 8.369226
54.525 7.777586
54.530 7.624455
54.535 7.831085
54.540 8.108679
54.545 7.987951
54.550 8.216258
54.555 8.458274
54.560 8.587197
54.565 8.831968
54.570 8.541819
54.575 8.09171
54.580 8.578858
54.585 8.211026
54.590 8.324983
54.595 8.338198
54.600 8.030402
54.605 7.86215
54.610 7.528107
54.615 7.344002
54.620 7.602351
54.625 7.838892
54.630 7.423675
54.635 7.467041
54.640 7.723426
54.645 7.894418
54.650 7.603179
54.655 7.3783
54.660 7.440904
54.665 7.807518
54.670 7.726967
54.675 7.977671
54.680 8.178525
54.685 8.190337
54.690 7.928985
54.695 7.80823
54.700 8.26838
54.705 8.293938
54.710 8.090505
54.715 8.175225
54.720 8.134685
54.725 8.465703
54.730 8.051907
54.735 7.887773
54.740 8.335668
54.745 8.255257
54.750 8.175366
54.755 7.809766
54.760 7.45122
54.765 7.526772
54.770 7.147198
54.775 6.856368
54.780 6.923363
54.785 6.781838
54.790 7.044585
54.795 7.478098
54.800 8.369147
54.805 8.584391
54.810 8.894728
54.815 8.830581
54.820 8.9402
54.825 9.135258
54.830 8.769654
54.835 8.510557
54.840 8.16505
54.845 7.997898
54.850 8.146366
54.855 8.105357
54.860 8.206762
54.865 8.234598
54.870 8.268088
54.875 8.794313
54.880 8.688142
54.885 8.942785
54.890 9.318216
54.895 9.332591
54.900 9.310109
54.905 9.033495
54.910 9.169785
54.915 9.361495
54.920 8.724821
54.925 8.361266
54.930 7.97707
54.935 7.709542
54.940 7.262143
54.945 6.888281
54.950 6.45556
54.955 6.909681
54.960 7.300913
54.965 7.936891
54.970 8.417288
54.975 8.810199
54.980 8.816772
54.985 9.126881
54.990 9.057057
54.995 8.731888
55.000 8.351898
55.005 8.002892
55.010 7.794207
55.015 8.078277
55.020 7.843608
55.025 7.924434
55.030 8.0829
55.035 8.228305
55.040 8.335818
55.045 8.388001
55.050 8.61181
55.055 8.873295
55.060 8.717231
55.065 8.794434
55.070 9.054972
55.075 9.182989
55.080 8.916734
55.085 8.968118
55.090 8.539527
55.095 8.463869
55.100 8.239198
55.105 7.852804
55.110 7.596567
55.115 7.889628
55.120 8.302262
55.125 8.533442
55.130 8.782358
55.135 8.896261
55.140 9.074997
55.145 9.266326
55.150 9.150012
55.155 8.6435
55.160 8.201062
55.165 7.9591
55.170 8.026821
55.175 8.120719
55.180 8.047994
55.185 8.246894
55.190 8.750474
55.195 8.993692
55.200 8.911806
55.205 8.966618
55.210 9.264174
55.215 9.32541
55.220 9.174001
55.225 9.180086
55.230 9.255744
55.235 9.240723
55.240 8.564346
55.245 8.673773
55.250 8.504334
55.255 8.138098
55.260 7.877484
55.265 7.817468
55.270 7.399658
55.275 7.375215
55.280 6.994763
55.285 7.098811
55.290 7.551077
55.295 7.948056
55.300 8.231877
55.305 8.661782
55.310 8.816513
55.315 8.770983
55.320 8.530838
55.325 8.200577
55.330 7.800974
55.335 7.745311
55.340 7.533741
55.345 7.744058
55.350 8.003533
55.355 8.174714
55.360 8.456535
55.365 8.707501
55.370 8.652695
55.375 8.754156
55.380 8.567656
55.385 8.527212
55.390 8.30776
55.395 7.895446
55.400 7.578942
55.405 7.397072
55.410 7.58718
55.415 7.508436
55.420 7.21051
55.425 7.541103
55.430 8.052072
55.435 8.172321
55.440 8.494868
55.445 8.350476
55.450 8.499286
55.455 8.460104
55.460 8.09846
55.465 7.936104
55.470 7.700327
55.475 7.93329
55.480 8.055296
55.485 8.135794
55.490 8.113297
55.495 7.983304
55.500 8.499261
55.505 8.774587
55.510 8.449295
55.515 8.255715
55.520 8.148928
55.525 8.565076
55.530 9.145452
55.535 9.108666
55.540 8.951432
55.545 9.045231
55.550 9.530344
55.555 9.615103
55.560 9.537687
55.565 9.379138
55.570 9.075531
55.575 9.121509
55.580 9.192524
55.585 8.893176
55.590 8.561782
55.595 8.494061
55.600 8.384196
55.605 8.550466
55.610 9.078549
55.615 8.957901
55.620 8.74642
55.625 8.936772
55.630 8.301541
55.635 8.186893
55.640 7.753777
55.645 7.086323
55.650 7.255491
55.655 7.214947
55.660 7.313424
55.665 7.590342
55.670 7.32336
55.675 7.304657
55.680 7.541914
55.685 7.243174
55.690 7.833269
55.695 7.684701
55.700 7.970903
55.705 8.06397
55.710 7.998834
55.715 8.175264
55.720 8.427392
55.725 7.960149
55.730 7.944007
55.735 7.779566
55.740 8.109112
55.745 8.60609
55.750 8.580792
55.755 8.842033
55.760 8.881875
55.765 8.724139
55.770 8.531678
55.775 8.628192
55.780 8.644489
55.785 8.74803
55.790 8.341565
55.795 8.636808
55.800 8.943714
55.805 9.10532
55.810 8.696826
55.815 8.365036
55.820 8.168442
55.825 8.486901
55.830 8.535884
55.835 8.593087
55.840 8.650618
55.845 9.30232
55.850 9.750429
55.855 9.797571
55.860 9.820564
55.865 9.753455
55.870 9.784408
55.875 9.510385
55.880 8.76206
55.885 8.582311
55.890 8.705544
55.895 8.527752
55.900 8.628987
55.905 8.307178
55.910 8.218546
55.915 8.497541
55.920 8.863213
55.925 9.089284
55.930 9.042389
55.935 9.159823
55.940 9.574181
55.945 10.102301
55.950 9.763207
55.955 9.236093
55.960 9.055034
55.965 8.739096
55.970 8.301478
55.975 8.320634
55.980 8.58227
55.985 8.796329
55.990 8.677778
55.995 8.633013
56.000 8.697606
56.005 8.495017
56.010 7.968327
56.015 7.631908
56.020 7.447562
56.025 7.841087
56.030 8.540972
56.035 8.787071
56.040 9.233722
56.045 9.685388
56.050 9.623158
56.055 9.537903
56.060 9.167033
56.065 8.684276
56.070 9.008165
56.075 8.732171
56.080 8.65491
56.085 8.747427
56.090 9.062615
56.095 9.154027
56.100 9.282318
56.105 9.240254
56.110 9.21187
56.115 9.021046
56.120 9.400114
56.125 9.368372
56.130 9.179956
56.135 9.308576
56.140 9.215526
56.145 10.01311
56.150 10.184507
56.155 10.032626
56.160 10.123828
56.165 10.416514
56.170 9.89676
56.175 9.948593
56.180 9.386773
56.185 9.202275
56.190 9.138188
56.195 9.148659
56.200 9.068839
56.205 9.198539
56.210 9.14992
56.215 9.427515
56.220 9.292999
56.225 9.306166
56.230 9.334682
56.235 9.350924
56.240 9.312091
56.245 9.223882
56.250 8.953678
56.255 9.162455
56.260 8.979936
56.265 8.709435
56.270 8.858476
56.275 8.594128
56.280 8.393234
56.285 8.277502
56.290 8.232388
56.295 9.010946
56.300 9.285781
56.305 9.492783
56.310 9.691885
56.315 9.624717
56.320 9.916017
56.325 9.911716
56.330 9.416233
56.335 9.149277
56.340 8.849389
56.345 8.889802
56.350 9.279082
56.355 9.259384
56.360 9.23571
56.365 9.136393
56.370 8.868233
56.375 9.358974
56.380 9.840518
56.385 9.798564
56.390 9.680975
56.395 9.557946
56.400 9.6731
56.405 9.692901
56.410 9.446422
56.415 9.310126
56.420 9.550244
56.425 9.766437
56.430 9.938376
56.435 10.025253
56.440 10.411571
56.445 10.302638
56.450 10.071313
56.455 9.992208
56.460 10.00668
56.465 9.466159
56.470 9.278474
56.475 9.052534
56.480 8.936576
56.485 9.046834
56.490 9.715309
56.495 10.048008
56.500 10.549499
56.505 10.97546
56.510 11.267978
56.515 11.567416
56.520 11.80527
56.525 11.581332
56.530 11.723027
56.535 11.285297
56.540 10.787775
56.545 10.606888
56.550 10.020617
56.555 9.462151
56.560 9.190784
56.565 9.322044
56.570 9.541844
56.575 9.462009
56.580 9.285551
56.585 9.104277
56.590 9.175774
56.595 8.971928
56.600 8.677878
56.605 8.66242
56.610 9.064845
56.615 10.112653
56.620 10.799328
56.625 10.85925
56.630 10.945443
56.635 11.334466
56.640 11.596463
56.645 11.655209
56.650 11.109039
56.655 11.100482
56.660 10.837267
56.665 10.582434
56.670 10.393803
56.675 10.176651
56.680 9.673669
56.685 9.701468
56.690 10.057563
56.695 10.523926
56.700 10.848566
56.705 10.816262
56.710 10.795416
56.715 10.901211
56.720 10.67949
56.725 9.991934
56.730 9.764773
56.735 9.865885
56.740 10.119574
56.745 9.916586
56.750 9.689878
56.755 9.704792
56.760 10.172693
56.765 10.231664
56.770 10.267062
56.775 10.325245
56.780 10.466564
56.785 10.565712
56.790 10.72184
56.795 10.521607
56.800 9.702449
56.805 9.108128
56.810 9.224383
56.815 9.573942
56.820 9.4897
56.825 9.014315
56.830 8.893751
56.835 9.51935
56.840 9.588084
56.845 9.709352
56.850 9.863173
56.855 10.165838
56.860 10.386521
56.865 10.595873
56.870 10.306842
56.875 10.335559
56.880 9.7545
56.885 9.548891
56.890 9.161695
56.895 9.10801
56.900 8.97388
56.905 9.254483
56.910 9.423536
56.915 9.510875
56.920 9.70155
56.925 10.148699
56.930 10.100982
56.935 9.829105
56.940 9.69919
56.945 9.994985
56.950 10.400021
56.955 10.041898
56.960 9.697806
56.965 9.538353
56.970 9.725379
56.975 9.585775
56.980 9.529431
56.985 9.567993
56.990 9.766569
56.995 9.862597
57.000 10.039343
57.005 9.917722
57.010 9.98176
57.015 9.77105
57.020 9.297502
57.025 9.077043
57.030 8.98204
57.035 8.90558
57.040 9.21231
57.045 9.22367
57.050 9.991776
57.055 10.397059
57.060 10.70242
57.065 11.380407
57.070 11.729034
57.075 11.512174
57.080 11.097346
57.085 10.118068
57.090 9.603982
57.095 9.468834
57.100 9.093204
57.105 8.916527
57.110 8.723214
57.115 8.587297
57.120 8.426765
57.125 8.545895
57.130 8.531519
57.135 8.246481
57.140 8.365955
57.145 8.657944
57.150 9.083872
57.155 10.210124
57.160 10.527516
57.165 10.439113
57.170 10.90171
57.175 11.255743
57.180 11.351273
57.185 11.587939
57.190 10.774169
57.195 10.662893
57.200 11.179219
57.205 10.952748
57.210 11.111159
57.215 10.97172
57.220 10.35595
57.225 10.517184
57.230 10.087277
57.235 9.397402
57.240 9.021278
57.245 8.935753
57.250 9.069523
57.255 9.152779
57.260 9.045177
57.265 9.407614
57.270 9.82
57.275 10.525224
57.280 10.51779
57.285 10.653979
57.290 10.960712
57.295 10.895843
57.300 11.139101
57.305 10.716873
57.310 10.120706
57.315 10.076722
57.320 9.869412
57.325 10.358472
57.330 10.720642
57.335 10.688588
57.340 11.015127
57.345 11.045663
57.350 10.935958
57.355 10.920387
57.360 10.174881
57.365 10.15002
57.370 10.242099
57.375 10.441178
57.380 10.52367
57.385 10.418189
57.390 10.657237
57.395 11.224424
57.400 11.528512
57.405 11.379573
57.410 11.058163
57.415 11.332159
57.420 11.308069
57.425 10.983478
57.430 10.683035
57.435 10.419518
57.440 10.665136
57.445 10.412539
57.450 10.008795
57.455 10.123471
57.460 10.072326
57.465 10.375715
57.470 10.567687
57.475 10.985337
57.480 11.230174
57.485 11.402842
57.490 11.706728
57.495 11.797548
57.500 11.636757
57.505 11.749273
57.510 11.350386
57.515 11.109735
57.520 10.963295
57.525 10.911438
57.530 11.0942
57.535 11.110812
57.540 11.398499
57.545 11.666015
57.550 11.977575
57.555 12.206038
57.560 12.165227
57.565 11.924068
57.570 11.844421
57.575 11.687138
57.580 11.539858
57.585 11.924505
57.590 11.909086
57.595 12.166427
57.600 11.983392
57.605 11.41294
57.610 11.034696
57.615 11.075743
57.620 10.934757
57.625 11.453586
57.630 10.836227
57.635 10.560749
57.640 10.403604
57.645 10.572544
57.650 10.28579
57.655 9.891327
57.660 8.848822
57.665 9.152345
57.670 9.353133
57.675 9.561767
57.680 9.152386
57.685 9.163523
57.690 9.403586
57.695 9.911467
57.700 9.799501
57.705 10.024297
57.710 10.163427
57.715 10.068632
57.720 9.91814
57.725 10.342474
57.730 10.780423
57.735 11.067944
57.740 11.318069
57.745 11.560214
57.750 12.129782
57.755 12.126205
57.760 11.254732
57.765 10.651174
57.770 10.767467
57.775 10.331635
57.780 10.038561
57.785 9.789341
57.790 10.288641
57.795 10.669301
57.800 10.823531
57.805 10.400898
57.810 10.373609
57.815 10.383964
57.820 10.084697
57.825 9.591054
57.830 9.802496
57.835 10.011968
57.840 10.780267
57.845 10.793076
57.850 10.732863
57.855 11.37211
57.860 11.494894
57.865 11.301075
57.870 11.254316
57.875 10.826483
57.880 11.167537
57.885 11.73871
57.890 11.262547
57.895 10.819929
57.900 10.549674
57.905 10.210293
57.910 10.388219
57.915 10.279392
57.920 10.030576
57.925 10.289637
57.930 10.162911
57.935 10.430949
57.940 10.974319
57.945 11.068103
57.950 11.007759
57.955 11.22003
57.960 11.485526
57.965 12.249659
57.970 12.306799
57.975 11.824765
57.980 11.827301
57.985 11.511373
57.990 10.935037
57.995 10.915479
58.000 10.615555
58.005 10.473886
58.010 10.688077
58.015 11.070515
58.020 12.072458
58.025 12.424282
58.030 12.408527
58.035 12.532557
58.040 13.047365
58.045 12.635372
58.050 12.183366
58.055 11.530962
58.060 11.852939
58.065 11.988063
58.070 12.052863
58.075 11.686654
58.080 11.908829
58.085 12.079404
58.090 11.891309
58.095 11.367687
58.100 11.460832
58.105 11.50759
58.110 11.388749
58.115 11.391109
58.120 11.885968
58.125 12.37144
58.130 12.379644
58.135 12.107901
58.140 12.134631
58.145 12.385677
58.150 11.991275
58.155 11.44445
58.160 11.254215
58.165 11.91636
58.170 12.037166
58.175 12.211388
58.180 12.633613
58.185 13.214597
58.190 13.756605
58.195 13.49454
58.200 13.386333
58.205 13.832798
58.210 14.261143
58.215 14.167774
58.220 14.044659
58.225 13.860245
58.230 14.458306
58.235 14.079219
58.240 13.555436
58.245 13.366405
58.250 13.582195
58.255 13.519258
58.260 13.610251
58.265 13.612937
58.270 14.245212
58.275 14.326623
58.280 14.490741
58.285 14.563682
58.290 14.640763
58.295 14.886438
58.300 14.9068
58.305 14.431952
58.310 14.895348
58.315 15.19885
58.320 15.213113
58.325 15.318738
58.330 15.144189
58.335 15.418817
58.340 15.722453
58.345 16.181658
58.350 16.089333
58.355 15.92867
58.360 16.066616
58.365 15.901334
58.370 15.504625
58.375 15.469111
58.380 14.703343
58.385 14.321825
58.390 14.916367
58.395 15.34376
58.400 16.346056
58.405 16.963612
58.410 17.279102
58.415 17.530704
58.420 18.137514
58.425 18.572308
58.430 18.443592
58.435 18.119097
58.440 18.021736
58.445 18.346226
58.450 18.458694
58.455 18.233725
58.460 17.84383
58.465 17.614815
58.470 17.893196
58.475 18.073269
58.480 17.660992
58.485 18.026001
58.490 18.597319
58.495 18.879774
58.500 19.093832
58.505 18.998812
58.510 18.897038
58.515 19.155485
58.520 18.923882
58.525 18.562927
58.530 18.311716
58.535 18.072813
58.540 17.588491
58.545 17.558422
58.550 17.027435
58.555 17.031078
58.560 16.70046
58.565 16.686846
58.570 16.994146
58.575 17.377617
58.580 17.414669
58.585 17.570408
58.590 17.219601
58.595 17.893148
58.600 17.718868
58.605 17.461908
58.610 17.058453
58.615 16.971865
58.620 16.943096
58.625 17.068003
58.630 16.959938
58.635 16.863249
58.640 16.95204
58.645 17.063272
58.650 16.779274
58.655 16.550869
58.660 16.706282
58.665 16.22681
58.670 16.334829
58.675 16.410572
58.680 16.103056
58.685 16.544699
58.690 16.679317
58.695 16.156803
58.700 16.117479
58.705 15.58568
58.710 15.035927
58.715 15.228125
58.720 15.033887
58.725 14.972932
58.730 14.703681
58.735 14.804444
58.740 15.469201
58.745 15.760493
58.750 15.298862
58.755 14.826362
58.760 14.740605
58.765 14.99852
58.770 15.40574
58.775 15.258412
58.780 14.959031
58.785 15.004455
58.790 14.99102
58.795 14.980997
58.800 15.205815
58.805 14.881274
58.810 15.098248
58.815 15.4199
58.820 15.539515
58.825 15.992694
58.830 16.11511
58.835 15.542253
58.840 15.065628
58.845 14.470676
58.850 14.296865
58.855 14.071306
58.860 13.717231
58.865 13.095999
58.870 13.037642
58.875 13.812496
58.880 14.221249
58.885 14.165412
58.890 14.382389
58.895 14.689837
58.900 14.999911
58.905 14.474519
58.910 13.593472
58.915 13.874246
58.920 14.1941
58.925 14.122116
58.930 14.233932
58.935 14.693531
58.940 15.209174
58.945 15.205681
58.950 14.242626
58.955 13.953423
58.960 13.664249
58.965 13.07677
58.970 12.916397
58.975 12.286262
58.980 12.835424
58.985 13.033002
58.990 12.993191
58.995 13.571473
59.000 13.595809
59.005 13.806633
59.010 14.414219
59.015 14.414989
59.020 14.284472
59.025 14.154037
59.030 13.821889
59.035 13.403174
59.040 12.900615
59.045 12.208063
59.050 11.244337
59.055 11.196627
59.060 11.330575
59.065 11.624931
59.070 12.228866
59.075 12.203535
59.080 12.901754
59.085 13.243483
59.090 13.306876
59.095 13.533814
59.100 13.472368
59.105 13.639256
59.110 13.639724
59.115 13.239738
59.120 13.135151
59.125 13.082904
59.130 12.998225
59.135 13.051978
59.140 12.756203
59.145 12.749768
59.150 12.765932
59.155 12.909615
59.160 12.976031
59.165 12.672816
59.170 12.572042
59.175 12.60766
59.180 13.190218
59.185 13.034657
59.190 13.083369
59.195 12.95746
59.200 12.454132
59.205 12.353044
59.210 12.51826
59.215 12.081094
59.220 12.076694
59.225 11.518597
59.230 11.677073
59.235 12.392712
59.240 12.666764
59.245 12.460472
59.250 12.144066
59.255 12.556908
59.260 13.034454
59.265 13.390961
59.270 12.959327
59.275 12.484803
59.280 12.466047
59.285 12.714265
59.290 12.178808
59.295 12.138205
59.300 11.431863
59.305 11.570182
59.310 11.652081
59.315 11.427773
59.320 11.608661
59.325 12.179321
59.330 12.525052
59.335 13.308834
59.340 13.804137
59.345 14.097362
59.350 13.983211
59.355 13.663924
59.360 13.830956
59.365 13.404179
59.370 13.079258
59.375 12.42918
59.380 12.21421
59.385 12.362955
59.390 12.073893
59.395 11.371796
59.400 10.673454
59.405 10.271058
59.410 10.133628
59.415 10.696721
59.420 11.113607
59.425 11.167986
59.430 11.807713
59.435 11.971251
59.440 12.182118
59.445 12.505402
59.450 11.896732
59.455 11.363576
59.460 11.68681
59.465 12.087631
59.470 12.369347
59.475 12.721629
59.480 12.658697
59.485 12.805532
59.490 13.045108
59.495 12.936599
59.500 12.206818
59.505 12.373411
59.510 12.268912
59.515 12.383209
59.520 12.033644
59.525 11.805532
59.530 11.749539
59.535 11.827545
59.540 11.505365
59.545 10.980727
59.550 10.946573
59.555 11.174969
59.560 11.70685
59.565 11.767027
59.570 11.982348
59.575 12.358564
59.580 12.643799
59.585 12.538616
59.590 12.523882
59.595 11.903602
59.600 12.179071
59.605 12.341156
59.610 12.006154
59.615 11.787104
59.620 11.686387
59.625 11.904437
59.630 12.137668
59.635 12.148605
59.640 11.64732
59.645 11.775414
59.650 11.737592
59.655 11.992716
59.660 11.968103
59.665 11.962303
59.670 11.70475
59.675 11.83116
59.680 11.886232
59.685 11.979587
59.690 11.868354
59.695 12.129543
59.700 12.390126
59.705 12.805048
59.710 12.959872
59.715 12.881785
59.720 13.081096
59.725 12.857613
59.730 13.11344
59.735 12.811411
59.740 12.292543
59.745 12.563115
59.750 12.475157
59.755 12.295869
59.760 12.423113
59.765 12.243443
59.770 12.307635
59.775 12.817878
59.780 12.918138
59.785 13.207624
59.790 13.26591
59.795 13.380485
59.800 13.189888
59.805 13.03296
59.810 12.970738
59.815 13.131268
59.820 13.251047
59.825 12.904475
59.830 12.286585
59.835 12.288913
59.840 12.581741
59.845 12.401379
59.850 11.885332
59.855 11.997973
59.860 12.359176
59.865 12.474419
59.870 12.353131
59.875 11.94114
59.880 11.851816
59.885 11.833444
59.890 11.513469
59.895 11.517872
59.900 11.295794
59.905 11.095311
59.910 10.996016
59.915 11.126026
59.920 11.168011
59.925 10.82612
59.930 10.593081
59.935 10.846757
59.940 11.32373
59.945 11.543642
59.950 11.140095
59.955 11.088999
59.960 11.424348
59.965 12.125922
59.970 12.198481
59.975 11.902216
59.980 11.792199
59.985 11.986507
59.990 12.676851
59.995 13.019545
60.000 13.093377
60.005 12.958097
60.010 12.745179
60.015 12.745062
60.020 12.464619
60.025 11.726341
60.030 11.530829
60.035 11.55699
60.040 12.071749
60.045 12.713429
60.050 13.578485
60.055 14.368636
60.060 14.586674
60.065 14.339046
60.070 14.116673
60.075 14.396723
60.080 14.099743
60.085 13.271447
60.090 12.984333
60.095 12.761503
60.100 12.708212
60.105 12.756164
60.110 12.241933
60.115 12.482744
60.120 12.665387
60.125 12.559533
60.130 12.90583
60.135 13.324306
60.140 12.736851
60.145 12.449497
60.150 12.141017
60.155 12.111102
60.160 11.777455
60.165 11.364221
60.170 11.216338
60.175 11.189743
60.180 11.328978
60.185 11.554409
60.190 11.384598
60.195 11.130152
60.200 10.968141
60.205 11.374464
60.210 12.059026
60.215 12.175299
60.220 11.61706
60.225 12.119913
60.230 13.227497
60.235 13.763362
60.240 13.318853
60.245 13.204795
60.250 13.501164
60.255 14.259533
60.260 14.132067
60.265 13.553175
60.270 13.049145
60.275 12.973899
60.280 12.983618
60.285 13.051364
60.290 13.316111
60.295 13.067617
60.300 12.695722
60.305 12.74122
60.310 12.591477
60.315 12.476447
60.320 12.10056
60.325 11.541611
60.330 11.718314
60.335 12.130397
60.340 12.341528
60.345 12.689898
60.350 12.460946
60.355 12.515903
60.360 12.498037
60.365 12.555257
60.370 12.526868
60.375 12.573607
60.380 12.66335
60.385 12.951693
60.390 13.008137
60.395 13.218503
60.400 13.367402
60.405 13.297946
60.410 12.948431
60.415 12.824169
60.420 12.287533
60.425 11.985685
60.430 12.050598
60.435 11.665659
60.440 12.061071
60.445 12.060853
60.450 12.142941
60.455 12.783381
60.460 12.890177
60.465 12.336997
60.470 12.822551
60.475 12.972377
60.480 13.057311
60.485 12.856675
60.490 12.73791
60.495 13.094372
60.500 13.112603
60.505 12.985087
60.510 13.106375
60.515 13.411561
60.520 13.777539
60.525 13.809624
60.530 13.630773
60.535 13.486022
60.540 13.424294
60.545 13.212479
60.550 12.927533
60.555 12.294502
60.560 11.882714
60.565 11.551705
60.570 11.979124
60.575 11.679005
60.580 11.132382
60.585 11.022253
60.590 11.491979
60.595 11.848258
60.600 12.270616
60.605 12.327978
60.610 12.479981
60.615 12.420985
60.620 12.770555
60.625 12.253652
60.630 11.907851
60.635 12.176296
60.640 12.70321
60.645 12.818324
60.650 13.323698
60.655 13.515908
60.660 14.052367
60.665 14.359815
60.670 13.661725
60.675 13.404178
60.680 13.27218
60.685 12.549297
60.690 12.078917
60.695 12.13116
60.700 12.17077
60.705 12.404447
60.710 11.95449
60.715 11.891246
60.720 11.995619
60.725 12.423367
60.730 12.322851
60.735 12.542841
60.740 12.723004
60.745 12.617608
60.750 12.866345
60.755 13.288586
60.760 13.125651
60.765 13.414301
60.770 13.372631
60.775 13.284354
60.780 13.241118
60.785 13.235901
60.790 13.288136
60.795 13.031385
60.800 12.59559
60.805 12.182373
60.810 12.441479
60.815 13.022902
60.820 13.402545
60.825 12.909789
60.830 13.005151
60.835 12.750879
60.840 12.782892
60.845 12.552354
60.850 12.407801
60.855 12.246125
60.860 12.393495
60.865 12.401041
60.870 12.379797
60.875 12.477958
60.880 12.393563
60.885 11.605641
60.890 11.167357
60.895 11.253365
60.900 10.944366
60.905 11.504605
60.910 11.266869
60.915 11.118817
60.920 11.804511
60.925 11.9354
60.930 11.899166
60.935 11.805528
60.940 11.621352
60.945 11.67113
60.950 12.098913
60.955 12.012873
60.960 11.835039
60.965 11.541512
60.970 11.673506
60.975 11.79418
60.980 11.88366
60.985 11.832224
60.990 11.697273
60.995 11.66906
61.000 11.739285
61.005 12.189376
61.010 12.256948
61.015 12.34041
61.020 12.151136
61.025 12.349194
61.030 12.910164
61.035 13.129199
61.040 13.032809
61.045 12.953617
61.050 12.970603
61.055 13.10779
61.060 12.845286
61.065 12.770802
61.070 13.165978
61.075 12.97369
61.080 13.226191
61.085 13.365799
61.090 13.679568
61.095 13.450527
61.100 13.276598
61.105 12.682635
61.110 12.54175
61.115 12.585455
61.120 12.058544
61.125 11.686091
61.130 12.021591
61.135 12.005891
61.140 12.156823
61.145 12.474564
61.150 12.151287
61.155 12.24146
61.160 12.253852
61.165 12.177169
61.170 12.028271
61.175 12.547705
61.180 12.714653
61.185 12.638889
61.190 12.932318
61.195 13.161734
61.200 13.56629
61.205 14.074197
61.210 13.797352
61.215 13.431294
61.220 13.416167
61.225 13.455824
61.230 13.850509
61.235 13.559785
61.240 13.614159
61.245 13.425042
61.250 13.248188
61.255 13.483901
61.260 12.926913
61.265 12.864665
61.270 12.804718
61.275 12.928781
61.280 13.257598
61.285 13.466413
61.290 13.381661
61.295 13.761822
61.300 13.313289
61.305 12.811439
61.310 12.170572
61.315 12.048477
61.320 11.994073
61.325 12.061742
61.330 12.187366
61.335 12.285765
61.340 12.478402
61.345 12.230887
61.350 12.334003
61.355 12.559171
61.360 12.70326
61.365 12.353933
61.370 12.222189
61.375 12.491386
61.380 12.690455
61.385 12.234825
61.390 12.309831
61.395 12.308077
61.400 12.850373
61.405 12.676126
61.410 12.764978
61.415 13.120716
61.420 13.481569
61.425 13.013044
61.430 12.392815
61.435 12.255519
61.440 12.694368
61.445 12.229556
61.450 12.316675
61.455 12.4979
61.460 12.92804
61.465 13.086717
61.470 12.88613
61.475 12.789828
61.480 13.053586
61.485 13.106394
61.490 12.747272
61.495 12.42692
61.500 12.507901
61.505 12.652236
61.510 13.008423
61.515 13.082931
61.520 12.786263
61.525 12.890139
61.530 13.006291
61.535 12.837073
61.540 12.641388
61.545 12.048162
61.550 11.353326
61.555 11.525816
61.560 11.370229
61.565 11.411614
61.570 11.950036
61.575 12.271801
61.580 12.414772
61.585 13.20776
61.590 13.517235
61.595 13.675637
61.600 13.666858
61.605 13.37209
61.610 13.303128
61.615 13.477345
61.620 13.635027
61.625 13.232016
61.630 13.342679
61.635 13.055968
61.640 13.295945
61.645 13.713942
61.650 13.849468
61.655 13.185677
61.660 13.105259
61.665 13.443847
61.670 13.450177
61.675 12.831322
61.680 12.120831
61.685 11.659158
61.690 12.049053
61.695 12.252582
61.700 12.166122
61.705 13.055558
61.710 13.709435
61.715 13.789273
61.720 13.821754
61.725 13.859425
61.730 13.550251
61.735 13.10402
61.740 12.583407
61.745 12.446041
61.750 12.609333
61.755 12.580695
61.760 12.312497
61.765 12.534653
61.770 12.702892
61.775 12.989932
61.780 12.998228
61.785 13.161136
61.790 13.067933
61.795 13.414244
61.800 13.919966
61.805 14.254951
61.810 14.758909
61.815 14.815492
61.820 15.038678
61.825 15.563129
61.830 15.528934
61.835 15.244583
61.840 14.998622
61.845 14.403642
61.850 14.786334
61.855 14.640053
61.860 14.569066
61.865 15.162351
61.870 14.967287
61.875 15.025455
61.880 14.949119
61.885 14.615615
61.890 14.676196
61.895 14.383415
61.900 13.7163
61.905 13.982418
61.910 14.258972
61.915 14.663195
61.920 14.582154
61.925 14.116135
61.930 14.420177
61.935 14.296752
61.940 13.848236
61.945 13.102795
61.950 12.705814
61.955 13.167562
61.960 13.791924
61.965 14.124252
61.970 14.297373
61.975 14.767513
61.980 15.118205
61.985 15.137342
61.990 14.541148
61.995 14.276247
62.000 14.11019
62.005 13.971298
62.010 13.403846
62.015 13.170851
62.020 13.103864
62.025 13.652321
62.030 13.383988
62.035 13.015424
62.040 12.584916
62.045 13.334132
62.050 13.640075
62.055 13.693037
62.060 13.495078
62.065 14.05352
62.070 14.190977
62.075 14.304103
62.080 14.058624
62.085 14.249725
62.090 14.316754
62.095 14.417269
62.100 13.892071
62.105 13.897314
62.110 13.939876
62.115 14.098395
62.120 13.673439
62.125 13.671597
62.130 13.275868
62.135 13.819137
62.140 14.594638
62.145 14.857922
62.150 14.95071
62.155 15.098826
62.160 15.064127
62.165 15.281628
62.170 15.157985
62.175 14.856783
62.180 14.990423
62.185 14.693129
62.190 15.123263
62.195 15.189953
62.200 15.629898
62.205 15.169907
62.210 14.745446
62.215 14.31893
62.220 14.076542
62.225 13.736972
62.230 13.38538
62.235 12.832376
62.240 12.75489
62.245 13.001704
62.250 12.602549
62.255 12.440973
62.260 12.286405
62.265 12.870343
62.270 12.735395
62.275 12.826709
62.280 12.71443
62.285 12.695991
62.290 13.073475
62.295 12.972735
62.300 12.609944
62.305 12.646656
62.310 12.351873
62.315 12.108134
62.320 12.334746
62.325 12.372889
62.330 12.331522
62.335 12.697657
62.340 12.742689
62.345 12.75622
62.350 12.960416
62.355 13.193535
62.360 13.566138
62.365 13.863922
62.370 13.520825
62.375 13.766997
62.380 14.049105
62.385 14.257904
62.390 14.134069
62.395 13.729076
62.400 13.769858
62.405 14.001549
62.410 13.988161
62.415 14.344834
62.420 14.019602
62.425 14.046542
62.430 14.017479
62.435 13.977307
62.440 13.569994
62.445 14.037047
62.450 14.327792
62.455 14.621511
62.460 14.759413
62.465 14.77692
62.470 15.012459
62.475 15.361558
62.480 14.799067
62.485 14.178856
62.490 13.881888
62.495 14.022129
62.500 14.136613
62.505 13.393883
62.510 13.420097
62.515 13.600087
62.520 13.626944
62.525 13.837608
62.530 13.745994
62.535 13.531693
62.540 13.587692
62.545 13.46139
62.550 12.957697
62.555 13.016526
62.560 12.985528
62.565 12.958363
62.570 13.025692
62.575 13.346623
62.580 13.272644
62.585 13.467145
62.590 13.554963
62.595 13.451927
62.600 13.131834
62.605 13.369635
62.610 13.410966
62.615 13.847611
62.620 13.653912
62.625 13.779926
62.630 14.053057
62.635 14.02905
62.640 14.111809
62.645 14.148701
62.650 13.920506
62.655 14.425198
62.660 14.355911
62.665 13.779451
62.670 14.293761
62.675 14.730653
62.680 14.481747
62.685 14.266423
62.690 13.824483
62.695 14.043791
62.700 14.855169
62.705 14.504988
62.710 14.01132
62.715 14.103551
62.720 14.094593
62.725 14.221871
62.730 14.40367
62.735 14.383853
62.740 14.5788
62.745 15.012856
62.750 15.577537
62.755 16.241783
62.760 15.992641
62.765 15.643423
62.770 15.478664
62.775 15.152771
62.780 14.986693
62.785 14.40235
62.790 13.888766
62.795 14.62347
62.800 14.671776
62.805 14.480083
62.810 14.450906
62.815 14.416084
62.820 14.42845
62.825 15.037791
62.830 14.722651
62.835 14.110024
62.840 14.063593
62.845 13.775517
62.850 13.999046
62.855 13.763586
62.860 12.878962
62.865 12.376724
62.870 12.799437
62.875 13.292883
62.880 13.473977
62.885 13.267656
62.890 13.53375
62.895 13.815829
62.900 14.796862
62.905 14.704093
62.910 14.51912
62.915 14.328229
62.920 13.838967
62.925 13.770337
62.930 13.409909
62.935 12.717959
62.940 12.527162
62.945 12.862941
62.950 12.687352
62.955 13.370405
62.960 13.290531
62.965 13.561149
62.970 13.990163
62.975 14.084641
62.980 14.543794
62.985 15.29643
62.990 15.268419
62.995 15.480403
63.000 15.397696
63.005 15.302173
63.010 15.363371
63.015 14.645
63.020 14.543568
63.025 14.26123
63.030 14.150233
63.035 14.126641
63.040 14.251386
63.045 14.213561
63.050 14.236637
63.055 13.483312
63.060 13.522737
63.065 13.573062
63.070 13.903165
63.075 14.174473
63.080 14.382546
63.085 14.340549
63.090 14.544817
63.095 14.907853
63.100 14.952429
63.105 14.767863
63.110 14.549834
63.115 14.337499
63.120 14.45628
63.125 14.453006
63.130 14.229578
63.135 14.418245
63.140 14.379581
63.145 14.301111
63.150 14.073193
63.155 13.922935
63.160 14.003654
63.165 13.986976
63.170 13.523031
63.175 13.153131
63.180 13.207127
63.185 13.626912
63.190 14.204079
63.195 14.885267
63.200 15.385816
63.205 15.793118
63.210 16.173138
63.215 16.170433
63.220 15.97858
63.225 15.573264
63.230 15.142447
63.235 14.874758
63.240 14.841679
63.245 15.303315
63.250 16.031836
63.255 16.264799
63.260 16.435404
63.265 16.544008
63.270 16.873512
63.275 17.369364
63.280 16.82074
63.285 16.30625
63.290 16.040836
63.295 15.538507
63.300 15.544681
63.305 15.365986
63.310 15.18696
63.315 15.01065
63.320 15.204411
63.325 15.43353
63.330 15.543599
63.335 15.473576
63.340 15.331729
63.345 15.063726
63.350 14.797966
63.355 15.035709
63.360 15.24154
63.365 15.609859
63.370 15.308167
63.375 15.460865
63.380 15.600084
63.385 15.368445
63.390 14.459351
63.395 14.318263
63.400 13.940297
63.405 14.158174
63.410 13.833903
63.415 13.622433
63.420 14.146093
63.425 14.223731
63.430 14.356606
63.435 14.662218
63.440 14.35452
63.445 14.018847
63.450 14.592487
63.455 14.691598
63.460 14.717916
63.465 14.619311
63.470 14.629716
63.475 14.912511
63.480 14.914316
63.485 14.58677
63.490 14.647098
63.495 14.846103
63.500 15.211641
63.505 15.190268
63.510 15.270549
63.515 16.125395
63.520 16.153898
63.525 16.528276
63.530 16.067863
63.535 15.754732
63.540 15.588269
63.545 15.892674
63.550 15.589286
63.555 15.587451
63.560 15.230822
63.565 15.502558
63.570 15.675639
63.575 16.225029
63.580 15.601546
63.585 15.292397
63.590 15.325879
63.595 15.395737
63.600 14.989327
63.605 14.625891
63.610 14.268389
63.615 14.645617
63.620 15.09277
63.625 15.090173
63.630 15.165648
63.635 15.398799
63.640 15.383008
63.645 15.24732
63.650 15.193098
63.655 14.9196
63.660 15.387768
63.665 16.021191
63.670 16.120592
63.675 15.921821
63.680 15.787251
63.685 16.020559
63.690 15.996691
63.695 15.498781
63.700 15.249129
63.705 14.949475
63.710 15.18755
63.715 15.461844
63.720 15.701591
63.725 15.92813
63.730 15.696474
63.735 15.785913
63.740 16.595879
63.745 16.979815
63.750 17.039482
63.755 16.805075
63.760 17.075951
63.765 17.272455
63.770 17.07181
63.775 16.613089
63.780 16.484257
63.785 16.180334
63.790 16.472267
63.795 16.049313
63.800 15.932322
63.805 16.127636
63.810 16.579388
63.815 16.990854
63.820 17.522625
63.825 17.342251
63.830 17.921227
63.835 18.292877
63.840 18.37977
63.845 18.502701
63.850 18.893089
63.855 19.222229
63.860 19.36923
63.865 19.230305
63.870 19.283571
63.875 19.532614
63.880 19.505957
63.885 19.177444
63.890 18.826054
63.895 18.809668
63.900 18.735371
63.905 18.53969
63.910 18.459915
63.915 18.789803
63.920 19.284105
63.925 19.509975
63.930 19.656916
63.935 20.649025
63.940 21.419624
63.945 21.604628
63.950 21.788315
63.955 22.198238
63.960 22.801025
63.965 22.793289
63.970 22.682604
63.975 22.480404
63.980 22.738659
63.985 22.820686
63.990 22.319204
63.995 22.617781
64.000 22.810469
64.005 22.800087
64.010 22.839354
64.015 23.523335
64.020 24.205627
64.025 24.680389
64.030 24.412479
64.035 24.714523
64.040 24.317751
64.045 24.420691
64.050 24.242863
64.055 23.647982
64.060 23.413698
64.065 23.490032
64.070 23.797771
64.075 24.183853
64.080 24.786751
64.085 24.525864
64.090 24.197968
64.095 24.997648
64.100 25.496778
64.105 25.506227
64.110 25.346348
64.115 24.737764
64.120 25.144529
64.125 25.128698
64.130 23.898144
64.135 23.365921
64.140 23.425507
64.145 23.495255
64.150 23.263449
64.155 23.015575
64.160 23.686775
64.165 24.327732
64.170 24.387821
64.175 23.840189
64.180 23.680099
64.185 23.894894
64.190 23.671797
64.195 22.937941
64.200 22.655758
64.205 22.651077
64.210 22.769709
64.215 22.719034
64.220 22.424997
64.225 22.00034
64.230 22.276743
64.235 22.165771
64.240 22.257429
64.245 22.209011
64.250 22.611362
64.255 23.366859
64.260 23.527531
64.265 23.471035
64.270 23.762907
64.275 23.576094
64.280 23.743746
64.285 23.494497
64.290 23.477461
64.295 23.798197
64.300 23.784451
64.305 23.972898
64.310 23.935713
64.315 23.922773
64.320 23.493998
64.325 22.992689
64.330 23.145678
64.335 22.584274
64.340 22.503124
64.345 22.663502
64.350 22.864885
64.355 22.960827
64.360 23.472298
64.365 22.982962
64.370 23.32843
64.375 23.067659
64.380 22.957664
64.385 22.623121
64.390 22.810909
64.395 22.085688
64.400 22.38818
64.405 22.452557
64.410 22.172379
64.415 21.365152
64.420 21.576456
64.425 21.656685
64.430 22.228792
64.435 21.606377
64.440 21.118347
64.445 20.754498
64.450 21.019516
64.455 21.112453
64.460 21.412525
64.465 21.006565
64.470 21.009222
64.475 20.944464
64.480 21.045887
64.485 21.006512
64.490 20.149523
64.495 19.571167
64.500 19.099718
64.505 19.416685
64.510 19.805222
64.515 19.575258
64.520 19.744215
64.525 20.07287
64.530 19.806391
64.535 20.044477
64.540 19.48193
64.545 18.990149
64.550 19.156151
64.555 18.703213
64.560 18.563591
64.565 18.270361
64.570 18.207865
64.575 18.976225
64.580 19.034307
64.585 18.690952
64.590 18.094662
64.595 17.600334
64.600 17.854118
64.605 17.566387
64.610 16.816816
64.615 16.97006
64.620 17.096733
64.625 17.783466
64.630 18.3762
64.635 18.151506
64.640 18.495398
64.645 18.726824
64.650 18.817961
64.655 18.874514
64.660 18.978327
64.665 19.203598
64.670 19.582653
64.675 18.863029
64.680 18.485003
64.685 18.126986
64.690 17.910368
64.695 17.810335
64.700 17.91218
64.705 18.39118
64.710 18.837463
64.715 18.863794
64.720 18.86904
64.725 19.42321
64.730 19.25305
64.735 18.873417
64.740 17.837059
64.745 17.981997
64.750 18.334139
64.755 18.343719
64.760 17.510906
64.765 17.411606
64.770 17.342655
64.775 17.884619
64.780 17.378347
64.785 17.133171
64.790 16.896145
64.795 17.024202
64.800 16.843258
64.805 16.954725
64.810 16.709454
64.815 16.95727
64.820 17.520483
64.825 18.482323
64.830 18.848808
64.835 18.933554
64.840 18.452835
64.845 18.916138
64.850 18.845444
64.855 18.551798
64.860 18.547808
64.865 18.424994
64.870 18.835833
64.875 18.858564
64.880 18.305296
64.885 18.170601
64.890 18.14813
64.895 18.009912
64.900 18.485931
64.905 18.786757
64.910 19.764141
64.915 20.471256
64.920 20.886044
64.925 20.449215
64.930 20.002279
64.935 19.567289
64.940 19.019695
64.945 19.001276
64.950 18.581026
64.955 18.198662
64.960 18.823912
64.965 19.619415
64.970 20.212894
64.975 19.913334
64.980 19.561699
64.985 19.815752
64.990 19.938347
64.995 19.708853
65.000 19.141178
65.005 18.739525
65.010 18.734028
65.015 18.057549
65.020 18.274675
65.025 18.410051
65.030 18.443951
65.035 19.012163
65.040 19.839525
65.045 20.220156
65.050 20.582657
65.055 20.094326
65.060 20.126648
65.065 20.077847
65.070 20.135408
65.075 20.094992
65.080 20.379812
65.085 20.553953
65.090 21.016428
65.095 21.450209
65.100 21.532352
65.105 21.906754
65.110 21.23982
65.115 20.887888
65.120 20.919878
65.125 20.210316
65.130 19.945621
65.135 20.194288
65.140 19.623886
65.145 19.573744
65.150 19.856142
65.155 20.198893
65.160 20.493519
65.165 20.727942
65.170 20.776897
65.175 20.671806
65.180 20.695518
65.185 20.114847
65.190 19.538218
65.195 19.056955
65.200 18.729536
65.205 17.931318
65.210 17.723518
65.215 18.079676
65.220 18.362463
65.225 18.516148
65.230 19.032583
65.235 19.782518
65.240 20.297579
65.245 20.890841
65.250 20.779419
65.255 21.009874
65.260 21.329504
65.265 21.239799
65.270 20.573793
65.275 19.747501
65.280 19.323008
65.285 19.197279
65.290 18.610516
65.295 18.451458
65.300 18.29121
65.305 17.699032
65.310 18.289474
65.315 18.450436
65.320 18.461567
65.325 18.683577
65.330 18.651201
65.335 18.185238
65.340 17.960522
65.345 17.680475
65.350 17.425827
65.355 17.272552
65.360 17.614
65.365 17.979624
65.370 18.799147
65.375 19.171326
65.380 18.566149
65.385 18.609367
65.390 18.833939
65.395 18.843397
65.400 18.712044
65.405 18.563345
65.410 18.766296
65.415 19.221048
65.420 19.289557
65.425 19.165802
65.430 18.9729
65.435 18.687796
65.440 18.51721
65.445 19.064966
65.450 19.158829
65.455 19.165854
65.460 19.289215
65.465 19.379793
65.470 19.38254
65.475 19.236351
65.480 18.420301
65.485 18.15115
65.490 18.086813
65.495 17.8197
65.500 17.89756
65.505 17.548962
65.510 16.995218
65.515 16.819115
65.520 16.621094
65.525 16.405825
65.530 16.675283
65.535 16.58
65.540 16.536226
65.545 17.077761
65.550 17.272236
65.555 17.597805
65.560 17.850983
65.565 17.673359
65.570 17.737242
65.575 18.477051
65.580 18.466093
65.585 18.370739
65.590 18.856857
65.595 18.625303
65.600 18.423864
65.605 18.405828
65.610 17.953344
65.615 18.154741
65.620 18.703335
65.625 18.403467
65.630 18.635498
65.635 18.719816
65.640 19.174122
65.645 20.0154
65.650 20.527807
65.655 20.936422
65.660 20.457512
65.665 20.258307
65.670 20.694567
65.675 20.537073
65.680 20.085531
65.685 19.869791
65.690 19.50709
65.695 20.212576
65.700 20.542271
65.705 19.97333
65.710 20.070791
65.715 20.332836
65.720 20.683455
65.725 20.580326
65.730 20.448767
65.735 20.531544
65.740 20.57395
65.745 20.694176
65.750 21.101196
65.755 20.978447
65.760 20.878336
65.765 21.478073
65.770 21.651337
65.775 22.08407
65.780 22.073576
65.785 21.442814
65.790 21.517103
65.795 22.483477
65.800 22.796549
65.805 22.767044
65.810 22.738188
65.815 22.836529
65.820 23.527328
65.825 23.917366
65.830 23.803385
65.835 23.426239
65.840 23.814327
65.845 24.039684
65.850 23.907825
65.855 24.084318
65.860 24.667389
65.865 24.918118
65.870 25.48353
65.875 25.497086
65.880 25.902666
65.885 25.886377
65.890 25.418562
65.895 24.62454
65.900 23.787083
65.905 23.631691
65.910 23.585751
65.915 23.658939
65.920 24.261396
65.925 25.083141
65.930 25.957363
65.935 26.369345
65.940 26.363535
65.945 26.662878
65.950 26.509001
65.955 26.359041
65.960 26.897552
65.965 26.931694
65.970 26.988159
65.975 26.715435
65.980 26.520111
65.985 26.209948
65.990 25.938614
65.995 25.026304
66.000 25.26656
66.005 25.266321
66.010 25.149628
66.015 25.749857
66.020 26.734026
66.025 27.502893
66.030 27.796833
66.035 27.799221
66.040 28.271933
66.045 28.672174
66.050 28.536066
66.055 28.149321
66.060 28.379906
66.065 29.128473
66.070 28.998039
66.075 29.393496
66.080 29.73975
66.085 30.293417
66.090 30.652317
66.095 30.791216
66.100 30.973148
66.105 31.12281
66.110 30.638494
66.115 30.631002
66.120 30.336111
66.125 30.447466
66.130 30.028803
66.135 28.869436
66.140 28.967567
66.145 29.682066
66.150 29.568146
66.155 29.839024
66.160 30.08601
66.165 30.008892
66.170 30.622999
66.175 30.540819
66.180 30.608513
66.185 30.496531
66.190 29.75675
66.195 29.670404
66.200 30.107506
66.205 29.761652
66.210 29.507284
66.215 29.745556
66.220 29.771542
66.225 28.914024
66.230 28.429415
66.235 28.417463
66.240 28.325565
66.245 28.959791
66.250 28.959774
66.255 29.121647
66.260 29.366592
66.265 29.199671
66.270 28.934116
66.275 28.569826
66.280 27.147495
66.285 26.620829
66.290 26.733669
66.295 26.473768
66.300 25.973652
66.305 25.544586
66.310 26.149334
66.315 26.683567
66.320 26.563005
66.325 26.426069
66.330 26.591158
66.335 26.255543
66.340 26.382078
66.345 25.658077
66.350 24.893309
66.355 25.042906
66.360 25.079897
66.365 25.349228
66.370 25.187307
66.375 24.565762
66.380 24.540529
66.385 25.132154
66.390 25.123718
66.395 24.883986
66.400 25.097754
66.405 25.721195
66.410 25.561588
66.415 25.631918
66.420 25.102871
66.425 24.531208
66.430 24.273844
66.435 23.302414
66.440 22.989321
66.445 23.136221
66.450 22.772242
66.455 22.196272
66.460 21.926117
66.465 21.809965
66.470 22.255306
66.475 21.865072
66.480 21.895433
66.485 21.890173
66.490 22.181561
66.495 22.551537
66.500 22.191765
66.505 21.898106
66.510 21.490936
66.515 21.24803
66.520 20.887205
66.525 20.839827
66.530 21.034519
66.535 20.89253
66.540 20.638773
66.545 20.564968
66.550 20.302794
66.555 20.4645
66.560 19.814583
66.565 19.288279
66.570 19.220531
66.575 19.180353
66.580 19.46455
66.585 19.366554
66.590 19.113768
66.595 18.985611
66.600 18.416218
66.605 18.511003
66.610 18.179487
66.615 17.343653
66.620 17.043741
66.625 17.339773
66.630 17.489063
66.635 17.725845
66.640 17.259338
66.645 17.145937
66.650 17.234053
66.655 16.926926
66.660 15.766427
66.665 16.100637
66.670 16.046131
66.675 16.937494
66.680 17.415321
66.685 17.792887
66.690 18.147009
66.695 18.566912
66.700 18.060478
66.705 17.965424
66.710 17.547205
66.715 16.779453
66.720 16.612452
66.725 16.77566
66.730 16.838062
66.735 16.557209
66.740 16.404434
66.745 16.246611
66.750 16.879187
66.755 16.813154
66.760 16.58544
66.765 16.585382
66.770 16.714386
66.775 16.923399
66.780 17.681278
66.785 17.32691
66.790 17.454557
66.795 17.638929
66.800 17.275768
66.805 17.435081
66.810 16.649378
66.815 16.149567
66.820 15.922139
66.825 15.793531
66.830 15.663448
66.835 16.275723
66.840 15.975185
66.845 16.102156
66.850 16.241533
66.855 16.724628
66.860 16.379072
66.865 16.759296
66.870 16.458773
66.875 16.775427
66.880 16.98037
66.885 16.870796
66.890 16.542793
66.895 16.20381
66.900 15.106165
66.905 14.792186
66.910 14.684801
66.915 14.700953
66.920 14.95726
66.925 14.944587
66.930 15.245394
66.935 15.398425
66.940 15.104439
66.945 14.979601
66.950 14.976919
66.955 15.040374
66.960 15.424678
66.965 15.719363
66.970 16.073122
66.975 16.627043
66.980 17.422745
66.985 17.095133
66.990 16.675179
66.995 16.038076
67.000 15.699673
67.005 15.927991
67.010 15.664601
67.015 15.412489
67.020 15.753343
67.025 16.150555
67.030 16.645668
67.035 17.489841
67.040 17.386082
67.045 17.32213
67.050 16.949526
67.055 16.388378
67.060 16.515005
67.065 16.38916
67.070 15.59222
67.075 16.290869
67.080 16.622234
67.085 16.717325
67.090 16.612951
67.095 15.919401
67.100 15.623448
67.105 15.107799
67.110 14.020604
67.115 13.728156
67.120 14.040238
67.125 14.17868
67.130 14.574019
67.135 15.301561
67.140 16.000933
67.145 16.767952
67.150 17.650213
67.155 17.522717
67.160 17.592886
67.165 17.081852
67.170 16.979151
67.175 16.548679
67.180 16.055771
67.185 15.243946
67.190 15.575
67.195 15.575093
67.200 15.571802
67.205 15.137989
67.210 15.65265
67.215 16.396442
67.220 16.365377
67.225 16.179417
67.230 16.348738
67.235 16.695457
67.240 16.767653
67.245 16.431463
67.250 16.133455
67.255 16.558369
67.260 16.656057
67.265 16.946291
67.270 17.222977
67.275 17.101654
67.280 17.461132
67.285 17.506836
67.290 17.109644
67.295 17.069542
67.300 16.539799
67.305 16.175882
67.310 16.455475
67.315 15.906385
67.320 15.371268
67.325 15.23447
67.330 14.632277
67.335 14.488703
67.340 14.541047
67.345 14.690391
67.350 15.714464
67.355 16.447945
67.360 16.647652
67.365 17.184736
67.370 17.172157
67.375 16.972977
67.380 16.421549
67.385 15.759415
67.390 15.523499
67.395 15.534553
67.400 15.78533
67.405 15.645571
67.410 16.146273
67.415 16.276762
67.420 16.216944
67.425 15.938261
67.430 16.125875
67.435 16.476883
67.440 17.038975
67.445 17.394426
67.450 17.948185
67.455 18.470697
67.460 17.946068
67.465 17.386723
67.470 16.892021
67.475 16.634176
67.480 16.261831
67.485 15.780588
67.490 15.517335
67.495 16.5093
67.500 16.986992
67.505 16.802525
67.510 16.960136
67.515 16.699505
67.520 16.986452
67.525 17.072563
67.530 16.191097
67.535 15.736907
67.540 15.613218
67.545 15.462201
67.550 15.7749
67.555 15.336446
67.560 15.459499
67.565 15.797866
67.570 15.971923
67.575 16.627441
67.580 16.885136
67.585 16.974579
67.590 17.026091
67.595 17.021761
67.600 16.573496
67.605 16.912172
67.610 16.60651
67.615 16.429232
67.620 16.094246
67.625 15.965864
67.630 16.084574
67.635 16.266047
67.640 15.701407
67.645 15.638486
67.650 15.453842
67.655 15.786691
67.660 15.388811
67.665 15.124932
67.670 15.331685
67.675 15.833355
67.680 15.431583
67.685 15.44606
67.690 15.286315
67.695 15.61784
67.700 15.75903
67.705 15.651092
67.710 15.793053
67.715 16.236088
67.720 16.227057
67.725 16.251276
67.730 17.089579
67.735 17.205109
67.740 17.339149
67.745 16.942406
67.750 16.816137
67.755 16.663855
67.760 16.595839
67.765 16.250458
67.770 16.282162
67.775 16.275095
67.780 16.747665
67.785 16.477411
67.790 16.625858
67.795 16.422541
67.800 16.77557
67.805 16.736166
67.810 16.484652
67.815 16.562605
67.820 17.084467
67.825 17.105539
67.830 16.864319
67.835 15.921558
67.840 15.738235
67.845 15.973042
67.850 15.656915
67.855 15.323588
67.860 15.518994
67.865 15.850523
67.870 16.409178
67.875 16.613218
67.880 16.658022
67.885 17.133141
67.890 17.151188
67.895 17.04217
67.900 17.440697
67.905 17.564257
67.910 17.25033
67.915 17.339268
67.920 17.058868
67.925 17.435547
67.930 17.38533
67.935 17.162741
67.940 17.248352
67.945 17.528477
67.950 17.429976
67.955 17.602057
67.960 16.906443
67.965 17.040195
67.970 16.602171
67.975 16.216953
67.980 16.012308
67.985 15.983026
67.990 16.093878
67.995 16.687786
68.000 15.837303
68.005 16.227316
68.010 16.539379
68.015 16.419905
68.020 15.959638
68.025 15.442347
68.030 15.263446
68.035 16.28587
68.040 16.227514
68.045 16.454882
68.050 16.894014
68.055 17.060223
68.060 17.106047
68.065 16.608416
68.070 16.218769
68.075 15.915062
68.080 15.721117
68.085 15.869402
68.090 15.918439
68.095 16.237329
68.100 17.052914
68.105 17.252649
68.110 16.857395
68.115 17.103252
68.120 16.705084
68.125 17.151373
68.130 16.931063
68.135 16.243996
68.140 16.291708
68.145 16.278124
68.150 16.194164
68.155 16.081253
68.160 15.399384
68.165 15.57127
68.170 15.560968
68.175 15.656197
68.180 15.593153
68.185 15.613127
68.190 16.427883
68.195 16.504499
68.200 16.291136
68.205 16.482683
68.210 15.925222
68.215 16.062677
68.220 15.959822
68.225 15.746209
68.230 16.360361
68.235 16.557692
68.240 16.796566
68.245 17.927946
68.250 18.344303
68.255 18.392609
68.260 18.274443
68.265 17.917143
68.270 17.871181
68.275 17.637455
68.280 17.033997
68.285 16.442711
68.290 16.456636
68.295 15.962852
68.300 16.380377
68.305 16.304895
68.310 16.233131
68.315 16.170494
68.320 16.365181
68.325 16.109818
68.330 15.915444
68.335 15.860865
68.340 15.886376
68.345 15.831758
68.350 16.12464
68.355 16.095894
68.360 16.143803
68.365 16.143713
68.370 15.965731
68.375 15.505939
68.380 15.376519
68.385 15.513742
68.390 15.406641
68.395 16.290115
68.400 16.943233
68.405 17.376129
68.410 17.787792
68.415 17.159657
68.420 16.594633
68.425 16.549057
68.430 15.683584
68.435 15.196714
68.440 15.162671
68.445 15.444297
68.450 16.21636
68.455 16.299625
68.460 16.092876
68.465 16.451101
68.470 16.728037
68.475 17.022581
68.480 16.643278
68.485 16.497879
68.490 16.953974
68.495 17.000347
68.500 16.04616
68.505 15.150962
68.510 14.870351
68.515 15.217923
68.520 15.907261
68.525 16.122189
68.530 16.131155
68.535 17.317698
68.540 17.796124
68.545 17.713249
68.550 17.671965
68.555 17.299902
68.560 17.059772
68.565 17.033033
68.570 16.759277
68.575 17.075031
68.580 17.421831
68.585 17.664604
68.590 17.263046
68.595 17.534578
68.600 17.88797
68.605 17.792561
68.610 17.507767
68.615 17.324762
68.620 17.039137
68.625 17.327669
68.630 17.67371
68.635 17.655254
68.640 18.268297
68.645 18.31679
68.650 17.998852
68.655 17.818413
68.660 18.178261
68.665 17.760418
68.670 17.730297
68.675 17.329712
68.680 17.296724
68.685 17.981142
68.690 18.243971
68.695 18.012468
68.700 17.953421
68.705 17.861942
68.710 18.35313
68.715 18.410862
68.720 18.762421
68.725 18.844416
68.730 18.926657
68.735 19.490337
68.740 19.217192
68.745 18.782007
68.750 18.52952
68.755 17.760267
68.760 17.88389
68.765 17.943935
68.770 18.01672
68.775 18.54044
68.780 19.046764
68.785 19.179844
68.790 19.065931
68.795 18.949032
68.800 18.708288
68.805 18.277544
68.810 18.184788
68.815 18.545229
68.820 18.747618
68.825 19.031071
68.830 18.720316
68.835 18.827269
68.840 19.10891
68.845 18.598808
68.850 18.579163
68.855 19.395805
68.860 19.541857
68.865 20.059507
68.870 20.494791
68.875 21.087774
68.880 21.479158
68.885 21.020584
68.890 20.358944
68.895 20.204113
68.900 20.41905
68.905 20.506584
68.910 19.915115
68.915 19.431742
68.920 19.571657
68.925 19.769903
68.930 20.197905
68.935 19.85323
68.940 19.702127
68.945 19.538599
68.950 20.003414
68.955 20.454634
68.960 20.980656
68.965 21.202232
68.970 21.698416
68.975 22.562717
68.980 23.251705
68.985 23.45307
68.990 23.260365
68.995 22.981005
69.000 23.390142
69.005 23.57398
69.010 23.586599
69.015 23.444944
69.020 23.714745
69.025 24.285379
69.030 24.74316
69.035 24.62665
69.040 24.487261
69.045 24.706701
69.050 25.042078
69.055 24.141479
69.060 23.420198
69.065 23.694807
69.070 23.777155
69.075 24.241255
69.080 24.02248
69.085 23.94314
69.090 24.883196
69.095 24.83654
69.100 25.320229
69.105 26.004063
69.110 26.550749
69.115 26.94676
69.120 27.386475
69.125 27.987076
69.130 27.83131
69.135 27.190527
69.140 27.396635
69.145 27.41795
69.150 27.749777
69.155 28.293573
69.160 28.197168
69.165 28.577614
69.170 28.253073
69.175 27.8368
69.180 28.198385
69.185 28.108084
69.190 27.313501
69.195 27.735788
69.200 27.611998
69.205 28.237751
69.210 27.828918
69.215 26.856846
69.220 27.146049
69.225 27.076162
69.230 26.523024
69.235 26.100334
69.240 25.623234
69.245 26.682655
69.250 26.831795
69.255 27.15428
69.260 27.304426
69.265 27.552759
69.270 28.636896
69.275 28.141054
69.280 27.942482
69.285 28.429129
69.290 28.303709
69.295 28.797613
69.300 29.157257
69.305 29.195646
69.310 29.694952
69.315 29.373674
69.320 28.713192
69.325 28.11894
69.330 27.503847
69.335 26.839357
69.340 26.369335
69.345 26.809521
69.350 26.689337
69.355 26.816082
69.360 27.559574
69.365 28.37009
69.370 28.376566
69.375 27.539711
69.380 26.927044
69.385 27.477201
69.390 27.276035
69.395 26.449051
69.400 26.335657
69.405 25.841509
69.410 26.646572
69.415 26.67882
69.420 25.787401
69.425 26.08794
69.430 26.543545
69.435 26.503067
69.440 26.866779
69.445 27.231073
69.450 27.478781
69.455 27.367641
69.460 26.633556
69.465 26.118132
69.470 26.036644
69.475 26.213316
69.480 25.806591
69.485 25.726307
69.490 25.916153
69.495 25.982592
69.500 25.487013
69.505 25.182959
69.510 24.480314
69.515 24.041811
69.520 23.684864
69.525 23.602797
69.530 23.55785
69.535 23.931227
69.540 23.87495
69.545 24.106195
69.550 24.166592
69.555 24.595549
69.560 24.203781
69.565 23.748283
69.570 23.94067
69.575 24.50391
69.580 24.875565
69.585 24.608683
69.590 23.455681
69.595 23.472612
69.600 23.046684
69.605 22.412468
69.610 21.876783
69.615 20.9177
69.620 20.681873
69.625 21.304476
69.630 21.048569
69.635 21.103233
69.640 21.023808
69.645 20.571159
69.650 20.983919
69.655 21.386772
69.660 21.051445
69.665 21.466221
69.670 21.383219
69.675 21.783384
69.680 22.231339
69.685 22.336624
69.690 21.867376
69.695 21.747276
69.700 21.57081
69.705 21.550838
69.710 21.691916
69.715 20.612818
69.720 20.154764
69.725 19.888321
69.730 20.533833
69.735 20.89303
69.740 20.57865
69.745 20.286598
69.750 20.62586
69.755 20.969658
69.760 21.85564
69.765 21.458551
69.770 21.36944
69.775 20.816473
69.780 20.567284
69.785 20.272547
69.790 19.722443
69.795 18.971163
69.800 18.142155
69.805 17.954769
69.810 18.242285
69.815 18.515791
69.820 18.883526
69.825 19.180222
69.830 19.582861
69.835 20.179213
69.840 20.16625
69.845 20.76185
69.850 20.552458
69.855 20.332048
69.860 20.445906
69.865 20.121872
69.870 19.811769
69.875 19.661921
69.880 18.945774
69.885 19.149714
69.890 19.041817
69.895 18.379408
69.900 17.897308
69.905 17.328405
69.910 16.73592
69.915 16.943768
69.920 16.900017
69.925 16.566608
69.930 16.3862
69.935 16.522722
69.940 17.174412
69.945 17.661331
69.950 17.372887
69.955 16.751139
69.960 16.997128
69.965 18.019108
69.970 18.30439
69.975 17.794481
69.980 17.510267
69.985 17.529577
69.990 17.522354
69.995 17.17135
70.000 16.83033
70.005 16.72526
70.010 16.527027
70.015 17.040985
70.020 17.349024
70.025 17.407806
70.030 17.39064
70.035 16.819925
70.040 16.842869
70.045 16.956764
70.050 16.544554
70.055 16.641859
70.060 16.870207
70.065 16.780136
70.070 16.84837
70.075 17.253645
70.080 17.294365
70.085 17.277349
70.090 17.662153
70.095 17.478371
70.100 17.746721
70.105 18.691196
70.110 18.571049
70.115 18.981174
70.120 18.655458
70.125 18.550871
70.130 19.15168
70.135 18.383402
70.140 17.604387
70.145 17.576548
70.150 17.888683
70.155 18.625074
70.160 18.074522
70.165 17.922918
70.170 17.808283
70.175 17.14399
70.180 17.633757
70.185 17.444458
70.190 16.906073
70.195 17.008966
70.200 16.69079
70.205 16.821207
70.210 17.187862
70.215 16.473007
70.220 16.139456
70.225 16.196598
70.230 16.21883
70.235 16.707159
70.240 16.831913
70.245 17.065479
70.250 16.782722
70.255 16.654715
70.260 16.977383
70.265 17.32235
70.270 17.453207
70.275 17.570766
70.280 16.645184
70.285 16.781511
70.290 17.002613
70.295 16.632608
70.300 16.357389
70.305 16.218163
70.310 16.024561
70.315 16.762163
70.320 16.537338
70.325 16.779709
70.330 16.564327
70.335 16.56447
70.340 16.542311
70.345 16.841261
70.350 16.661039
70.355 16.699306
70.360 15.87298
70.365 16.20924
70.370 16.251165
70.375 15.96619
70.380 15.761839
70.385 15.758427
70.390 15.972375
70.395 16.713354
70.400 16.195229
70.405 16.063499
70.410 16.013403
70.415 16.113842
70.420 16.027758
70.425 15.800457
70.430 15.459777
70.435 15.314785
70.440 15.237799
70.445 15.334805
70.450 15.145528
70.455 15.307236
70.460 15.139977
70.465 15.414238
70.470 15.72913
70.475 16.376415
70.480 16.071768
70.485 16.018682
70.490 16.101416
70.495 16.685528
70.500 16.580971
70.505 16.548382
70.510 16.614531
70.515 16.993364
70.520 17.360785
70.525 17.819595
70.530 17.375292
70.535 17.409676
70.540 17.276577
70.545 16.95785
70.550 17.568752
70.555 17.783955
70.560 17.208414
70.565 17.392698
70.570 17.1759
70.575 17.100208
70.580 16.561794
70.585 16.03968
70.590 16.021484
70.595 16.38555
70.600 16.195791
70.605 16.208893
70.610 16.097664
70.615 16.585421
70.620 16.563211
70.625 15.997603
70.630 15.977851
70.635 16.351011
70.640 16.85215
70.645 17.033419
70.650 16.781788
70.655 17.038147
70.660 16.999014
70.665 16.409904
70.670 16.220207
70.675 16.302841
70.680 16.203955
70.685 15.524426
70.690 15.67762
70.695 15.772111
70.700 15.928895
70.705 15.467435
70.710 15.25132
70.715 15.737086
70.720 16.117119
70.725 16.138327
70.730 16.002832
70.735 16.369358
70.740 16.769789
70.745 16.515169
70.750 16.62244
70.755 16.300644
70.760 15.55699
70.765 15.681851
70.770 16.170872
70.775 16.041397
70.780 15.950514
70.785 15.868046
70.790 15.657448
70.795 15.493108
70.800 15.343302
70.805 14.836079
70.810 14.931097
70.815 15.121707
70.820 15.684895
70.825 16.275627
70.830 16.486641
70.835 15.935101
70.840 15.802251
70.845 15.636924
70.850 14.961546
70.855 14.205186
70.860 14.003434
70.865 14.235486
70.870 14.769811
70.875 14.886634
70.880 14.986742
70.885 15.436422
70.890 15.660945
70.895 15.911129
70.900 16.379425
70.905 16.219072
70.910 16.149593
70.915 16.356146
70.920 16.072981
70.925 16.695354
70.930 16.932644
70.935 16.962822
70.940 17.266354
70.945 17.732414
70.950 17.704632
70.955 18.0804
70.960 17.391607
70.965 17.027533
70.970 16.933453
70.975 16.957624
70.980 16.53899
70.985 16.664698
70.990 16.528337
70.995 16.872288
71.000 16.639629
71.005 16.496056
71.010 16.248949
71.015 16.185307
71.020 15.924239
71.025 15.709407
71.030 15.92013
71.035 16.180653
71.040 16.090862
71.045 16.208155
71.050 16.452023
71.055 17.070072
71.060 16.708986
71.065 16.022133
71.070 15.531937
71.075 15.624315
71.080 15.455896
71.085 15.528627
71.090 15.515977
71.095 16.109421
71.100 16.897575
71.105 17.340689
71.110 16.953289
71.115 16.659092
71.120 16.129841
71.125 15.391195
71.130 14.873762
71.135 14.419219
71.140 14.23796
71.145 14.541264
71.150 14.981783
71.155 15.386608
71.160 16.166744
71.165 16.507952
71.170 16.68589
71.175 17.062668
71.180 17.014868
71.185 16.883991
71.190 16.919952
71.195 16.983366
71.200 17.077835
71.205 17.053583
71.210 17.006645
71.215 17.001123
71.220 17.041275
71.225 17.016794
71.230 16.92738
71.235 17.219339
71.240 17.157667
71.245 17.090672
71.250 17.320591
71.255 17.020706
71.260 16.459051
71.265 17.041651
71.270 16.720692
71.275 16.549534
71.280 16.667549
71.285 16.856274
71.290 17.086182
71.295 16.444401
71.300 15.560172
71.305 15.820412
71.310 15.648878
71.315 14.995885
71.320 14.706803
71.325 14.908653
71.330 14.868093
71.335 14.387279
71.340 14.553567
71.345 15.278104
71.350 15.62685
71.355 15.609919
71.360 15.385521
71.365 15.586246
71.370 15.414978
71.375 15.391436
71.380 15.004627
71.385 14.865927
71.390 15.011821
71.395 15.164191
71.400 15.817142
71.405 16.084471
71.410 15.787396
71.415 15.721311
71.420 15.613925
71.425 15.504769
71.430 15.616265
71.435 15.14222
71.440 14.779443
71.445 14.384196
71.450 14.485673
71.455 14.954178
71.460 14.785426
71.465 14.533874
71.470 15.232632
71.475 15.042125
71.480 14.706639
71.485 14.191952
71.490 14.176473
71.495 14.554235
71.500 14.556006
71.505 14.580262
71.510 14.826253
71.515 15.630752
71.520 15.991749
71.525 15.767602
71.530 15.761883
71.535 15.662584
71.540 15.5891
71.545 15.385918
71.550 15.338145
71.555 15.319772
71.560 15.284643
71.565 15.488151
71.570 15.856557
71.575 16.114229
71.580 16.438316
71.585 15.935921
71.590 15.813905
71.595 15.683762
71.600 15.585769
71.605 15.88473
71.610 15.966589
71.615 15.72262
71.620 15.696829
71.625 15.598205
71.630 15.676751
71.635 15.793928
71.640 15.454986
71.645 15.513795
71.650 15.602955
71.655 15.866282
71.660 16.119719
71.665 16.2363
71.670 16.225733
71.675 16.017313
71.680 16.160368
71.685 16.879776
71.690 17.19339
71.695 17.119833
71.700 17.191605
71.705 17.283634
71.710 17.680202
71.715 17.687851
71.720 17.65967
71.725 17.383717
71.730 17.431627
71.735 17.439152
71.740 17.528242
71.745 17.162733
71.750 17.081673
71.755 17.332403
71.760 17.658403
71.765 17.598927
71.770 17.322594
71.775 16.983198
71.780 16.892357
71.785 15.898669
71.790 15.34644
71.795 14.739244
71.800 14.473793
71.805 14.172215
71.810 14.24987
71.815 14.29894
71.820 14.126486
71.825 14.375175
71.830 14.621999
71.835 15.048182
71.840 15.451388
71.845 15.057816
71.850 15.209061
71.855 15.123093
71.860 14.838133
71.865 14.909803
71.870 14.627856
71.875 14.682377
71.880 14.677505
71.885 15.232861
71.890 15.397618
71.895 15.296625
71.900 15.175097
71.905 14.987042
71.910 15.687057
71.915 15.864499
71.920 16.337652
71.925 16.623295
71.930 16.867579
71.935 16.795191
71.940 16.381617
71.945 16.26162
71.950 15.719487
71.955 15.971386
71.960 15.761665
71.965 16.235884
71.970 16.789717
71.975 16.776903
71.980 16.907833
71.985 17.327522
71.990 17.271912
71.995 16.529564
72.000 15.921068
72.005 15.829113
72.010 15.739938
72.015 15.068642
72.020 14.864637
72.025 15.094818
72.030 15.479815
72.035 15.61869
72.040 15.833657
72.045 15.958902
72.050 16.596386
72.055 16.337959
72.060 16.224382
72.065 16.128229
72.070 15.664517
72.075 15.508015
72.080 15.680984
72.085 15.667971
72.090 15.588858
72.095 15.70682
72.100 16.17308
72.105 15.928262
72.110 16.161255
72.115 16.195934
72.120 16.16548
72.125 16.961525
72.130 16.601089
72.135 16.663385
72.140 17.340031
72.145 17.020006
72.150 16.217266
72.155 15.885888
72.160 15.533426
72.165 16.053869
72.170 15.650323
72.175 15.89265
72.180 16.28232
72.185 16.444511
72.190 16.448353
72.195 16.283159
72.200 16.267145
72.205 15.882645
72.210 15.752038
72.215 16.026302
72.220 15.991101
72.225 16.233128
72.230 16.428936
72.235 16.509729
72.240 16.770966
72.245 16.863445
72.250 17.112774
72.255 16.998552
72.260 15.867764
72.265 15.880742
72.270 16.076202
72.275 16.116186
72.280 15.142184
72.285 15.008261
72.290 14.815403
72.295 14.995855
72.300 14.682676
72.305 14.62252
72.310 14.793624
72.315 14.989468
72.320 15.344682
72.325 15.236219
72.330 14.927602
72.335 15.000682
72.340 14.698909
72.345 14.837064
72.350 15.080594
72.355 15.196039
72.360 15.490196
72.365 15.690491
72.370 15.245684
72.375 15.101384
72.380 14.557688
72.385 14.312026
72.390 14.107793
72.395 14.341627
72.400 14.687869
72.405 14.850692
72.410 15.13152
72.415 15.490137
72.420 16.023546
72.425 16.112404
72.430 15.895184
72.435 15.611609
72.440 15.302524
72.445 15.742234
72.450 15.630964
72.455 15.217556
72.460 15.127083
72.465 14.82745
72.470 15.245123
72.475 15.395521
72.480 14.909031
72.485 14.668037
72.490 14.130727
72.495 14.089804
72.500 14.397435
72.505 14.034476
72.510 14.004136
72.515 14.411102
72.520 15.003911
72.525 15.734971
72.530 16.449575
72.535 16.682051
72.540 16.963589
72.545 16.913225
72.550 16.809065
72.555 16.686895
72.560 16.570934
72.565 16.024786
72.570 15.681809
72.575 15.817698
72.580 15.598791
72.585 15.349132
72.590 15.304939
72.595 15.570313
72.600 16.004248
72.605 16.493938
72.610 16.990938
72.615 17.304863
72.620 17.745413
72.625 17.467625
72.630 17.394629
72.635 17.044519
72.640 16.544146
72.645 16.07876
72.650 15.891387
72.655 15.957357
72.660 16.088472
72.665 16.211851
72.670 16.500267
72.675 16.426704
72.680 16.040686
72.685 15.650716
72.690 15.70838
72.695 15.707871
72.700 14.808225
72.705 14.713817
72.710 15.030003
72.715 14.971337
72.720 14.939529
72.725 14.904492
72.730 15.283377
72.735 16.001534
72.740 16.153738
72.745 16.045017
72.750 16.434809
72.755 16.47267
72.760 15.851628
72.765 15.08887
72.770 14.38991
72.775 14.095499
72.780 13.858444
72.785 13.378512
72.790 13.551221
72.795 13.573352
72.800 14.281186
72.805 14.61974
72.810 14.959593
72.815 15.47248
72.820 15.578156
72.825 15.834794
72.830 15.948436
72.835 15.855915
72.840 15.744743
72.845 16.109259
72.850 15.942984
72.855 15.829464
72.860 15.563741
72.865 15.523273
72.870 15.772376
72.875 15.066965
72.880 15.078703
72.885 15.05983
72.890 15.04681
72.895 14.915825
72.900 14.674798
72.905 14.389119
72.910 14.716324
72.915 14.206796
72.920 14.173927
72.925 14.430666
72.930 14.198168
72.935 14.356471
72.940 14.189425
72.945 14.214279
72.950 14.057802
72.955 13.799904
72.960 14.13788
72.965 14.158108
72.970 14.884979
72.975 15.031805
72.980 15.263822
72.985 15.653818
72.990 15.398957
72.995 14.832729
73.000 15.096471
