!@!!GADDS PLOTSO FILE: Chi integration type
!@!!Title/SampleName: map-7b
!@!!Comment: ?
!@!!User: Bruker Instrument Administrator
!@!!Site: University of Illinois Chicago
!@!!Frame: map-7b_01_000.gfrm
!@!!Wavelengths    1.54184   1.54056   1.54439
!@!!Frame angles: 2Theta: 63.000 Omega: 50.000 Phi: 0.000 Chi: 90.000
!@!!Integration range: 2Theta: 53.000 to 73.000  Gamma: -105.000 to -75.000
!@!!Integration method: bin normalized
!@!N
!@!SS
!@!M
!@!L 0.0 0.0 0.0 0.0
!@!XDegrees
!@!YCounts
53.000 8.212623
53.005 8.091201
53.010 8.219367
53.015 8.314896
53.020 8.347624
53.025 8.38668
53.030 8.050827
53.035 8.284826
53.040 7.980337
53.045 8.193025
53.050 8.250154
53.055 7.84586
53.060 7.941801
53.065 8.136331
53.070 8.651505
53.075 9.352208
53.080 9.128628
53.085 9.284461
53.090 9.379341
53.095 8.888839
53.100 8.718227
53.105 8.35346
53.110 7.900823
53.115 8.086763
53.120 7.940944
53.125 8.111666
53.130 8.167724
53.135 8.129545
53.140 8.415836
53.145 8.204365
53.150 8.315941
53.155 8.332189
53.160 8.8512
53.165 9.027579
53.170 8.998808
53.175 9.34037
53.180 9.815443
53.185 9.686917
53.190 9.59605
53.195 9.227397
53.200 9.129794
53.205 8.927696
53.210 8.363985
53.215 8.027539
53.220 8.216006
53.225 8.489692
53.230 8.427125
53.235 8.583761
53.240 8.543855
53.245 8.213919
53.250 8.176656
53.255 8.074108
53.260 7.824972
53.265 7.657782
53.270 7.59357
53.275 7.967851
53.280 8.328722
53.285 8.389726
53.290 8.176553
53.295 8.449202
53.300 8.2479
53.305 7.928391
53.310 7.792377
53.315 7.481962
53.320 7.412114
53.325 6.992566
53.330 6.916686
53.335 6.7576
53.340 6.480775
53.345 6.564847
53.350 6.227438
53.355 5.951922
53.360 6.005657
53.365 6.289707
53.370 6.972385
53.375 7.565893
53.380 7.752003
53.385 8.161015
53.390 8.440163
53.395 8.928658
53.400 8.937094
53.405 8.640076
53.410 8.293902
53.415 8.277499
53.420 8.818831
53.425 8.74116
53.430 8.501347
53.435 8.435436
53.440 8.551848
53.445 8.914133
53.450 8.612529
53.455 8.26033
53.460 8.1709
53.465 7.997267
53.470 7.855532
53.475 7.789902
53.480 7.930997
53.485 8.181026
53.490 8.498232
53.495 8.854866
53.500 8.729816
53.505 8.747052
53.510 8.710974
53.515 8.466661
53.520 8.977671
53.525 8.937319
53.530 9.053802
53.535 9.580263
53.540 9.668881
53.545 9.737447
53.550 9.722536
53.555 9.082154
53.560 8.627368
53.565 8.180902
53.570 7.559602
53.575 7.514123
53.580 7.23772
53.585 7.158801
53.590 7.691897
53.595 8.434108
53.600 8.685983
53.605 9.101281
53.610 8.983821
53.615 9.299562
53.620 9.236888
53.625 9.284673
53.630 9.158158
53.635 9.375529
53.640 9.509819
53.645 9.593513
53.650 9.624148
53.655 9.609918
53.660 9.257004
53.665 9.095387
53.670 8.93418
53.675 8.866866
53.680 9.209077
53.685 9.427023
53.690 9.807996
53.695 9.826755
53.700 9.740928
53.705 9.870763
53.710 10.055399
53.715 9.807269
53.720 9.705557
53.725 9.584468
53.730 9.751692
53.735 9.541045
53.740 9.722221
53.745 9.585846
53.750 9.490015
53.755 9.620397
53.760 9.517621
53.765 9.53408
53.770 9.619838
53.775 9.429017
53.780 9.604528
53.785 9.577351
53.790 9.537813
53.795 9.662231
53.800 9.809347
53.805 9.54774
53.810 9.246498
53.815 8.699978
53.820 8.233669
53.825 8.157893
53.830 7.959232
53.835 8.299126
53.840 8.395474
53.845 8.673698
53.850 8.881374
53.855 9.106223
53.860 9.091185
53.865 9.0655
53.870 8.922139
53.875 8.745513
53.880 8.64184
53.885 8.472732
53.890 8.326516
53.895 8.490162
53.900 8.080748
53.905 8.451751
53.910 8.910434
53.915 9.259225
53.920 9.530531
53.925 9.649016
53.930 9.327301
53.935 9.356496
53.940 8.979557
53.945 8.519774
53.950 8.27798
53.955 8.328966
53.960 8.584856
53.965 8.803988
53.970 8.499411
53.975 8.482537
53.980 8.469789
53.985 8.184862
53.990 7.994813
53.995 7.944207
54.000 8.149172
54.005 8.308706
54.010 8.72729
54.015 8.959555
54.020 9.094446
54.025 9.009906
54.030 8.616384
54.035 8.927209
54.040 9.412255
54.045 9.212153
54.050 9.574664
54.055 9.494471
54.060 9.286212
54.065 9.344904
54.070 8.925889
54.075 8.591358
54.080 8.556896
54.085 8.833446
54.090 9.32574
54.095 9.417983
54.100 9.311489
54.105 9.280521
54.110 9.580333
54.115 9.26996
54.120 8.743269
54.125 8.329076
54.130 8.690125
54.135 9.055706
54.140 9.075032
54.145 8.867188
54.150 8.963927
54.155 9.256066
54.160 9.53333
54.165 9.358395
54.170 9.217645
54.175 9.24371
54.180 9.452304
54.185 9.743443
54.190 9.467548
54.195 9.266907
54.200 9.357435
54.205 9.36216
54.210 9.391672
54.215 8.995367
54.220 8.737867
54.225 9.050882
54.230 9.45111
54.235 9.46172
54.240 9.770112
54.245 10.14782
54.250 10.290032
54.255 10.354184
54.260 10.358177
54.265 10.503451
54.270 10.665057
54.275 10.374918
54.280 10.46563
54.285 10.543719
54.290 10.354423
54.295 10.019482
54.300 9.566183
54.305 9.577844
54.310 9.223229
54.315 8.710831
54.320 8.943926
54.325 9.12946
54.330 8.998944
54.335 8.973826
54.340 8.922729
54.345 9.399881
54.350 9.718048
54.355 9.430357
54.360 9.130777
54.365 9.273107
54.370 9.198739
54.375 9.204491
54.380 8.756222
54.385 8.497614
54.390 8.978847
54.395 9.142128
54.400 9.605986
54.405 9.538679
54.410 9.603141
54.415 10.241987
54.420 10.259606
54.425 9.956149
54.430 9.766932
54.435 9.313086
54.440 9.64534
54.445 9.937156
54.450 10.096819
54.455 10.016582
54.460 10.024343
54.465 10.093166
54.470 9.784473
54.475 9.214272
54.480 8.879348
54.485 8.738029
54.490 8.678658
54.495 8.922357
54.500 8.737536
54.505 8.855581
54.510 9.18897
54.515 9.20104
54.520 9.549435
54.525 10.180084
54.530 10.524047
54.535 10.92475
54.540 11.287085
54.545 11.190069
54.550 11.174508
54.555 10.910914
54.560 10.671232
54.565 10.489751
54.570 10.593305
54.575 10.462309
54.580 10.161475
54.585 10.225047
54.590 9.896152
54.595 9.59263
54.600 9.46041
54.605 9.166919
54.610 8.851966
54.615 9.156688
54.620 9.127598
54.625 9.074301
54.630 9.28053
54.635 9.655499
54.640 9.525002
54.645 9.491401
54.650 9.21325
54.655 8.941889
54.660 9.758693
54.665 10.003575
54.670 10.077523
54.675 10.524396
54.680 10.938334
54.685 11.085876
54.690 10.610428
54.695 9.739303
54.700 9.100436
54.705 8.730884
54.710 8.489336
54.715 8.393581
54.720 8.443205
54.725 8.816094
54.730 9.401209
54.735 9.701304
54.740 9.989391
54.745 10.233633
54.750 9.888496
54.755 9.996866
54.760 10.267642
54.765 10.291351
54.770 9.856019
54.775 9.826233
54.780 10.307117
54.785 10.653736
54.790 10.914922
54.795 10.666463
54.800 10.738923
54.805 11.235975
54.810 10.859049
54.815 10.452073
54.820 10.247395
54.825 10.370313
54.830 10.485375
54.835 10.859362
54.840 10.759314
54.845 10.846915
54.850 11.159701
54.855 11.085062
54.860 10.817553
54.865 10.696849
54.870 10.444766
54.875 10.313134
54.880 10.300591
54.885 9.806911
54.890 9.533374
54.895 9.654118
54.900 9.489923
54.905 9.585643
54.910 10.011848
54.915 10.41953
54.920 10.686543
54.925 10.852583
54.930 10.721913
54.935 10.454488
54.940 10.181037
54.945 10.093408
54.950 10.35724
54.955 10.682558
54.960 11.030807
54.965 11.197234
54.970 11.107606
54.975 11.401658
54.980 11.019468
54.985 10.286802
54.990 10.014339
54.995 9.842952
55.000 9.975096
55.005 9.936676
55.010 9.86348
55.015 10.302356
55.020 10.559854
55.025 10.432814
55.030 10.664241
55.035 10.592565
55.040 10.647895
55.045 10.644753
55.050 10.707001
55.055 10.940911
55.060 11.256738
55.065 10.921037
55.070 11.109208
55.075 11.340538
55.080 11.307464
55.085 10.862394
55.090 10.842818
55.095 10.750272
55.100 10.988548
55.105 10.905801
55.110 10.828572
55.115 10.62125
55.120 10.201975
55.125 9.573449
55.130 9.434638
55.135 9.441
55.140 9.448318
55.145 9.253958
55.150 9.189728
55.155 9.411648
55.160 9.633931
55.165 9.613891
55.170 9.503958
55.175 9.678947
55.180 9.755532
55.185 9.951563
55.190 10.699887
55.195 11.021483
55.200 11.118919
55.205 10.871561
55.210 10.538747
55.215 10.68252
55.220 10.9243
55.225 10.093047
55.230 9.727115
55.235 9.617226
55.240 9.690921
55.245 9.764021
55.250 10.056068
55.255 10.340062
55.260 10.810949
55.265 11.026258
55.270 10.972775
55.275 10.995902
55.280 11.237939
55.285 10.912851
55.290 10.504801
55.295 10.375186
55.300 10.911408
55.305 11.196069
55.310 10.843982
55.315 10.869156
55.320 11.01011
55.325 10.663651
55.330 10.492864
55.335 10.063208
55.340 10.32577
55.345 10.151808
55.350 10.053791
55.355 10.578114
55.360 11.072485
55.365 11.15234
55.370 10.814567
55.375 10.625388
55.380 11.181708
55.385 10.956649
55.390 10.282421
55.395 10.656747
55.400 11.183344
55.405 11.630198
55.410 11.778655
55.415 11.733515
55.420 11.45743
55.425 11.428787
55.430 11.237414
55.435 10.817104
55.440 10.404865
55.445 10.045663
55.450 10.195705
55.455 10.976129
55.460 10.545789
55.465 9.843651
55.470 9.814939
55.475 10.336812
55.480 10.458865
55.485 10.268918
55.490 10.090763
55.495 10.449891
55.500 10.661788
55.505 10.707041
55.510 10.724833
55.515 11.214287
55.520 11.286179
55.525 11.114228
55.530 11.049597
55.535 11.886888
55.540 11.973832
55.545 11.514672
55.550 11.291432
55.555 11.184546
55.560 10.995861
55.565 10.30977
55.570 8.938596
55.575 8.975416
55.580 9.136803
55.585 9.537547
55.590 9.509665
55.595 9.868921
55.600 10.747957
55.605 10.927044
55.610 10.44933
55.615 10.418615
55.620 10.338667
55.625 10.607795
55.630 10.471514
55.635 9.95092
55.640 9.949244
55.645 10.605455
55.650 10.631078
55.655 10.696919
55.660 10.983304
55.665 11.47958
55.670 11.986404
55.675 11.858644
55.680 11.066423
55.685 10.440082
55.690 10.289619
55.695 10.351499
55.700 10.2087
55.705 10.522285
55.710 10.80609
55.715 11.346322
55.720 11.93353
55.725 11.899769
55.730 11.543651
55.735 11.160204
55.740 10.771103
55.745 10.764101
55.750 10.760323
55.755 10.777899
55.760 10.86582
55.765 11.282206
55.770 11.31778
55.775 11.476377
55.780 11.521761
55.785 11.611221
55.790 11.495575
55.795 11.24881
55.800 11.002456
55.805 11.441151
55.810 11.61732
55.815 11.643884
55.820 11.790556
55.825 11.644659
55.830 11.960316
55.835 12.183183
55.840 11.728543
55.845 11.637568
55.850 11.679852
55.855 11.6236
55.860 11.733995
55.865 11.492183
55.870 11.482944
55.875 11.60048
55.880 11.40169
55.885 11.092335
55.890 10.714843
55.895 10.93244
55.900 10.725506
55.905 10.65503
55.910 10.968041
55.915 10.833306
55.920 11.182988
55.925 11.27839
55.930 11.314553
55.935 12.313518
55.940 12.398286
55.945 12.800743
55.950 13.309813
55.955 13.715443
55.960 13.864509
55.965 13.323312
55.970 12.596918
55.975 12.365013
55.980 11.99819
55.985 11.293738
55.990 10.905899
55.995 10.825845
56.000 10.959172
56.005 10.936324
56.010 10.947733
56.015 10.84863
56.020 11.078179
56.025 11.58051
56.030 11.701105
56.035 11.315193
56.040 11.19849
56.045 11.122155
56.050 11.260813
56.055 10.914335
56.060 10.299577
56.065 10.248559
56.070 10.444832
56.075 10.643712
56.080 10.506637
56.085 10.866752
56.090 11.003355
56.095 11.260958
56.100 11.21345
56.105 11.169966
56.110 10.698853
56.115 10.575464
56.120 10.193377
56.125 9.999038
56.130 9.861079
56.135 9.958447
56.140 10.47238
56.145 11.372678
56.150 11.567471
56.155 11.808355
56.160 12.094519
56.165 12.556573
56.170 12.746832
56.175 12.819817
56.180 12.828818
56.185 12.945751
56.190 12.718616
56.195 12.775096
56.200 12.082317
56.205 11.740028
56.210 11.565772
56.215 11.485213
56.220 11.392581
56.225 11.319206
56.230 11.104277
56.235 11.6616
56.240 12.62155
56.245 13.062511
56.250 13.155576
56.255 13.920921
56.260 14.170009
56.265 14.13643
56.270 13.7163
56.275 13.049997
56.280 12.116438
56.285 11.176473
56.290 10.822942
56.295 10.938439
56.300 11.297779
56.305 11.227885
56.310 10.920913
56.315 11.349841
56.320 11.55752
56.325 11.740174
56.330 11.539719
56.335 11.527441
56.340 11.884238
56.345 12.059838
56.350 13.004717
56.355 13.482121
56.360 13.024191
56.365 13.053706
56.370 12.678585
56.375 12.538736
56.380 12.364868
56.385 11.509606
56.390 11.185404
56.395 11.55911
56.400 11.677669
56.405 11.617929
56.410 11.696182
56.415 11.683659
56.420 11.591413
56.425 11.7342
56.430 11.382423
56.435 11.167488
56.440 11.278458
56.445 11.431975
56.450 11.568279
56.455 11.786551
56.460 11.242804
56.465 11.367416
56.470 11.309878
56.475 11.216827
56.480 11.291077
56.485 11.515257
56.490 11.976922
56.495 12.636866
56.500 12.711981
56.505 12.858526
56.510 12.843476
56.515 12.649813
56.520 12.478291
56.525 11.963128
56.530 11.754226
56.535 11.689464
56.540 11.627463
56.545 11.553699
56.550 11.623936
56.555 11.471252
56.560 11.43165
56.565 11.154627
56.570 11.221003
56.575 10.932242
56.580 10.813193
56.585 10.697745
56.590 10.730428
56.595 11.228715
56.600 11.596318
56.605 11.690085
56.610 11.628607
56.615 11.675599
56.620 11.853628
56.625 11.862609
56.630 11.518843
56.635 11.16527
56.640 10.725711
56.645 10.650731
56.650 10.762191
56.655 10.750058
56.660 10.688755
56.665 10.702286
56.670 10.999217
56.675 11.177235
56.680 11.853669
56.685 11.742118
56.690 11.771698
56.695 12.017076
56.700 12.53545
56.705 13.069854
56.710 13.443588
56.715 13.234384
56.720 13.355677
56.725 13.762233
56.730 14.072312
56.735 13.933062
56.740 13.753296
56.745 13.711078
56.750 14.025447
56.755 14.170579
56.760 14.188024
56.765 13.48497
56.770 13.56751
56.775 13.360204
56.780 13.02331
56.785 12.817439
56.790 12.757601
56.795 12.384415
56.800 12.302107
56.805 11.820711
56.810 12.201846
56.815 12.035699
56.820 11.936529
56.825 11.627989
56.830 11.470636
56.835 11.688408
56.840 11.66788
56.845 11.348442
56.850 11.327888
56.855 11.184687
56.860 11.704927
56.865 12.377217
56.870 12.688852
56.875 12.665662
56.880 13.001623
56.885 13.163568
56.890 13.19271
56.895 12.930453
56.900 12.618354
56.905 12.838561
56.910 13.147182
56.915 12.935703
56.920 12.534156
56.925 12.634347
56.930 12.626471
56.935 11.621796
56.940 10.994045
56.945 10.567379
56.950 10.47368
56.955 10.759247
56.960 10.622417
56.965 11.052324
56.970 12.256163
56.975 12.879879
56.980 13.404261
56.985 13.586938
56.990 13.415079
56.995 13.057005
57.000 12.577335
57.005 11.78252
57.010 11.122409
57.015 11.07113
57.020 11.198581
57.025 12.015041
57.030 12.392067
57.035 12.815884
57.040 13.757073
57.045 14.281035
57.050 14.387741
57.055 14.57859
57.060 14.371211
57.065 14.249086
57.070 13.914678
57.075 13.48562
57.080 13.117257
57.085 12.702881
57.090 11.999701
57.095 11.57796
57.100 11.988108
57.105 12.330206
57.110 12.074858
57.115 12.084936
57.120 12.32664
57.125 12.629475
57.130 12.402442
57.135 12.395631
57.140 12.73262
57.145 13.006253
57.150 13.239284
57.155 13.44279
57.160 13.912674
57.165 14.552347
57.170 14.688262
57.175 14.394847
57.180 14.746992
57.185 14.942947
57.190 14.892208
57.195 14.747673
57.200 14.526328
57.205 14.082539
57.210 13.631187
57.215 13.440694
57.220 12.991942
57.225 12.692507
57.230 12.319174
57.235 12.261401
57.240 12.183647
57.245 12.034969
57.250 11.954053
57.255 12.350282
57.260 12.319839
57.265 12.549245
57.270 12.372806
57.275 12.539731
57.280 12.599633
57.285 12.241293
57.290 11.940292
57.295 12.233702
57.300 12.480188
57.305 12.567653
57.310 12.504523
57.315 12.468451
57.320 12.878759
57.325 13.264267
57.330 13.275867
57.335 13.217353
57.340 13.219932
57.345 13.190879
57.350 13.30721
57.355 13.284169
57.360 13.213266
57.365 13.054132
57.370 12.991447
57.375 13.09565
57.380 13.372714
57.385 13.842708
57.390 13.581499
57.395 13.405723
57.400 13.577065
57.405 13.439667
57.410 13.279135
57.415 13.070162
57.420 12.963721
57.425 12.949521
57.430 12.725744
57.435 12.280614
57.440 12.189989
57.445 12.409634
57.450 12.299809
57.455 12.25489
57.460 12.792148
57.465 13.011724
57.470 13.555864
57.475 14.182769
57.480 14.330117
57.485 14.976099
57.490 15.015086
57.495 14.91759
57.500 14.970219
57.505 14.311958
57.510 13.868589
57.515 13.718946
57.520 13.197341
57.525 13.623849
57.530 13.55503
57.535 13.319674
57.540 13.911085
57.545 13.807972
57.550 13.487147
57.555 13.455318
57.560 13.239638
57.565 12.826973
57.570 12.914257
57.575 12.710404
57.580 13.40977
57.585 14.01975
57.590 14.118632
57.595 14.346124
57.600 14.470981
57.605 14.822727
57.610 14.646624
57.615 13.876822
57.620 13.748662
57.625 13.716826
57.630 13.792387
57.635 14.022657
57.640 13.633525
57.645 13.435151
57.650 13.429615
57.655 13.335361
57.660 14.053991
57.665 13.790171
57.670 13.369083
57.675 13.719995
57.680 13.809646
57.685 13.734249
57.690 13.71646
57.695 12.994286
57.700 12.801672
57.705 12.449185
57.710 12.008859
57.715 12.21997
57.720 12.51976
57.725 12.104638
57.730 12.075468
57.735 11.999694
57.740 12.301686
57.745 12.87937
57.750 13.123679
57.755 13.300131
57.760 13.959991
57.765 14.505213
57.770 14.892831
57.775 14.718635
57.780 14.41785
57.785 14.242129
57.790 14.407222
57.795 14.11552
57.800 13.730027
57.805 14.005245
57.810 14.465378
57.815 14.580469
57.820 14.219031
57.825 13.856219
57.830 13.624011
57.835 13.812
57.840 13.814709
57.845 13.673998
57.850 13.872321
57.855 14.152664
57.860 14.004093
57.865 14.033401
57.870 13.76491
57.875 13.850279
57.880 13.978925
57.885 14.521554
57.890 14.974986
57.895 15.315103
57.900 15.08236
57.905 15.035677
57.910 14.96499
57.915 14.852375
57.920 14.80689
57.925 14.446333
57.930 14.435987
57.935 14.696776
57.940 14.800203
57.945 14.741456
57.950 14.747746
57.955 14.683088
57.960 14.712374
57.965 14.824836
57.970 14.744486
57.975 14.535284
57.980 14.875287
57.985 14.273909
57.990 13.721206
57.995 13.797235
58.000 13.599482
58.005 13.471249
58.010 13.248639
58.015 12.980929
58.020 13.146606
58.025 13.599447
58.030 13.611032
58.035 13.6444
58.040 14.285033
58.045 13.95713
58.050 13.531529
58.055 13.514598
58.060 13.815608
58.065 14.492261
58.070 14.772673
58.075 14.581338
58.080 15.592969
58.085 15.910654
58.090 16.024111
58.095 15.901463
58.100 15.551319
58.105 15.984686
58.110 16.22542
58.115 15.918377
58.120 16.290419
58.125 16.066813
58.130 15.94674
58.135 16.167896
58.140 15.6663
58.145 15.745708
58.150 16.417639
58.155 16.194025
58.160 16.015905
58.165 15.87141
58.170 15.640968
58.175 15.194537
58.180 14.56119
58.185 14.483024
58.190 14.231098
58.195 14.287819
58.200 13.993449
58.205 13.510751
58.210 13.502921
58.215 12.953576
58.220 12.205165
58.225 12.441689
58.230 12.232532
58.235 12.098833
58.240 11.796239
58.245 12.012395
58.250 12.308565
58.255 12.770276
58.260 12.614985
58.265 13.070767
58.270 13.792679
58.275 14.416183
58.280 14.653773
58.285 14.911943
58.290 14.856493
58.295 14.546033
58.300 14.557575
58.305 14.802404
58.310 14.60146
58.315 13.788031
58.320 13.1766
58.325 13.033052
58.330 13.652254
58.335 13.646508
58.340 13.651645
58.345 13.882414
58.350 14.968784
58.355 14.829958
58.360 14.311134
58.365 13.815834
58.370 13.482922
58.375 13.64826
58.380 13.360979
58.385 12.577146
58.390 13.388608
58.395 13.713675
58.400 14.005104
58.405 13.848642
58.410 13.16557
58.415 13.372455
58.420 13.815509
58.425 13.69244
58.430 13.603092
58.435 13.994266
58.440 13.871648
58.445 14.103621
58.450 14.366069
58.455 14.452499
58.460 14.209254
58.465 14.286386
58.470 14.144551
58.475 14.955942
58.480 15.041655
58.485 15.202615
58.490 15.297831
58.495 15.636085
58.500 15.79982
58.505 15.246371
58.510 14.615789
58.515 14.461999
58.520 14.56387
58.525 14.437041
58.530 14.277526
58.535 14.391579
58.540 15.121398
58.545 15.497638
58.550 15.000875
58.555 14.434945
58.560 14.725599
58.565 14.874488
58.570 14.520193
58.575 14.355382
58.580 14.312896
58.585 14.756062
58.590 14.724224
58.595 14.540408
58.600 14.522561
58.605 14.742392
58.610 14.760897
58.615 14.558412
58.620 14.239865
58.625 14.302048
58.630 14.808875
58.635 14.696749
58.640 14.533272
58.645 14.403045
58.650 14.764193
58.655 15.117216
58.660 15.470825
58.665 15.004924
58.670 15.382234
58.675 15.520089
58.680 15.480529
58.685 15.487946
58.690 15.82519
58.695 15.436248
58.700 15.442465
58.705 15.284445
58.710 15.379521
58.715 15.373962
58.720 15.199885
58.725 15.075201
58.730 14.88713
58.735 14.096802
58.740 13.846303
58.745 13.902695
58.750 13.912387
58.755 13.956423
58.760 13.60803
58.765 14.201237
58.770 15.1353
58.775 15.50936
58.780 15.5072
58.785 15.416665
58.790 15.722383
58.795 16.690508
58.800 17.296106
58.805 17.256584
58.810 17.257175
58.815 16.884739
58.820 16.666357
58.825 16.200172
58.830 15.233312
58.835 14.442664
58.840 14.345175
58.845 14.14578
58.850 14.450774
58.855 14.991772
58.860 15.246777
58.865 15.664751
58.870 15.844145
58.875 15.532421
58.880 15.498348
58.885 15.090768
58.890 14.325302
58.895 14.144169
58.900 13.699315
58.905 13.616199
58.910 13.555737
58.915 13.693316
58.920 13.915283
58.925 14.307762
58.930 14.067491
58.935 14.011723
58.940 14.012452
58.945 14.144956
58.950 13.889469
58.955 14.079603
58.960 14.512682
58.965 15.001082
58.970 15.385475
58.975 15.961626
58.980 16.18137
58.985 16.352303
58.990 16.217615
58.995 16.171928
59.000 16.117071
59.005 15.463132
59.010 14.773519
59.015 14.407853
59.020 14.610845
59.025 14.835574
59.030 14.709296
59.035 14.299509
59.040 14.616267
59.045 14.54088
59.050 14.091804
59.055 13.897326
59.060 13.535625
59.065 13.477118
59.070 13.47204
59.075 13.668698
59.080 14.486285
59.085 14.943561
59.090 14.428306
59.095 14.162949
59.100 14.169484
59.105 14.404487
59.110 14.072292
59.115 13.801098
59.120 13.968386
59.125 14.636467
59.130 15.631604
59.135 16.116217
59.140 16.441689
59.145 16.754078
59.150 17.067879
59.155 17.492573
59.160 17.16902
59.165 16.510454
59.170 16.040125
59.175 15.988876
59.180 15.930961
59.185 15.623619
59.190 15.364988
59.195 15.680244
59.200 15.979353
59.205 15.906473
59.210 15.600263
59.215 15.279828
59.220 15.273415
59.225 15.174791
59.230 15.005528
59.235 14.853397
59.240 15.520112
59.245 15.787097
59.250 16.093418
59.255 16.100437
59.260 16.065826
59.265 15.85969
59.270 15.509785
59.275 15.292058
59.280 15.064399
59.285 14.743696
59.290 14.415753
59.295 14.396552
59.300 14.695016
59.305 14.780018
59.310 14.527292
59.315 14.434739
59.320 14.212868
59.325 13.735755
59.330 13.781351
59.335 13.632897
59.340 13.547598
59.345 13.72963
59.350 13.409806
59.355 14.220756
59.360 14.976888
59.365 14.855972
59.370 15.095216
59.375 14.676261
59.380 14.342056
59.385 14.591731
59.390 14.71874
59.395 14.535236
59.400 14.252818
59.405 13.771403
59.410 14.406867
59.415 14.712327
59.420 15.043001
59.425 15.183507
59.430 15.516845
59.435 16.069494
59.440 16.728233
59.445 16.699621
59.450 16.72991
59.455 16.98805
59.460 16.426941
59.465 15.74084
59.470 15.723087
59.475 15.707705
59.480 15.996177
59.485 16.294359
59.490 16.160671
59.495 16.502893
59.500 16.739355
59.505 16.488029
59.510 16.262619
59.515 15.81824
59.520 15.585464
59.525 15.050443
59.530 14.405028
59.535 14.381911
59.540 13.820402
59.545 13.738019
59.550 13.676359
59.555 13.913765
59.560 14.414749
59.565 15.193022
59.570 15.766376
59.575 16.208155
59.580 16.629637
59.585 16.964136
59.590 16.903681
59.595 16.997004
59.600 16.871315
59.605 17.306356
59.610 17.437218
59.615 17.234203
59.620 17.054893
59.625 16.790064
59.630 16.460714
59.635 16.149309
59.640 16.037046
59.645 16.21913
59.650 16.045336
59.655 15.840106
59.660 16.158501
59.665 16.122896
59.670 15.796152
59.675 15.915746
59.680 16.009909
59.685 16.318857
59.690 16.859852
59.695 16.874979
59.700 17.851774
59.705 18.450617
59.710 18.535149
59.715 18.27243
59.720 18.221977
59.725 17.552155
59.730 17.827843
59.735 17.785681
59.740 17.887581
59.745 17.752447
59.750 18.073458
59.755 18.098833
59.760 18.574085
59.765 18.537872
59.770 18.808968
59.775 18.769466
59.780 18.815504
59.785 19.505466
59.790 19.619646
59.795 19.326643
59.800 19.050961
59.805 18.797255
59.810 18.361837
59.815 18.330496
59.820 18.441916
59.825 19.17794
59.830 18.979193
59.835 18.909773
59.840 19.153145
59.845 19.36326
59.850 19.212769
59.855 18.227905
59.860 17.54464
59.865 17.682709
59.870 17.56559
59.875 17.086216
59.880 17.388288
59.885 17.394243
59.890 17.385765
59.895 17.707209
59.900 17.974621
59.905 17.883947
59.910 18.056713
59.915 18.257563
59.920 18.254539
59.925 18.634083
59.930 18.426716
59.935 17.9891
59.940 18.020494
59.945 18.125479
59.950 18.334726
59.955 18.332745
59.960 17.924864
59.965 17.654537
59.970 17.861336
59.975 17.738333
59.980 17.119755
59.985 16.872196
59.990 17.147652
59.995 17.028994
60.000 17.692047
60.005 18.079597
60.010 18.10751
60.015 18.11273
60.020 17.807188
60.025 17.513718
60.030 18.266638
60.035 18.426968
60.040 18.425722
60.045 19.317566
60.050 19.983063
60.055 20.504175
60.060 21.265436
60.065 21.485098
60.070 21.426249
60.075 21.191233
60.080 20.692678
60.085 21.232468
60.090 21.411619
60.095 20.829208
60.100 20.542061
60.105 20.404547
60.110 20.745953
60.115 20.862961
60.120 21.024458
60.125 21.601477
60.130 22.235361
60.135 22.473526
60.140 22.569513
60.145 22.32242
60.150 22.097269
60.155 21.182573
60.160 20.359964
60.165 20.388353
60.170 20.584831
60.175 20.656681
60.180 20.442404
60.185 20.418922
60.190 20.726582
60.195 20.47847
60.200 20.546309
60.205 20.648655
60.210 21.180803
60.215 21.699415
60.220 21.791767
60.225 22.059025
60.230 22.377186
60.235 22.209751
60.240 21.636318
60.245 21.196791
60.250 21.086786
60.255 21.212124
60.260 21.049562
60.265 21.517679
60.270 21.556459
60.275 21.607477
60.280 21.108171
60.285 20.59972
60.290 20.471851
60.295 20.544065
60.300 19.861776
60.305 19.218756
60.310 19.504389
60.315 19.867327
60.320 20.016073
60.325 19.649576
60.330 19.163279
60.335 19.53862
60.340 19.710953
60.345 19.982956
60.350 20.667206
60.355 21.038898
60.360 21.265295
60.365 20.99544
60.370 20.42345
60.375 20.202156
60.380 19.756496
60.385 19.500425
60.390 19.082399
60.395 18.596575
60.400 19.6171
60.405 20.325563
60.410 20.692789
60.415 20.537542
60.420 20.300995
60.425 20.888
60.430 21.941889
60.435 21.122126
60.440 20.595737
60.445 20.462276
60.450 20.367802
60.455 20.358978
60.460 20.026022
60.465 19.43329
60.470 19.477358
60.475 19.38232
60.480 19.395411
60.485 19.352554
60.490 19.341169
60.495 18.861799
60.500 18.70244
60.505 18.989328
60.510 18.927158
60.515 19.125303
60.520 19.543858
60.525 19.713079
60.530 20.39938
60.535 20.856031
60.540 20.693096
60.545 20.611034
60.550 20.55176
60.555 19.97179
60.560 19.976645
60.565 19.878201
60.570 19.849474
60.575 20.348108
60.580 20.538782
60.585 20.18479
60.590 20.653811
60.595 20.783438
60.600 20.535866
60.605 19.918158
60.610 19.602468
60.615 19.46254
60.620 20.569485
60.625 20.75948
60.630 20.319775
60.635 20.225952
60.640 20.543394
60.645 20.577097
60.650 20.638969
60.655 20.042805
60.660 19.833858
60.665 20.023066
60.670 20.257128
60.675 20.24378
60.680 20.19734
60.685 20.139963
60.690 19.759684
60.695 20.401497
60.700 20.625456
60.705 20.668953
60.710 20.192747
60.715 19.948139
60.720 19.987209
60.725 20.012436
60.730 18.854641
60.735 18.410437
60.740 18.364254
60.745 19.028973
60.750 19.291073
60.755 19.030411
60.760 19.504335
60.765 19.837713
60.770 19.719219
60.775 19.425806
60.780 18.638731
60.785 18.590445
60.790 17.872049
60.795 16.877737
60.800 16.362127
60.805 15.951497
60.810 15.689357
60.815 15.890464
60.820 16.110346
60.825 16.426577
60.830 16.826571
60.835 17.439028
60.840 17.710714
60.845 18.016272
60.850 17.980007
60.855 17.734394
60.860 18.171255
60.865 18.56012
60.870 18.197092
60.875 18.244518
60.880 18.249975
60.885 18.112026
60.890 18.071035
60.895 18.085777
60.900 18.437443
60.905 18.625992
60.910 18.729414
60.915 18.694117
60.920 18.655703
60.925 18.685148
60.930 18.459753
60.935 17.760405
60.940 17.461716
60.945 17.17054
60.950 17.043652
60.955 16.875248
60.960 16.608984
60.965 16.747826
60.970 16.847469
60.975 16.919712
60.980 17.102053
60.985 17.89325
60.990 18.460548
60.995 18.519398
61.000 18.794756
61.005 19.063297
61.010 19.138821
61.015 18.744419
61.020 17.981138
61.025 17.265686
61.030 16.843426
61.035 16.396532
61.040 16.063927
61.045 15.981975
61.050 15.520777
61.055 15.488256
61.060 16.504194
61.065 17.37993
61.070 17.658106
61.075 17.483749
61.080 17.49996
61.085 17.56768
61.090 17.607849
61.095 17.121462
61.100 16.130955
61.105 15.323762
61.110 14.827503
61.115 15.045885
61.120 15.743922
61.125 16.014545
61.130 16.615906
61.135 17.28183
61.140 17.885632
61.145 18.831835
61.150 18.728426
61.155 18.240612
61.160 17.803438
61.165 16.89325
61.170 16.612379
61.175 16.70899
61.180 16.264492
61.185 15.95907
61.190 15.831379
61.195 15.779254
61.200 16.141466
61.205 16.713257
61.210 16.702774
61.215 16.823111
61.220 16.957935
61.225 16.831947
61.230 16.735746
61.235 16.46101
61.240 15.994724
61.245 16.08736
61.250 16.108788
61.255 16.609621
61.260 17.037436
61.265 17.351551
61.270 17.503822
61.275 17.090776
61.280 17.461199
61.285 17.052553
61.290 16.543966
61.295 16.433952
61.300 16.649763
61.305 16.991909
61.310 17.311806
61.315 16.669188
61.320 16.666012
61.325 16.529247
61.330 16.180393
61.335 15.934644
61.340 15.461211
61.345 15.081056
61.350 15.18224
61.355 15.217731
61.360 15.769129
61.365 16.183622
61.370 16.29866
61.375 16.826721
61.380 17.103672
61.385 17.481722
61.390 18.09944
61.395 17.935184
61.400 18.187414
61.405 18.210815
61.410 17.878084
61.415 17.919268
61.420 18.042585
61.425 17.187765
61.430 17.208035
61.435 17.610363
61.440 17.107435
61.445 17.039797
61.450 17.683506
61.455 17.808056
61.460 18.27088
61.465 17.974474
61.470 16.952585
61.475 17.718977
61.480 17.803371
61.485 16.97423
61.490 16.73596
61.495 16.92577
61.500 17.178764
61.505 16.674755
61.510 15.936568
61.515 16.299408
61.520 16.663576
61.525 16.536789
61.530 16.284361
61.535 16.475956
61.540 17.160885
61.545 17.639034
61.550 17.33774
61.555 17.298683
61.560 17.309563
61.565 17.101229
61.570 16.966225
61.575 17.419744
61.580 17.584997
61.585 17.792953
61.590 17.946362
61.595 18.12015
61.600 18.22135
61.605 17.835634
61.610 17.765589
61.615 17.604136
61.620 17.575216
61.625 16.966085
61.630 17.004883
61.635 16.899578
61.640 16.785831
61.645 16.745365
61.650 16.454971
61.655 16.045904
61.660 16.381926
61.665 16.283363
61.670 16.422176
61.675 16.319025
61.680 15.707956
61.685 15.474707
61.690 15.686966
61.695 15.633465
61.700 15.862751
61.705 15.787686
61.710 16.016766
61.715 16.32634
61.720 16.948206
61.725 16.783953
61.730 16.818937
61.735 16.658731
61.740 16.308901
61.745 15.919645
61.750 15.474665
61.755 15.239235
61.760 15.061154
61.765 15.175775
61.770 15.699541
61.775 16.329992
61.780 16.439253
61.785 16.75532
61.790 16.905865
61.795 17.344324
61.800 17.028044
61.805 16.839327
61.810 17.090414
61.815 17.138378
61.820 16.717514
61.825 16.93372
61.830 17.371601
61.835 17.693926
61.840 17.648878
61.845 17.502296
61.850 17.657621
61.855 18.088902
61.860 18.049362
61.865 17.892515
61.870 17.911406
61.875 17.90926
61.880 17.723866
61.885 17.941725
61.890 18.174889
61.895 17.570913
61.900 17.34724
61.905 17.074009
61.910 16.756536
61.915 16.141714
61.920 15.647174
61.925 15.449648
61.930 15.312745
61.935 14.997554
61.940 14.746837
61.945 14.905939
61.950 15.096113
61.955 15.365389
61.960 15.48471
61.965 15.524554
61.970 15.606462
61.975 15.764031
61.980 15.879696
61.985 16.346846
61.990 16.1938
61.995 16.098907
62.000 16.43445
62.005 16.893002
62.010 17.068716
62.015 17.389351
62.020 17.296511
62.025 17.263369
62.030 17.027145
62.035 17.037203
62.040 16.876219
62.045 17.203051
62.050 16.807955
62.055 16.945192
62.060 17.07505
62.065 17.065454
62.070 16.278048
62.075 16.144506
62.080 15.612093
62.085 15.635314
62.090 15.355727
62.095 15.665238
62.100 15.724201
62.105 16.096138
62.110 16.253664
62.115 16.26256
62.120 16.646528
62.125 17.46319
62.130 17.514006
62.135 17.978886
62.140 18.044498
62.145 17.796232
62.150 18.445906
62.155 18.497803
62.160 18.140589
62.165 17.701788
62.170 17.270981
62.175 17.145281
62.180 17.17655
62.185 16.684736
62.190 16.764153
62.195 16.404484
62.200 16.600176
62.205 17.01581
62.210 16.961079
62.215 17.311661
62.220 17.118299
62.225 17.051407
62.230 16.843386
62.235 16.517618
62.240 16.307951
62.245 16.584259
62.250 16.421379
62.255 16.625092
62.260 16.532423
62.265 17.175686
62.270 17.24609
62.275 17.202908
62.280 16.854931
62.285 16.70232
62.290 16.771631
62.295 16.618505
62.300 16.69281
62.305 16.522854
62.310 16.566536
62.315 16.325027
62.320 16.015856
62.325 15.626381
62.330 15.022127
62.335 14.463638
62.340 15.080023
62.345 15.527295
62.350 15.879917
62.355 15.451103
62.360 15.846273
62.365 16.36631
62.370 16.744612
62.375 16.365736
62.380 16.01659
62.385 16.083784
62.390 16.538496
62.395 16.478054
62.400 16.754633
62.405 16.923037
62.410 16.984245
62.415 16.540115
62.420 17.078094
62.425 16.845291
62.430 16.871086
62.435 17.009043
62.440 16.569433
62.445 16.868174
62.450 17.298885
62.455 16.957512
62.460 17.13908
62.465 16.815277
62.470 16.465117
62.475 16.888357
62.480 16.644014
62.485 16.476009
62.490 16.511623
62.495 16.540354
62.500 16.333437
62.505 16.174412
62.510 15.82392
62.515 15.936056
62.520 15.734806
62.525 16.05238
62.530 16.707901
62.535 16.991224
62.540 17.272989
62.545 17.933931
62.550 18.536081
62.555 18.680618
62.560 18.435669
62.565 17.876514
62.570 17.829683
62.575 17.318342
62.580 16.559029
62.585 15.948009
62.590 15.980519
62.595 15.184019
62.600 14.619752
62.605 14.346297
62.610 14.48535
62.615 14.268903
62.620 14.567611
62.625 14.616429
62.630 14.989509
62.635 15.455997
62.640 15.863014
62.645 15.4943
62.650 15.549916
62.655 15.080662
62.660 15.301703
62.665 15.928472
62.670 16.244917
62.675 16.69206
62.680 17.754818
62.685 17.944149
62.690 18.240149
62.695 18.349771
62.700 17.885273
62.705 17.055708
62.710 16.929976
62.715 16.411089
62.720 16.160313
62.725 16.122921
62.730 16.540028
62.735 16.924126
62.740 17.786009
62.745 17.956038
62.750 18.347059
62.755 18.97719
62.760 18.945776
62.765 18.958406
62.770 19.521524
62.775 19.578886
62.780 18.698185
62.785 18.224234
62.790 18.239141
62.795 18.379536
62.800 17.624912
62.805 16.938507
62.810 16.718842
62.815 17.106577
62.820 17.107607
62.825 16.660532
62.830 17.021904
62.835 17.619326
62.840 17.769131
62.845 17.926216
62.850 18.300173
62.855 18.565655
62.860 18.410072
62.865 18.419754
62.870 18.564568
62.875 18.218887
62.880 17.506222
62.885 17.192602
62.890 16.956745
62.895 16.769958
62.900 16.38294
62.905 16.048647
62.910 16.221212
62.915 15.986601
62.920 15.973424
62.925 16.019478
62.930 15.932572
62.935 15.77157
62.940 15.849001
62.945 15.784173
62.950 16.187679
62.955 16.471561
62.960 16.398762
62.965 16.438259
62.970 16.80018
62.975 16.564657
62.980 16.957293
62.985 17.175493
62.990 16.911278
62.995 17.310743
63.000 17.536409
63.005 17.104469
63.010 17.260914
63.015 16.979706
63.020 16.978413
63.025 17.007519
63.030 16.392292
63.035 16.232563
63.040 16.589157
63.045 16.609621
63.050 16.724808
63.055 16.889307
63.060 17.540489
63.065 17.942671
63.070 18.023066
63.075 17.408367
63.080 17.348448
63.085 17.130957
63.090 16.706171
63.095 16.325663
63.100 16.348223
63.105 16.352564
63.110 16.550884
63.115 16.953142
63.120 17.071123
63.125 17.481054
63.130 17.280754
63.135 17.282476
63.140 17.831642
63.145 17.178408
63.150 16.776716
63.155 17.087872
63.160 17.017767
63.165 17.655539
63.170 17.407307
63.175 16.82333
63.180 17.016224
63.185 16.539825
63.190 16.381594
63.195 16.227407
63.200 16.222326
63.205 16.330076
63.210 17.03898
63.215 17.35675
63.220 17.835144
63.225 17.57794
63.230 17.716209
63.235 17.198561
63.240 17.313007
63.245 17.279018
63.250 17.752319
63.255 18.144583
63.260 18.581854
63.265 18.505138
63.270 18.312656
63.275 17.95591
63.280 17.53434
63.285 16.906282
63.290 16.845211
63.295 16.197987
63.300 16.405235
63.305 16.944454
63.310 17.413553
63.315 18.076803
63.320 18.616426
63.325 18.786842
63.330 18.894186
63.335 18.141155
63.340 17.82303
63.345 18.037031
63.350 17.907227
63.355 17.312931
63.360 17.034359
63.365 17.071453
63.370 17.333195
63.375 17.09903
63.380 16.540842
63.385 16.865982
63.390 16.832701
63.395 16.750206
63.400 16.751209
63.405 16.431339
63.410 16.590975
63.415 16.589293
63.420 16.203568
63.425 16.759958
63.430 16.545269
63.435 16.593081
63.440 17.20611
63.445 17.246216
63.450 17.090826
63.455 16.527067
63.460 15.896681
63.465 16.211555
63.470 16.874496
63.475 16.668211
63.480 16.701042
63.485 17.300627
63.490 17.647371
63.495 17.584826
63.500 17.555822
63.505 17.577906
63.510 17.841543
63.515 18.228188
63.520 17.840237
63.525 18.011202
63.530 18.338375
63.535 18.464312
63.540 18.037838
63.545 17.755327
63.550 17.08428
63.555 16.569389
63.560 16.324541
63.565 16.36945
63.570 16.494698
63.575 16.718529
63.580 16.892551
63.585 16.750927
63.590 16.778893
63.595 16.930845
63.600 17.063871
63.605 17.033407
63.610 17.311897
63.615 17.627474
63.620 18.1593
63.625 18.116943
63.630 17.928377
63.635 18.25812
63.640 17.821602
63.645 17.302649
63.650 17.3269
63.655 17.497438
63.660 18.091263
63.665 18.604441
63.670 18.291206
63.675 18.567913
63.680 18.959818
63.685 18.944225
63.690 18.997335
63.695 18.952124
63.700 19.150789
63.705 18.995205
63.710 18.57214
63.715 18.109756
63.720 17.814671
63.725 18.086977
63.730 18.487309
63.735 18.211245
63.740 18.174255
63.745 18.509491
63.750 18.634697
63.755 19.079569
63.760 18.801176
63.765 18.29348
63.770 17.977713
63.775 18.098583
63.780 17.722225
63.785 17.363501
63.790 17.080307
63.795 16.606007
63.800 16.32506
63.805 16.502493
63.810 16.689089
63.815 17.098408
63.820 17.759449
63.825 18.148813
63.830 18.71805
63.835 18.791109
63.840 18.455908
63.845 18.453354
63.850 17.80912
63.855 17.080872
63.860 16.664288
63.865 16.271446
63.870 16.9681
63.875 17.337564
63.880 17.032366
63.885 17.52272
63.890 17.708029
63.895 17.596163
63.900 17.894106
63.905 17.052032
63.910 17.131138
63.915 16.911079
63.920 16.600657
63.925 16.763975
63.930 16.869322
63.935 16.722126
63.940 17.662868
63.945 17.958294
63.950 18.322275
63.955 19.039143
63.960 18.786903
63.965 19.078026
63.970 18.625568
63.975 18.79126
63.980 19.186712
63.985 19.188488
63.990 19.009083
63.995 19.321209
64.000 19.386572
64.005 20.102461
64.010 19.738199
64.015 19.219973
64.020 19.100161
64.025 18.986021
64.030 18.660114
64.035 18.753191
64.040 18.762218
64.045 18.846943
64.050 19.215528
64.055 18.771358
64.060 18.469011
64.065 18.657606
64.070 18.40284
64.075 18.150663
64.080 17.327183
64.085 17.201439
64.090 17.301945
64.095 17.120079
64.100 17.11941
64.105 17.520893
64.110 17.80468
64.115 17.87141
64.120 17.86804
64.125 18.269764
64.130 18.67338
64.135 18.798925
64.140 18.313324
64.145 17.890675
64.150 17.943789
64.155 17.420685
64.160 16.924404
64.165 16.600807
64.170 16.357843
64.175 16.423285
64.180 16.408457
64.185 16.165771
64.190 16.528147
64.195 17.447229
64.200 17.733957
64.205 18.023102
64.210 17.732214
64.215 18.284273
64.220 18.249502
64.225 18.213717
64.230 17.711643
64.235 17.515835
64.240 17.323256
64.245 17.40308
64.250 16.761597
64.255 17.16028
64.260 17.561285
64.265 18.008009
64.270 18.31978
64.275 18.413445
64.280 18.589245
64.285 18.804045
64.290 18.953566
64.295 18.172409
64.300 18.147242
64.305 17.701267
64.310 17.440121
64.315 17.280939
64.320 17.545614
64.325 17.367802
64.330 17.434021
64.335 17.219765
64.340 18.080296
64.345 18.500841
64.350 18.673628
64.355 18.884792
64.360 18.868948
64.365 19.709248
64.370 19.909376
64.375 19.627958
64.380 19.657883
64.385 19.17617
64.390 18.949076
64.395 19.027584
64.400 18.600473
64.405 18.183474
64.410 17.916277
64.415 17.464224
64.420 17.607752
64.425 17.565639
64.430 17.404444
64.435 17.535368
64.440 17.921772
64.445 17.853487
64.450 17.597824
64.455 17.722132
64.460 17.892139
64.465 17.916708
64.470 17.523777
64.475 17.560703
64.480 17.914499
64.485 18.283098
64.490 18.195827
64.495 18.754337
64.500 19.135218
64.505 18.697329
64.510 18.275137
64.515 18.190636
64.520 18.325373
64.525 18.755987
64.530 18.490643
64.535 18.22366
64.540 18.415115
64.545 18.487751
64.550 18.693125
64.555 19.161987
64.560 18.524031
64.565 18.427656
64.570 18.771275
64.575 19.410757
64.580 19.670935
64.585 19.3557
64.590 19.154158
64.595 19.375137
64.600 19.417145
64.605 19.063978
64.610 19.109306
64.615 18.738941
64.620 19.436178
64.625 19.173368
64.630 19.70443
64.635 19.905819
64.640 20.001486
64.645 19.944307
64.650 19.752491
64.655 19.010187
64.660 19.20842
64.665 18.306593
64.670 17.803476
64.675 18.171207
64.680 18.205387
64.685 18.367195
64.690 18.716442
64.695 18.841211
64.700 18.981506
64.705 19.372948
64.710 19.81555
64.715 20.055466
64.720 20.40291
64.725 20.430668
64.730 20.374634
64.735 20.369509
64.740 19.925402
64.745 18.375334
64.750 18.177189
64.755 17.792177
64.760 17.388527
64.765 17.160334
64.770 17.268387
64.775 17.603596
64.780 18.359642
64.785 18.417009
64.790 18.794706
64.795 19.117548
64.800 19.464798
64.805 19.377598
64.810 19.462639
64.815 19.690887
64.820 20.142052
64.825 20.154902
64.830 20.278732
64.835 20.606007
64.840 21.278151
64.845 21.487444
64.850 21.891764
64.855 22.023785
64.860 22.053844
64.865 21.832687
64.870 21.36327
64.875 20.37356
64.880 19.533846
64.885 19.158384
64.890 18.762184
64.895 18.770397
64.900 19.063457
64.905 18.883966
64.910 19.202877
64.915 19.59824
64.920 19.07292
64.925 18.914881
64.930 18.44656
64.935 18.450506
64.940 19.272032
64.945 19.986393
64.950 19.924795
64.955 20.171925
64.960 20.539843
64.965 21.019697
64.970 21.117153
64.975 20.987595
64.980 20.603706
64.985 21.159618
64.990 20.982819
64.995 20.699322
65.000 20.525249
65.005 19.964407
65.010 19.545713
65.015 19.356205
65.020 19.307049
65.025 19.8685
65.030 19.553381
65.035 19.627102
65.040 20.271141
65.045 20.59293
65.050 20.96496
65.055 20.630129
65.060 20.862976
65.065 21.561218
65.070 21.588621
65.075 21.814896
65.080 21.617008
65.085 21.450708
65.090 20.826344
65.095 20.732845
65.100 20.724226
65.105 20.71472
65.110 20.558054
65.115 21.097403
65.120 21.480675
65.125 22.601358
65.130 22.639069
65.135 22.389673
65.140 22.719749
65.145 22.784458
65.150 22.208363
65.155 21.717875
65.160 21.295218
65.165 22.051006
65.170 22.145227
65.175 21.959774
65.180 21.774569
65.185 21.549404
65.190 21.739811
65.195 21.348396
65.200 21.310175
65.205 21.3535
65.210 21.294928
65.215 21.307131
65.220 21.479839
65.225 21.828629
65.230 21.976744
65.235 21.419481
65.240 21.636049
65.245 21.776955
65.250 22.363476
65.255 22.469475
65.260 22.551802
65.265 22.30641
65.270 21.904022
65.275 21.591768
65.280 21.285631
65.285 21.374708
65.290 21.4981
65.295 21.198252
65.300 21.95229
65.305 22.235846
65.310 22.338238
65.315 22.212704
65.320 21.644032
65.325 21.932335
65.330 22.137098
65.335 21.555756
65.340 21.322817
65.345 21.621408
65.350 22.39789
65.355 22.621544
65.360 22.727356
65.365 22.882708
65.370 23.492741
65.375 23.88658
65.380 23.981991
65.385 23.602009
65.390 23.966419
65.395 23.460106
65.400 23.611166
65.405 23.858311
65.410 23.515175
65.415 22.915716
65.420 23.130793
65.425 22.996084
65.430 23.448481
65.435 23.201765
65.440 23.385387
65.445 23.933081
65.450 24.45121
65.455 24.54434
65.460 24.616898
65.465 24.36837
65.470 24.253529
65.475 23.975039
65.480 24.021362
65.485 24.55368
65.490 25.269989
65.495 25.372784
65.500 26.100496
65.505 27.664177
65.510 28.327736
65.515 28.49667
65.520 28.258148
65.525 28.386581
65.530 28.919127
65.535 28.348692
65.540 26.87335
65.545 27.115906
65.550 26.919962
65.555 26.708435
65.560 26.63755
65.565 26.578194
65.570 26.874264
65.575 27.91544
65.580 28.85693
65.585 29.314762
65.590 29.573044
65.595 29.647757
65.600 30.29311
65.605 30.267385
65.610 30.211241
65.615 29.742928
65.620 30.344275
65.625 30.333668
65.630 29.624855
65.635 29.072063
65.640 29.549051
65.645 29.381878
65.650 29.083439
65.655 29.189686
65.660 29.67153
65.665 30.356262
65.670 30.926041
65.675 30.503181
65.680 31.223011
65.685 31.180027
65.690 31.367662
65.695 31.010054
65.700 30.909235
65.705 30.65431
65.710 31.983154
65.715 32.304062
65.720 32.581249
65.725 32.500202
65.730 33.395195
65.735 33.910992
65.740 34.142857
65.745 33.675503
65.750 33.923195
65.755 34.160557
65.760 34.289845
65.765 34.33688
65.770 34.667355
65.775 34.980682
65.780 35.162792
65.785 35.21796
65.790 35.463379
65.795 35.730751
65.800 35.686253
65.805 35.519508
65.810 35.043854
65.815 35.324543
65.820 35.762653
65.825 35.564064
65.830 35.550789
65.835 35.461613
65.840 35.955376
65.845 36.474602
65.850 36.198257
65.855 35.846577
65.860 36.77684
65.865 36.48489
65.870 36.419613
65.875 36.246071
65.880 36.661682
65.885 36.206516
65.890 36.242905
65.895 35.677094
65.900 36.303947
65.905 36.150246
65.910 36.603512
65.915 36.547565
65.920 37.29858
65.925 37.998234
65.930 37.85825
65.935 37.893131
65.940 38.121994
65.945 37.906788
65.950 37.468834
65.955 37.795586
65.960 37.867569
65.965 38.385918
65.970 38.622952
65.975 38.568748
65.980 37.506123
65.985 37.18248
65.990 36.381603
65.995 35.346542
66.000 35.626945
66.005 35.624641
66.010 35.543564
66.015 35.966915
66.020 36.23243
66.025 36.965424
66.030 37.763649
66.035 37.319866
66.040 36.916866
66.045 37.321938
66.050 37.846378
66.055 37.641895
66.060 37.232304
66.065 36.301445
66.070 36.153072
66.075 35.432301
66.080 35.283932
66.085 35.157753
66.090 35.732384
66.095 35.706154
66.100 36.044064
66.105 36.184128
66.110 36.727684
66.115 35.633801
66.120 34.859146
66.125 33.807579
66.130 33.256771
66.135 33.082939
66.140 33.175182
66.145 33.047707
66.150 33.722202
66.155 33.856079
66.160 33.778351
66.165 33.683895
66.170 32.974827
66.175 31.909002
66.180 31.41514
66.185 31.401545
66.190 31.536011
66.195 31.479252
66.200 31.845991
66.205 32.315296
66.210 32.843575
66.215 33.579365
66.220 33.405975
66.225 33.043777
66.230 33.302444
66.235 33.539009
66.240 33.916531
66.245 33.693279
66.250 33.202511
66.255 32.850319
66.260 33.299889
66.265 33.784069
66.270 33.670826
66.275 32.944134
66.280 32.998802
66.285 33.012859
66.290 33.118717
66.295 32.769279
66.300 32.138592
66.305 32.136093
66.310 31.833467
66.315 32.088917
66.320 31.796436
66.325 31.825619
66.330 32.153957
66.335 31.805475
66.340 30.788475
66.345 30.857052
66.350 30.589214
66.355 30.325706
66.360 29.739273
66.365 29.407478
66.370 29.427214
66.375 29.811171
66.380 29.807505
66.385 29.435921
66.390 29.685783
66.395 29.822479
66.400 29.753016
66.405 30.338043
66.410 29.761051
66.415 29.96261
66.420 30.219213
66.425 30.205629
66.430 28.823782
66.435 28.111208
66.440 27.332052
66.445 27.799757
66.450 27.184746
66.455 27.083647
66.460 27.063309
66.465 27.695475
66.470 27.886602
66.475 27.540157
66.480 26.563377
66.485 26.559654
66.490 25.999056
66.495 25.998341
66.500 26.048559
66.505 25.750605
66.510 25.691004
66.515 25.351515
66.520 25.05658
66.525 25.049089
66.530 24.925533
66.535 25.526737
66.540 25.938215
66.545 26.275499
66.550 26.368317
66.555 26.206617
66.560 26.013311
66.565 26.193905
66.570 25.707518
66.575 25.7943
66.580 25.91506
66.585 25.987698
66.590 25.462877
66.595 25.298222
66.600 24.626432
66.605 24.824381
66.610 25.246061
66.615 25.206743
66.620 25.388149
66.625 26.602934
66.630 27.062057
66.635 27.31451
66.640 26.968407
66.645 26.443394
66.650 26.108583
66.655 25.974485
66.660 24.743221
66.665 24.561001
66.670 24.538677
66.675 24.385349
66.680 24.437138
66.685 24.726376
66.690 24.733694
66.695 25.1071
66.700 24.965433
66.705 24.93791
66.710 25.078224
66.715 24.74938
66.720 24.74803
66.725 24.465612
66.730 24.215338
66.735 24.607376
66.740 24.484495
66.745 24.562681
66.750 25.095018
66.755 25.159245
66.760 24.958782
66.765 24.781635
66.770 23.986542
66.775 23.434462
66.780 22.884552
66.785 21.913397
66.790 21.53953
66.795 21.457172
66.800 21.712795
66.805 22.06465
66.810 22.108019
66.815 22.144526
66.820 22.418093
66.825 22.551933
66.830 22.409634
66.835 22.437313
66.840 22.871025
66.845 23.018522
66.850 22.928257
66.855 22.990164
66.860 22.497425
66.865 22.754601
66.870 22.866608
66.875 22.603878
66.880 22.654497
66.885 22.770359
66.890 23.002346
66.895 23.823351
66.900 23.540829
66.905 23.188692
66.910 22.687902
66.915 22.156136
66.920 21.988077
66.925 21.809624
66.930 21.240444
66.935 21.345922
66.940 21.106209
66.945 21.905636
66.950 22.460907
66.955 22.819351
66.960 22.926949
66.965 23.41198
66.970 23.680258
66.975 23.787346
66.980 23.567217
66.985 23.095098
66.990 22.855425
66.995 22.71463
67.000 22.636061
67.005 22.494137
67.010 22.557627
67.015 22.087175
67.020 21.86899
67.025 21.916285
67.030 22.025417
67.035 22.621906
67.040 22.526733
67.045 22.67935
67.050 23.152098
67.055 23.35368
67.060 22.776793
67.065 22.342581
67.070 21.892345
67.075 21.819801
67.080 21.635632
67.085 21.686018
67.090 21.591349
67.095 22.109554
67.100 21.907883
67.105 21.356796
67.110 21.333452
67.115 21.820047
67.120 21.510611
67.125 21.319624
67.130 21.734816
67.135 21.404037
67.140 21.082302
67.145 21.387909
67.150 21.02404
67.155 21.766529
67.160 22.065804
67.165 21.542315
67.170 21.944315
67.175 22.490486
67.180 22.561453
67.185 22.477066
67.190 22.170614
67.195 21.936779
67.200 22.177132
67.205 22.208395
67.210 22.130871
67.215 22.166933
67.220 22.459936
67.225 23.003931
67.230 23.364054
67.235 23.305485
67.240 23.516083
67.245 23.781805
67.250 23.666769
67.255 23.386366
67.260 22.740784
67.265 22.865685
67.270 22.984606
67.275 22.792177
67.280 22.34071
67.285 22.263926
67.290 22.190723
67.295 22.285755
67.300 21.600584
67.305 21.354397
67.310 20.956297
67.315 20.321119
67.320 20.716084
67.325 21.121012
67.330 21.247381
67.335 20.984329
67.340 21.293468
67.345 22.047356
67.350 23.235558
67.355 22.858894
67.360 22.474419
67.365 22.878134
67.370 23.216368
67.375 22.897261
67.380 22.516502
67.385 21.795364
67.390 21.561703
67.395 21.772923
67.400 21.547632
67.405 21.09771
67.410 20.985048
67.415 21.315222
67.420 21.562492
67.425 21.979937
67.430 21.21512
67.435 20.906382
67.440 21.242857
67.445 21.442255
67.450 21.555765
67.455 21.40221
67.460 21.797482
67.465 22.290955
67.470 22.586124
67.475 22.804052
67.480 22.187763
67.485 21.934668
67.490 22.384878
67.495 21.347832
67.500 21.298124
67.505 21.037891
67.510 20.788084
67.515 21.051569
67.520 21.159487
67.525 21.255144
67.530 21.850302
67.535 21.871275
67.540 21.583908
67.545 21.647425
67.550 21.784698
67.555 21.941214
67.560 21.118599
67.565 20.766043
67.570 21.372305
67.575 21.899572
67.580 22.188473
67.585 22.440859
67.590 22.142004
67.595 22.395275
67.600 22.129972
67.605 21.855021
67.610 22.014826
67.615 21.60741
67.620 21.108377
67.625 20.871534
67.630 21.326674
67.635 21.91046
67.640 22.115322
67.645 22.129187
67.650 22.164814
67.655 22.122978
67.660 22.102858
67.665 21.525808
67.670 21.47298
67.675 21.231457
67.680 21.243704
67.685 21.198959
67.690 21.263144
67.695 21.305262
67.700 21.130455
67.705 20.386768
67.710 19.929972
67.715 19.939884
67.720 19.824913
67.725 20.24889
67.730 20.552225
67.735 21.280792
67.740 21.978922
67.745 22.017513
67.750 21.956404
67.755 22.061043
67.760 21.681568
67.765 21.314533
67.770 21.207052
67.775 21.083239
67.780 21.276531
67.785 21.296244
67.790 21.160629
67.795 20.81896
67.800 21.021679
67.805 20.893503
67.810 20.752462
67.815 21.229803
67.820 21.656622
67.825 22.115341
67.830 22.91267
67.835 22.726204
67.840 22.58004
67.845 22.600176
67.850 22.351601
67.855 22.291441
67.860 21.694059
67.865 20.953188
67.870 21.052004
67.875 20.858824
67.880 20.884928
67.885 20.600399
67.890 20.033054
67.895 20.320501
67.900 20.466948
67.905 20.606495
67.910 21.358284
67.915 21.41345
67.920 21.347282
67.925 21.922377
67.930 22.16498
67.935 21.930031
67.940 21.506771
67.945 21.370165
67.950 21.497932
67.955 21.742996
67.960 21.555313
67.965 21.828695
67.970 21.796932
67.975 21.358986
67.980 20.565348
67.985 20.174955
67.990 19.519112
67.995 18.769512
68.000 19.161041
68.005 19.452349
68.010 19.76984
68.015 20.205936
68.020 20.688402
68.025 21.563025
68.030 21.684097
68.035 21.186905
68.040 21.576679
68.045 21.491171
68.050 21.400284
68.055 21.063465
68.060 20.276121
68.065 20.388088
68.070 20.485294
68.075 20.535999
68.080 20.95409
68.085 21.183319
68.090 21.443298
68.095 21.941198
68.100 22.096863
68.105 22.071613
68.110 21.77916
68.115 21.872644
68.120 22.340521
68.125 22.163868
68.130 22.612204
68.135 22.435427
68.140 22.01236
68.145 22.151409
68.150 21.723751
68.155 21.189512
68.160 21.046421
68.165 20.749519
68.170 21.144661
68.175 21.238388
68.180 21.064838
68.185 21.254356
68.190 21.647661
68.195 21.815077
68.200 22.018398
68.205 22.146864
68.210 22.606548
68.215 23.249418
68.220 23.383862
68.225 23.168812
68.230 23.566141
68.235 23.220322
68.240 23.166061
68.245 22.916348
68.250 21.895746
68.255 21.153812
68.260 20.665318
68.265 20.064589
68.270 19.982182
68.275 19.293669
68.280 18.977943
68.285 19.368876
68.290 19.547344
68.295 19.951641
68.300 20.308809
68.305 20.271276
68.310 20.677828
68.315 20.852291
68.320 20.489002
68.325 20.782522
68.330 20.511209
68.335 20.210558
68.340 20.091955
68.345 19.593582
68.350 19.974352
68.355 20.828571
68.360 21.411201
68.365 21.492172
68.370 21.475706
68.375 21.863703
68.380 22.171373
68.385 21.553825
68.390 21.041656
68.395 20.261715
68.400 20.037035
68.405 20.066166
68.410 20.193596
68.415 20.665661
68.420 20.551537
68.425 20.963121
68.430 21.25691
68.435 20.842312
68.440 20.782324
68.445 20.426966
68.450 20.140808
68.455 20.657986
68.460 20.337751
68.465 20.490517
68.470 21.415115
68.475 22.057512
68.480 22.255068
68.485 22.063923
68.490 21.801857
68.495 21.968966
68.500 21.841022
68.505 21.271173
68.510 20.927511
68.515 20.997686
68.520 20.664089
68.525 20.643538
68.530 20.888086
68.535 20.876045
68.540 20.825291
68.545 20.715849
68.550 20.472006
68.555 21.199978
68.560 21.443041
68.565 21.534683
68.570 21.658642
68.575 21.898779
68.580 21.724373
68.585 21.89974
68.590 21.401205
68.595 20.850554
68.600 20.51959
68.605 20.742867
68.610 20.987446
68.615 21.82987
68.620 22.367905
68.625 23.030573
68.630 22.806406
68.635 23.190208
68.640 23.125246
68.645 23.205904
68.650 23.254019
68.655 22.866745
68.660 22.598402
68.665 22.359974
68.670 22.156847
68.675 22.192934
68.680 22.194185
68.685 21.658792
68.690 20.980078
68.695 21.177197
68.700 21.890656
68.705 21.509201
68.710 21.406279
68.715 20.825203
68.720 21.276508
68.725 22.060934
68.730 22.455111
68.735 22.343178
68.740 22.263721
68.745 22.059328
68.750 22.095415
68.755 22.20396
68.760 21.856379
68.765 21.50342
68.770 21.047215
68.775 21.270218
68.780 21.626148
68.785 21.533051
68.790 21.358013
68.795 21.240196
68.800 22.001829
68.805 22.518158
68.810 22.803312
68.815 22.874256
68.820 23.639389
68.825 24.056911
68.830 24.22386
68.835 23.95536
68.840 24.154346
68.845 23.797228
68.850 23.596008
68.855 23.103458
68.860 23.07892
68.865 23.341326
68.870 23.125252
68.875 22.939655
68.880 22.811457
68.885 22.436609
68.890 22.066748
68.895 21.964222
68.900 22.225306
68.905 22.742115
68.910 22.625116
68.915 22.996128
68.920 23.578821
68.925 24.165672
68.930 24.255037
68.935 23.442268
68.940 23.388367
68.945 22.885946
68.950 22.803617
68.955 23.103098
68.960 23.329811
68.965 23.728424
68.970 23.187332
68.975 22.941683
68.980 22.993181
68.985 22.914867
68.990 22.658352
68.995 21.754299
69.000 21.912878
69.005 22.801043
69.010 23.547621
69.015 24.229538
69.020 23.588152
69.025 23.220819
69.030 23.654549
69.035 23.709173
69.040 23.692757
69.045 22.810749
69.050 23.164263
69.055 23.787575
69.060 24.637373
69.065 24.988012
69.070 24.540348
69.075 24.748465
69.080 25.195232
69.085 25.213739
69.090 25.260527
69.095 24.773582
69.100 25.261311
69.105 25.538939
69.110 25.496904
69.115 25.913628
69.120 25.845547
69.125 25.650322
69.130 25.482868
69.135 25.161705
69.140 25.446781
69.145 25.07283
69.150 25.412102
69.155 25.741524
69.160 25.797075
69.165 26.110882
69.170 25.751226
69.175 26.04047
69.180 26.365881
69.185 26.087971
69.190 26.711098
69.195 26.923716
69.200 26.919828
69.205 27.150328
69.210 26.982168
69.215 27.666801
69.220 27.889282
69.225 27.750917
69.230 27.47842
69.235 26.947359
69.240 26.857395
69.245 26.733568
69.250 25.934723
69.255 25.362709
69.260 25.186392
69.265 25.432714
69.270 25.516443
69.275 25.678444
69.280 25.813219
69.285 26.493101
69.290 27.071484
69.295 27.100218
69.300 27.649506
69.305 27.708834
69.310 27.441456
69.315 27.13616
69.320 26.237181
69.325 25.625547
69.330 25.10004
69.335 24.795597
69.340 25.269583
69.345 25.37397
69.350 25.402105
69.355 25.905897
69.360 25.829725
69.365 25.823988
69.370 26.276114
69.375 26.144957
69.380 26.745026
69.385 26.802408
69.390 27.111807
69.395 27.620155
69.400 27.979818
69.405 27.466114
69.410 27.944834
69.415 27.804983
69.420 27.362684
69.425 27.70713
69.430 28.413202
69.435 29.10178
69.440 29.374538
69.445 29.486748
69.450 29.825686
69.455 30.091829
69.460 29.809969
69.465 29.436674
69.470 28.77211
69.475 28.161886
69.480 28.111912
69.485 28.6506
69.490 28.861572
69.495 29.098602
69.500 29.204836
69.505 30.424904
69.510 30.887667
69.515 30.166563
69.520 29.590513
69.525 29.876135
69.530 29.181236
69.535 28.88768
69.540 27.783451
69.545 27.895977
69.550 28.331944
69.555 27.812752
69.560 27.219458
69.565 27.195711
69.570 27.133797
69.575 27.608942
69.580 27.422709
69.585 27.148911
69.590 27.362335
69.595 27.208284
69.600 27.208275
69.605 27.151154
69.610 26.760824
69.615 26.740461
69.620 26.806744
69.625 27.413973
69.630 27.766708
69.635 27.428631
69.640 27.484325
69.645 27.498434
69.650 27.145351
69.655 27.098682
69.660 26.414833
69.665 26.153372
69.670 27.175407
69.675 27.477077
69.680 27.750721
69.685 27.603355
69.690 27.721581
69.695 28.424158
69.700 28.971893
69.705 28.410212
69.710 27.75112
69.715 27.438618
69.720 27.359903
69.725 27.43701
69.730 26.893396
69.735 26.640003
69.740 26.32198
69.745 26.335182
69.750 26.23798
69.755 26.607496
69.760 27.127262
69.765 26.575964
69.770 26.222439
69.775 26.442753
69.780 26.502224
69.785 25.949326
69.790 25.224264
69.795 24.76931
69.800 24.832022
69.805 24.456684
69.810 24.152748
69.815 24.400776
69.820 24.416988
69.825 24.397795
69.830 23.872364
69.835 24.482973
69.840 24.213955
69.845 23.821184
69.850 23.574753
69.855 24.08869
69.860 23.4547
69.865 22.899315
69.870 22.822052
69.875 23.613304
69.880 23.173429
69.885 22.77347
69.890 22.545074
69.895 22.702293
69.900 21.871511
69.905 21.747849
69.910 21.707516
69.915 22.274567
69.920 22.708761
69.925 22.924438
69.930 23.309948
69.935 24.181797
69.940 23.298817
69.945 23.004345
69.950 23.27787
69.955 22.972841
69.960 22.622269
69.965 22.892818
69.970 22.621515
69.975 22.680925
69.980 22.227293
69.985 21.272114
69.990 20.888916
69.995 21.504316
70.000 21.686922
70.005 22.087517
70.010 22.213507
70.015 22.634291
70.020 22.775059
70.025 23.085649
70.030 21.96546
70.035 20.565889
70.040 20.162832
70.045 20.184156
70.050 19.945938
70.055 19.873135
70.060 19.438869
70.065 19.619612
70.070 20.152725
70.075 19.825592
70.080 19.315184
70.085 19.184946
70.090 19.276836
70.095 19.257423
70.100 19.684206
70.105 19.697533
70.110 19.827555
70.115 20.341433
70.120 21.082228
70.125 21.619055
70.130 22.185442
70.135 22.738029
70.140 23.042208
70.145 23.128531
70.150 22.855501
70.155 22.127489
70.160 21.561327
70.165 20.528807
70.170 19.578913
70.175 19.359484
70.180 19.521408
70.185 19.64642
70.190 19.822237
70.195 19.8808
70.200 19.923897
70.205 19.923349
70.210 19.98571
70.215 19.626961
70.220 19.569683
70.225 19.131123
70.230 19.54516
70.235 20.229319
70.240 20.504274
70.245 20.647678
70.250 20.931541
70.255 21.112154
70.260 21.902897
70.265 21.782291
70.270 21.284168
70.275 21.423378
70.280 21.666822
70.285 21.58032
70.290 20.964977
70.295 20.267822
70.300 19.853102
70.305 19.751801
70.310 19.726439
70.315 20.240452
70.320 21.283319
70.325 21.590864
70.330 21.468365
70.335 21.736786
70.340 22.24184
70.345 21.847067
70.350 20.886503
70.355 20.156242
70.360 20.542303
70.365 21.1835
70.370 21.361004
70.375 21.559967
70.380 21.696081
70.385 22.120274
70.390 21.894787
70.395 21.443001
70.400 20.981041
70.405 20.257568
70.410 19.576866
70.415 19.105373
70.420 18.956987
70.425 19.157913
70.430 19.661556
70.435 19.720655
70.440 19.954798
70.445 19.831465
70.450 19.681133
70.455 19.336504
70.460 18.947714
70.465 18.140781
70.470 18.632454
70.475 18.756659
70.480 19.114792
70.485 19.60976
70.490 19.767191
70.495 20.412041
70.500 20.949263
70.505 21.352634
70.510 21.099665
70.515 20.496302
70.520 20.367392
70.525 20.332882
70.530 19.940752
70.535 19.227846
70.540 18.804178
70.545 19.195269
70.550 19.808769
70.555 19.876961
70.560 20.265278
70.565 20.381952
70.570 20.204081
70.575 19.601162
70.580 19.58123
70.585 19.783512
70.590 19.641184
70.595 19.380909
70.600 19.144878
70.605 19.028738
70.610 18.933891
70.615 19.350773
70.620 19.224451
70.625 19.28233
70.630 19.004055
70.635 19.191706
70.640 19.820852
70.645 20.146273
70.650 19.594118
70.655 19.344551
70.660 19.615948
70.665 19.770969
70.670 19.53261
70.675 19.766329
70.680 20.003202
70.685 20.073761
70.690 20.490543
70.695 20.189631
70.700 19.919664
70.705 19.686678
70.710 19.222713
70.715 18.696321
70.720 18.693491
70.725 18.162415
70.730 18.194847
70.735 18.340261
70.740 18.271358
70.745 17.871185
70.750 18.123631
70.755 18.771072
70.760 18.828442
70.765 19.070898
70.770 19.430283
70.775 19.524559
70.780 19.471859
70.785 19.201649
70.790 18.953251
70.795 19.224699
70.800 19.692047
70.805 20.223644
70.810 20.679314
70.815 20.855253
70.820 21.317266
70.825 20.974409
70.830 20.570642
70.835 20.302382
70.840 20.071896
70.845 19.635546
70.850 18.962976
70.855 18.273014
70.860 18.531879
70.865 19.313673
70.870 19.316397
70.875 19.263086
70.880 20.273479
70.885 21.008978
70.890 21.403713
70.895 20.814848
70.900 20.390533
70.905 20.308685
70.910 20.007849
70.915 19.198708
70.920 18.75436
70.925 18.831676
70.930 18.386446
70.935 18.35478
70.940 18.235285
70.945 17.966887
70.950 18.36344
70.955 18.356398
70.960 18.421846
70.965 19.637213
70.970 19.582117
70.975 20.084698
70.980 20.478159
70.985 20.616806
70.990 20.912066
70.995 20.967989
71.000 19.894876
71.005 19.766741
71.010 19.758404
71.015 19.817327
71.020 19.481461
71.025 18.724613
71.030 18.83544
71.035 19.465668
71.040 19.634504
71.045 19.537416
71.050 19.605419
71.055 19.76486
71.060 20.031858
71.065 19.743605
71.070 19.611788
71.075 19.318607
71.080 18.955591
71.085 18.936314
71.090 19.315054
71.095 19.55685
71.100 19.264332
71.105 19.238358
71.110 19.218382
71.115 19.404385
71.120 18.976345
71.125 18.964298
71.130 18.864967
71.135 18.773602
71.140 18.625015
71.145 18.291021
71.150 18.581804
71.155 19.10191
71.160 18.883202
71.165 19.398726
71.170 19.717136
71.175 19.902136
71.180 20.199623
71.185 20.227476
71.190 19.710991
71.195 19.141697
71.200 18.382288
71.205 17.689381
71.210 17.305458
71.215 17.238552
71.220 16.610218
71.225 16.78182
71.230 16.793356
71.235 17.10877
71.240 17.43856
71.245 17.864235
71.250 17.642847
71.255 17.829599
71.260 18.252642
71.265 18.788313
71.270 18.9014
71.275 19.001999
71.280 18.445442
71.285 19.297108
71.290 19.415922
71.295 18.959419
71.300 18.424202
71.305 18.858561
71.310 19.212238
71.315 19.899326
71.320 19.828991
71.325 20.021301
71.330 20.304218
71.335 21.120575
71.340 20.351254
71.345 20.337177
71.350 19.973278
71.355 19.690845
71.360 19.541409
71.365 19.62258
71.370 18.974688
71.375 19.258535
71.380 18.917688
71.385 18.753937
71.390 18.62929
71.395 18.799408
71.400 18.975311
71.405 19.227896
71.410 19.51734
71.415 20.009348
71.420 20.101841
71.425 19.919603
71.430 20.080919
71.435 19.948473
71.440 19.670862
71.445 19.003689
71.450 18.675383
71.455 18.584675
71.460 18.652941
71.465 18.340164
71.470 18.81249
71.475 18.858595
71.480 18.795357
71.485 18.707787
71.490 19.234291
71.495 19.679506
71.500 19.828028
71.505 19.056868
71.510 18.89279
71.515 19.010984
71.520 19.452156
71.525 19.021593
71.530 18.465681
71.535 18.19943
71.540 18.489016
71.545 18.689623
71.550 18.415533
71.555 18.092651
71.560 18.094326
71.565 18.223722
71.570 18.517498
71.575 18.60701
71.580 18.665249
71.585 18.789015
71.590 19.125256
71.595 19.44096
71.600 19.528141
71.605 19.437115
71.610 19.546902
71.615 19.682339
71.620 19.593596
71.625 19.181437
71.630 19.255714
71.635 19.416513
71.640 19.775618
71.645 19.544111
71.650 19.100451
71.655 19.08066
71.660 18.841372
71.665 18.911213
71.670 18.567141
71.675 18.651192
71.680 18.778933
71.685 18.790812
71.690 18.506916
71.695 19.029427
71.700 19.039396
71.705 18.958138
71.710 18.901855
71.715 18.853168
71.720 19.012783
71.725 18.444607
71.730 17.711994
71.735 17.498335
71.740 16.832985
71.745 16.758118
71.750 17.243185
71.755 17.603678
71.760 17.797049
71.765 18.24028
71.770 18.72031
71.775 19.020697
71.780 18.815905
71.785 19.1397
71.790 19.022505
71.795 19.423368
71.800 18.698841
71.805 18.250242
71.810 18.906261
71.815 18.662354
71.820 18.766153
71.825 18.558735
71.830 18.34477
71.835 18.840723
71.840 18.652693
71.845 18.262291
71.850 18.405939
71.855 17.943207
71.860 18.127901
71.865 18.304504
71.870 18.399214
71.875 18.649433
71.880 18.480923
71.885 18.851675
71.890 19.112263
71.895 19.327471
71.900 19.417654
71.905 19.199343
71.910 19.053825
71.915 18.352678
71.920 17.753084
71.925 17.482977
71.930 17.06579
71.935 16.890188
71.940 17.125902
71.945 17.185762
71.950 17.90143
71.955 17.817169
71.960 18.016226
71.965 18.182335
71.970 17.822235
71.975 17.698359
71.980 17.406214
71.985 17.305189
71.990 17.390114
71.995 18.159618
72.000 18.136351
72.005 18.386717
72.010 18.427326
72.015 18.443855
72.020 18.661926
72.025 18.82655
72.030 18.679611
72.035 18.981792
72.040 18.9939
72.045 19.971642
72.050 20.669767
72.055 20.432673
72.060 20.376741
72.065 19.924688
72.070 19.688271
72.075 18.65089
72.080 17.111223
72.085 17.165543
72.090 17.482288
72.095 17.422178
72.100 17.66357
72.105 18.488316
72.110 19.242683
72.115 18.817106
72.120 18.444599
72.125 18.22883
72.130 17.973625
72.135 17.658205
72.140 17.095728
72.145 17.459957
72.150 17.171844
72.155 16.942991
72.160 16.779083
72.165 16.806053
72.170 16.691736
72.175 16.861746
72.180 16.71353
72.185 17.427891
72.190 17.97366
72.195 17.895699
72.200 17.977751
72.205 17.704447
72.210 17.968466
72.215 18.480055
72.220 18.431997
72.225 18.33794
72.230 18.28072
72.235 18.538233
72.240 18.668724
72.245 18.202854
72.250 17.392017
72.255 17.347645
72.260 17.188272
72.265 17.084291
72.270 17.057322
72.275 16.777002
72.280 16.786938
72.285 17.033077
72.290 16.678505
72.295 16.646826
72.300 16.472786
72.305 16.924099
72.310 17.181408
72.315 17.2745
72.320 17.14381
72.325 17.110104
72.330 16.850182
72.335 16.886831
72.340 16.366428
72.345 16.396805
72.350 17.2994
72.355 17.655457
72.360 18.340681
72.365 18.298504
72.370 17.992456
72.375 18.593338
72.380 18.335571
72.385 18.014574
72.390 18.304016
72.395 18.652889
72.400 19.028477
72.405 18.763008
72.410 18.84123
72.415 19.498329
72.420 19.878239
72.425 18.860056
72.430 18.136833
72.435 18.117855
72.440 18.034636
72.445 17.51862
72.450 16.56868
72.455 16.036507
72.460 16.247911
72.465 16.142052
72.470 16.459709
72.475 16.299776
72.480 16.160503
72.485 16.243473
72.490 16.407316
72.495 17.093468
72.500 17.037708
72.505 16.962748
72.510 17.279194
72.515 16.862976
72.520 17.009119
72.525 16.795218
72.530 16.55372
72.535 16.810745
72.540 17.044006
72.545 16.464279
72.550 16.615604
72.555 16.838251
72.560 17.108795
72.565 17.178988
72.570 16.985216
72.575 17.643784
72.580 18.782991
72.585 18.888912
72.590 18.594612
72.595 18.49781
72.600 19.013775
72.605 19.723379
72.610 19.801405
72.615 19.74938
72.620 20.357061
72.625 20.352848
72.630 19.902315
72.635 18.927574
72.640 18.252964
72.645 17.923145
72.650 17.323782
72.655 16.956648
72.660 17.173851
72.665 17.266636
72.670 17.091629
72.675 16.950581
72.680 16.558254
72.685 16.247915
72.690 15.838475
72.695 15.614945
72.700 15.520048
72.705 14.934741
72.710 14.895805
72.715 15.100803
72.720 15.435976
72.725 15.572452
72.730 15.876199
72.735 16.588503
72.740 17.218889
72.745 17.002459
72.750 16.879824
72.755 16.353708
72.760 16.251497
72.765 15.882618
72.770 16.140875
72.775 17.157848
72.780 17.642113
72.785 18.043037
72.790 18.414991
72.795 18.077345
72.800 17.787653
72.805 16.996334
72.810 16.326319
72.815 15.981244
72.820 15.83597
72.825 15.390016
72.830 15.618272
72.835 15.757295
72.840 15.996978
72.845 16.480858
72.850 16.454851
72.855 16.928698
72.860 17.463123
72.865 17.767208
72.870 17.881863
72.875 17.283833
72.880 16.913382
72.885 17.031616
72.890 17.106775
72.895 17.363832
72.900 17.364058
72.905 17.583197
72.910 18.604074
72.915 19.199671
72.920 19.809732
72.925 19.892601
72.930 19.448696
72.935 19.191538
72.940 18.5242
72.945 18.188065
72.950 17.588017
72.955 17.171923
72.960 16.202524
72.965 16.65523
72.970 17.033398
72.975 17.312065
72.980 16.983257
72.985 17.232075
72.990 17.878439
72.995 18.542873
73.000 18.479637
