!@!!GADDS PLOTSO FILE: Chi integration type
!@!!Title/SampleName: map-61
!@!!Comment: ?
!@!!User: Bruker Instrument Administrator
!@!!Site: University of Illinois Chicago
!@!!Frame: map-61_01_000.gfrm
!@!!Wavelengths    1.54184   1.54056   1.54439
!@!!Frame angles: 2Theta: 63.000 Omega: 50.000 Phi: 0.000 Chi: 90.000
!@!!Integration range: 2Theta: 53.000 to 73.000  Gamma: -105.000 to -75.000
!@!!Integration method: bin normalized
!@!N
!@!SS
!@!M
!@!L 0.0 0.0 0.0 0.0
!@!XDegrees
!@!YCounts
53.000 7.063981
53.005 6.713584
53.010 6.69457
53.015 6.484545
53.020 6.021642
53.025 5.811554
53.030 5.780535
53.035 5.730023
53.040 5.890456
53.045 6.170239
53.050 6.600363
53.055 6.933209
53.060 7.123939
53.065 7.052894
53.070 7.184617
53.075 7.212578
53.080 7.00421
53.085 7.037063
53.090 7.259171
53.095 7.328356
53.100 7.542491
53.105 7.406488
53.110 7.10815
53.115 6.836038
53.120 6.828895
53.125 6.998266
53.130 7.057674
53.135 7.292212
53.140 7.424943
53.145 7.638093
53.150 7.96117
53.155 8.492695
53.160 8.575617
53.165 8.666265
53.170 8.360891
53.175 8.491554
53.180 8.150797
53.185 7.52539
53.190 6.86523
53.195 6.593765
53.200 6.624717
53.205 6.883164
53.210 7.113455
53.215 7.077891
53.220 7.369165
53.225 7.650621
53.230 7.768422
53.235 7.30637
53.240 7.165692
53.245 7.102214
53.250 7.264618
53.255 7.247583
53.260 6.957797
53.265 6.942576
53.270 7.268978
53.275 7.290726
53.280 7.446929
53.285 7.812023
53.290 7.959528
53.295 8.121603
53.300 8.302988
53.305 8.298378
53.310 8.366441
53.315 8.384119
53.320 8.1534
53.325 7.570084
53.330 7.553631
53.335 7.426302
53.340 7.958896
53.345 8.191118
53.350 8.380775
53.355 8.258414
53.360 8.583277
53.365 8.241836
53.370 7.790203
53.375 7.388868
53.380 7.286386
53.385 7.221666
53.390 7.808042
53.395 8.093259
53.400 8.68854
53.405 8.882693
53.410 8.834648
53.415 8.640875
53.420 8.336021
53.425 7.853161
53.430 7.569934
53.435 7.053759
53.440 7.096647
53.445 7.453426
53.450 7.584876
53.455 7.780921
53.460 7.604903
53.465 7.472358
53.470 7.710024
53.475 7.418662
53.480 7.80877
53.485 7.776937
53.490 7.740256
53.495 7.935706
53.500 8.016557
53.505 8.165346
53.510 7.744325
53.515 7.234383
53.520 7.256582
53.525 7.354868
53.530 7.450728
53.535 7.289139
53.540 7.136067
53.545 6.995715
53.550 7.116582
53.555 7.134434
53.560 7.169765
53.565 7.772029
53.570 8.333838
53.575 8.74765
53.580 9.178352
53.585 9.152836
53.590 9.511099
53.595 9.352899
53.600 8.93336
53.605 8.961434
53.610 9.055513
53.615 8.805449
53.620 8.659008
53.625 8.439008
53.630 8.589584
53.635 8.677165
53.640 8.71342
53.645 8.889101
53.650 9.101033
53.655 9.257659
53.660 9.295447
53.665 9.50494
53.670 9.503784
53.675 9.303073
53.680 9.26424
53.685 9.493518
53.690 9.166632
53.695 8.859838
53.700 8.194314
53.705 7.810908
53.710 7.977661
53.715 7.823248
53.720 7.594982
53.725 8.321948
53.730 8.67529
53.735 9.666194
53.740 9.929831
53.745 9.658617
53.750 9.828838
53.755 9.701469
53.760 9.202218
53.765 8.45858
53.770 7.913958
53.775 7.178823
53.780 7.087256
53.785 6.955385
53.790 7.022258
53.795 7.797046
53.800 8.096872
53.805 8.565492
53.810 8.959271
53.815 9.061778
53.820 9.125968
53.825 9.167163
53.830 8.827305
53.835 8.580966
53.840 8.344357
53.845 8.32068
53.850 8.478919
53.855 8.547603
53.860 8.215799
53.865 8.361645
53.870 8.215443
53.875 8.244729
53.880 8.371985
53.885 8.251169
53.890 8.163568
53.895 8.57476
53.900 8.374241
53.905 8.658104
53.910 8.304429
53.915 8.030009
53.920 8.244405
53.925 8.155088
53.930 8.171115
53.935 8.541907
53.940 8.448386
53.945 9.009855
53.950 8.972526
53.955 8.797454
53.960 8.931053
53.965 8.850362
53.970 8.981437
53.975 8.812814
53.980 8.305614
53.985 8.316177
53.990 8.026156
53.995 7.524191
54.000 7.622377
54.005 7.27292
54.010 7.518747
54.015 7.480444
54.020 7.763331
54.025 7.973079
54.030 8.005252
54.035 7.946247
54.040 8.417437
54.045 8.545539
54.050 8.750278
54.055 8.725434
54.060 9.171869
54.065 9.273421
54.070 8.89379
54.075 8.138112
54.080 7.911463
54.085 7.686155
54.090 7.570602
54.095 7.293505
54.100 7.639726
54.105 8.209866
54.110 8.315315
54.115 8.502833
54.120 8.504837
54.125 8.36647
54.130 8.586092
54.135 8.668771
54.140 8.6201
54.145 8.927376
54.150 9.118179
54.155 9.177019
54.160 9.105868
54.165 9.214768
54.170 9.10287
54.175 9.193262
54.180 8.993795
54.185 8.841079
54.190 9.177037
54.195 9.322438
54.200 9.063063
54.205 8.921609
54.210 9.097612
54.215 8.970732
54.220 9.192986
54.225 9.210752
54.230 9.397298
54.235 9.244202
54.240 9.200961
54.245 9.050475
54.250 8.892011
54.255 8.507987
54.260 8.514205
54.265 8.568316
54.270 9.206516
54.275 9.691343
54.280 9.461261
54.285 9.893237
54.290 10.140945
54.295 10.115354
54.300 9.870846
54.305 9.722948
54.310 9.628581
54.315 9.714892
54.320 9.58739
54.325 9.416952
54.330 9.391273
54.335 9.322325
54.340 8.960333
54.345 8.950098
54.350 9.077641
54.355 9.420465
54.360 9.255688
54.365 9.004175
54.370 9.074234
54.375 8.710232
54.380 8.757131
54.385 8.626309
54.390 8.26281
54.395 8.369712
54.400 8.263443
54.405 8.219374
54.410 8.589456
54.415 8.392138
54.420 8.355788
54.425 8.332114
54.430 8.57404
54.435 8.659467
54.440 8.785012
54.445 8.811203
54.450 8.568666
54.455 8.395442
54.460 8.688991
54.465 8.281794
54.470 8.321926
54.475 8.173685
54.480 8.014301
54.485 7.965519
54.490 7.729928
54.495 7.419912
54.500 7.43428
54.505 7.226159
54.510 7.531318
54.515 8.090506
54.520 8.522732
54.525 9.203941
54.530 9.375459
54.535 9.424571
54.540 9.61081
54.545 9.162903
54.550 9.324543
54.555 9.446766
54.560 9.171368
54.565 9.500076
54.570 9.755733
54.575 9.544278
54.580 9.34467
54.585 8.826823
54.590 8.953856
54.595 8.721338
54.600 8.414173
54.605 8.644389
54.610 9.001485
54.615 9.179008
54.620 9.199368
54.625 9.074017
54.630 9.404606
54.635 9.776737
54.640 9.611895
54.645 9.462452
54.650 9.721137
54.655 9.960967
54.660 10.215167
54.665 10.228369
54.670 10.132224
54.675 9.454906
54.680 9.240815
54.685 8.917459
54.690 8.505748
54.695 8.384579
54.700 8.052839
54.705 8.09483
54.710 8.996518
54.715 9.428219
54.720 9.632586
54.725 9.669484
54.730 10.124703
54.735 10.17735
54.740 9.859333
54.745 10.164859
54.750 10.053276
54.755 9.896765
54.760 9.589046
54.765 9.196684
54.770 9.636003
54.775 9.789962
54.780 9.28644
54.785 9.263885
54.790 9.811891
54.795 10.107972
54.800 9.841569
54.805 9.678126
54.810 9.628701
54.815 9.841775
54.820 9.649071
54.825 9.690439
54.830 9.573833
54.835 9.73607
54.840 9.385666
54.845 9.449688
54.850 9.291214
54.855 9.327447
54.860 9.134074
54.865 9.053454
54.870 9.542355
54.875 10.165409
54.880 10.734694
54.885 10.557672
54.890 10.494231
54.895 10.953697
54.900 11.736384
54.905 11.857457
54.910 11.466091
54.915 11.091467
54.920 11.639262
54.925 11.646219
54.930 11.165949
54.935 10.138206
54.940 9.698624
54.945 10.054324
54.950 10.333724
54.955 10.230578
54.960 10.17144
54.965 10.079596
54.970 10.516164
54.975 10.545133
54.980 10.174699
54.985 10.168969
54.990 9.762004
54.995 9.980983
55.000 10.024032
55.005 10.291931
55.010 9.988726
55.015 9.425874
55.020 9.402762
55.025 9.771269
55.030 10.16257
55.035 10.178688
55.040 9.864114
55.045 10.348507
55.050 10.279176
55.055 10.501123
55.060 10.042925
55.065 9.366983
55.070 9.373843
55.075 9.488695
55.080 9.616661
55.085 9.909207
55.090 9.742422
55.095 10.253179
55.100 10.15692
55.105 10.084859
55.110 10.035406
55.115 10.471757
55.120 10.69734
55.125 10.182594
55.130 9.889915
55.135 10.23155
55.140 10.485461
55.145 10.454633
55.150 9.842862
55.155 9.655707
55.160 10.030282
55.165 10.11756
55.170 9.56918
55.175 9.146399
55.180 9.126003
55.185 9.579785
55.190 9.653719
55.195 9.37619
55.200 9.610176
55.205 10.151054
55.210 10.055546
55.215 9.9747
55.220 9.472973
55.225 9.649551
55.230 9.974506
55.235 9.762966
55.240 9.968027
55.245 9.902284
55.250 10.257969
55.255 10.13404
55.260 9.930715
55.265 9.825376
55.270 9.627076
55.275 9.735472
55.280 10.07344
55.285 9.675928
55.290 9.732181
55.295 9.437201
55.300 9.506245
55.305 9.573963
55.310 9.341734
55.315 9.224196
55.320 9.603198
55.325 9.48538
55.330 9.578111
55.335 9.945988
55.340 9.827787
55.345 9.372971
55.350 9.204172
55.355 8.895485
55.360 9.476375
55.365 9.58264
55.370 9.574358
55.375 9.923929
55.380 10.012908
55.385 10.084764
55.390 10.433164
55.395 10.281541
55.400 10.300482
55.405 9.803425
55.410 10.390522
55.415 10.849293
55.420 10.825991
55.425 10.442163
55.430 10.231496
55.435 10.161448
55.440 10.114892
55.445 9.62909
55.450 9.654941
55.455 9.939517
55.460 10.710596
55.465 11.056133
55.470 11.207661
55.475 11.127132
55.480 11.077003
55.485 10.901668
55.490 11.081055
55.495 10.34004
55.500 10.140784
55.505 10.151685
55.510 10.448768
55.515 10.539363
55.520 10.3682
55.525 10.638283
55.530 10.757098
55.535 10.588764
55.540 10.541759
55.545 10.383495
55.550 10.619805
55.555 10.452655
55.560 10.273522
55.565 10.230031
55.570 10.273643
55.575 10.369935
55.580 10.59761
55.585 10.499483
55.590 10.563349
55.595 10.514717
55.600 10.430851
55.605 10.234014
55.610 10.337444
55.615 10.29102
55.620 10.445275
55.625 10.446309
55.630 10.896624
55.635 11.296605
55.640 11.593796
55.645 11.301562
55.650 10.816436
55.655 10.482101
55.660 10.726853
55.665 10.818173
55.670 10.730268
55.675 10.833562
55.680 10.964969
55.685 11.101336
55.690 11.072557
55.695 10.386762
55.700 9.862535
55.705 9.831223
55.710 9.181707
55.715 9.098838
55.720 9.246373
55.725 9.585871
55.730 9.828285
55.735 9.802572
55.740 9.992843
55.745 10.729546
55.750 10.688009
55.755 10.638979
55.760 10.335093
55.765 10.071815
55.770 9.613073
55.775 8.956393
55.780 8.315298
55.785 8.072043
55.790 7.641834
55.795 8.105168
55.800 8.364518
55.805 8.991864
55.810 9.767188
55.815 10.457347
55.820 11.365785
55.825 11.57728
55.830 11.377855
55.835 12.127695
55.840 12.275754
55.845 12.003453
55.850 11.506925
55.855 11.33729
55.860 11.785443
55.865 11.859472
55.870 11.364644
55.875 11.668559
55.880 12.035945
55.885 12.420651
55.890 12.503138
55.895 12.150777
55.900 11.956427
55.905 11.853095
55.910 11.993685
55.915 11.552282
55.920 11.53289
55.925 11.227237
55.930 11.402083
55.935 11.66688
55.940 11.741251
55.945 11.553472
55.950 11.81868
55.955 12.071401
55.960 12.286383
55.965 11.948675
55.970 11.892449
55.975 11.644761
55.980 11.165212
55.985 10.802872
55.990 10.447804
55.995 10.869502
56.000 10.963928
56.005 11.082435
56.010 10.923304
56.015 11.076311
56.020 11.029642
56.025 11.143847
56.030 10.877979
56.035 10.983448
56.040 10.709404
56.045 10.681522
56.050 10.606248
56.055 10.529808
56.060 10.187398
56.065 10.125992
56.070 10.297998
56.075 10.684115
56.080 11.09734
56.085 11.134183
56.090 11.313478
56.095 11.375672
56.100 10.994724
56.105 10.924151
56.110 11.129704
56.115 11.483949
56.120 12.138883
56.125 12.570128
56.130 12.673208
56.135 12.68092
56.140 12.620263
56.145 12.568683
56.150 12.028467
56.155 11.58425
56.160 11.483101
56.165 11.79242
56.170 11.710378
56.175 11.280389
56.180 11.021845
56.185 11.36338
56.190 11.339132
56.195 10.790561
56.200 10.739308
56.205 10.743249
56.210 10.692907
56.215 10.395842
56.220 10.195884
56.225 10.745706
56.230 11.430665
56.235 11.518426
56.240 11.805403
56.245 11.869708
56.250 12.021905
56.255 11.933748
56.260 11.591129
56.265 11.033806
56.270 10.91383
56.275 11.142684
56.280 11.07402
56.285 11.049525
56.290 11.186936
56.295 10.819669
56.300 11.096191
56.305 11.189395
56.310 10.942719
56.315 10.884567
56.320 11.13054
56.325 11.556185
56.330 11.867892
56.335 11.998607
56.340 11.983519
56.345 12.492073
56.350 12.31305
56.355 11.644411
56.360 11.239655
56.365 11.281738
56.370 11.403236
56.375 11.659704
56.380 11.465715
56.385 11.696574
56.390 11.989238
56.395 12.026798
56.400 11.617035
56.405 11.105599
56.410 10.629301
56.415 10.870271
56.420 10.897025
56.425 11.198343
56.430 11.550175
56.435 11.973348
56.440 11.952872
56.445 12.102712
56.450 12.124736
56.455 12.660889
56.460 12.571408
56.465 12.237225
56.470 11.492999
56.475 11.380825
56.480 11.460369
56.485 11.3795
56.490 10.9385
56.495 10.587285
56.500 10.564325
56.505 11.195897
56.510 11.149052
56.515 11.566576
56.520 11.633266
56.525 11.847482
56.530 11.81223
56.535 11.637741
56.540 11.558981
56.545 12.227566
56.550 12.362238
56.555 12.370872
56.560 12.239384
56.565 12.360591
56.570 12.707307
56.575 12.347698
56.580 11.609783
56.585 10.902401
56.590 10.4224
56.595 10.542513
56.600 10.66296
56.605 10.704255
56.610 11.313985
56.615 11.218648
56.620 11.436121
56.625 11.770206
56.630 11.944586
56.635 11.871444
56.640 11.651265
56.645 11.584695
56.650 11.534462
56.655 11.608074
56.660 11.021126
56.665 10.668066
56.670 10.577343
56.675 10.868126
56.680 10.77321
56.685 11.057538
56.690 11.474852
56.695 12.082128
56.700 12.396399
56.705 12.588573
56.710 12.234075
56.715 12.45907
56.720 12.361266
56.725 12.118293
56.730 12.191991
56.735 12.407873
56.740 12.76264
56.745 12.98754
56.750 12.858255
56.755 12.913082
56.760 13.270287
56.765 12.816181
56.770 12.68767
56.775 12.397001
56.780 12.216543
56.785 12.1499
56.790 12.080242
56.795 11.896606
56.800 12.012308
56.805 12.036986
56.810 12.391829
56.815 12.492924
56.820 12.288021
56.825 12.027777
56.830 11.612332
56.835 11.246845
56.840 11.025258
56.845 11.185893
56.850 11.151573
56.855 11.387511
56.860 11.545498
56.865 11.987546
56.870 12.49316
56.875 12.490047
56.880 12.425029
56.885 12.254278
56.890 11.967822
56.895 12.042251
56.900 11.789785
56.905 11.585902
56.910 11.475017
56.915 12.125802
56.920 12.434682
56.925 12.496524
56.930 12.291071
56.935 12.237251
56.940 11.86296
56.945 11.690424
56.950 10.756228
56.955 10.686324
56.960 11.007938
56.965 11.443684
56.970 12.402951
56.975 13.069548
56.980 13.025047
56.985 13.338856
56.990 13.678611
56.995 13.276111
57.000 13.184892
57.005 12.793962
57.010 12.547194
57.015 12.663282
57.020 12.614029
57.025 12.370182
57.030 12.510981
57.035 12.386976
57.040 12.541002
57.045 11.971351
57.050 11.353643
57.055 11.185786
57.060 11.16203
57.065 10.790107
57.070 10.183212
57.075 10.133121
57.080 10.540017
57.085 11.021973
57.090 10.715602
57.095 10.712071
57.100 11.280501
57.105 11.169937
57.110 11.06044
57.115 11.57809
57.120 11.713522
57.125 12.21397
57.130 12.562948
57.135 12.764111
57.140 13.285166
57.145 12.996773
57.150 12.288421
57.155 12.409903
57.160 12.372071
57.165 11.821428
57.170 11.117445
57.175 11.151122
57.180 11.163673
57.185 11.56699
57.190 11.790064
57.195 11.722565
57.200 12.24852
57.205 12.368401
57.210 12.068947
57.215 12.268437
57.220 12.171988
57.225 11.678427
57.230 11.459603
57.235 11.235399
57.240 11.398525
57.245 11.564266
57.250 11.348186
57.255 10.840727
57.260 10.99795
57.265 11.096882
57.270 11.402173
57.275 11.898245
57.280 12.396646
57.285 13.180994
57.290 14.166039
57.295 14.578561
57.300 14.831166
57.305 14.296997
57.310 14.137348
57.315 13.98699
57.320 13.675758
57.325 13.170093
57.330 12.906642
57.335 13.091436
57.340 13.518937
57.345 13.437601
57.350 12.870299
57.355 12.735824
57.360 12.726182
57.365 12.828651
57.370 12.410238
57.375 12.405732
57.380 12.546103
57.385 12.659334
57.390 12.713928
57.395 12.363345
57.400 12.254086
57.405 12.507907
57.410 12.397711
57.415 12.401642
57.420 12.826784
57.425 12.546943
57.430 12.5897
57.435 12.587951
57.440 12.400365
57.445 12.435809
57.450 12.314941
57.455 12.431959
57.460 12.57688
57.465 12.530798
57.470 12.428971
57.475 12.241568
57.480 11.689517
57.485 11.199957
57.490 10.989827
57.495 11.293655
57.500 11.562123
57.505 11.591152
57.510 11.817003
57.515 12.278357
57.520 12.562729
57.525 12.157887
57.530 12.14404
57.535 12.087838
57.540 12.05781
57.545 12.536299
57.550 12.904692
57.555 13.480333
57.560 14.239152
57.565 14.120719
57.570 14.442854
57.575 14.422862
57.580 14.118865
57.585 14.413368
57.590 14.483779
57.595 14.498389
57.600 14.721471
57.605 14.387974
57.610 14.529504
57.615 14.452971
57.620 13.848608
57.625 13.100674
57.630 12.769569
57.635 12.715874
57.640 12.847006
57.645 12.716958
57.650 12.907742
57.655 13.368222
57.660 14.441179
57.665 14.422464
57.670 13.865999
57.675 13.560705
57.680 13.757871
57.685 13.563128
57.690 12.979071
57.695 12.300403
57.700 12.425472
57.705 12.655918
57.710 13.110852
57.715 12.929048
57.720 12.853661
57.725 12.832913
57.730 12.756788
57.735 12.586093
57.740 12.655702
57.745 12.538483
57.750 12.726774
57.755 13.073625
57.760 13.861671
57.765 14.30767
57.770 14.484859
57.775 14.696255
57.780 14.947225
57.785 14.812218
57.790 14.655319
57.795 14.087559
57.800 13.79706
57.805 13.940258
57.810 13.474554
57.815 13.005404
57.820 12.749483
57.825 12.769056
57.830 12.867869
57.835 12.695211
57.840 12.577952
57.845 12.541604
57.850 13.139853
57.855 13.446432
57.860 13.322098
57.865 13.296045
57.870 13.64736
57.875 13.751728
57.880 13.831684
57.885 13.602135
57.890 13.742646
57.895 13.811921
57.900 13.332396
57.905 13.32266
57.910 14.366405
57.915 14.20312
57.920 14.13305
57.925 13.834052
57.930 14.022858
57.935 14.554177
57.940 14.225144
57.945 13.762899
57.950 14.146791
57.955 14.045757
57.960 13.965492
57.965 14.039728
57.970 14.379025
57.975 14.551778
57.980 13.96692
57.985 13.971772
57.990 13.754958
57.995 13.430464
58.000 13.461926
58.005 13.767746
58.010 13.942101
58.015 13.621049
58.020 13.410206
58.025 13.841893
58.030 14.033271
58.035 13.883914
58.040 13.768935
58.045 14.134567
58.050 14.640623
58.055 15.101387
58.060 15.365518
58.065 15.33138
58.070 14.988808
58.075 14.610496
58.080 14.124535
58.085 13.400422
58.090 12.977875
58.095 12.94728
58.100 13.066259
58.105 13.163291
58.110 13.096385
58.115 13.788801
58.120 14.329046
58.125 14.214885
58.130 14.072085
58.135 13.824147
58.140 13.657066
58.145 13.297344
58.150 13.08789
58.155 13.355012
58.160 13.762286
58.165 13.618101
58.170 13.527433
58.175 13.705206
58.180 14.157466
58.185 14.095366
58.190 13.587687
58.195 12.70203
58.200 13.066215
58.205 13.357138
58.210 13.273856
58.215 13.346276
58.220 13.414701
58.225 13.764009
58.230 14.311072
58.235 14.282703
58.240 14.023396
58.245 13.623199
58.250 13.028175
58.255 13.188557
58.260 13.221231
58.265 13.33356
58.270 13.278201
58.275 13.299268
58.280 13.451646
58.285 13.525794
58.290 13.554623
58.295 13.391697
58.300 13.019125
58.305 12.924627
58.310 12.941196
58.315 13.132634
58.320 13.111966
58.325 13.320807
58.330 13.391024
58.335 13.926056
58.340 14.08626
58.345 14.379278
58.350 14.314592
58.355 14.688561
58.360 14.26239
58.365 14.202257
58.370 14.109048
58.375 14.355887
58.380 14.406399
58.385 14.514555
58.390 14.073442
58.395 14.636906
58.400 15.024693
58.405 14.86438
58.410 14.505505
58.415 14.257439
58.420 14.323264
58.425 14.296161
58.430 14.516619
58.435 14.154016
58.440 14.209138
58.445 14.360145
58.450 14.152514
58.455 14.532805
58.460 14.657058
58.465 13.984513
58.470 14.076313
58.475 14.00621
58.480 14.315762
58.485 14.785644
58.490 14.127669
58.495 13.821131
58.500 14.079792
58.505 14.068863
58.510 14.537263
58.515 14.924804
58.520 15.22433
58.525 15.461939
58.530 15.736168
58.535 15.805818
58.540 15.603446
58.545 15.274558
58.550 14.671714
58.555 14.333534
58.560 14.486526
58.565 14.473926
58.570 14.306396
58.575 14.124197
58.580 14.184344
58.585 14.206821
58.590 14.612577
58.595 14.555332
58.600 14.832643
58.605 15.595638
58.610 15.873984
58.615 15.631725
58.620 15.440769
58.625 15.269907
58.630 14.977885
58.635 14.562353
58.640 13.994645
58.645 13.460055
58.650 13.369473
58.655 13.351926
58.660 13.065076
58.665 13.80948
58.670 13.662502
58.675 13.85413
58.680 14.22914
58.685 14.135944
58.690 13.968535
58.695 14.25191
58.700 14.145786
58.705 13.854051
58.710 13.832387
58.715 13.973616
58.720 13.9387
58.725 14.112803
58.730 13.724878
58.735 13.759708
58.740 14.130017
58.745 14.144019
58.750 14.268006
58.755 15.15675
58.760 15.600343
58.765 15.350672
58.770 14.962031
58.775 14.756938
58.780 15.077117
58.785 14.960344
58.790 14.053574
58.795 13.453322
58.800 13.951288
58.805 14.627033
58.810 15.013959
58.815 14.770129
58.820 14.386387
58.825 14.655733
58.830 14.806767
58.835 14.908442
58.840 14.68433
58.845 14.264662
58.850 14.422419
58.855 15.119181
58.860 14.866794
58.865 15.002363
58.870 14.633236
58.875 14.287317
58.880 14.261006
58.885 13.965598
58.890 13.64277
58.895 13.810893
58.900 13.387756
58.905 13.382674
58.910 14.068688
58.915 14.615186
58.920 14.710672
58.925 15.541005
58.930 16.082451
58.935 16.07332
58.940 15.587383
58.945 14.987577
58.950 14.762416
58.955 14.711907
58.960 13.876226
58.965 14.060006
58.970 15.218749
58.975 16.001301
58.980 15.937986
58.985 16.035141
58.990 16.435232
58.995 16.903627
59.000 16.685486
59.005 16.213537
59.010 16.130507
59.015 15.8749
59.020 15.898372
59.025 16.045444
59.030 15.758924
59.035 15.621283
59.040 15.198074
59.045 14.944191
59.050 15.631787
59.055 15.809302
59.060 16.163157
59.065 16.422579
59.070 16.82638
59.075 17.686409
59.080 18.195698
59.085 18.076565
59.090 17.664761
59.095 17.261518
59.100 16.656649
59.105 15.936476
59.110 15.376216
59.115 15.196466
59.120 15.018195
59.125 14.89763
59.130 15.158577
59.135 15.832645
59.140 16.001328
59.145 16.208536
59.150 16.566874
59.155 16.554525
59.160 16.821077
59.165 17.235867
59.170 17.157887
59.175 17.321199
59.180 17.08449
59.185 17.11866
59.190 18.199184
59.195 17.957014
59.200 17.938229
59.205 17.887255
59.210 18.464798
59.215 18.227617
59.220 17.94371
59.225 17.574739
59.230 17.482216
59.235 17.088835
59.240 16.956715
59.245 16.613977
59.250 16.906649
59.255 16.674643
59.260 16.625114
59.265 17.057203
59.270 17.100958
59.275 16.824398
59.280 16.736183
59.285 16.226173
59.290 16.086327
59.295 15.927698
59.300 15.924895
59.305 15.874085
59.310 16.177532
59.315 15.945495
59.320 16.353815
59.325 16.735004
59.330 16.727112
59.335 16.531494
59.340 16.301807
59.345 16.452328
59.350 17.199472
59.355 17.852905
59.360 18.165483
59.365 17.716249
59.370 17.955912
59.375 18.077797
59.380 18.350807
59.385 18.06842
59.390 17.950211
59.395 18.002268
59.400 18.531897
59.405 18.54714
59.410 18.553205
59.415 18.513372
59.420 18.281349
59.425 17.974337
59.430 17.822329
59.435 17.367668
59.440 17.186098
59.445 17.431549
59.450 17.278124
59.455 17.692446
59.460 18.116848
59.465 18.58919
59.470 18.824266
59.475 19.614283
59.480 19.442638
59.485 19.494324
59.490 19.420761
59.495 19.777033
59.500 19.575705
59.505 20.154058
59.510 19.970022
59.515 20.334801
59.520 20.489035
59.525 20.180464
59.530 19.360416
59.535 19.113485
59.540 18.873001
59.545 19.271547
59.550 19.181234
59.555 19.170065
59.560 19.415247
59.565 19.406952
59.570 19.819107
59.575 20.214312
59.580 19.710777
59.585 19.870985
59.590 19.835155
59.595 20.373062
59.600 20.724653
59.605 20.474705
59.610 20.641842
59.615 20.511156
59.620 20.349421
59.625 20.281227
59.630 19.494776
59.635 19.295368
59.640 19.505907
59.645 18.827259
59.650 19.088156
59.655 19.401917
59.660 20.062958
59.665 19.931961
59.670 20.341856
59.675 20.888681
59.680 21.460758
59.685 21.381033
59.690 20.917704
59.695 21.125002
59.700 22.525562
59.705 21.855513
59.710 22.02984
59.715 21.852543
59.720 22.144482
59.725 21.7498
59.730 21.190817
59.735 21.1353
59.740 21.45505
59.745 21.116203
59.750 21.312349
59.755 21.373156
59.760 22.58268
59.765 23.025831
59.770 22.445097
59.775 22.736279
59.780 22.522072
59.785 22.440664
59.790 22.268808
59.795 22.052088
59.800 21.542576
59.805 21.618078
59.810 21.831551
59.815 22.164595
59.820 22.65106
59.825 23.467342
59.830 23.583475
59.835 24.092346
59.840 24.432352
59.845 24.451582
59.850 24.32793
59.855 23.701845
59.860 22.587038
59.865 21.888426
59.870 22.255068
59.875 21.701696
59.880 20.888397
59.885 20.475937
59.890 20.299496
59.895 21.14106
59.900 21.316357
59.905 20.864195
59.910 21.089769
59.915 21.043327
59.920 21.24365
59.925 21.618834
59.930 21.482325
59.935 20.647469
59.940 20.489964
59.945 20.472797
59.950 20.597288
59.955 20.325232
59.960 20.096924
59.965 19.645536
59.970 19.892027
59.975 19.844481
59.980 19.913877
59.985 19.77681
59.990 19.760326
59.995 20.10429
60.000 20.537971
60.005 21.026415
60.010 20.919729
60.015 21.541391
60.020 21.980461
60.025 22.406788
60.030 22.09647
60.035 21.877905
60.040 21.519079
60.045 21.829725
60.050 22.00499
60.055 21.627155
60.060 20.965128
60.065 20.906136
60.070 20.813833
60.075 21.200024
60.080 21.106186
60.085 20.527697
60.090 20.483351
60.095 20.660246
60.100 21.331957
60.105 21.473276
60.110 20.511438
60.115 20.531813
60.120 21.308084
60.125 21.385458
60.130 21.351513
60.135 20.529484
60.140 20.294989
60.145 20.713291
60.150 19.840189
60.155 19.266195
60.160 18.870554
60.165 18.941116
60.170 19.087326
60.175 19.376644
60.180 19.834858
60.185 20.213114
60.190 20.154444
60.195 19.964983
60.200 19.748535
60.205 19.423176
60.210 19.823053
60.215 20.089664
60.220 20.162033
60.225 20.351063
60.230 21.009056
60.235 21.025753
60.240 21.261333
60.245 20.614239
60.250 20.192287
60.255 20.09413
60.260 19.701399
60.265 19.226955
60.270 18.962811
60.275 18.657354
60.280 18.867439
60.285 18.835163
60.290 18.900452
60.295 19.103033
60.300 19.17182
60.305 19.134823
60.310 19.44895
60.315 19.485142
60.320 19.149029
60.325 18.799187
60.330 18.933243
60.335 19.157635
60.340 19.509478
60.345 19.554125
60.350 19.27762
60.355 18.786201
60.360 19.028482
60.365 19.05978
60.370 18.822382
60.375 18.609253
60.380 18.212669
60.385 17.928892
60.390 18.296713
60.395 18.387838
60.400 18.265038
60.405 17.680019
60.410 17.484713
60.415 17.603622
60.420 17.774506
60.425 18.100639
60.430 17.717867
60.435 17.49407
60.440 18.007708
60.445 17.712654
60.450 17.633863
60.455 17.164721
60.460 16.912376
60.465 16.810814
60.470 16.346521
60.475 16.813265
60.480 17.941368
60.485 18.441549
60.490 18.970133
60.495 19.241383
60.500 18.953602
60.505 18.833984
60.510 18.070004
60.515 17.315062
60.520 16.843019
60.525 16.341282
60.530 16.032038
60.535 16.518269
60.540 16.962595
60.545 17.063669
60.550 17.784279
60.555 18.188465
60.560 18.117674
60.565 17.457535
60.570 16.750595
60.575 16.691181
60.580 16.587744
60.585 16.062565
60.590 16.075562
60.595 16.54561
60.600 16.796795
60.605 16.849108
60.610 17.058456
60.615 16.584652
60.620 16.104523
60.625 15.871071
60.630 15.476934
60.635 15.378555
60.640 15.414959
60.645 15.306529
60.650 15.638357
60.655 15.4587
60.660 15.5202
60.665 15.640939
60.670 15.73809
60.675 16.149076
60.680 16.061996
60.685 16.037231
60.690 16.451847
60.695 16.490339
60.700 16.634729
60.705 16.424236
60.710 15.997103
60.715 16.233837
60.720 16.380379
60.725 16.022415
60.730 15.721389
60.735 15.707059
60.740 16.39673
60.745 16.288998
60.750 16.128265
60.755 16.372896
60.760 16.7987
60.765 17.176575
60.770 17.110397
60.775 16.662977
60.780 16.340839
60.785 15.975032
60.790 15.583071
60.795 15.4025
60.800 15.463499
60.805 15.755975
60.810 16.495415
60.815 16.966476
60.820 16.869764
60.825 17.143726
60.830 16.883615
60.835 16.471268
60.840 16.26956
60.845 16.218258
60.850 16.53076
60.855 16.726761
60.860 16.373543
60.865 16.770273
60.870 16.647526
60.875 16.273962
60.880 16.273455
60.885 16.092375
60.890 16.434725
60.895 16.793905
60.900 16.237919
60.905 16.447443
60.910 16.264494
60.915 15.71435
60.920 15.629752
60.925 14.867966
60.930 14.59876
60.935 14.662641
60.940 15.052106
60.945 14.93052
60.950 15.006643
60.955 15.438095
60.960 15.564456
60.965 15.446292
60.970 15.260966
60.975 15.076719
60.980 15.49256
60.985 15.241442
60.990 15.05748
60.995 14.730631
61.000 15.507386
61.005 16.088762
61.010 15.668634
61.015 15.864621
61.020 16.242746
61.025 15.958767
61.030 16.524994
61.035 16.157032
61.040 15.951402
61.045 16.261362
61.050 16.226036
61.055 15.941026
61.060 16.179699
61.065 16.279772
61.070 16.446512
61.075 16.458746
61.080 16.033175
61.085 16.244148
61.090 16.175163
61.095 16.08499
61.100 15.386415
61.105 15.259708
61.110 15.382076
61.115 15.461064
61.120 15.515853
61.125 15.630133
61.130 16.042572
61.135 16.211473
61.140 15.996207
61.145 16.169073
61.150 16.306772
61.155 15.789608
61.160 15.88052
61.165 15.729844
61.170 15.787078
61.175 15.920087
61.180 15.977672
61.185 16.179537
61.190 16.234381
61.195 16.168032
61.200 16.240562
61.205 16.604113
61.210 16.452227
61.215 16.507271
61.220 16.775749
61.225 16.909929
61.230 17.25803
61.235 17.188486
61.240 16.847393
61.245 17.132322
61.250 17.281395
61.255 17.164576
61.260 16.73432
61.265 16.487911
61.270 16.247898
61.275 16.345387
61.280 16.028528
61.285 15.522106
61.290 15.344859
61.295 15.565816
61.300 15.353757
61.305 15.175668
61.310 14.877676
61.315 14.86499
61.320 15.084563
61.325 14.950331
61.330 15.079482
61.335 14.907092
61.340 15.18497
61.345 15.276062
61.350 15.387558
61.355 15.090178
61.360 15.787112
61.365 16.010567
61.370 15.897702
61.375 15.940157
61.380 16.071495
61.385 15.804657
61.390 15.66246
61.395 14.803697
61.400 14.294177
61.405 14.515042
61.410 14.680061
61.415 14.995163
61.420 15.107976
61.425 15.466051
61.430 15.517403
61.435 15.348147
61.440 15.234492
61.445 14.974821
61.450 14.792996
61.455 14.800447
61.460 14.239186
61.465 14.622079
61.470 14.737455
61.475 15.071331
61.480 15.209351
61.485 15.098905
61.490 15.198491
61.495 15.506973
61.500 15.686636
61.505 16.049648
61.510 16.110657
61.515 16.179653
61.520 16.031137
61.525 15.806056
61.530 16.047201
61.535 16.103712
61.540 16.140238
61.545 15.832533
61.550 16.224026
61.555 16.572569
61.560 16.667984
61.565 16.372501
61.570 16.224394
61.575 16.34796
61.580 16.866421
61.585 16.589018
61.590 16.49873
61.595 16.934359
61.600 17.094177
61.605 17.065798
61.610 16.942074
61.615 16.429003
61.620 16.036348
61.625 15.690445
61.630 15.702284
61.635 15.665704
61.640 15.976092
61.645 15.878255
61.650 15.942765
61.655 16.482704
61.660 16.456924
61.665 15.806733
61.670 15.440992
61.675 15.032186
61.680 15.185268
61.685 15.365301
61.690 15.185269
61.695 15.517367
61.700 15.780684
61.705 15.745762
61.710 15.700956
61.715 15.28208
61.720 14.957507
61.725 15.390134
61.730 15.393297
61.735 15.417527
61.740 15.522475
61.745 15.183214
61.750 15.669659
61.755 15.821265
61.760 15.560204
61.765 15.833155
61.770 15.977784
61.775 15.967157
61.780 16.415478
61.785 15.772249
61.790 15.540592
61.795 15.772461
61.800 15.507312
61.805 15.573153
61.810 15.897063
61.815 15.750131
61.820 16.0408
61.825 16.228523
61.830 16.083408
61.835 15.863635
61.840 15.571474
61.845 15.087289
61.850 14.825507
61.855 14.574188
61.860 14.687426
61.865 14.498942
61.870 14.592419
61.875 14.747902
61.880 15.625996
61.885 16.09977
61.890 16.345802
61.895 16.258883
61.900 16.46027
61.905 16.513046
61.910 17.049854
61.915 16.962147
61.920 17.427362
61.925 17.50106
61.930 17.133202
61.935 16.91292
61.940 17.062571
61.945 16.992119
61.950 16.669136
61.955 16.095486
61.960 16.312521
61.965 16.425259
61.970 16.684891
61.975 16.786835
61.980 16.518562
61.985 16.568941
61.990 16.371153
61.995 16.640951
62.000 17.549911
62.005 17.905268
62.010 18.172642
62.015 18.157131
62.020 18.669922
62.025 18.575281
62.030 17.537188
62.035 16.422415
62.040 15.900514
62.045 15.484262
62.050 15.337083
62.055 14.775833
62.060 14.662941
62.065 14.640441
62.070 14.863393
62.075 15.387659
62.080 15.805088
62.085 16.189306
62.090 16.352869
62.095 16.338409
62.100 17.03792
62.105 16.996872
62.110 16.540125
62.115 16.13567
62.120 15.716507
62.125 16.077848
62.130 17.075602
62.135 16.924713
62.140 16.99859
62.145 16.648701
62.150 16.859726
62.155 16.421059
62.160 15.649318
62.165 14.981268
62.170 14.837039
62.175 15.183826
62.180 15.275557
62.185 15.039858
62.190 15.479993
62.195 15.635189
62.200 16.122908
62.205 16.439568
62.210 16.311901
62.215 16.459
62.220 16.657984
62.225 16.353125
62.230 16.351927
62.235 15.774975
62.240 15.067097
62.245 15.031358
62.250 14.569359
62.255 14.129723
62.260 14.384586
62.265 14.974321
62.270 14.977776
62.275 14.690936
62.280 14.377509
62.285 15.078086
62.290 15.202399
62.295 15.080302
62.300 14.815323
62.305 15.725943
62.310 16.323256
62.315 16.421225
62.320 16.195587
62.325 16.257511
62.330 16.531265
62.335 16.480854
62.340 15.990368
62.345 16.429148
62.350 16.46467
62.355 16.210258
62.360 16.849943
62.365 16.913715
62.370 16.635847
62.375 16.688095
62.380 16.34444
62.385 16.622349
62.390 16.269527
62.395 15.425043
62.400 14.967052
62.405 15.031495
62.410 14.764864
62.415 14.863812
62.420 14.917642
62.425 15.383701
62.430 15.470366
62.435 15.829409
62.440 16.277622
62.445 17.36858
62.450 17.810232
62.455 18.030132
62.460 18.288235
62.465 18.552744
62.470 18.684601
62.475 19.091982
62.480 18.302513
62.485 17.558058
62.490 17.186081
62.495 16.973063
62.500 17.086908
62.505 16.790625
62.510 15.947783
62.515 15.642744
62.520 15.545815
62.525 15.645755
62.530 15.933517
62.535 16.445477
62.540 16.497187
62.545 16.469662
62.550 16.757557
62.555 16.929794
62.560 17.161224
62.565 16.554113
62.570 15.88308
62.575 15.599514
62.580 15.331951
62.585 15.163631
62.590 15.069916
62.595 14.874448
62.600 15.449275
62.605 15.55828
62.610 15.81281
62.615 16.317335
62.620 17.108919
62.625 17.386551
62.630 17.345987
62.635 16.807875
62.640 16.582188
62.645 16.379736
62.650 15.764791
62.655 15.094779
62.660 15.303838
62.665 15.496078
62.670 15.802858
62.675 16.47463
62.680 16.810795
62.685 17.286032
62.690 17.001694
62.695 16.845257
62.700 16.48679
62.705 15.983812
62.710 15.801441
62.715 15.761218
62.720 15.552205
62.725 16.034431
62.730 15.883957
62.735 16.344767
62.740 16.774893
62.745 16.534851
62.750 17.138443
62.755 17.156942
62.760 16.889883
62.765 17.013201
62.770 16.779926
62.775 16.866831
62.780 16.691265
62.785 16.688921
62.790 17.580055
62.795 18.363697
62.800 18.777422
62.805 18.859299
62.810 18.734711
62.815 18.905506
62.820 18.171228
62.825 17.509058
62.830 17.259663
62.835 16.732368
62.840 16.557785
62.845 16.434845
62.850 16.389793
62.855 16.813763
62.860 17.000282
62.865 16.597837
62.870 17.038393
62.875 16.999796
62.880 17.117167
62.885 17.340363
62.890 17.093803
62.895 16.80826
62.900 17.167957
62.905 16.712074
62.910 16.294964
62.915 16.125261
62.920 16.03898
62.925 15.707608
62.930 15.251028
62.935 15.294556
62.940 15.526857
62.945 16.076454
62.950 15.920017
62.955 15.441354
62.960 15.405778
62.965 15.791086
62.970 15.437431
62.975 15.390102
62.980 15.511092
62.985 15.76666
62.990 15.813336
62.995 16.147308
63.000 16.162745
63.005 16.126915
63.010 16.367304
63.015 16.6591
63.020 16.450329
63.025 16.384676
63.030 16.464703
63.035 16.167574
63.040 16.16272
63.045 15.806926
63.050 15.258131
63.055 15.289537
63.060 15.141484
63.065 14.960861
63.070 15.722459
63.075 16.511768
63.080 16.63847
63.085 16.43988
63.090 16.651901
63.095 17.116581
63.100 16.752268
63.105 16.010132
63.110 15.01333
63.115 15.369475
63.120 15.090456
63.125 14.842398
63.130 14.844633
63.135 15.163332
63.140 15.440911
63.145 15.675385
63.150 15.356122
63.155 16.097097
63.160 16.2582
63.165 16.95908
63.170 17.0214
63.175 16.688387
63.180 16.442314
63.185 16.28701
63.190 16.084122
63.195 16.008533
63.200 15.033173
63.205 15.003557
63.210 15.370683
63.215 16.38975
63.220 16.863874
63.225 16.668039
63.230 16.552362
63.235 17.04978
63.240 16.708693
63.245 16.526182
63.250 15.798321
63.255 16.059145
63.260 16.169191
63.265 16.273365
63.270 16.19121
63.275 16.570372
63.280 16.301594
63.285 16.406698
63.290 15.793998
63.295 15.854486
63.300 15.785704
63.305 16.046726
63.310 16.270449
63.315 17.193438
63.320 18.187555
63.325 18.751759
63.330 18.92766
63.335 19.439398
63.340 19.103214
63.345 18.868704
63.350 17.869354
63.355 17.145313
63.360 17.152504
63.365 17.007317
63.370 17.319754
63.375 18.073837
63.380 18.452541
63.385 18.564247
63.390 18.23592
63.395 17.86467
63.400 17.688995
63.405 16.778284
63.410 15.673911
63.415 15.318413
63.420 15.734365
63.425 15.581592
63.430 16.03797
63.435 16.551413
63.440 17.148304
63.445 17.990879
63.450 18.101028
63.455 18.027714
63.460 18.275541
63.465 17.98361
63.470 17.713825
63.475 17.602247
63.480 17.406433
63.485 17.111601
63.490 16.825956
63.495 17.223763
63.500 17.661867
63.505 17.503056
63.510 17.194736
63.515 16.865086
63.520 17.148991
63.525 17.441843
63.530 17.244175
63.535 17.533127
63.540 17.94599
63.545 17.791124
63.550 17.928764
63.555 17.962933
63.560 18.017157
63.565 17.814665
63.570 16.931898
63.575 17.018713
63.580 17.410036
63.585 17.023865
63.590 16.449711
63.595 16.103498
63.600 15.823773
63.605 16.259287
63.610 15.858882
63.615 15.92881
63.620 16.42325
63.625 16.632818
63.630 16.613905
63.635 16.329262
63.640 16.404194
63.645 16.432894
63.650 16.613331
63.655 16.812437
63.660 16.937105
63.665 17.273603
63.670 17.594702
63.675 17.082651
63.680 16.671722
63.685 16.452423
63.690 16.305981
63.695 16.316313
63.700 16.180649
63.705 16.198488
63.710 15.990053
63.715 15.353415
63.720 15.04879
63.725 15.27843
63.730 15.507896
63.735 16.020699
63.740 16.307686
63.745 16.371607
63.750 16.680632
63.755 16.917221
63.760 17.11165
63.765 17.702383
63.770 17.313925
63.775 17.510803
63.780 18.137836
63.785 18.551931
63.790 18.345549
63.795 18.134594
63.800 17.723862
63.805 17.572014
63.810 17.04203
63.815 16.970741
63.820 16.967924
63.825 16.989054
63.830 16.732569
63.835 16.769753
63.840 16.961658
63.845 17.141691
63.850 16.799597
63.855 16.622578
63.860 16.474659
63.865 16.586763
63.870 16.203711
63.875 16.143816
63.880 16.181328
63.885 17.251461
63.890 17.503267
63.895 16.989342
63.900 16.482443
63.905 16.778561
63.910 17.19578
63.915 17.658812
63.920 17.211994
63.925 17.643053
63.930 18.379982
63.935 18.782698
63.940 18.574024
63.945 18.829329
63.950 18.618912
63.955 18.708313
63.960 18.631132
63.965 18.530428
63.970 18.31496
63.975 18.712307
63.980 17.46796
63.985 17.402765
63.990 17.131826
63.995 16.926403
64.000 17.275917
64.005 17.246563
64.010 17.056986
64.015 17.90358
64.020 18.388136
64.025 18.026142
64.030 17.85853
64.035 17.159058
64.040 17.353092
64.045 17.974974
64.050 18.066538
64.055 17.444443
64.060 17.486151
64.065 17.283182
64.070 17.41506
64.075 17.433006
64.080 16.822277
64.085 16.401905
64.090 16.862249
64.095 17.32958
64.100 17.44591
64.105 17.519266
64.110 17.274574
64.115 17.249271
64.120 17.361
64.125 17.255014
64.130 16.74642
64.135 16.934168
64.140 17.472767
64.145 17.473137
64.150 17.277878
64.155 16.642689
64.160 16.357294
64.165 16.632172
64.170 16.652786
64.175 16.678734
64.180 16.89802
64.185 17.356426
64.190 18.071302
64.195 18.115765
64.200 18.110603
64.205 18.27973
64.210 18.090521
64.215 17.676241
64.220 17.378551
64.225 17.458199
64.230 17.716749
64.235 17.898663
64.240 17.897896
64.245 18.151854
64.250 18.553799
64.255 18.758116
64.260 18.988434
64.265 19.208654
64.270 19.324202
64.275 19.119787
64.280 18.619314
64.285 18.628078
64.290 18.525055
64.295 18.465853
64.300 18.392822
64.305 18.492712
64.310 19.069225
64.315 19.842838
64.320 19.781771
64.325 19.436136
64.330 19.187548
64.335 19.552628
64.340 19.123262
64.345 18.966742
64.350 18.787296
64.355 18.599955
64.360 18.22089
64.365 18.025387
64.370 17.308002
64.375 17.378807
64.380 17.285172
64.385 17.104517
64.390 17.621025
64.395 18.234701
64.400 17.881557
64.405 17.769251
64.410 18.114017
64.415 18.219858
64.420 18.001373
64.425 17.777916
64.430 18.18944
64.435 19.252123
64.440 19.447144
64.445 19.649019
64.450 19.481966
64.455 19.713696
64.460 19.880932
64.465 19.553404
64.470 19.597382
64.475 19.537413
64.480 19.2957
64.485 19.419044
64.490 19.490845
64.495 19.312761
64.500 19.263037
64.505 19.278505
64.510 19.535101
64.515 19.29891
64.520 19.067295
64.525 19.257315
64.530 19.432789
64.535 19.18844
64.540 18.343632
64.545 17.894619
64.550 17.944155
64.555 17.785639
64.560 17.452271
64.565 17.732594
64.570 17.694941
64.575 18.03397
64.580 17.891535
64.585 18.27416
64.590 18.574249
64.595 18.819294
64.600 18.697859
64.605 18.899067
64.610 19.555161
64.615 20.193939
64.620 19.854149
64.625 19.848377
64.630 20.077452
64.635 20.113276
64.640 20.001316
64.645 19.426731
64.650 18.743608
64.655 18.976919
64.660 19.004841
64.665 19.05278
64.670 18.758524
64.675 18.936533
64.680 18.782763
64.685 18.904716
64.690 18.672071
64.695 18.254158
64.700 17.661972
64.705 17.539083
64.710 18.10273
64.715 18.734221
64.720 18.915371
64.725 18.8643
64.730 18.913733
64.735 18.735004
64.740 18.838419
64.745 18.813768
64.750 18.715912
64.755 18.945555
64.760 19.469336
64.765 19.916281
64.770 20.449276
64.775 20.696836
64.780 20.317583
64.785 20.1373
64.790 19.87215
64.795 19.830881
64.800 19.314516
64.805 19.147833
64.810 19.219612
64.815 19.635626
64.820 19.594587
64.825 19.743622
64.830 19.518259
64.835 19.614325
64.840 19.580198
64.845 19.735893
64.850 18.790327
64.855 18.817059
64.860 18.803499
64.865 19.15324
64.870 19.578896
64.875 20.052401
64.880 19.713102
64.885 20.116545
64.890 20.220722
64.895 20.375708
64.900 20.470129
64.905 20.711143
64.910 20.28171
64.915 20.397034
64.920 20.776611
64.925 21.145718
64.930 20.918667
64.935 20.704599
64.940 20.83489
64.945 20.789854
64.950 21.022276
64.955 21.041285
64.960 20.781689
64.965 20.862652
64.970 20.463682
64.975 19.798767
64.980 19.927937
64.985 19.935923
64.990 20.3195
64.995 20.181856
65.000 20.704399
65.005 20.969776
65.010 21.49478
65.015 21.700464
65.020 21.377472
65.025 21.168369
65.030 21.666578
65.035 21.313831
65.040 21.173141
65.045 21.120714
65.050 20.867903
65.055 20.564075
65.060 20.983587
65.065 20.978302
65.070 21.419142
65.075 22.072956
65.080 22.371771
65.085 22.723352
65.090 22.990238
65.095 22.872969
65.100 22.59693
65.105 22.435516
65.110 22.219107
65.115 21.961336
65.120 22.327374
65.125 23.044123
65.130 23.552456
65.135 23.786909
65.140 24.061106
65.145 24.37237
65.150 24.26919
65.155 23.360956
65.160 23.0317
65.165 22.994423
65.170 22.982544
65.175 22.427999
65.180 21.870108
65.185 21.979006
65.190 22.531546
65.195 21.949484
65.200 22.114189
65.205 22.073767
65.210 23.002941
65.215 23.916483
65.220 24.289413
65.225 24.42416
65.230 24.537945
65.235 23.992689
65.240 23.761639
65.245 23.393938
65.250 22.782921
65.255 22.85915
65.260 22.816994
65.265 22.894094
65.270 22.912222
65.275 23.572102
65.280 23.554003
65.285 23.247755
65.290 23.281843
65.295 23.707132
65.300 24.045549
65.305 24.142612
65.310 23.671743
65.315 24.009754
65.320 24.381166
65.325 23.981964
65.330 23.857752
65.335 23.720018
65.340 23.994598
65.345 23.720448
65.350 23.402527
65.355 23.651649
65.360 23.874681
65.365 23.837358
65.370 23.744129
65.375 23.249554
65.380 23.238703
65.385 23.365812
65.390 23.194244
65.395 23.393394
65.400 23.361862
65.405 22.743116
65.410 22.816395
65.415 23.137579
65.420 23.116369
65.425 23.54077
65.430 23.500547
65.435 24.009539
65.440 25.313074
65.445 25.290958
65.450 24.850817
65.455 24.495306
65.460 23.654047
65.465 23.52346
65.470 23.177273
65.475 23.084005
65.480 23.992735
65.485 24.660736
65.490 25.106743
65.495 25.764978
65.500 26.070023
65.505 25.768255
65.510 25.845177
65.515 25.320757
65.520 25.248335
65.525 25.772951
65.530 26.214138
65.535 26.301893
65.540 27.292063
65.545 27.529957
65.550 27.548027
65.555 27.590712
65.560 27.33288
65.565 26.485714
65.570 26.02294
65.575 25.407412
65.580 26.005795
65.585 26.451576
65.590 26.854008
65.595 26.657618
65.600 27.013424
65.605 27.919563
65.610 29.308132
65.615 29.348057
65.620 29.358959
65.625 29.62324
65.630 30.288055
65.635 30.954367
65.640 31.179419
65.645 30.983461
65.650 30.719313
65.655 31.125359
65.660 31.022335
65.665 31.085686
65.670 31.228378
65.675 30.8276
65.680 30.888418
65.685 31.194927
65.690 31.394758
65.695 30.985092
65.700 31.071705
65.705 31.504663
65.710 31.394312
65.715 31.280729
65.720 31.406048
65.725 31.824297
65.730 33.044838
65.735 33.704445
65.740 33.3018
65.745 34.057522
65.750 34.213589
65.755 34.873501
65.760 35.113297
65.765 34.75013
65.770 34.180672
65.775 33.864735
65.780 34.11063
65.785 33.987026
65.790 33.334236
65.795 32.866009
65.800 32.391582
65.805 33.160568
65.810 33.214436
65.815 32.265942
65.820 32.127747
65.825 32.527237
65.830 32.838543
65.835 32.713516
65.840 32.939777
65.845 33.094288
65.850 34.123383
65.855 34.645393
65.860 35.070133
65.865 35.214035
65.870 35.737835
65.875 36.072227
65.880 36.125313
65.885 35.929115
65.890 35.735317
65.895 35.662247
65.900 36.019398
65.905 35.661182
65.910 34.70985
65.915 34.846169
65.920 34.978256
65.925 35.55798
65.930 35.655006
65.935 36.402817
65.940 36.348225
65.945 36.752453
65.950 36.725704
65.955 36.773853
65.960 36.781704
65.965 36.684052
65.970 36.048119
65.975 35.905628
65.980 36.308926
65.985 37.431896
65.990 37.887657
65.995 38.624348
66.000 38.646564
66.005 38.667557
66.010 39.390511
66.015 39.641113
66.020 39.321224
66.025 38.991455
66.030 38.588882
66.035 37.874752
66.040 38.040726
66.045 38.325592
66.050 38.315853
66.055 38.457382
66.060 38.22472
66.065 38.286243
66.070 38.465088
66.075 38.091671
66.080 38.251354
66.085 38.628387
66.090 39.241234
66.095 39.391647
66.100 39.433628
66.105 39.851276
66.110 40.526939
66.115 39.519875
66.120 38.648304
66.125 38.79567
66.130 38.47525
66.135 38.642517
66.140 38.486607
66.145 37.93182
66.150 37.376099
66.155 36.812893
66.160 35.754017
66.165 35.945076
66.170 35.589466
66.175 35.32016
66.180 34.698479
66.185 35.280048
66.190 35.620022
66.195 36.70768
66.200 36.763912
66.205 37.055538
66.210 37.731789
66.215 38.199619
66.220 37.970539
66.225 37.200394
66.230 36.556278
66.235 36.570297
66.240 36.563095
66.245 36.514328
66.250 37.622345
66.255 37.967728
66.260 37.614487
66.265 37.055737
66.270 36.291946
66.275 35.373085
66.280 35.118149
66.285 34.805916
66.290 35.148575
66.295 34.98439
66.300 34.870922
66.305 34.829865
66.310 34.922943
66.315 34.865131
66.320 33.676914
66.325 33.087662
66.330 32.596718
66.335 32.951462
66.340 33.846626
66.345 33.990124
66.350 33.272778
66.355 33.463242
66.360 33.548389
66.365 33.836861
66.370 33.754326
66.375 32.261932
66.380 31.571554
66.385 32.375065
66.390 32.276592
66.395 31.921406
66.400 31.066198
66.405 30.673653
66.410 30.13446
66.415 29.799267
66.420 29.3386
66.425 29.441809
66.430 29.751236
66.435 29.991119
66.440 29.927732
66.445 30.258129
66.450 30.355877
66.455 31.000132
66.460 30.627703
66.465 30.403315
66.470 30.486076
66.475 30.544025
66.480 30.797256
66.485 30.173777
66.490 29.137177
66.495 29.338789
66.500 28.655251
66.505 28.569321
66.510 28.6766
66.515 28.469532
66.520 29.14813
66.525 29.210972
66.530 29.245726
66.535 29.653275
66.540 29.756845
66.545 29.137819
66.550 28.861889
66.555 28.13035
66.560 27.798622
66.565 27.325451
66.570 27.367756
66.575 27.118626
66.580 27.021641
66.585 26.57589
66.590 26.709455
66.595 26.457163
66.600 26.028099
66.605 25.335649
66.610 24.539913
66.615 24.558321
66.620 24.815195
66.625 24.593512
66.630 24.460526
66.635 24.835512
66.640 24.98628
66.645 24.44507
66.650 24.071438
66.655 23.98995
66.660 23.866716
66.665 23.088327
66.670 22.650736
66.675 22.482513
66.680 23.263443
66.685 23.519476
66.690 22.761648
66.695 22.880966
66.700 23.310469
66.705 23.161648
66.710 23.501333
66.715 23.194935
66.720 23.210396
66.725 23.458605
66.730 23.416569
66.735 23.509066
66.740 23.716621
66.745 23.57151
66.750 23.206738
66.755 22.741465
66.760 22.22879
66.765 22.082691
66.770 21.902433
66.775 21.664316
66.780 22.29525
66.785 22.689333
66.790 22.335732
66.795 21.938942
66.800 21.611507
66.805 21.720861
66.810 21.715828
66.815 21.009357
66.820 20.954809
66.825 21.277058
66.830 21.416018
66.835 21.530178
66.840 22.048176
66.845 21.991573
66.850 21.715815
66.855 21.633011
66.860 21.875753
66.865 21.951727
66.870 21.861824
66.875 21.64464
66.880 21.42527
66.885 21.534189
66.890 21.862343
66.895 21.573608
66.900 21.510687
66.905 21.305119
66.910 20.838106
66.915 21.024105
66.920 20.908226
66.925 20.425962
66.930 19.82605
66.935 19.523195
66.940 19.206673
66.945 18.922483
66.950 18.708786
66.955 19.091133
66.960 19.849199
66.965 20.885321
66.970 21.865404
66.975 22.989254
66.980 23.397141
66.985 23.142488
66.990 22.858503
66.995 21.906784
67.000 21.761484
67.005 21.728888
67.010 21.371603
67.015 21.294237
67.020 21.500801
67.025 22.070332
67.030 22.601204
67.035 22.042162
67.040 21.687613
67.045 22.081728
67.050 22.059006
67.055 22.059998
67.060 21.681686
67.065 21.314365
67.070 22.519014
67.075 23.013582
67.080 22.913059
67.085 22.94145
67.090 22.691565
67.095 22.325802
67.100 22.686079
67.105 22.119074
67.110 21.345804
67.115 20.747183
67.120 20.678513
67.125 21.204906
67.130 21.154716
67.135 20.443546
67.140 19.343788
67.145 19.444572
67.150 19.622522
67.155 19.622698
67.160 19.894699
67.165 19.937082
67.170 20.040768
67.175 20.629345
67.180 20.532139
67.185 20.822691
67.190 21.293703
67.195 21.020248
67.200 21.264059
67.205 21.306076
67.210 21.411774
67.215 21.357536
67.220 20.740025
67.225 20.393751
67.230 20.692675
67.235 20.63888
67.240 20.40007
67.245 19.969831
67.250 20.223991
67.255 20.766142
67.260 21.138037
67.265 20.984743
67.270 20.962645
67.275 21.0746
67.280 21.050133
67.285 21.022007
67.290 20.676943
67.295 19.63682
67.300 19.641809
67.305 19.804399
67.310 19.878553
67.315 19.733526
67.320 19.56896
67.325 19.584164
67.330 19.81587
67.335 19.573126
67.340 19.466627
67.345 19.130871
67.350 19.603695
67.355 19.634348
67.360 19.448067
67.365 19.705318
67.370 19.972769
67.375 20.406595
67.380 21.011652
67.385 21.293539
67.390 20.682306
67.395 20.17205
67.400 20.223085
67.405 20.299267
67.410 20.084455
67.415 19.072451
67.420 19.292603
67.425 19.719337
67.430 20.2724
67.435 19.980698
67.440 19.533598
67.445 19.553593
67.450 19.391151
67.455 19.523401
67.460 19.669676
67.465 19.355053
67.470 18.804176
67.475 18.910463
67.480 19.017061
67.485 19.826368
67.490 19.974413
67.495 19.866268
67.500 20.39217
67.505 20.900087
67.510 20.706539
67.515 20.431694
67.520 20.143335
67.525 19.387165
67.530 19.188242
67.535 18.946386
67.540 18.860374
67.545 18.563053
67.550 18.890026
67.555 18.802834
67.560 18.919804
67.565 19.147062
67.570 19.02759
67.575 18.714558
67.580 18.694048
67.585 18.252268
67.590 18.15704
67.595 17.956141
67.600 17.740784
67.605 18.015251
67.610 18.806837
67.615 18.957729
67.620 19.327206
67.625 20.210415
67.630 20.511198
67.635 20.632496
67.640 20.876799
67.645 20.554955
67.650 20.797205
67.655 20.776905
67.660 20.343826
67.665 20.629107
67.670 20.838465
67.675 20.380238
67.680 20.400482
67.685 20.536924
67.690 20.147957
67.695 19.802311
67.700 19.487492
67.705 19.126596
67.710 19.10375
67.715 19.383001
67.720 19.5214
67.725 19.477228
67.730 19.979519
67.735 20.52227
67.740 20.787054
67.745 20.870077
67.750 21.144854
67.755 20.834265
67.760 21.271662
67.765 21.531076
67.770 21.389017
67.775 21.55171
67.780 20.817492
67.785 20.344332
67.790 20.093607
67.795 19.98617
67.800 19.648653
67.805 20.055584
67.810 20.062502
67.815 20.256159
67.820 20.607555
67.825 20.439428
67.830 19.651613
67.835 18.856983
67.840 18.30405
67.845 17.70788
67.850 17.460775
67.855 17.277117
67.860 17.380125
67.865 17.497433
67.870 18.129539
67.875 17.646168
67.880 17.634407
67.885 17.903938
67.890 17.672602
67.895 18.426439
67.900 18.616053
67.905 18.970522
67.910 19.708494
67.915 20.451778
67.920 20.702023
67.925 20.400944
67.930 19.836485
67.935 20.047554
67.940 19.98188
67.945 20.256268
67.950 19.799276
67.955 19.455315
67.960 19.897789
67.965 20.002678
67.970 19.455433
67.975 18.849094
67.980 18.596685
67.985 18.901005
67.990 19.077318
67.995 19.082012
68.000 19.068384
68.005 19.084372
68.010 19.266998
68.015 18.838787
68.020 18.428192
68.025 18.744904
68.030 19.086126
68.035 18.300884
68.040 18.492722
68.045 18.484322
68.050 18.824413
68.055 19.005415
68.060 19.149992
68.065 19.410652
68.070 20.057951
68.075 19.423416
68.080 19.345171
68.085 19.600859
68.090 19.277678
68.095 18.838171
68.100 18.667526
68.105 18.937496
68.110 19.318705
68.115 19.581985
68.120 19.959276
68.125 20.586843
68.130 20.700285
68.135 20.565948
68.140 20.72201
68.145 20.774292
68.150 20.435392
68.155 20.741194
68.160 20.000736
68.165 19.590433
68.170 19.669283
68.175 19.487988
68.180 19.363575
68.185 19.174601
68.190 18.488052
68.195 18.707239
68.200 18.335135
68.205 18.352364
68.210 18.143515
68.215 18.634758
68.220 18.886953
68.225 18.546597
68.230 18.396923
68.235 18.668661
68.240 18.861694
68.245 19.575205
68.250 19.503441
68.255 19.701801
68.260 20.892529
68.265 21.391504
68.270 21.504284
68.275 20.96538
68.280 20.253771
68.285 20.283848
68.290 20.168095
68.295 19.545115
68.300 19.146446
68.305 19.061554
68.310 18.94599
68.315 19.004791
68.320 18.750662
68.325 19.429411
68.330 19.614714
68.335 19.687347
68.340 19.316525
68.345 19.390072
68.350 19.432524
68.355 19.162733
68.360 18.37339
68.365 18.239021
68.370 19.088024
68.375 19.457403
68.380 19.960142
68.385 20.421869
68.390 20.763678
68.395 21.5296
68.400 21.612913
68.405 21.656759
68.410 21.911879
68.415 21.754766
68.420 21.604204
68.425 21.079706
68.430 20.351576
68.435 20.043692
68.440 20.152626
68.445 20.224632
68.450 20.284554
68.455 20.489969
68.460 21.669382
68.465 22.209553
68.470 22.300156
68.475 22.015465
68.480 21.635372
68.485 21.30258
68.490 20.640131
68.495 20.212698
68.500 19.683794
68.505 19.62064
68.510 19.251616
68.515 19.039139
68.520 19.461
68.525 19.428717
68.530 19.989014
68.535 20.205767
68.540 19.922495
68.545 20.541542
68.550 20.801687
68.555 20.613001
68.560 20.45009
68.565 19.902275
68.570 19.790016
68.575 20.246634
68.580 20.01836
68.585 19.76931
68.590 18.972513
68.595 19.1353
68.600 19.306784
68.605 19.449949
68.610 19.630383
68.615 20.129702
68.620 20.910065
68.625 21.294256
68.630 21.248013
68.635 21.582708
68.640 21.402456
68.645 20.938721
68.650 20.347275
68.655 20.170284
68.660 20.168198
68.665 20.255581
68.670 19.410879
68.675 19.259478
68.680 19.691124
68.685 19.895334
68.690 19.841642
68.695 19.817364
68.700 19.296045
68.705 20.206753
68.710 20.578299
68.715 20.669827
68.720 20.422003
68.725 20.978491
68.730 21.159161
68.735 21.680641
68.740 21.555941
68.745 21.538158
68.750 21.96748
68.755 22.229057
68.760 22.227339
68.765 22.568382
68.770 22.983702
68.775 22.840216
68.780 22.622652
68.785 22.422243
68.790 21.934805
68.795 21.967442
68.800 21.833372
68.805 21.614084
68.810 21.876968
68.815 21.748667
68.820 21.055307
68.825 21.529055
68.830 21.357649
68.835 21.244045
68.840 20.94944
68.845 20.944664
68.850 21.119831
68.855 21.119041
68.860 20.838394
68.865 20.029144
68.870 19.709454
68.875 19.42234
68.880 19.360641
68.885 19.397467
68.890 19.586678
68.895 20.197393
68.900 20.872721
68.905 20.907385
68.910 20.972206
68.915 20.992441
68.920 20.809772
68.925 20.357231
68.930 20.610367
68.935 20.946327
68.940 21.712648
68.945 21.816933
68.950 21.118599
68.955 21.130665
68.960 21.004141
68.965 20.12606
68.970 20.163074
68.975 20.195986
68.980 19.979221
68.985 20.670584
68.990 21.392277
68.995 22.225956
69.000 22.751287
69.005 22.304192
69.010 22.10046
69.015 21.955351
69.020 21.515882
69.025 21.450705
69.030 21.250204
69.035 21.011267
69.040 21.391371
69.045 21.692375
69.050 22.113291
69.055 23.120977
69.060 24.010088
69.065 24.322241
69.070 25.012901
69.075 25.732796
69.080 25.811174
69.085 26.737673
69.090 26.084015
69.095 25.285255
69.100 25.396299
69.105 25.024052
69.110 24.924435
69.115 24.806847
69.120 24.159622
69.125 24.600967
69.130 24.700752
69.135 24.483103
69.140 25.122755
69.145 24.88973
69.150 24.761049
69.155 25.530157
69.160 25.370396
69.165 25.582781
69.170 25.804424
69.175 25.535522
69.180 25.455402
69.185 26.015001
69.190 25.585764
69.195 25.172546
69.200 24.42576
69.205 24.0028
69.210 24.708012
69.215 24.752235
69.220 24.037926
69.225 24.117506
69.230 24.71674
69.235 25.823874
69.240 26.460676
69.245 26.081196
69.250 26.645399
69.255 27.689754
69.260 28.036955
69.265 27.850271
69.270 27.786728
69.275 27.547405
69.280 28.046644
69.285 28.362494
69.290 27.922949
69.295 27.529047
69.300 27.269707
69.305 26.470413
69.310 26.280998
69.315 25.417974
69.320 24.238651
69.325 24.50297
69.330 24.731209
69.335 25.783695
69.340 26.112843
69.345 26.002048
69.350 26.956831
69.355 28.126549
69.360 28.09404
69.365 28.321194
69.370 28.405684
69.375 28.966352
69.380 29.477377
69.385 29.602526
69.390 29.571463
69.395 29.498608
69.400 30.107679
69.405 29.223486
69.410 29.377934
69.415 30.020491
69.420 29.496927
69.425 29.412565
69.430 29.517986
69.435 28.838354
69.440 28.765886
69.445 28.56456
69.450 28.11208
69.455 28.158598
69.460 28.377039
69.465 28.531425
69.470 29.67709
69.475 30.168346
69.480 30.14637
69.485 30.207138
69.490 30.182226
69.495 30.030439
69.500 29.8622
69.505 29.373245
69.510 29.160221
69.515 28.953587
69.520 29.116249
69.525 29.826134
69.530 30.210886
69.535 30.063757
69.540 30.131542
69.545 30.251657
69.550 31.521091
69.555 31.44981
69.560 31.804461
69.565 32.152294
69.570 32.849625
69.575 32.658051
69.580 32.210533
69.585 32.057438
69.590 32.625557
69.595 32.15131
69.600 31.769594
69.605 32.052105
69.610 32.828888
69.615 33.685627
69.620 33.758286
69.625 33.364674
69.630 33.107903
69.635 32.997414
69.640 33.480293
69.645 33.103729
69.650 32.070305
69.655 31.496664
69.660 31.337225
69.665 31.27684
69.670 30.597006
69.675 29.353037
69.680 29.1661
69.685 29.635815
69.690 29.119619
69.695 28.480694
69.700 27.924852
69.705 27.746342
69.710 28.0459
69.715 28.198492
69.720 28.574005
69.725 29.456396
69.730 29.412132
69.735 29.611404
69.740 29.648369
69.745 29.452156
69.750 29.089985
69.755 28.194395
69.760 28.365772
69.765 28.805096
69.770 28.445921
69.775 27.896854
69.780 27.975384
69.785 28.290131
69.790 28.668102
69.795 28.085133
69.800 27.867592
69.805 27.991465
69.810 28.106981
69.815 27.91308
69.820 27.239775
69.825 26.668566
69.830 26.234648
69.835 25.589214
69.840 26.219883
69.845 26.336782
69.850 26.219717
69.855 26.682587
69.860 25.996748
69.865 25.953287
69.870 26.122444
69.875 25.240501
69.880 24.960773
69.885 24.779793
69.890 24.498905
69.895 24.74655
69.900 24.68364
69.905 25.301867
69.910 25.332088
69.915 24.997496
69.920 24.698256
69.925 24.352303
69.930 24.726398
69.935 24.500408
69.940 23.507021
69.945 23.524397
69.950 24.488533
69.955 24.220602
69.960 23.54767
69.965 22.864935
69.970 23.05986
69.975 23.366362
69.980 23.004517
69.985 22.578335
69.990 23.11409
69.995 23.675766
70.000 23.141602
70.005 22.353964
70.010 22.158718
70.015 22.458221
70.020 22.198051
70.025 22.027967
70.030 21.819319
70.035 22.019266
70.040 22.16132
70.045 22.263979
70.050 22.138899
70.055 22.395575
70.060 22.200878
70.065 22.288713
70.070 23.097004
70.075 23.074087
70.080 21.973385
70.085 21.427477
70.090 20.960148
70.095 20.321877
70.100 20.05232
70.105 19.952576
70.110 20.546673
70.115 21.22237
70.120 21.650639
70.125 22.272902
70.130 22.813421
70.135 22.681965
70.140 22.050896
70.145 22.12974
70.150 21.771042
70.155 21.223026
70.160 20.89456
70.165 20.443653
70.170 20.502972
70.175 20.414145
70.180 19.753986
70.185 19.790304
70.190 19.667336
70.195 19.434622
70.200 19.445036
70.205 19.519539
70.210 19.632168
70.215 20.319206
70.220 20.551861
70.225 20.790487
70.230 20.972609
70.235 21.293709
70.240 20.958887
70.245 21.000071
70.250 21.31311
70.255 21.015287
70.260 20.599165
70.265 20.167116
70.270 19.423786
70.275 19.443302
70.280 18.659107
70.285 18.330013
70.290 18.631424
70.295 18.72106
70.300 18.791004
70.305 18.956583
70.310 18.930473
70.315 18.8869
70.320 18.319344
70.325 17.538639
70.330 17.220358
70.335 17.097925
70.340 17.243525
70.345 17.042179
70.350 17.166012
70.355 17.23908
70.360 17.51848
70.365 18.281296
70.370 18.623518
70.375 18.409327
70.380 17.95233
70.385 17.832554
70.390 17.841621
70.395 17.783651
70.400 17.389814
70.405 17.309593
70.410 17.83461
70.415 18.704947
70.420 19.032446
70.425 19.326513
70.430 19.457579
70.435 19.319738
70.440 19.591549
70.445 19.23698
70.450 18.768354
70.455 17.780447
70.460 17.588171
70.465 17.545647
70.470 17.570915
70.475 17.455692
70.480 17.452473
70.485 17.936798
70.490 18.162096
70.495 18.151867
70.500 18.513893
70.505 18.566553
70.510 18.407885
70.515 18.890745
70.520 19.235966
70.525 19.778248
70.530 19.611504
70.535 19.43399
70.540 19.442516
70.545 20.108818
70.550 19.974514
70.555 19.47065
70.560 19.743704
70.565 19.848572
70.570 19.637106
70.575 18.866055
70.580 18.492672
70.585 18.700392
70.590 18.739153
70.595 19.022589
70.600 18.769762
70.605 19.19352
70.610 20.042068
70.615 20.119965
70.620 19.497108
70.625 19.166132
70.630 19.059025
70.635 19.397451
70.640 19.647608
70.645 19.364525
70.650 19.389156
70.655 19.597939
70.660 19.615337
70.665 18.925369
70.670 18.181644
70.675 17.86224
70.680 17.751255
70.685 17.461756
70.690 17.831196
70.695 17.516769
70.700 17.989765
70.705 18.151325
70.710 18.274836
70.715 18.550278
70.720 18.686897
70.725 18.516691
70.730 18.534698
70.735 18.559565
70.740 19.185585
70.745 18.958607
70.750 18.417486
70.755 18.584997
70.760 18.757666
70.765 18.88884
70.770 19.008879
70.775 18.548136
70.780 18.551245
70.785 18.295757
70.790 17.87924
70.795 17.88464
70.800 17.536615
70.805 17.642511
70.810 17.974888
70.815 18.438145
70.820 19.547544
70.825 20.385416
70.830 20.302752
70.835 20.354471
70.840 20.509645
70.845 20.056458
70.850 19.438589
70.855 19.097315
70.860 18.214365
70.865 18.744156
70.870 19.020544
70.875 18.344236
70.880 18.947205
70.885 18.99861
70.890 18.915371
70.895 19.310104
70.900 19.148581
70.905 19.248322
70.910 19.50738
70.915 19.36274
70.920 19.34181
70.925 19.193111
70.930 19.027643
70.935 18.708931
70.940 18.237934
70.945 18.315052
70.950 18.313335
70.955 17.740295
70.960 18.047655
70.965 17.850218
70.970 18.364136
70.975 18.287085
70.980 17.524725
70.985 16.988634
70.990 16.172396
70.995 15.636538
71.000 15.237521
71.005 14.415223
71.010 14.769873
71.015 15.533554
71.020 16.425858
71.025 17.581156
71.030 17.722116
71.035 18.466223
71.040 19.239376
71.045 19.592216
71.050 19.740019
71.055 19.297403
71.060 19.126781
71.065 18.812191
71.070 18.555599
71.075 17.911694
71.080 17.471474
71.085 17.480925
71.090 17.636864
71.095 17.968716
71.100 18.399734
71.105 18.649515
71.110 19.079952
71.115 18.935881
71.120 18.911957
71.125 18.393606
71.130 18.139568
71.135 18.119068
71.140 17.477579
71.145 16.768135
71.150 16.74317
71.155 17.159393
71.160 17.16449
71.165 17.098076
71.170 16.996006
71.175 17.891726
71.180 18.176542
71.185 17.989855
71.190 17.277935
71.195 16.956432
71.200 16.985613
71.205 17.234713
71.210 16.844904
71.215 17.282583
71.220 17.325981
71.225 18.181799
71.230 19.034193
71.235 19.39378
71.240 19.301216
71.245 18.967112
71.250 18.582415
71.255 18.326336
71.260 17.513573
71.265 17.769819
71.270 17.991343
71.275 18.229439
71.280 18.330069
71.285 18.576384
71.290 18.912796
71.295 18.847527
71.300 18.551125
71.305 18.137327
71.310 18.055962
71.315 18.065926
71.320 18.365208
71.325 18.193102
71.330 18.057171
71.335 17.507439
71.340 17.124945
71.345 16.634438
71.350 16.38253
71.355 16.014303
71.360 15.963678
71.365 15.714014
71.370 15.786757
71.375 16.608034
71.380 17.312391
71.385 17.37166
71.390 17.282003
71.395 17.218708
71.400 17.854828
71.405 18.011686
71.410 17.674187
71.415 17.683908
71.420 17.820238
71.425 18.321772
71.430 18.815254
71.435 18.510126
71.440 18.465754
71.445 18.481958
71.450 18.808296
71.455 18.891148
71.460 19.11952
71.465 18.433386
71.470 18.217175
71.475 18.367956
71.480 18.711874
71.485 18.438978
71.490 18.110689
71.495 17.839426
71.500 18.53657
71.505 18.922518
71.510 19.013115
71.515 19.046316
71.520 18.86027
71.525 18.896484
71.530 19.047697
71.535 18.726585
71.540 17.728621
71.545 17.349079
71.550 17.580872
71.555 18.006889
71.560 17.692667
71.565 17.513832
71.570 17.516779
71.575 17.935879
71.580 17.37849
71.585 17.362032
71.590 17.10124
71.595 17.493103
71.600 17.53767
71.605 17.990763
71.610 17.95752
71.615 18.468332
71.620 18.276535
71.625 18.565413
71.630 18.805866
71.635 19.208958
71.640 19.686739
71.645 19.960043
71.650 19.875893
71.655 19.834246
71.660 19.277758
71.665 19.08847
71.670 18.876263
71.675 18.374952
71.680 18.762848
71.685 19.005161
71.690 19.131987
71.695 19.393484
71.700 19.248415
71.705 18.580704
71.710 18.246979
71.715 17.000422
71.720 16.524462
71.725 16.737383
71.730 17.015165
71.735 16.895992
71.740 17.333832
71.745 18.037855
71.750 18.902355
71.755 18.813452
71.760 18.953993
71.765 18.780441
71.770 18.7675
71.775 19.193256
71.780 19.578709
71.785 19.235914
71.790 19.315659
71.795 18.9629
71.800 18.942667
71.805 19.018641
71.810 17.951643
71.815 16.848463
71.820 16.432322
71.825 16.173437
71.830 16.163671
71.835 15.946041
71.840 16.286444
71.845 17.109316
71.850 17.342386
71.855 17.596863
71.860 17.856138
71.865 18.170483
71.870 18.582735
71.875 18.432793
71.880 18.193102
71.885 18.479017
71.890 18.365486
71.895 18.456266
71.900 18.142574
71.905 18.068243
71.910 18.285269
71.915 18.428011
71.920 18.528976
71.925 18.608503
71.930 18.529028
71.935 18.657867
71.940 18.408991
71.945 17.816158
71.950 17.213543
71.955 16.923735
71.960 16.525154
71.965 16.536089
71.970 16.464504
71.975 16.579437
71.980 17.18088
71.985 18.013941
71.990 18.609524
71.995 18.446117
72.000 18.653612
72.005 18.508299
72.010 18.393776
72.015 17.921947
72.020 17.373528
72.025 17.328081
72.030 17.450882
72.035 17.16547
72.040 17.109814
72.045 17.096975
72.050 17.580641
72.055 17.624056
72.060 16.89176
72.065 17.098291
72.070 17.130346
72.075 17.513668
72.080 17.312387
72.085 16.768637
72.090 16.940245
72.095 17.367126
72.100 17.300045
72.105 17.58375
72.110 16.898483
72.115 17.045418
72.120 17.000402
72.125 17.130657
72.130 17.690113
72.135 17.60507
72.140 17.31749
72.145 17.631628
72.150 17.607937
72.155 18.119377
72.160 17.615961
72.165 17.651892
72.170 17.765099
72.175 18.10107
72.180 18.17581
72.185 17.811726
72.190 17.880604
72.195 18.165754
72.200 17.871374
72.205 17.59926
72.210 17.247211
72.215 17.608276
72.220 17.794252
72.225 17.548639
72.230 17.057123
72.235 17.248343
72.240 17.117453
72.245 17.479475
72.250 17.335735
72.255 16.940702
72.260 16.872478
72.265 16.723972
72.270 16.607327
72.275 17.328522
72.280 17.484617
72.285 17.580639
72.290 17.465912
72.295 17.887066
72.300 18.481495
72.305 18.350065
72.310 17.271976
72.315 16.793215
72.320 16.754263
72.325 17.161236
72.330 17.144941
72.335 17.338301
72.340 17.926064
72.345 18.507511
72.350 18.778954
72.355 18.878294
72.360 18.598942
72.365 17.592447
72.370 17.355705
72.375 17.464207
72.380 17.85384
72.385 18.06513
72.390 18.155916
72.395 18.362331
72.400 18.647623
72.405 18.634521
72.410 18.500465
72.415 18.504253
72.420 18.979246
72.425 19.380562
72.430 19.356998
72.435 19.436054
72.440 19.155334
72.445 18.582066
72.450 18.009714
72.455 17.477018
72.460 17.889788
72.465 17.924385
72.470 17.940016
72.475 18.396927
72.480 19.021196
72.485 18.696012
72.490 18.298134
72.495 17.824827
72.500 17.754986
72.505 17.432491
72.510 17.501503
72.515 17.189791
72.520 17.924564
72.525 18.253092
72.530 18.585806
72.535 18.948896
72.540 18.98472
72.545 18.872906
72.550 18.974348
72.555 19.05971
72.560 18.718168
72.565 17.929186
72.570 18.025862
72.575 18.145325
72.580 18.191971
72.585 17.761848
72.590 17.553585
72.595 17.903917
72.600 17.589006
72.605 17.147463
72.610 16.80127
72.615 16.344286
72.620 16.695017
72.625 16.734049
72.630 17.125143
72.635 17.467632
72.640 18.075575
72.645 18.218622
72.650 18.420837
72.655 18.175726
72.660 18.010086
72.665 18.198128
72.670 18.194065
72.675 17.353991
72.680 17.445164
72.685 17.779926
72.690 18.367241
72.695 18.481287
72.700 18.421135
72.705 18.019075
72.710 18.260902
72.715 18.222843
72.720 18.155323
72.725 18.062428
72.730 18.150213
72.735 18.619299
72.740 19.291861
72.745 19.181696
72.750 18.234362
72.755 17.737616
72.760 17.248146
72.765 16.876314
72.770 16.6493
72.775 16.594643
72.780 16.508909
72.785 16.133749
72.790 16.649113
72.795 16.761395
72.800 16.744389
72.805 16.474356
72.810 16.683561
72.815 17.084946
72.820 17.436672
72.825 17.037298
72.830 16.598722
72.835 16.232161
72.840 15.857592
72.845 15.432519
72.850 15.256542
72.855 15.134122
72.860 14.83104
72.865 15.115297
72.870 15.454332
72.875 15.690475
72.880 16.225866
72.885 16.823933
72.890 17.33147
72.895 17.315582
72.900 17.44837
72.905 17.05789
72.910 17.229399
72.915 16.837933
72.920 16.242538
72.925 16.038801
72.930 16.567204
72.935 16.412195
72.940 16.656897
72.945 16.338156
72.950 16.33824
72.955 16.976986
72.960 16.781513
72.965 16.497541
72.970 16.473015
72.975 16.203918
72.980 16.434669
72.985 15.983307
72.990 15.860446
72.995 15.754313
73.000 15.780687
