!@!!GADDS PLOTSO FILE: Chi integration type
!@!!Title/SampleName: map-136
!@!!Comment: ?
!@!!User: Bruker Instrument Administrator
!@!!Site: University of Illinois Chicago
!@!!Frame: map-136_01_000.gfrm
!@!!Wavelengths    1.54184   1.54056   1.54439
!@!!Frame angles: 2Theta: 63.000 Omega: 50.000 Phi: 0.000 Chi: 90.000
!@!!Integration range: 2Theta: 53.000 to 73.000  Gamma: -105.000 to -75.000
!@!!Integration method: bin normalized
!@!N
!@!SS
!@!M
!@!L 0.0 0.0 0.0 0.0
!@!XDegrees
!@!YCounts
53.000 4.311603
53.005 3.926557
53.010 3.801449
53.015 3.670766
53.020 3.795752
53.025 4.002598
53.030 4.501794
53.035 4.711995
53.040 4.929762
53.045 5.190917
53.050 5.243722
53.055 5.074645
53.060 4.846138
53.065 4.319018
53.070 4.310061
53.075 4.066786
53.080 3.792367
53.085 3.909022
53.090 3.879918
53.095 4.094202
53.100 4.480839
53.105 4.715739
53.110 4.828567
53.115 4.600531
53.120 4.499333
53.125 4.722987
53.130 4.628938
53.135 4.508081
53.140 4.075037
53.145 4.01549
53.150 4.350482
53.155 4.228559
53.160 3.874472
53.165 3.639094
53.170 3.635787
53.175 3.961962
53.180 4.252558
53.185 4.392725
53.190 4.458068
53.195 4.68097
53.200 4.924881
53.205 5.018025
53.210 4.557561
53.215 4.158373
53.220 4.00386
53.225 4.104303
53.230 3.858953
53.235 3.485884
53.240 3.447221
53.245 3.873452
53.250 4.218241
53.255 4.36616
53.260 4.308311
53.265 4.651866
53.270 4.918596
53.275 5.007254
53.280 4.583882
53.285 4.347924
53.290 4.09502
53.295 3.883347
53.300 3.475741
53.305 3.484627
53.310 3.713468
53.315 3.886621
53.320 4.274653
53.325 4.351689
53.330 4.428199
53.335 4.661902
53.340 4.455619
53.345 4.413548
53.350 4.512424
53.355 4.285885
53.360 4.801829
53.365 4.759885
53.370 4.804296
53.375 4.650952
53.380 4.550473
53.385 4.531868
53.390 4.690914
53.395 4.375817
53.400 4.570634
53.405 4.467768
53.410 4.43582
53.415 4.16506
53.420 4.016844
53.425 4.034891
53.430 4.024946
53.435 4.004411
53.440 4.342978
53.445 4.706591
53.450 4.974839
53.455 4.94471
53.460 4.549629
53.465 4.582982
53.470 4.39887
53.475 4.242529
53.480 4.156578
53.485 4.202338
53.490 4.194346
53.495 4.294246
53.500 4.658076
53.505 4.86058
53.510 4.894129
53.515 4.639793
53.520 4.222219
53.525 4.60982
53.530 4.492471
53.535 4.265872
53.540 3.918443
53.545 3.764763
53.550 4.032675
53.555 4.044785
53.560 3.771654
53.565 3.810148
53.570 3.805065
53.575 3.94538
53.580 3.891408
53.585 3.778206
53.590 3.887015
53.595 4.092463
53.600 3.955051
53.605 3.780212
53.610 3.91173
53.615 4.138126
53.620 4.175416
53.625 4.112446
53.630 4.046377
53.635 4.229688
53.640 4.199241
53.645 4.137052
53.650 4.039732
53.655 4.017829
53.660 3.896806
53.665 3.83083
53.670 3.65912
53.675 3.565542
53.680 3.397933
53.685 3.80321
53.690 4.037748
53.695 4.237107
53.700 4.420961
53.705 4.691993
53.710 5.043219
53.715 4.981414
53.720 4.658113
53.725 4.699555
53.730 4.700531
53.735 4.993706
53.740 4.857124
53.745 4.745971
53.750 4.926036
53.755 5.187104
53.760 4.797129
53.765 4.540803
53.770 4.219017
53.775 4.276035
53.780 4.339044
53.785 4.215847
53.790 4.066279
53.795 4.232243
53.800 4.225065
53.805 4.521834
53.810 4.404058
53.815 4.206985
53.820 4.136265
53.825 4.298864
53.830 4.320917
53.835 4.443144
53.840 4.539753
53.845 4.675836
53.850 4.76775
53.855 4.65615
53.860 4.935397
53.865 5.137162
53.870 4.948952
53.875 4.881974
53.880 5.131398
53.885 5.269617
53.890 5.265188
53.895 5.12825
53.900 4.918601
53.905 5.098448
53.910 4.933072
53.915 4.803251
53.920 4.850652
53.925 4.554768
53.930 4.456713
53.935 4.591796
53.940 4.980092
53.945 5.202655
53.950 4.998027
53.955 4.845071
53.960 5.171474
53.965 4.989758
53.970 4.535734
53.975 3.880723
53.980 3.569664
53.985 3.708399
53.990 3.704219
53.995 3.331187
54.000 3.396833
54.005 3.575902
54.010 3.983784
54.015 4.432618
54.020 4.714408
54.025 4.864098
54.030 5.121394
54.035 5.251917
54.040 5.461196
54.045 5.488665
54.050 5.408864
54.055 5.247456
54.060 5.290916
54.065 5.560832
54.070 5.559041
54.075 5.432754
54.080 5.264394
54.085 5.219543
54.090 5.471491
54.095 5.424148
54.100 5.264378
54.105 5.058881
54.110 4.905196
54.115 4.638072
54.120 4.791574
54.125 4.608347
54.130 4.54165
54.135 4.479396
54.140 4.615134
54.145 4.914166
54.150 4.977541
54.155 4.683541
54.160 4.637688
54.165 4.74264
54.170 4.794477
54.175 4.723409
54.180 4.603609
54.185 4.615514
54.190 4.445038
54.195 4.470784
54.200 4.225505
54.205 4.085418
54.210 3.911385
54.215 3.869819
54.220 3.922895
54.225 4.27915
54.230 4.406461
54.235 4.643864
54.240 4.542549
54.245 4.572688
54.250 4.592589
54.255 4.433921
54.260 4.161594
54.265 4.195652
54.270 4.126121
54.275 4.4315
54.280 4.414573
54.285 4.353969
54.290 4.446393
54.295 4.247528
54.300 4.035336
54.305 4.000486
54.310 3.865806
54.315 4.093662
54.320 4.101747
54.325 4.026625
54.330 4.150688
54.335 4.527187
54.340 5.01365
54.345 5.146887
54.350 4.929724
54.355 4.835038
54.360 5.051925
54.365 4.970745
54.370 4.933823
54.375 4.966173
54.380 4.988286
54.385 5.120184
54.390 5.112478
54.395 4.965225
54.400 5.176466
54.405 4.756094
54.410 4.611336
54.415 4.799471
54.420 4.795406
54.425 4.626342
54.430 4.626696
54.435 4.907779
54.440 4.978416
54.445 4.951079
54.450 4.675817
54.455 4.816109
54.460 5.129799
54.465 5.058421
54.470 4.61228
54.475 4.645417
54.480 4.660668
54.485 4.795564
54.490 4.965031
54.495 4.793952
54.500 4.892648
54.505 4.971527
54.510 4.517235
54.515 4.409262
54.520 4.225073
54.525 4.277265
54.530 4.45273
54.535 4.206899
54.540 4.120995
54.545 4.247778
54.550 4.067966
54.555 3.954088
54.560 3.665468
54.565 3.638817
54.570 3.934538
54.575 3.964664
54.580 4.044766
54.585 4.256572
54.590 4.326075
54.595 4.381162
54.600 4.224307
54.605 4.437579
54.610 4.699466
54.615 4.768188
54.620 5.132872
54.625 5.286433
54.630 5.19535
54.635 5.271907
54.640 5.249433
54.645 5.142448
54.650 4.902999
54.655 5.133272
54.660 5.414705
54.665 5.629717
54.670 5.376128
54.675 5.230701
54.680 5.52864
54.685 5.639129
54.690 5.063644
54.695 4.610911
54.700 4.529324
54.705 4.722616
54.710 4.407233
54.715 4.244564
54.720 4.040351
54.725 3.975307
54.730 4.034451
54.735 3.97553
54.740 4.006332
54.745 4.429134
54.750 4.712477
54.755 4.993993
54.760 5.58216
54.765 5.638494
54.770 5.893422
54.775 5.785545
54.780 5.484174
54.785 5.466682
54.790 5.184836
54.795 4.869135
54.800 5.088087
54.805 5.186682
54.810 5.409414
54.815 5.225245
54.820 4.963365
54.825 5.065096
54.830 5.05965
54.835 4.914007
54.840 4.799873
54.845 4.421247
54.850 4.396813
54.855 4.71967
54.860 4.889484
54.865 4.900316
54.870 4.999365
54.875 4.915203
54.880 5.153204
54.885 5.410504
54.890 5.609326
54.895 5.553999
54.900 5.597386
54.905 5.565623
54.910 5.745492
54.915 5.715707
54.920 5.49618
54.925 4.992608
54.930 5.066397
54.935 5.030574
54.940 4.789226
54.945 4.989517
54.950 5.223186
54.955 5.236446
54.960 5.425248
54.965 5.063634
54.970 4.723742
54.975 4.912687
54.980 4.877716
54.985 4.455566
54.990 4.400806
54.995 4.245156
55.000 4.486203
55.005 4.698022
55.010 4.289639
55.015 3.918285
55.020 3.975606
55.025 3.761299
55.030 3.772379
55.035 4.068762
55.040 4.141487
55.045 4.331696
55.050 4.536287
55.055 4.582778
55.060 4.568523
55.065 4.805335
55.070 4.446803
55.075 4.327854
55.080 4.41926
55.085 4.46461
55.090 4.487051
55.095 4.791299
55.100 4.554956
55.105 4.800153
55.110 5.048813
55.115 4.93806
55.120 4.89819
55.125 4.772969
55.130 4.784009
55.135 4.911183
55.140 4.8255
55.145 4.834921
55.150 4.667564
55.155 4.596402
55.160 4.748377
55.165 4.433217
55.170 4.237826
55.175 4.14276
55.180 4.344884
55.185 4.45683
55.190 4.443515
55.195 4.265696
55.200 4.649275
55.205 5.045323
55.210 4.888044
55.215 4.672687
55.220 4.890716
55.225 5.028969
55.230 5.359952
55.235 5.229048
55.240 5.163623
55.245 5.346169
55.250 5.306894
55.255 5.313112
55.260 5.157351
55.265 4.760202
55.270 4.299841
55.275 4.19472
55.280 4.41135
55.285 4.330946
55.290 4.487888
55.295 4.707313
55.300 5.164262
55.305 5.584636
55.310 5.754223
55.315 5.717577
55.320 6.072924
55.325 5.875549
55.330 5.599462
55.335 5.344476
55.340 4.935859
55.345 4.394837
55.350 4.07886
55.355 3.619592
55.360 3.831856
55.365 4.060275
55.370 4.048454
55.375 4.222826
55.380 4.602684
55.385 4.655599
55.390 4.926046
55.395 5.161177
55.400 5.089545
55.405 5.362639
55.410 5.757123
55.415 5.810492
55.420 5.923753
55.425 6.081048
55.430 6.073413
55.435 6.412871
55.440 6.176756
55.445 6.051218
55.450 6.24973
55.455 6.236191
55.460 5.839264
55.465 5.735588
55.470 5.622448
55.475 5.716968
55.480 5.839384
55.485 5.347147
55.490 5.413034
55.495 5.619197
55.500 5.513133
55.505 5.354509
55.510 5.05297
55.515 4.931285
55.520 5.271122
55.525 5.329898
55.530 5.029123
55.535 5.171298
55.540 5.635812
55.545 5.660124
55.550 5.744605
55.555 5.792611
55.560 5.801037
55.565 6.099003
55.570 5.662281
55.575 5.287274
55.580 5.543091
55.585 5.727437
55.590 5.539621
55.595 5.759139
55.600 5.80817
55.605 6.098482
55.610 6.133656
55.615 5.600176
55.620 5.277819
55.625 5.474254
55.630 5.354428
55.635 5.47063
55.640 5.214326
55.645 5.314946
55.650 5.974847
55.655 6.368437
55.660 6.508933
55.665 6.374069
55.670 6.283153
55.675 6.633051
55.680 6.533063
55.685 6.154893
55.690 5.918742
55.695 5.444529
55.700 5.878808
55.705 5.612438
55.710 5.267708
55.715 5.271805
55.720 5.42264
55.725 5.246429
55.730 5.209054
55.735 5.237891
55.740 5.360914
55.745 5.547265
55.750 5.328368
55.755 4.815241
55.760 4.827678
55.765 4.746458
55.770 4.409699
55.775 4.759476
55.780 4.476308
55.785 4.952597
55.790 5.176381
55.795 5.325946
55.800 5.032504
55.805 5.086264
55.810 4.80497
55.815 4.924747
55.820 4.868449
55.825 5.008437
55.830 4.983862
55.835 5.307406
55.840 5.569116
55.845 5.406837
55.850 5.184062
55.855 5.030042
55.860 5.113411
55.865 5.177905
55.870 4.822392
55.875 4.717225
55.880 4.699254
55.885 4.750533
55.890 4.824611
55.895 5.139789
55.900 4.977015
55.905 4.975038
55.910 5.295085
55.915 5.583179
55.920 5.791088
55.925 5.749371
55.930 5.64217
55.935 5.801719
55.940 5.811143
55.945 5.552075
55.950 5.654398
55.955 5.672512
55.960 5.632484
55.965 5.643105
55.970 5.626464
55.975 5.783471
55.980 5.760038
55.985 5.605335
55.990 5.308238
55.995 4.998872
56.000 5.099503
56.005 5.244406
56.010 4.997302
56.015 4.934617
56.020 5.160931
56.025 5.195979
56.030 5.417027
56.035 5.388411
56.040 5.478821
56.045 5.714965
56.050 5.89056
56.055 5.553085
56.060 5.544256
56.065 5.426992
56.070 5.306594
56.075 5.012307
56.080 4.834298
56.085 4.767359
56.090 5.249176
56.095 5.515122
56.100 5.516665
56.105 5.491225
56.110 5.802077
56.115 5.800562
56.120 5.698895
56.125 5.172216
56.130 4.823339
56.135 4.931559
56.140 5.067148
56.145 4.937857
56.150 4.873626
56.155 4.907474
56.160 5.090236
56.165 5.309201
56.170 5.2314
56.175 5.198389
56.180 5.299299
56.185 5.225924
56.190 4.973707
56.195 4.96261
56.200 4.97501
56.205 5.063764
56.210 5.005419
56.215 4.958307
56.220 5.274479
56.225 5.787126
56.230 5.689384
56.235 5.847944
56.240 5.925992
56.245 6.362941
56.250 6.53061
56.255 6.214785
56.260 6.000956
56.265 5.754248
56.270 5.538789
56.275 5.411771
56.280 4.820376
56.285 4.703048
56.290 4.849214
56.295 5.087484
56.300 5.549526
56.305 5.466337
56.310 5.591535
56.315 5.996088
56.320 5.780453
56.325 5.550538
56.330 5.551055
56.335 5.715603
56.340 5.875726
56.345 5.609197
56.350 5.4884
56.355 5.628654
56.360 5.729983
56.365 5.704994
56.370 5.180944
56.375 5.047566
56.380 5.017202
56.385 5.112686
56.390 5.534655
56.395 5.547791
56.400 5.418223
56.405 5.541994
56.410 5.63001
56.415 5.520833
56.420 5.465744
56.425 5.168588
56.430 5.173319
56.435 5.220854
56.440 5.412079
56.445 5.417292
56.450 5.451302
56.455 5.378884
56.460 5.448212
56.465 5.441005
56.470 5.606503
56.475 5.322281
56.480 5.390357
56.485 5.783108
56.490 6.332192
56.495 6.488857
56.500 6.707559
56.505 6.902936
56.510 6.866328
56.515 6.780288
56.520 6.853119
56.525 6.617709
56.530 6.460204
56.535 6.546487
56.540 6.538826
56.545 6.813025
56.550 6.825325
56.555 6.524796
56.560 7.102818
56.565 7.178869
56.570 6.757257
56.575 6.403473
56.580 6.337908
56.585 6.200991
56.590 5.717435
56.595 5.268003
56.600 5.278969
56.605 5.271246
56.610 5.596508
56.615 5.64478
56.620 5.670287
56.625 5.897915
56.630 5.738635
56.635 5.94275
56.640 5.940773
56.645 5.608369
56.650 5.776206
56.655 5.99962
56.660 5.931191
56.665 6.098251
56.670 6.098072
56.675 6.152873
56.680 6.629195
56.685 6.443439
56.690 6.33492
56.695 6.540884
56.700 6.639908
56.705 6.782185
56.710 6.762267
56.715 6.532537
56.720 6.56874
56.725 6.546377
56.730 6.323854
56.735 5.871819
56.740 5.655231
56.745 5.832583
56.750 5.713427
56.755 5.806175
56.760 5.727372
56.765 5.692133
56.770 5.618337
56.775 5.835084
56.780 5.693432
56.785 5.883796
56.790 5.906197
56.795 5.797312
56.800 5.855007
56.805 5.784071
56.810 5.694156
56.815 5.667227
56.820 5.388618
56.825 5.418518
56.830 5.641731
56.835 5.822301
56.840 5.617659
56.845 5.071143
56.850 4.84088
56.855 4.845562
56.860 4.769501
56.865 4.664396
56.870 4.993027
56.875 5.622411
56.880 5.991306
56.885 6.025431
56.890 6.035115
56.895 6.266238
56.900 6.419905
56.905 6.089876
56.910 5.873843
56.915 6.149654
56.920 6.34242
56.925 6.311631
56.930 6.428101
56.935 6.276964
56.940 5.955874
56.945 5.898259
56.950 5.837599
56.955 5.944403
56.960 5.605115
56.965 5.027297
56.970 4.970501
56.975 5.247761
56.980 5.182131
56.985 5.047393
56.990 5.537457
56.995 6.088974
57.000 6.26096
57.005 6.091893
57.010 6.030959
57.015 5.973368
57.020 6.133379
57.025 5.618456
57.030 5.223323
57.035 5.573472
57.040 6.047141
57.045 6.157922
57.050 6.34185
57.055 6.36471
57.060 6.262596
57.065 6.456324
57.070 6.104604
57.075 5.950918
57.080 5.800533
57.085 5.709671
57.090 5.652559
57.095 5.987275
57.100 6.008747
57.105 6.178442
57.110 5.876359
57.115 5.848196
57.120 5.8637
57.125 5.911901
57.130 5.967914
57.135 5.966225
57.140 5.866953
57.145 6.03987
57.150 5.801756
57.155 5.480011
57.160 5.448778
57.165 5.003186
57.170 5.228491
57.175 5.508156
57.180 5.788543
57.185 6.182268
57.190 6.355869
57.195 6.095613
57.200 6.089731
57.205 6.144886
57.210 6.308813
57.215 5.985487
57.220 5.697666
57.225 5.840725
57.230 5.989315
57.235 6.062434
57.240 5.983114
57.245 5.71206
57.250 5.897829
57.255 6.244433
57.260 6.215
57.265 6.432992
57.270 6.524437
57.275 6.235043
57.280 6.29281
57.285 6.177413
57.290 6.147179
57.295 5.876337
57.300 5.940175
57.305 5.838551
57.310 5.941891
57.315 6.432017
57.320 6.45413
57.325 6.552087
57.330 6.691031
57.335 6.493641
57.340 6.775588
57.345 6.894448
57.350 6.780156
57.355 6.662541
57.360 6.623502
57.365 6.442775
57.370 6.466006
57.375 5.924662
57.380 5.583895
57.385 5.469626
57.390 5.645628
57.395 5.672651
57.400 5.819042
57.405 5.720524
57.410 5.867167
57.415 6.167949
57.420 6.116261
57.425 5.513877
57.430 5.258857
57.435 5.151444
57.440 5.391708
57.445 5.743337
57.450 5.794572
57.455 5.645143
57.460 5.751403
57.465 6.133548
57.470 6.217458
57.475 5.96169
57.480 5.648705
57.485 5.530491
57.490 6.093217
57.495 6.083157
57.500 5.90024
57.505 5.799156
57.510 5.861859
57.515 5.890488
57.520 6.1395
57.525 5.936668
57.530 6.159229
57.535 6.317512
57.540 6.414085
57.545 6.545862
57.550 6.708961
57.555 6.463774
57.560 6.404282
57.565 6.431991
57.570 6.478874
57.575 6.470058
57.580 6.285835
57.585 6.134431
57.590 6.647729
57.595 6.843641
57.600 6.807868
57.605 6.903841
57.610 6.994646
57.615 6.925043
57.620 6.665492
57.625 6.433937
57.630 5.963852
57.635 5.507934
57.640 5.210593
57.645 5.078938
57.650 4.902726
57.655 4.893369
57.660 5.029881
57.665 5.466382
57.670 5.609529
57.675 5.941041
57.680 6.14744
57.685 6.399287
57.690 6.511108
57.695 6.192496
57.700 5.82668
57.705 5.787988
57.710 5.741232
57.715 5.580223
57.720 5.5405
57.725 5.654504
57.730 5.778469
57.735 6.321587
57.740 6.530419
57.745 6.375397
57.750 6.498771
57.755 6.608009
57.760 6.374054
57.765 6.242923
57.770 5.92519
57.775 5.701578
57.780 5.788061
57.785 5.595313
57.790 5.218914
57.795 5.204249
57.800 5.507422
57.805 6.079423
57.810 6.432286
57.815 6.509827
57.820 6.420554
57.825 6.516672
57.830 6.798697
57.835 6.924371
57.840 6.652921
57.845 6.403453
57.850 6.41514
57.855 6.541286
57.860 6.402869
57.865 6.43879
57.870 6.256037
57.875 5.900557
57.880 5.72902
57.885 5.408201
57.890 5.405464
57.895 5.51522
57.900 5.689716
57.905 5.975452
57.910 6.332839
57.915 6.538661
57.920 6.888962
57.925 7.320351
57.930 7.00443
57.935 6.544349
57.940 6.434618
57.945 6.280739
57.950 6.552189
57.955 6.618237
57.960 6.387873
57.965 6.544628
57.970 6.338706
57.975 6.087281
57.980 6.305228
57.985 6.040595
57.990 5.687718
57.995 5.861991
58.000 5.96365
58.005 5.95788
58.010 5.995015
58.015 5.764703
58.020 5.680503
58.025 6.01539
58.030 6.243776
58.035 6.440808
58.040 6.647157
58.045 6.666933
58.050 6.47986
58.055 6.680737
58.060 6.600189
58.065 6.445799
58.070 6.49617
58.075 6.675653
58.080 6.660267
58.085 6.737903
58.090 6.605517
58.095 6.569393
58.100 6.419116
58.105 6.124355
58.110 5.840073
58.115 5.758408
58.120 5.883149
58.125 6.21473
58.130 6.595517
58.135 6.681939
58.140 6.871467
58.145 7.012214
58.150 7.172199
58.155 7.305564
58.160 6.920227
58.165 6.357196
58.170 6.46581
58.175 6.256406
58.180 6.018611
58.185 5.806644
58.190 5.543869
58.195 5.52886
58.200 5.43849
58.205 5.32811
58.210 5.422331
58.215 5.65639
58.220 6.177999
58.225 6.214126
58.230 5.86126
58.235 6.302817
58.240 6.473028
58.245 6.560368
58.250 6.298018
58.255 5.89963
58.260 6.024701
58.265 5.97508
58.270 5.702891
58.275 5.923817
58.280 6.017403
58.285 6.001753
58.290 5.787089
58.295 5.958911
58.300 6.354822
58.305 6.568474
58.310 6.277561
58.315 5.928661
58.320 6.22024
58.325 6.619128
58.330 6.571164
58.335 6.559756
58.340 6.40445
58.345 6.434912
58.350 6.326011
58.355 6.105651
58.360 6.037922
58.365 6.208389
58.370 5.898663
58.375 5.823267
58.380 6.083078
58.385 6.382048
58.390 6.354684
58.395 6.272578
58.400 6.018582
58.405 6.176145
58.410 6.035444
58.415 5.726954
58.420 5.688616
58.425 5.837876
58.430 5.67546
58.435 5.927278
58.440 6.449571
58.445 6.636856
58.450 6.698928
58.455 6.725917
58.460 6.455147
58.465 6.591713
58.470 6.263329
58.475 5.818911
58.480 5.59243
58.485 5.708118
58.490 6.13207
58.495 6.156856
58.500 6.133989
58.505 5.934093
58.510 5.876003
58.515 5.857108
58.520 5.713862
58.525 5.772815
58.530 6.032378
58.535 6.32118
58.540 6.478557
58.545 6.705443
58.550 6.996115
58.555 7.316579
58.560 7.263
58.565 7.166965
58.570 7.321537
58.575 7.473776
58.580 7.546353
58.585 7.634012
58.590 7.370308
58.595 7.403442
58.600 7.435577
58.605 7.269604
58.610 7.765374
58.615 7.87576
58.620 7.907164
58.625 8.316367
58.630 8.460323
58.635 8.340186
58.640 8.486448
58.645 8.118598
58.650 8.180931
58.655 8.375073
58.660 8.307741
58.665 8.358347
58.670 8.702578
58.675 8.835414
58.680 9.131878
58.685 8.799397
58.690 8.513844
58.695 8.420589
58.700 8.231118
58.705 8.137405
58.710 8.123263
58.715 7.784369
58.720 8.006676
58.725 8.046466
58.730 7.905687
58.735 8.30078
58.740 8.740863
58.745 8.977608
58.750 8.971806
58.755 8.930201
58.760 9.350446
58.765 9.539844
58.770 9.091368
58.775 8.71606
58.780 8.518004
58.785 8.912695
58.790 8.589143
58.795 8.390593
58.800 8.792107
58.805 9.351638
58.810 9.334661
58.815 9.166451
58.820 8.572636
58.825 8.582505
58.830 7.996992
58.835 7.022542
58.840 6.270921
58.845 5.865336
58.850 5.666613
58.855 5.571207
58.860 5.908063
58.865 6.401077
58.870 6.477668
58.875 6.68974
58.880 6.560882
58.885 6.558554
58.890 6.730466
58.895 6.551773
58.900 6.575041
58.905 6.413735
58.910 6.563224
58.915 7.341032
58.920 7.377226
58.925 7.243341
58.930 6.920297
58.935 6.861504
58.940 7.255254
58.945 6.950183
58.950 6.501265
58.955 6.510978
58.960 6.614747
58.965 6.847439
58.970 6.999739
58.975 7.066254
58.980 7.220039
58.985 7.263139
58.990 7.316152
58.995 7.330945
59.000 7.190897
59.005 6.942945
59.010 6.984413
59.015 6.71568
59.020 6.566619
59.025 6.536686
59.030 6.429966
59.035 6.463353
59.040 6.013581
59.045 5.577097
59.050 6.218241
59.055 6.523901
59.060 6.470289
59.065 6.427279
59.070 6.918797
59.075 7.576643
59.080 7.766119
59.085 7.36789
59.090 7.078095
59.095 7.182742
59.100 7.079286
59.105 6.706438
59.110 6.581785
59.115 6.357858
59.120 6.294988
59.125 6.531966
59.130 6.504135
59.135 6.60807
59.140 6.514042
59.145 6.148346
59.150 6.120511
59.155 5.961491
59.160 5.838387
59.165 6.054373
59.170 6.221829
59.175 6.510605
59.180 6.918555
59.185 7.093534
59.190 7.070764
59.195 6.66814
59.200 6.173975
59.205 5.934057
59.210 5.963642
59.215 6.214594
59.220 5.819679
59.225 6.040027
59.230 6.700917
59.235 7.124931
59.240 7.002023
59.245 6.500795
59.250 5.863738
59.255 5.854877
59.260 5.596335
59.265 5.415107
59.270 5.305927
59.275 5.38416
59.280 5.409597
59.285 5.745563
59.290 6.167323
59.295 6.174883
59.300 5.973189
59.305 5.918274
59.310 5.865434
59.315 6.14599
59.320 6.20178
59.325 5.908608
59.330 5.888463
59.335 6.106952
59.340 6.084174
59.345 6.106348
59.350 6.1361
59.355 6.207757
59.360 6.706601
59.365 6.755877
59.370 6.641714
59.375 6.730896
59.380 6.602313
59.385 6.526142
59.390 6.776388
59.395 6.714371
59.400 6.748727
59.405 6.789665
59.410 6.725291
59.415 6.646638
59.420 6.39336
59.425 6.054654
59.430 5.835041
59.435 5.468523
59.440 5.347809
59.445 5.507703
59.450 5.412133
59.455 5.571635
59.460 5.464191
59.465 5.637808
59.470 5.888064
59.475 6.003276
59.480 5.94462
59.485 6.095164
59.490 6.218479
59.495 6.441018
59.500 6.539545
59.505 6.419219
59.510 6.345806
59.515 6.497628
59.520 6.356181
59.525 6.354836
59.530 6.397738
59.535 6.374217
59.540 6.807606
59.545 7.136683
59.550 7.029006
59.555 6.785779
59.560 6.434378
59.565 6.123631
59.570 6.029172
59.575 5.539583
59.580 4.822824
59.585 4.74081
59.590 4.909419
59.595 4.816118
59.600 4.799037
59.605 4.927409
59.610 5.182192
59.615 5.43503
59.620 5.692807
59.625 5.984219
59.630 6.131954
59.635 6.309278
59.640 6.103771
59.645 5.94855
59.650 5.875393
59.655 5.903897
59.660 5.799443
59.665 5.674502
59.670 5.584431
59.675 5.530874
59.680 5.36365
59.685 5.431277
59.690 5.610257
59.695 5.506144
59.700 5.908826
59.705 5.71007
59.710 5.982828
59.715 6.665926
59.720 6.91081
59.725 6.866255
59.730 6.977268
59.735 6.826201
59.740 7.161985
59.745 6.919305
59.750 6.560356
59.755 6.431204
59.760 6.745452
59.765 6.796317
59.770 6.962564
59.775 7.131618
59.780 7.275506
59.785 7.352707
59.790 7.272011
59.795 7.114053
59.800 6.88026
59.805 6.998414
59.810 6.861428
59.815 6.91611
59.820 6.993942
59.825 7.014307
59.830 6.761836
59.835 6.949055
59.840 6.918199
59.845 6.976296
59.850 6.928746
59.855 6.838634
59.860 6.708239
59.865 6.872347
59.870 6.948831
59.875 6.945965
59.880 7.42649
59.885 7.210585
59.890 7.393968
59.895 7.541937
59.900 7.310708
59.905 7.490504
59.910 7.107337
59.915 6.52253
59.920 6.663651
59.925 6.708736
59.930 6.758783
59.935 6.78023
59.940 6.522232
59.945 6.458748
59.950 6.227061
59.955 5.939565
59.960 5.819319
59.965 5.621814
59.970 5.319389
59.975 5.038816
59.980 5.217824
59.985 5.815239
59.990 6.057059
59.995 6.222873
60.000 6.307647
60.005 6.603286
60.010 6.798728
60.015 6.549807
60.020 6.474192
60.025 6.486635
60.030 6.261236
60.035 6.129006
60.040 6.220951
60.045 6.108413
60.050 6.307173
60.055 6.577198
60.060 6.78412
60.065 6.884275
60.070 7.100082
60.075 6.930316
60.080 7.257912
60.085 7.238276
60.090 6.77388
60.095 6.261104
60.100 6.075018
60.105 6.136798
60.110 6.174395
60.115 5.880944
60.120 6.016591
60.125 6.233585
60.130 6.65574
60.135 6.614981
60.140 6.573287
60.145 6.573923
60.150 6.898122
60.155 6.843648
60.160 6.780567
60.165 6.651463
60.170 6.495536
60.175 6.502044
60.180 6.587484
60.185 6.454052
60.190 6.375487
60.195 6.300807
60.200 6.341996
60.205 6.620094
60.210 6.526284
60.215 6.61604
60.220 6.503809
60.225 6.472123
60.230 6.431748
60.235 6.02766
60.240 5.694489
60.245 5.596753
60.250 5.57933
60.255 5.763237
60.260 5.680694
60.265 5.666163
60.270 6.096231
60.275 6.492622
60.280 6.79103
60.285 6.772235
60.290 6.70397
60.295 6.639842
60.300 6.582928
60.305 6.380158
60.310 5.922723
60.315 5.63921
60.320 5.405336
60.325 5.339588
60.330 5.227661
60.335 5.264498
60.340 5.463771
60.345 5.887727
60.350 5.780741
60.355 5.625081
60.360 5.557971
60.365 5.796641
60.370 5.93205
60.375 6.197701
60.380 6.055301
60.385 6.230988
60.390 6.32033
60.395 6.601824
60.400 6.699365
60.405 6.553635
60.410 6.339299
60.415 6.27688
60.420 6.29999
60.425 6.625403
60.430 6.808423
60.435 6.730496
60.440 6.943048
60.445 6.87135
60.450 6.804347
60.455 6.643586
60.460 6.724039
60.465 6.42063
60.470 6.269423
60.475 6.230646
60.480 6.500438
60.485 6.50299
60.490 6.551859
60.495 6.562931
60.500 6.864039
60.505 6.987575
60.510 6.859931
60.515 6.578819
60.520 6.830361
60.525 6.839564
60.530 6.495868
60.535 6.263287
60.540 6.498562
60.545 6.472777
60.550 6.64418
60.555 6.503706
60.560 6.489443
60.565 6.416947
60.570 6.404237
60.575 6.26139
60.580 6.352857
60.585 6.517729
60.590 6.585578
60.595 6.875741
60.600 7.017739
60.605 6.393013
60.610 6.299068
60.615 6.101226
60.620 6.225151
60.625 6.278945
60.630 6.235645
60.635 6.42991
60.640 6.719917
60.645 6.802216
60.650 6.869322
60.655 6.488679
60.660 6.616793
60.665 6.526228
60.670 6.630809
60.675 6.855656
60.680 6.703067
60.685 6.667783
60.690 6.407353
60.695 6.109986
60.700 5.513756
60.705 5.762442
60.710 6.165367
60.715 6.458765
60.720 6.246055
60.725 6.27779
60.730 6.407804
60.735 6.665838
60.740 6.445132
60.745 6.162729
60.750 6.601763
60.755 7.474534
60.760 7.986037
60.765 8.086656
60.770 8.085376
60.775 8.052852
60.780 8.001348
60.785 7.689501
60.790 7.413342
60.795 7.018955
60.800 6.963767
60.805 7.076389
60.810 6.952506
60.815 6.850397
60.820 6.628391
60.825 6.572315
60.830 6.461867
60.835 6.513185
60.840 6.172945
60.845 6.302529
60.850 6.358823
60.855 6.369669
60.860 6.068812
60.865 6.225003
60.870 6.155369
60.875 6.438685
60.880 6.373362
60.885 5.978718
60.890 5.725882
60.895 5.615109
60.900 5.578784
60.905 5.359363
60.910 5.04814
60.915 4.748261
60.920 4.915396
60.925 5.153697
60.930 5.715598
60.935 6.001578
60.940 6.415728
60.945 6.519876
60.950 6.811042
60.955 6.741998
60.960 6.444096
60.965 5.962161
60.970 5.955081
60.975 5.758876
60.980 5.764639
60.985 5.765562
60.990 5.890504
60.995 5.908032
61.000 5.82967
61.005 5.622613
61.010 5.677038
61.015 5.734838
61.020 5.687124
61.025 5.99987
61.030 6.215841
61.035 6.350401
61.040 6.441947
61.045 6.550486
61.050 6.618845
61.055 6.664611
61.060 6.881493
61.065 7.054345
61.070 6.852683
61.075 7.002387
61.080 6.802377
61.085 6.469635
61.090 6.516329
61.095 6.474449
61.100 6.909329
61.105 7.374359
61.110 7.326874
61.115 7.940802
61.120 8.70423
61.125 8.998308
61.130 8.870157
61.135 8.500796
61.140 8.240426
61.145 8.44808
61.150 8.267674
61.155 8.117265
61.160 7.494004
61.165 7.0524
61.170 6.933413
61.175 6.494712
61.180 6.248748
61.185 6.03982
61.190 5.935902
61.195 6.312432
61.200 6.869685
61.205 7.09469
61.210 7.361852
61.215 7.575395
61.220 7.328409
61.225 7.109843
61.230 6.920723
61.235 6.73299
61.240 6.629342
61.245 6.692967
61.250 6.360206
61.255 6.003672
61.260 5.928901
61.265 5.868673
61.270 5.542058
61.275 5.425776
61.280 5.447574
61.285 5.722449
61.290 6.291477
61.295 6.237291
61.300 6.252172
61.305 6.342741
61.310 6.443058
61.315 6.42205
61.320 6.264256
61.325 6.111237
61.330 6.298763
61.335 6.240458
61.340 6.149102
61.345 6.13306
61.350 5.793881
61.355 5.818196
61.360 6.193548
61.365 6.512977
61.370 6.671348
61.375 6.602437
61.380 6.581471
61.385 6.966125
61.390 7.12875
61.395 6.831339
61.400 6.89194
61.405 6.82519
61.410 7.127965
61.415 7.729549
61.420 7.848198
61.425 8.039612
61.430 8.197638
61.435 7.79413
61.440 7.524661
61.445 7.490696
61.450 7.008801
61.455 6.917086
61.460 6.548003
61.465 6.400011
61.470 6.656695
61.475 6.900391
61.480 6.696883
61.485 6.507979
61.490 6.416608
61.495 6.709369
61.500 6.590271
61.505 6.287728
61.510 6.259268
61.515 6.431241
61.520 6.557018
61.525 6.304884
61.530 6.053756
61.535 5.925875
61.540 5.800428
61.545 5.902466
61.550 5.912264
61.555 6.302985
61.560 6.547469
61.565 6.686109
61.570 7.087036
61.575 7.269094
61.580 7.107059
61.585 7.01816
61.590 6.469204
61.595 6.576603
61.600 6.411045
61.605 6.397785
61.610 6.543083
61.615 6.356109
61.620 6.34598
61.625 6.815371
61.630 6.723054
61.635 6.519878
61.640 6.106525
61.645 5.894864
61.650 6.332241
61.655 6.380383
61.660 6.419737
61.665 6.404896
61.670 6.458694
61.675 6.553682
61.680 6.904408
61.685 6.736029
61.690 6.548814
61.695 6.402524
61.700 6.519668
61.705 6.809114
61.710 7.253458
61.715 6.728319
61.720 6.428216
61.725 6.743015
61.730 6.510665
61.735 6.537488
61.740 6.482704
61.745 6.488508
61.750 6.82325
61.755 6.927778
61.760 6.879593
61.765 7.130129
61.770 7.258695
61.775 7.196287
61.780 7.077569
61.785 6.913511
61.790 6.813177
61.795 6.715838
61.800 6.736346
61.805 6.509512
61.810 6.625819
61.815 6.954734
61.820 7.638683
61.825 8.165754
61.830 7.997172
61.835 7.753638
61.840 8.049274
61.845 7.908052
61.850 7.494806
61.855 6.857731
61.860 6.758238
61.865 6.863129
61.870 6.815053
61.875 6.70562
61.880 6.596246
61.885 6.943247
61.890 7.357694
61.895 7.195877
61.900 7.711206
61.905 7.842909
61.910 7.759116
61.915 7.599091
61.920 7.197069
61.925 7.099824
61.930 7.136689
61.935 6.749444
61.940 6.66755
61.945 6.919887
61.950 7.101909
61.955 7.194015
61.960 7.074624
61.965 7.14968
61.970 7.370045
61.975 7.856023
61.980 7.552214
61.985 7.283233
61.990 7.331479
61.995 7.561943
62.000 7.901896
62.005 7.746805
62.010 7.546134
62.015 8.151086
62.020 8.75353
62.025 8.650572
62.030 8.491108
62.035 8.142892
62.040 8.184061
62.045 8.07319
62.050 7.836807
62.055 7.490003
62.060 7.443058
62.065 7.378913
62.070 7.110367
62.075 7.18503
62.080 7.541683
62.085 7.431782
62.090 7.471883
62.095 7.426843
62.100 7.385623
62.105 7.385571
62.110 7.240564
62.115 6.904617
62.120 7.063553
62.125 7.32506
62.130 7.22855
62.135 7.338953
62.140 7.417887
62.145 7.198295
62.150 6.991297
62.155 6.641806
62.160 6.538598
62.165 7.011466
62.170 7.254788
62.175 7.456351
62.180 7.987114
62.185 8.182596
62.190 8.509995
62.195 8.496026
62.200 8.122348
62.205 7.69489
62.210 7.47019
62.215 7.051969
62.220 7.097013
62.225 6.941248
62.230 6.489701
62.235 6.559641
62.240 6.740034
62.245 6.987002
62.250 7.197844
62.255 7.340696
62.260 7.364086
62.265 7.740732
62.270 7.675141
62.275 7.36969
62.280 6.900782
62.285 6.822729
62.290 7.154346
62.295 6.951005
62.300 6.765253
62.305 6.559324
62.310 6.750028
62.315 6.911537
62.320 6.937635
62.325 6.563227
62.330 6.995469
62.335 7.497182
62.340 7.739343
62.345 7.402369
62.350 7.483405
62.355 7.167963
62.360 7.26027
62.365 7.356287
62.370 7.410625
62.375 7.301978
62.380 7.489513
62.385 7.417223
62.390 7.568114
62.395 7.316613
62.400 7.02978
62.405 6.467278
62.410 6.536769
62.415 6.740301
62.420 6.8785
62.425 7.031569
62.430 6.868618
62.435 6.928384
62.440 7.290978
62.445 7.255188
62.450 7.541835
62.455 7.371956
62.460 7.165179
62.465 7.408649
62.470 7.283606
62.475 7.513353
62.480 7.844916
62.485 7.454952
62.490 7.232879
62.495 7.179851
62.500 7.114016
62.505 7.060804
62.510 7.066182
62.515 7.087613
62.520 7.198596
62.525 7.452165
62.530 7.448485
62.535 7.433607
62.540 7.454022
62.545 7.412773
62.550 7.483538
62.555 7.586071
62.560 7.796849
62.565 7.661135
62.570 7.732022
62.575 7.584996
62.580 7.391416
62.585 7.231143
62.590 7.142497
62.595 6.933225
62.600 7.230182
62.605 7.114518
62.610 7.354419
62.615 7.521585
62.620 7.940585
62.625 8.124585
62.630 8.138409
62.635 8.011563
62.640 8.128089
62.645 7.673977
62.650 7.462666
62.655 6.953179
62.660 6.765358
62.665 6.627698
62.670 6.787372
62.675 6.910503
62.680 7.160588
62.685 7.201163
62.690 7.360035
62.695 7.583582
62.700 7.715768
62.705 7.589464
62.710 7.616039
62.715 7.782526
62.720 7.975254
62.725 8.300625
62.730 8.759634
62.735 9.016457
62.740 9.462106
62.745 9.707008
62.750 10.045341
62.755 10.506659
62.760 10.167977
62.765 10.245049
62.770 10.358475
62.775 10.023447
62.780 9.662524
62.785 9.086471
62.790 8.937593
62.795 9.150691
62.800 8.73907
62.805 8.631337
62.810 8.684684
62.815 8.77625
62.820 8.585168
62.825 8.123001
62.830 8.004441
62.835 8.042895
62.840 7.938606
62.845 7.904371
62.850 8.117379
62.855 8.348172
62.860 8.161723
62.865 8.012909
62.870 7.646798
62.875 7.666106
62.880 7.157382
62.885 6.856112
62.890 6.769081
62.895 6.970814
62.900 7.262209
62.905 7.193389
62.910 7.415061
62.915 7.921864
62.920 8.027185
62.925 8.063544
62.930 8.130833
62.935 8.160906
62.940 8.475932
62.945 8.313046
62.950 8.230555
62.955 8.35823
62.960 8.229337
62.965 8.046156
62.970 8.299611
62.975 8.320107
62.980 8.202039
62.985 7.867649
62.990 7.50529
62.995 7.729479
63.000 7.964716
63.005 7.871522
63.010 7.876093
63.015 7.886075
63.020 8.173271
63.025 8.41262
63.030 8.498302
63.035 8.153068
63.040 7.942886
63.045 8.079435
63.050 8.253756
63.055 8.304001
63.060 8.267893
63.065 8.056954
63.070 7.906714
63.075 7.760169
63.080 7.645914
63.085 7.580784
63.090 7.453321
63.095 7.356993
63.100 7.52418
63.105 7.69608
63.110 7.953231
63.115 7.979937
63.120 7.816585
63.125 7.712332
63.130 7.772675
63.135 7.538249
63.140 7.274334
63.145 7.043914
63.150 6.930106
63.155 6.751755
63.160 6.690393
63.165 6.61053
63.170 7.139123
63.175 7.306658
63.180 7.342024
63.185 7.718411
63.190 7.987154
63.195 8.058941
63.200 8.198807
63.205 7.830554
63.210 7.902804
63.215 7.665762
63.220 7.026324
63.225 7.374675
63.230 7.609423
63.235 7.530608
63.240 7.734118
63.245 7.33962
63.250 7.011845
63.255 7.032256
63.260 7.046157
63.265 6.859659
63.270 6.726422
63.275 6.652505
63.280 6.86493
63.285 7.403852
63.290 7.388841
63.295 7.03358
63.300 7.058188
63.305 7.217856
63.310 7.463343
63.315 7.728532
63.320 7.835536
63.325 8.405925
63.330 8.604317
63.335 8.601334
63.340 8.305023
63.345 7.814895
63.350 7.262775
63.355 6.896131
63.360 6.833674
63.365 6.974312
63.370 7.153321
63.375 7.457373
63.380 8.164207
63.385 8.355021
63.390 8.392935
63.395 7.762101
63.400 7.447196
63.405 7.451727
63.410 7.126638
63.415 6.730479
63.420 6.728714
63.425 6.492096
63.430 6.838563
63.435 6.812811
63.440 6.794663
63.445 6.91193
63.450 6.729146
63.455 6.948198
63.460 7.078765
63.465 6.945482
63.470 6.937261
63.475 6.912615
63.480 7.034759
63.485 7.086226
63.490 7.465327
63.495 7.70774
63.500 7.782052
63.505 7.858708
63.510 8.050862
63.515 7.923056
63.520 8.401543
63.525 8.412911
63.530 8.027243
63.535 8.013116
63.540 8.05103
63.545 7.893836
63.550 7.933465
63.555 7.387822
63.560 6.763951
63.565 7.155049
63.570 7.092091
63.575 7.073623
63.580 7.363696
63.585 7.76905
63.590 7.815772
63.595 7.790464
63.600 7.63134
63.605 7.738251
63.610 7.734189
63.615 7.697543
63.620 7.622241
63.625 7.981764
63.630 7.900903
63.635 7.966604
63.640 7.772058
63.645 7.57551
63.650 7.184005
63.655 6.772588
63.660 6.591318
63.665 6.946429
63.670 7.316719
63.675 7.790097
63.680 8.368946
63.685 8.379638
63.690 8.626954
63.695 8.646414
63.700 8.161265
63.705 7.87293
63.710 7.365563
63.715 6.794519
63.720 6.943088
63.725 6.729602
63.730 6.687689
63.735 6.88016
63.740 6.804569
63.745 7.245314
63.750 7.318596
63.755 7.253025
63.760 7.384108
63.765 7.722621
63.770 8.249689
63.775 8.240222
63.780 7.859466
63.785 7.94372
63.790 8.016973
63.795 8.028404
63.800 7.47992
63.805 7.174331
63.810 7.321957
63.815 7.23244
63.820 6.909498
63.825 6.850696
63.830 6.626987
63.835 7.226491
63.840 7.716444
63.845 7.875268
63.850 8.090878
63.855 8.222252
63.860 8.128304
63.865 8.532618
63.870 8.189622
63.875 7.706201
63.880 7.505101
63.885 7.554138
63.890 7.563136
63.895 7.485666
63.900 7.320491
63.905 7.426183
63.910 7.122742
63.915 7.159871
63.920 7.100378
63.925 7.221945
63.930 7.532606
63.935 7.688032
63.940 7.51954
63.945 7.570415
63.950 7.450711
63.955 7.645553
63.960 7.405024
63.965 7.017961
63.970 6.827092
63.975 6.835041
63.980 7.224748
63.985 7.32754
63.990 7.295073
63.995 7.572972
64.000 7.903978
64.005 8.321298
64.010 8.46542
64.015 8.318629
64.020 8.738107
64.025 9.0202
64.030 8.677049
64.035 8.268022
64.040 8.15096
64.045 8.226769
64.050 8.595058
64.055 8.13838
64.060 7.772371
64.065 8.218805
64.070 8.251226
64.075 8.234252
64.080 8.198021
64.085 7.78141
64.090 8.055197
64.095 7.986898
64.100 7.721168
64.105 7.890967
64.110 7.54481
64.115 7.761615
64.120 8.199532
64.125 7.806349
64.130 7.708814
64.135 7.813956
64.140 7.623719
64.145 8.137613
64.150 8.184216
64.155 8.024283
64.160 8.363003
64.165 8.395112
64.170 8.627027
64.175 8.939702
64.180 8.584444
64.185 8.176906
64.190 7.994656
64.195 8.101871
64.200 8.075396
64.205 7.764479
64.210 7.83388
64.215 8.256462
64.220 8.744449
64.225 8.772363
64.230 8.711867
64.235 8.945081
64.240 9.342467
64.245 9.242498
64.250 8.639166
64.255 8.594793
64.260 8.681877
64.265 9.013185
64.270 9.095156
64.275 8.570018
64.280 8.773932
64.285 8.99208
64.290 9.326419
64.295 9.898723
64.300 9.522834
64.305 9.678068
64.310 9.960045
64.315 9.848267
64.320 10.107622
64.325 9.779203
64.330 9.526743
64.335 9.600647
64.340 9.643599
64.345 9.731053
64.350 10.032
64.355 10.399161
64.360 10.843904
64.365 10.932064
64.370 11.423764
64.375 11.465897
64.380 11.543855
64.385 11.066826
64.390 10.419659
64.395 10.521907
64.400 10.59832
64.405 10.227867
64.410 10.074821
64.415 9.847729
64.420 10.189828
64.425 10.516295
64.430 10.136078
64.435 10.162868
64.440 10.127035
64.445 10.289885
64.450 10.714869
64.455 10.724673
64.460 10.612493
64.465 10.817877
64.470 10.596265
64.475 10.887177
64.480 11.016652
64.485 10.688041
64.490 10.731687
64.495 10.438481
64.500 10.391717
64.505 10.852832
64.510 11.241545
64.515 11.277219
64.520 11.723033
64.525 11.877474
64.530 11.996544
64.535 11.982742
64.540 11.395063
64.545 10.985846
64.550 10.956338
64.555 10.889496
64.560 10.558803
64.565 10.261958
64.570 9.726665
64.575 10.139812
64.580 10.317559
64.585 10.389324
64.590 10.018689
64.595 9.642957
64.600 9.655902
64.605 9.950467
64.610 9.632363
64.615 9.580132
64.620 9.310199
64.625 9.338264
64.630 9.705999
64.635 10.031037
64.640 10.354173
64.645 10.707522
64.650 10.501107
64.655 10.391662
64.660 10.392796
64.665 10.44353
64.670 10.510932
64.675 9.990157
64.680 9.704947
64.685 9.754024
64.690 9.60217
64.695 9.770118
64.700 9.40562
64.705 8.973989
64.710 8.854197
64.715 8.93749
64.720 8.688723
64.725 8.665351
64.730 8.442604
64.735 8.509041
64.740 8.350965
64.745 8.046705
64.750 7.815535
64.755 7.600341
64.760 7.521099
64.765 7.965817
64.770 8.065708
64.775 8.223722
64.780 8.529521
64.785 8.517474
64.790 8.981397
64.795 9.006827
64.800 8.733883
64.805 9.081306
64.810 9.157015
64.815 9.169695
64.820 9.665802
64.825 9.715799
64.830 9.714047
64.835 10.052025
64.840 10.09513
64.845 10.236221
64.850 10.283299
64.855 10.127153
64.860 9.935493
64.865 10.030064
64.870 9.974503
64.875 9.846766
64.880 9.720542
64.885 9.474872
64.890 9.02015
64.895 9.279842
64.900 9.306479
64.905 9.188745
64.910 8.740127
64.915 8.864251
64.920 9.092759
64.925 9.170853
64.930 9.230211
64.935 9.344341
64.940 9.193999
64.945 9.569624
64.950 9.773544
64.955 9.635901
64.960 10.289229
64.965 10.180657
64.970 10.143606
64.975 10.61902
64.980 10.775119
64.985 11.203978
64.990 11.399384
64.995 11.111889
65.000 10.895613
65.005 10.512162
65.010 10.168118
65.015 9.933587
65.020 9.570477
65.025 9.731836
65.030 10.007178
65.035 10.307604
65.040 10.667212
65.045 10.759084
65.050 10.744228
65.055 10.829097
65.060 10.662925
65.065 10.22458
65.070 10.025076
65.075 10.265443
65.080 10.434452
65.085 10.938347
65.090 10.931218
65.095 10.845621
65.100 10.77718
65.105 11.13343
65.110 11.288399
65.115 11.051398
65.120 10.554914
65.125 10.129121
65.130 10.233651
65.135 10.436737
65.140 10.417897
65.145 9.753899
65.150 9.956503
65.155 10.087076
65.160 10.391862
65.165 10.569688
65.170 10.591892
65.175 10.537316
65.180 10.800084
65.185 10.495524
65.190 10.404934
65.195 10.536687
65.200 10.410091
65.205 10.262387
65.210 10.014262
65.215 10.076827
65.220 10.438601
65.225 10.284196
65.230 10.253122
65.235 10.413363
65.240 10.187858
65.245 10.301373
65.250 10.173427
65.255 10.150796
65.260 10.43455
65.265 10.506588
65.270 10.508537
65.275 11.021125
65.280 11.144138
65.285 11.577583
65.290 11.675998
65.295 11.553086
65.300 10.928327
65.305 10.605032
65.310 10.189856
65.315 9.834933
65.320 9.270463
65.325 9.133315
65.330 9.428114
65.335 10.318346
65.340 10.358364
65.345 10.405994
65.350 10.61334
65.355 10.672543
65.360 10.84766
65.365 10.919482
65.370 10.611901
65.375 11.193386
65.380 11.428903
65.385 11.745934
65.390 11.662811
65.395 11.350502
65.400 11.191352
65.405 11.481236
65.410 11.644527
65.415 11.261808
65.420 11.125175
65.425 11.091805
65.430 10.956573
65.435 10.741984
65.440 10.615443
65.445 10.177152
65.450 10.376661
65.455 10.538729
65.460 10.962646
65.465 11.193213
65.470 11.390298
65.475 11.398753
65.480 11.872848
65.485 11.836288
65.490 11.632717
65.495 11.432957
65.500 11.390513
65.505 10.970313
65.510 10.52082
65.515 10.125902
65.520 10.090857
65.525 10.123001
65.530 10.19838
65.535 10.557294
65.540 10.733312
65.545 10.700022
65.550 10.918583
65.555 11.360506
65.560 11.419184
65.565 11.577182
65.570 11.787453
65.575 12.368412
65.580 12.834031
65.585 12.567767
65.590 12.527509
65.595 12.183571
65.600 11.888657
65.605 11.585749
65.610 11.095956
65.615 10.706662
65.620 10.766726
65.625 10.32566
65.630 10.670533
65.635 10.888577
65.640 10.985008
65.645 11.10995
65.650 10.971662
65.655 10.854965
65.660 10.652079
65.665 10.157626
65.670 9.864603
65.675 9.910492
65.680 10.037688
65.685 9.969367
65.690 10.332624
65.695 10.810033
65.700 10.899057
65.705 10.67753
65.710 10.510472
65.715 9.727796
65.720 9.266618
65.725 9.089304
65.730 8.886009
65.735 8.716781
65.740 8.442066
65.745 8.371995
65.750 8.724105
65.755 8.901655
65.760 8.459025
65.765 8.171444
65.770 8.670815
65.775 8.546237
65.780 8.351633
65.785 8.290744
65.790 8.15932
65.795 8.292731
65.800 8.301835
65.805 8.271485
65.810 8.617642
65.815 8.722995
65.820 8.718642
65.825 9.180523
65.830 9.212151
65.835 9.149121
65.840 8.849195
65.845 8.891404
65.850 8.670138
65.855 8.343884
65.860 8.194813
65.865 8.138592
65.870 7.870368
65.875 7.720565
65.880 7.542726
65.885 7.718597
65.890 7.945984
65.895 7.821589
65.900 7.969969
65.905 8.08836
65.910 8.102141
65.915 8.023619
65.920 7.676858
65.925 7.277297
65.930 6.952732
65.935 6.653147
65.940 6.749062
65.945 6.665671
65.950 6.29554
65.955 6.176588
65.960 6.429026
65.965 6.392552
65.970 6.411496
65.975 6.593591
65.980 6.647415
65.985 6.856944
65.990 7.409283
65.995 7.313378
66.000 7.520293
66.005 7.89536
66.010 8.038185
66.015 8.406185
66.020 8.860937
66.025 8.862596
66.030 9.55351
66.035 9.60813
66.040 9.648891
66.045 9.470522
66.050 9.309382
66.055 9.452643
66.060 9.344845
66.065 8.893127
66.070 8.602152
66.075 8.129726
66.080 7.720168
66.085 7.528862
66.090 7.112041
66.095 6.994457
66.100 6.923115
66.105 6.758201
66.110 6.916846
66.115 7.100166
66.120 7.390229
66.125 7.599953
66.130 7.634584
66.135 7.442006
66.140 7.974962
66.145 8.151794
66.150 8.277189
66.155 8.26452
66.160 8.148297
66.165 8.410011
66.170 8.618107
66.175 8.55465
66.180 8.348516
66.185 8.333063
66.190 7.870893
66.195 7.969181
66.200 7.808097
66.205 7.734741
66.210 7.56972
66.215 7.440092
66.220 7.280437
66.225 7.478651
66.230 7.470823
66.235 7.675345
66.240 7.883829
66.245 7.976925
66.250 7.904668
66.255 7.750379
66.260 7.772972
66.265 7.648769
66.270 7.425525
66.275 7.160214
66.280 7.535102
66.285 8.153886
66.290 8.610916
66.295 8.737362
66.300 8.668398
66.305 8.871325
66.310 9.371678
66.315 9.072075
66.320 9.067187
66.325 8.612512
66.330 8.163322
66.335 8.124202
66.340 8.287594
66.345 8.09874
66.350 7.901551
66.355 8.026918
66.360 8.358166
66.365 8.846809
66.370 8.948316
66.375 8.482656
66.380 8.414976
66.385 8.7328
66.390 8.542146
66.395 8.497787
66.400 8.488203
66.405 8.134607
66.410 8.49683
66.415 8.447654
66.420 7.965837
66.425 8.039613
66.430 7.773277
66.435 7.806652
66.440 7.878588
66.445 7.976039
66.450 7.431845
66.455 7.729534
66.460 7.648907
66.465 7.813493
66.470 7.974587
66.475 8.075867
66.480 8.296028
66.485 8.828253
66.490 8.95124
66.495 9.110826
66.500 9.015891
66.505 8.953652
66.510 9.004016
66.515 8.845039
66.520 8.962148
66.525 8.640674
66.530 8.537329
66.535 8.922684
66.540 9.146902
66.545 9.031294
66.550 8.399891
66.555 7.948647
66.560 8.345903
66.565 8.740844
66.570 8.547167
66.575 8.425494
66.580 8.517948
66.585 8.548657
66.590 8.397852
66.595 8.502876
66.600 8.239578
66.605 8.16244
66.610 8.034469
66.615 7.963809
66.620 8.169553
66.625 8.566835
66.630 8.392077
66.635 7.949855
66.640 7.834617
66.645 7.571569
66.650 7.877223
66.655 8.047892
66.660 7.391997
66.665 7.053075
66.670 7.549455
66.675 7.453846
66.680 7.676479
66.685 7.356312
66.690 7.390176
66.695 7.374146
66.700 7.271883
66.705 6.656974
66.710 6.479365
66.715 6.260977
66.720 6.666811
66.725 6.688476
66.730 6.574061
66.735 6.736023
66.740 7.258035
66.745 7.573526
66.750 7.836514
66.755 7.592149
66.760 8.167529
66.765 8.520227
66.770 8.313863
66.775 8.109525
66.780 7.788459
66.785 8.101527
66.790 7.951009
66.795 7.514163
66.800 7.784413
66.805 7.968361
66.810 7.741405
66.815 8.051073
66.820 7.857766
66.825 7.820619
66.830 7.785434
66.835 7.553751
66.840 7.550319
66.845 7.780257
66.850 7.974049
66.855 7.844572
66.860 7.938928
66.865 8.166632
66.870 8.454419
66.875 8.68027
66.880 8.569376
66.885 8.264512
66.890 8.253553
66.895 8.27343
66.900 8.010065
66.905 7.907343
66.910 7.971619
66.915 8.026046
66.920 7.807909
66.925 7.730763
66.930 7.551957
66.935 7.949699
66.940 7.957443
66.945 7.743652
66.950 8.007631
66.955 8.269676
66.960 8.281633
66.965 8.470101
66.970 8.238056
66.975 8.266972
66.980 8.307311
66.985 8.190676
66.990 8.266151
66.995 8.370044
67.000 7.99066
67.005 7.800397
67.010 7.925041
67.015 8.227305
67.020 8.336591
67.025 8.104008
67.030 8.169376
67.035 8.221505
67.040 8.161825
67.045 8.213249
67.050 8.291302
67.055 8.548152
67.060 8.76256
67.065 8.977342
67.070 9.419116
67.075 9.569339
67.080 9.857931
67.085 9.418398
67.090 8.988287
67.095 8.710597
67.100 8.532009
67.105 8.11661
67.110 7.937027
67.115 7.607668
67.120 7.828108
67.125 7.86694
67.130 7.752572
67.135 7.574454
67.140 7.92115
67.145 7.964409
67.150 7.474558
67.155 7.542368
67.160 7.840864
67.165 8.125303
67.170 7.801232
67.175 7.191732
67.180 7.341968
67.185 8.00166
67.190 8.023808
67.195 7.61796
67.200 7.290346
67.205 7.764279
67.210 8.262091
67.215 8.076921
67.220 7.971705
67.225 8.073374
67.230 8.349473
67.235 8.276878
67.240 8.161753
67.245 7.873209
67.250 7.843198
67.255 7.402357
67.260 7.340104
67.265 7.395424
67.270 7.577322
67.275 7.695047
67.280 7.853315
67.285 7.9468
67.290 8.492619
67.295 8.322871
67.300 8.20412
67.305 7.885621
67.310 7.849723
67.315 8.243118
67.320 8.06471
67.325 7.821235
67.330 7.866984
67.335 7.792266
67.340 8.05393
67.345 8.493213
67.350 8.466226
67.355 8.280001
67.360 8.154406
67.365 7.9791
67.370 8.384498
67.375 8.845604
67.380 8.097372
67.385 7.734584
67.390 8.041284
67.395 8.051221
67.400 8.644022
67.405 8.531627
67.410 7.990114
67.415 8.0856
67.420 8.609813
67.425 8.323084
67.430 8.393346
67.435 7.947006
67.440 7.902083
67.445 8.315959
67.450 8.462579
67.455 8.353065
67.460 8.530481
67.465 8.449063
67.470 8.432528
67.475 8.190351
67.480 8.470272
67.485 8.539421
67.490 8.598743
67.495 8.555774
67.500 8.524171
67.505 8.670673
67.510 8.721111
67.515 8.281079
67.520 7.827436
67.525 7.494318
67.530 7.330441
67.535 7.230035
67.540 6.819748
67.545 6.964715
67.550 6.990438
67.555 7.227036
67.560 7.574346
67.565 7.679276
67.570 7.740664
67.575 7.712005
67.580 7.323809
67.585 7.205017
67.590 7.024229
67.595 6.943935
67.600 6.674236
67.605 6.824458
67.610 7.147799
67.615 7.432687
67.620 7.206324
67.625 7.52172
67.630 7.872604
67.635 8.545381
67.640 8.394799
67.645 8.191827
67.650 8.062295
67.655 8.488003
67.660 8.315144
67.665 8.262741
67.670 7.912386
67.675 7.714363
67.680 7.89163
67.685 7.701343
67.690 7.607348
67.695 7.452524
67.700 7.510704
67.705 7.728205
67.710 7.896791
67.715 7.603148
67.720 7.81896
67.725 7.854654
67.730 7.961529
67.735 7.617502
67.740 7.518002
67.745 7.259026
67.750 7.741981
67.755 7.900094
67.760 8.144398
67.765 8.559116
67.770 9.394775
67.775 9.473323
67.780 9.578434
67.785 9.423157
67.790 9.407954
67.795 9.294625
67.800 9.004363
67.805 8.56846
67.810 8.550992
67.815 8.649296
67.820 8.766371
67.825 8.56216
67.830 7.995309
67.835 8.145102
67.840 8.160319
67.845 8.044751
67.850 8.010968
67.855 7.675456
67.860 7.78334
67.865 8.220516
67.870 7.921988
67.875 7.765019
67.880 8.092471
67.885 8.333726
67.890 8.617501
67.895 8.543944
67.900 8.634254
67.905 8.512003
67.910 8.746719
67.915 8.629776
67.920 8.53348
67.925 8.408319
67.930 8.483055
67.935 7.929117
67.940 8.111338
67.945 8.696444
67.950 8.771944
67.955 8.785587
67.960 8.876087
67.965 9.250624
67.970 9.99366
67.975 9.852251
67.980 9.568583
67.985 9.396961
67.990 9.46534
67.995 9.169183
68.000 8.810458
68.005 8.433314
68.010 8.441034
68.015 8.278408
68.020 8.452251
68.025 8.346003
68.030 8.371467
68.035 8.330187
68.040 8.549792
68.045 8.633942
68.050 8.691902
68.055 8.444716
68.060 8.4715
68.065 8.315743
68.070 8.127665
68.075 7.789454
68.080 7.795061
68.085 7.828956
68.090 8.189833
68.095 8.448556
68.100 8.868019
68.105 9.427108
68.110 9.462967
68.115 9.381034
68.120 9.555426
68.125 9.728407
68.130 9.901393
68.135 9.419577
68.140 9.046601
68.145 9.187564
68.150 9.065823
68.155 8.723995
68.160 8.18712
68.165 8.074147
68.170 8.283178
68.175 8.377893
68.180 8.009825
68.185 7.84201
68.190 7.862175
68.195 8.115905
68.200 7.957559
68.205 8.12947
68.210 8.091409
68.215 8.254354
68.220 8.719705
68.225 8.769445
68.230 8.923174
68.235 8.960013
68.240 8.900229
68.245 8.942391
68.250 8.695193
68.255 8.226104
68.260 8.233416
68.265 8.093121
68.270 8.376756
68.275 8.261452
68.280 8.19909
68.285 8.435513
68.290 8.430242
68.295 8.483674
68.300 8.089579
68.305 7.47291
68.310 7.71795
68.315 7.794655
68.320 8.036017
68.325 8.214577
68.330 8.368364
68.335 8.627338
68.340 8.893194
68.345 8.483045
68.350 8.399182
68.355 8.506881
68.360 8.439017
68.365 8.412487
68.370 8.421345
68.375 8.430806
68.380 8.580165
68.385 8.460199
68.390 8.481484
68.395 8.118153
68.400 8.117475
68.405 8.171926
68.410 8.007339
68.415 7.852795
68.420 8.052286
68.425 8.345589
68.430 8.553224
68.435 8.326462
68.440 8.147596
68.445 8.047935
68.450 8.361197
68.455 8.398635
68.460 8.424213
68.465 8.243704
68.470 8.373998
68.475 8.417288
68.480 8.910337
68.485 8.894984
68.490 8.98097
68.495 8.870983
68.500 8.812325
68.505 8.905418
68.510 9.152963
68.515 8.943789
68.520 8.54285
68.525 8.406226
68.530 8.251873
68.535 8.534174
68.540 8.250075
68.545 8.107694
68.550 8.295585
68.555 8.682487
68.560 8.587214
68.565 8.876066
68.570 8.869548
68.575 9.107315
68.580 8.882257
68.585 8.875854
68.590 8.549935
68.595 8.370131
68.600 8.674767
68.605 8.930786
68.610 9.294583
68.615 9.738822
68.620 9.505282
68.625 9.905107
68.630 9.933481
68.635 9.885029
68.640 9.773162
68.645 9.316752
68.650 9.200848
68.655 9.393522
68.660 9.305815
68.665 9.047061
68.670 9.006105
68.675 9.415796
68.680 9.407881
68.685 9.172413
68.690 9.676456
68.695 10.137133
68.700 10.625383
68.705 10.639725
68.710 10.571819
68.715 10.882946
68.720 11.053769
68.725 10.755836
68.730 10.702826
68.735 10.816288
68.740 10.89268
68.745 10.990767
68.750 10.796504
68.755 10.631542
68.760 10.572414
68.765 10.633086
68.770 10.337835
68.775 10.144739
68.780 10.126266
68.785 10.736448
68.790 10.869675
68.795 10.648653
68.800 10.366247
68.805 10.429623
68.810 10.229816
68.815 10.247578
68.820 10.664413
68.825 11.126544
68.830 11.354738
68.835 11.752497
68.840 11.746402
68.845 12.104415
68.850 12.123225
68.855 11.660932
68.860 11.576553
68.865 11.707604
68.870 11.641424
68.875 11.307215
68.880 10.793608
68.885 10.723199
68.890 10.341325
68.895 10.274546
68.900 10.574901
68.905 10.638432
68.910 10.920871
68.915 10.742861
68.920 10.735324
68.925 10.917947
68.930 10.527803
68.935 10.186783
68.940 10.127794
68.945 10.354524
68.950 10.542288
68.955 10.095512
68.960 10.427511
68.965 10.814884
68.970 10.559199
68.975 10.330336
68.980 10.288184
68.985 10.398672
68.990 10.617181
68.995 10.45372
69.000 10.265332
69.005 10.357286
69.010 10.498501
69.015 10.848384
69.020 10.635172
69.025 10.481798
69.030 10.380244
69.035 9.956196
69.040 9.626496
69.045 9.549362
69.050 9.086008
69.055 9.028174
69.060 8.84286
69.065 8.673018
69.070 8.659898
69.075 8.809275
69.080 8.738473
69.085 9.136056
69.090 9.459739
69.095 9.88934
69.100 10.303235
69.105 10.562644
69.110 10.485897
69.115 10.27227
69.120 9.919465
69.125 9.897655
69.130 9.53505
69.135 9.091433
69.140 9.210123
69.145 9.479274
69.150 9.529052
69.155 9.765352
69.160 9.856471
69.165 10.14144
69.170 10.332353
69.175 9.73876
69.180 9.667195
69.185 9.897937
69.190 9.904157
69.195 9.912673
69.200 9.462446
69.205 9.3561
69.210 9.815989
69.215 9.910492
69.220 9.565199
69.225 9.192975
69.230 8.991096
69.235 9.123901
69.240 9.1527
69.245 8.941754
69.250 8.825527
69.255 9.11832
69.260 9.024375
69.265 9.06593
69.270 9.080227
69.275 9.255203
69.280 8.956352
69.285 9.161205
69.290 9.091918
69.295 9.295662
69.300 9.741515
69.305 9.832245
69.310 9.88106
69.315 9.883748
69.320 9.517228
69.325 9.339721
69.330 9.034223
69.335 8.664991
69.340 8.385971
69.345 8.370522
69.350 8.555674
69.355 8.630558
69.360 8.519756
69.365 8.725861
69.370 8.516088
69.375 8.230405
69.380 7.804214
69.385 7.516731
69.390 7.458719
69.395 7.587826
69.400 7.285237
69.405 7.191701
69.410 7.59827
69.415 7.60808
69.420 7.625223
69.425 7.39903
69.430 7.462085
69.435 7.784235
69.440 7.629713
69.445 7.656108
69.450 7.702364
69.455 7.690144
69.460 7.364324
69.465 6.873347
69.470 6.65799
69.475 6.665205
69.480 6.518377
69.485 6.35802
69.490 6.626922
69.495 7.283036
69.500 7.485796
69.505 7.639572
69.510 7.802612
69.515 7.817783
69.520 8.042068
69.525 7.993976
69.530 7.590353
69.535 7.594158
69.540 7.682183
69.545 7.476032
69.550 7.341087
69.555 7.531535
69.560 7.409051
69.565 7.601675
69.570 7.816821
69.575 7.841894
69.580 8.258477
69.585 8.281252
69.590 7.617631
69.595 7.613039
69.600 7.751931
69.605 7.772368
69.610 7.731569
69.615 7.730339
69.620 8.210044
69.625 8.458428
69.630 8.490621
69.635 8.211828
69.640 8.468304
69.645 8.790818
69.650 8.484013
69.655 8.370259
69.660 8.711435
69.665 8.91201
69.670 8.753957
69.675 8.308878
69.680 7.98617
69.685 7.932812
69.690 7.822845
69.695 8.011278
69.700 8.264423
69.705 8.670465
69.710 8.730286
69.715 8.924941
69.720 9.302559
69.725 9.321608
69.730 9.038963
69.735 8.795918
69.740 8.671186
69.745 8.598367
69.750 8.5843
69.755 8.230638
69.760 8.144065
69.765 8.046194
69.770 8.203433
69.775 8.538644
69.780 8.849319
69.785 8.537462
69.790 8.59561
69.795 8.785357
69.800 8.363297
69.805 8.05747
69.810 7.625753
69.815 7.406522
69.820 7.426819
69.825 6.930401
69.830 6.742043
69.835 7.101451
69.840 6.879445
69.845 6.825179
69.850 6.604018
69.855 7.068948
69.860 7.138106
69.865 7.249646
69.870 7.207168
69.875 7.633671
69.880 7.859696
69.885 7.865556
69.890 7.559657
69.895 7.901675
69.900 7.592142
69.905 7.555054
69.910 7.120445
69.915 7.128172
69.920 7.316754
69.925 7.38551
69.930 7.794596
69.935 8.169334
69.940 8.447954
69.945 8.65337
69.950 8.665359
69.955 9.128695
69.960 8.935065
69.965 8.320976
69.970 8.294074
69.975 8.047331
69.980 7.934784
69.985 7.751812
69.990 7.625609
69.995 7.828362
70.000 8.326487
70.005 8.293204
70.010 8.318731
70.015 8.252316
70.020 8.216531
70.025 8.124773
70.030 7.79607
70.035 7.454895
70.040 7.201334
70.045 7.299085
70.050 7.428951
70.055 7.471817
70.060 7.527814
70.065 7.765638
70.070 7.726128
70.075 7.803573
70.080 7.787457
70.085 7.70696
70.090 7.472928
70.095 7.426035
70.100 7.512072
70.105 7.958206
70.110 7.976285
70.115 7.962451
70.120 8.27162
70.125 8.572702
70.130 8.681455
70.135 8.350798
70.140 8.149391
70.145 8.315183
70.150 8.512708
70.155 8.584165
70.160 8.324102
70.165 8.231941
70.170 8.509243
70.175 8.609988
70.180 8.452572
70.185 8.518469
70.190 8.463482
70.195 8.594269
70.200 9.004148
70.205 9.428582
70.210 9.711399
70.215 9.965618
70.220 9.688553
70.225 9.518074
70.230 9.642342
70.235 9.438237
70.240 8.940395
70.245 8.795119
70.250 8.609131
70.255 9.016799
70.260 9.043636
70.265 8.772969
70.270 8.783375
70.275 8.498749
70.280 8.184919
70.285 8.049079
70.290 8.019767
70.295 8.195029
70.300 8.177186
70.305 8.058199
70.310 8.226814
70.315 8.376553
70.320 8.202249
70.325 7.871961
70.330 7.952227
70.335 8.205941
70.340 8.829363
70.345 9.079056
70.350 9.374442
70.355 9.14366
70.360 8.940341
70.365 8.545319
70.370 8.190572
70.375 7.567758
70.380 7.51054
70.385 7.62824
70.390 8.395597
70.395 8.731588
70.400 9.379707
70.405 9.39716
70.410 9.722937
70.415 9.523529
70.420 8.86655
70.425 8.580027
70.430 8.491168
70.435 7.976434
70.440 7.85013
70.445 7.636796
70.450 8.19699
70.455 8.654571
70.460 8.668825
70.465 8.776087
70.470 9.162496
70.475 9.479665
70.480 9.428109
70.485 9.191836
70.490 9.053033
70.495 8.973323
70.500 8.6667
70.505 8.600722
70.510 8.247777
70.515 8.133699
70.520 8.115045
70.525 7.988188
70.530 8.052716
70.535 8.26575
70.540 8.207108
70.545 8.756334
70.550 8.772061
70.555 8.650007
70.560 8.752227
70.565 8.801186
70.570 8.83888
70.575 9.370669
70.580 9.465032
70.585 9.513413
70.590 9.710076
70.595 9.604136
70.600 9.439515
70.605 9.160253
70.610 8.812914
70.615 8.434866
70.620 8.661398
70.625 8.593633
70.630 8.94843
70.635 9.357391
70.640 9.381674
70.645 9.01883
70.650 8.837097
70.655 8.596827
70.660 8.261541
70.665 7.761901
70.670 7.354069
70.675 7.041549
70.680 7.072627
70.685 7.695172
70.690 7.522992
70.695 7.247306
70.700 7.377967
70.705 7.412139
70.710 7.37968
70.715 7.406195
70.720 6.937279
70.725 6.97723
70.730 7.274895
70.735 7.024735
70.740 7.20819
70.745 7.144404
70.750 6.896439
70.755 7.459968
70.760 7.960073
70.765 8.256315
70.770 8.695644
70.775 8.493176
70.780 8.849199
70.785 8.729577
70.790 8.164433
70.795 8.002376
70.800 8.102224
70.805 8.071538
70.810 8.266464
70.815 8.440403
70.820 8.942528
70.825 9.320618
70.830 9.404971
70.835 9.216057
70.840 9.231856
70.845 9.088414
70.850 9.20053
70.855 8.841099
70.860 8.016887
70.865 7.957128
70.870 8.175367
70.875 7.952216
70.880 7.796482
70.885 7.424449
70.890 7.492416
70.895 7.710249
70.900 7.433395
70.905 7.112432
70.910 7.281267
70.915 7.535771
70.920 7.318513
70.925 7.84045
70.930 8.168514
70.935 8.075156
70.940 8.708216
70.945 8.853843
70.950 8.761268
70.955 8.901236
70.960 8.588919
70.965 8.554535
70.970 8.727595
70.975 8.2177
70.980 8.348872
70.985 8.316438
70.990 8.335849
70.995 8.439157
71.000 8.451266
71.005 8.767721
71.010 8.675433
71.015 8.619051
71.020 8.99478
71.025 8.802696
71.030 8.565833
71.035 8.263803
71.040 8.159224
71.045 7.860629
71.050 7.660632
71.055 7.37015
71.060 7.418331
71.065 7.542574
71.070 7.425354
71.075 7.584981
71.080 8.058397
71.085 8.543701
71.090 8.720703
71.095 8.898046
71.100 8.954463
71.105 8.828645
71.110 8.361763
71.115 8.155385
71.120 8.062415
71.125 7.88308
71.130 7.618711
71.135 7.209263
71.140 7.410723
71.145 7.316016
71.150 7.115184
71.155 7.056801
71.160 7.404094
71.165 7.965657
71.170 8.133776
71.175 8.253677
71.180 8.287824
71.185 8.14422
71.190 7.805832
71.195 7.407801
71.200 7.266889
71.205 7.387186
71.210 7.245954
71.215 7.227306
71.220 7.380599
71.225 7.450844
71.230 7.151569
71.235 6.747389
71.240 6.381281
71.245 6.571473
71.250 6.595602
71.255 6.769366
71.260 6.983505
71.265 7.273691
71.270 7.556774
71.275 7.817404
71.280 8.023747
71.285 8.320813
71.290 8.121218
71.295 8.262415
71.300 8.262021
71.305 8.19657
71.310 8.057836
71.315 7.900355
71.320 7.724483
71.325 7.877121
71.330 7.869479
71.335 8.176985
71.340 8.274031
71.345 8.498264
71.350 8.264841
71.355 8.363256
71.360 8.028593
71.365 7.857741
71.370 7.890155
71.375 8.350718
71.380 8.405084
71.385 8.639961
71.390 8.809875
71.395 9.029048
71.400 9.433817
71.405 8.857694
71.410 8.340389
71.415 8.46499
71.420 8.528097
71.425 8.484555
71.430 8.625572
71.435 8.415583
71.440 8.78914
71.445 8.906054
71.450 8.954123
71.455 9.030348
71.460 9.036778
71.465 8.800496
71.470 8.750981
71.475 8.71314
71.480 8.754092
71.485 8.330787
71.490 8.027759
71.495 7.810219
71.500 7.729918
71.505 7.847587
71.510 7.720179
71.515 7.729813
71.520 8.030582
71.525 8.09909
71.530 8.041622
71.535 7.766314
71.540 7.688227
71.545 7.73432
71.550 7.858442
71.555 7.522012
71.560 7.546587
71.565 7.740627
71.570 8.113554
71.575 8.501764
71.580 8.351927
71.585 8.553798
71.590 8.809445
71.595 8.688423
71.600 8.481322
71.605 8.252236
71.610 7.851684
71.615 8.037877
71.620 8.033404
71.625 8.167083
71.630 8.298762
71.635 8.237104
71.640 8.090945
71.645 7.995749
71.650 7.409671
71.655 7.100488
71.660 6.910267
71.665 6.988433
71.670 6.987558
71.675 6.77253
71.680 7.204743
71.685 7.36151
71.690 7.334394
71.695 7.093969
71.700 6.934985
71.705 7.01105
71.710 7.141986
71.715 7.299236
71.720 7.506163
71.725 7.693757
71.730 8.215193
71.735 8.490061
71.740 8.901609
71.745 8.91415
71.750 8.841619
71.755 9.079582
71.760 9.249611
71.765 9.175221
71.770 9.185884
71.775 9.178166
71.780 9.07079
71.785 8.7751
71.790 8.26663
71.795 8.26641
71.800 8.495553
71.805 8.321366
71.810 8.432888
71.815 8.778083
71.820 8.954556
71.825 8.989182
71.830 9.165278
71.835 8.866374
71.840 8.598647
71.845 8.401958
71.850 8.456771
71.855 8.442798
71.860 8.283365
71.865 7.717858
71.870 7.713147
71.875 8.269238
71.880 7.960514
71.885 8.146327
71.890 8.064498
71.895 8.240325
71.900 8.406459
71.905 8.678349
71.910 8.550435
71.915 8.955931
71.920 8.555503
71.925 8.727009
71.930 8.865452
71.935 9.063886
71.940 8.900584
71.945 8.57088
71.950 8.27893
71.955 8.384369
71.960 8.160978
71.965 7.967638
71.970 7.964331
71.975 8.032588
71.980 8.323539
71.985 8.197853
71.990 8.022271
71.995 7.975442
72.000 8.006134
72.005 8.110171
72.010 8.116718
72.015 8.415561
72.020 8.474723
72.025 8.535789
72.030 8.558363
72.035 8.042163
72.040 7.912044
72.045 7.797822
72.050 7.457228
72.055 7.387115
72.060 7.333939
72.065 7.687457
72.070 8.149235
72.075 8.087777
72.080 7.824958
72.085 7.957136
72.090 8.144192
72.095 7.97222
72.100 7.670741
72.105 7.059001
72.110 6.993027
72.115 7.107127
72.120 7.198853
72.125 7.380663
72.130 7.759697
72.135 7.924681
72.140 8.16647
72.145 8.033998
72.150 7.575037
72.155 7.501004
72.160 7.595623
72.165 7.162598
72.170 7.272947
72.175 7.66433
72.180 8.02487
72.185 8.247288
72.190 8.090667
72.195 8.243383
72.200 8.47897
72.205 8.337006
72.210 7.76054
72.215 7.823289
72.220 7.898191
72.225 7.85503
72.230 7.816172
72.235 7.694398
72.240 7.873583
72.245 8.337346
72.250 8.041822
72.255 7.975233
72.260 7.941832
72.265 8.297049
72.270 8.274524
72.275 8.471027
72.280 8.782745
72.285 8.813059
72.290 8.830666
72.295 8.469819
72.300 8.237396
72.305 8.13884
72.310 7.788643
72.315 7.922918
72.320 8.189044
72.325 8.229046
72.330 8.490116
72.335 8.447185
72.340 8.414294
72.345 8.242076
72.350 7.938797
72.355 8.043753
72.360 7.962105
72.365 8.403188
72.370 8.314019
72.375 8.577724
72.380 8.471887
72.385 8.59503
72.390 8.452506
72.395 8.090027
72.400 7.491205
72.405 7.509032
72.410 7.46031
72.415 7.216705
72.420 6.945807
72.425 7.391345
72.430 7.246444
72.435 7.289484
72.440 7.3899
72.445 7.510581
72.450 7.841818
72.455 8.089354
72.460 7.658082
72.465 7.968313
72.470 8.258033
72.475 8.239892
72.480 8.173606
72.485 7.425725
72.490 7.072448
72.495 7.529739
72.500 7.190206
72.505 7.006047
72.510 7.275896
72.515 7.154297
72.520 7.936797
72.525 8.22136
72.530 8.472466
72.535 8.790736
72.540 8.646577
72.545 8.428007
72.550 8.756604
72.555 8.433801
72.560 8.258634
72.565 7.616448
72.570 7.426814
72.575 7.76027
72.580 7.691359
72.585 7.541022
72.590 7.578435
72.595 7.870093
72.600 8.13232
72.605 8.366781
72.610 8.241456
72.615 8.508924
72.620 8.679105
72.625 8.970094
72.630 8.547992
72.635 8.631489
72.640 8.32357
72.645 8.117569
72.650 7.847339
72.655 7.134699
72.660 6.668755
72.665 6.492723
72.670 6.186656
72.675 6.309131
72.680 6.258437
72.685 6.491703
72.690 7.164161
72.695 7.507451
72.700 7.780664
72.705 8.043278
72.710 8.016455
72.715 8.143667
72.720 7.677634
72.725 7.195517
72.730 7.470254
72.735 7.490884
72.740 7.587065
72.745 7.628162
72.750 7.591023
72.755 8.312088
72.760 8.240024
72.765 8.233781
72.770 7.88929
72.775 7.781376
72.780 7.683352
72.785 7.755607
72.790 8.173515
72.795 7.899978
72.800 7.750075
72.805 7.705881
72.810 7.797825
72.815 7.412757
72.820 6.949847
72.825 6.690908
72.830 6.788298
72.835 6.689222
72.840 6.634727
72.845 6.936579
72.850 7.402466
72.855 7.411598
72.860 7.590195
72.865 7.91095
72.870 8.237948
72.875 8.485736
72.880 8.138265
72.885 7.931934
72.890 7.893857
72.895 7.55071
72.900 7.493189
72.905 7.230527
72.910 7.001513
72.915 7.14933
72.920 7.50093
72.925 7.628837
72.930 7.740666
72.935 7.80911
72.940 7.883388
72.945 7.924959
72.950 7.762058
72.955 7.471051
72.960 7.183221
72.965 7.094481
72.970 7.24385
72.975 7.159382
72.980 7.263275
72.985 7.447022
72.990 7.465029
72.995 7.984712
73.000 7.8549
