!@!!GADDS PLOTSO FILE: Chi integration type
!@!!Title/SampleName: map-34
!@!!Comment: ?
!@!!User: Bruker Instrument Administrator
!@!!Site: University of Illinois Chicago
!@!!Frame: map-34_01_000.gfrm
!@!!Wavelengths    1.54184   1.54056   1.54439
!@!!Frame angles: 2Theta: 63.000 Omega: 50.000 Phi: 0.000 Chi: 90.000
!@!!Integration range: 2Theta: 53.000 to 73.000  Gamma: -105.000 to -75.000
!@!!Integration method: bin normalized
!@!N
!@!SS
!@!M
!@!L 0.0 0.0 0.0 0.0
!@!XDegrees
!@!YCounts
53.000 9.712717
53.005 9.520978
53.010 9.16575
53.015 8.852949
53.020 8.95125
53.025 9.025669
53.030 9.373262
53.035 9.653641
53.040 9.357388
53.045 9.169324
53.050 9.137674
53.055 9.36391
53.060 9.058806
53.065 8.735542
53.070 9.032517
53.075 9.249228
53.080 9.465918
53.085 9.643727
53.090 9.705013
53.095 9.948207
53.100 10.032207
53.105 10.060409
53.110 10.201671
53.115 10.384548
53.120 10.328266
53.125 9.731143
53.130 9.76772
53.135 9.68349
53.140 9.463017
53.145 9.283069
53.150 8.934296
53.155 9.20888
53.160 9.453069
53.165 9.012712
53.170 8.853866
53.175 8.68025
53.180 8.616036
53.185 9.107535
53.190 9.707498
53.195 9.846411
53.200 9.924248
53.205 10.053975
53.210 10.415245
53.215 10.6934
53.220 10.50144
53.225 10.289639
53.230 10.686646
53.235 10.725135
53.240 10.796637
53.245 10.828639
53.250 10.642509
53.255 9.977826
53.260 9.744864
53.265 10.077514
53.270 10.274833
53.275 10.214866
53.280 9.988894
53.285 10.041674
53.290 10.569401
53.295 10.392999
53.300 10.247253
53.305 10.499952
53.310 10.56819
53.315 10.446037
53.320 10.268626
53.325 10.199821
53.330 10.456081
53.335 10.59142
53.340 10.481461
53.345 10.327815
53.350 10.713717
53.355 10.879153
53.360 10.163545
53.365 9.900097
53.370 9.46529
53.375 9.608082
53.380 9.965208
53.385 9.507081
53.390 9.539428
53.395 9.634196
53.400 9.270014
53.405 9.151861
53.410 8.665337
53.415 8.685358
53.420 8.636636
53.425 8.90617
53.430 8.895212
53.435 9.158352
53.440 9.066645
53.445 8.723558
53.450 8.653078
53.455 8.750969
53.460 8.731126
53.465 8.568236
53.470 8.605123
53.475 8.871107
53.480 9.167686
53.485 9.43658
53.490 9.530045
53.495 9.652704
53.500 10.152297
53.505 10.511732
53.510 10.87976
53.515 10.873059
53.520 11.053107
53.525 11.201723
53.530 11.48326
53.535 11.12765
53.540 11.061457
53.545 10.509755
53.550 10.429415
53.555 10.541152
53.560 10.825567
53.565 10.802766
53.570 10.85286
53.575 10.750635
53.580 10.903681
53.585 10.840209
53.590 10.707363
53.595 10.405942
53.600 10.421538
53.605 10.324873
53.610 10.708747
53.615 11.044595
53.620 11.333534
53.625 11.309196
53.630 10.826535
53.635 10.747865
53.640 10.907932
53.645 10.421407
53.650 10.475204
53.655 10.076753
53.660 10.156738
53.665 9.980411
53.670 9.763165
53.675 9.501466
53.680 9.386189
53.685 9.107232
53.690 8.753995
53.695 9.052227
53.700 9.596567
53.705 9.535895
53.710 9.702631
53.715 10.097992
53.720 10.277244
53.725 10.5115
53.730 10.153388
53.735 10.264877
53.740 10.545797
53.745 10.712208
53.750 10.534924
53.755 10.298556
53.760 10.090609
53.765 10.344075
53.770 10.020083
53.775 9.803747
53.780 9.462472
53.785 9.662089
53.790 10.180635
53.795 10.944126
53.800 11.671313
53.805 11.962668
53.810 12.410394
53.815 12.354246
53.820 12.126399
53.825 12.038377
53.830 11.250178
53.835 10.784575
53.840 10.569912
53.845 10.83605
53.850 11.531157
53.855 11.463224
53.860 11.524035
53.865 11.46437
53.870 10.972673
53.875 10.121217
53.880 9.249097
53.885 9.1691
53.890 9.347116
53.895 8.943835
53.900 9.610851
53.905 10.115132
53.910 10.680595
53.915 10.754719
53.920 10.202863
53.925 9.911536
53.930 9.66344
53.935 8.824471
53.940 9.227723
53.945 9.337209
53.950 9.805078
53.955 10.220909
53.960 10.286695
53.965 10.569418
53.970 10.816812
53.975 10.780757
53.980 10.374701
53.985 10.101694
53.990 9.755852
53.995 9.948191
54.000 9.844439
54.005 9.575266
54.010 9.181497
54.015 9.388419
54.020 9.426122
54.025 9.781857
54.030 9.676492
54.035 9.407045
54.040 9.250832
54.045 9.482453
54.050 9.691213
54.055 9.588469
54.060 9.469018
54.065 9.871447
54.070 10.458858
54.075 10.885065
54.080 11.304228
54.085 11.484849
54.090 11.564136
54.095 11.798545
54.100 11.44523
54.105 11.186502
54.110 11.331166
54.115 11.270054
54.120 11.120728
54.125 11.334783
54.130 11.158999
54.135 11.740614
54.140 12.046051
54.145 11.620712
54.150 11.534709
54.155 11.259533
54.160 11.181498
54.165 11.339022
54.170 11.591437
54.175 11.695004
54.180 11.702579
54.185 11.400637
54.190 11.329157
54.195 11.193804
54.200 10.687996
54.205 10.488114
54.210 10.582992
54.215 10.847663
54.220 11.305605
54.225 10.890637
54.230 10.849282
54.235 11.081872
54.240 11.222902
54.245 11.078627
54.250 11.41376
54.255 11.638479
54.260 12.544514
54.265 12.440703
54.270 12.127778
54.275 11.515649
54.280 11.181395
54.285 11.012308
54.290 11.242074
54.295 10.898883
54.300 11.241386
54.305 11.222357
54.310 11.939985
54.315 12.614462
54.320 12.348814
54.325 11.781867
54.330 11.696997
54.335 11.748739
54.340 11.817906
54.345 11.336307
54.350 11.490291
54.355 11.570077
54.360 11.514071
54.365 11.147408
54.370 11.147724
54.375 10.70455
54.380 10.279572
54.385 9.727743
54.390 9.752532
54.395 9.729007
54.400 9.57334
54.405 9.380428
54.410 10.068772
54.415 10.449595
54.420 10.05655
54.425 9.892179
54.430 10.225637
54.435 10.253918
54.440 9.883206
54.445 9.308708
54.450 9.164389
54.455 9.687032
54.460 9.681496
54.465 9.737308
54.470 10.156615
54.475 10.323395
54.480 10.83041
54.485 10.679435
54.490 10.590235
54.495 10.636349
54.500 10.745796
54.505 11.158164
54.510 11.179773
54.515 11.076934
54.520 10.970013
54.525 11.131787
54.530 11.079932
54.535 11.038109
54.540 10.613183
54.545 10.905107
54.550 10.786378
54.555 10.737152
54.560 10.699052
54.565 10.939299
54.570 11.216329
54.575 11.160129
54.580 10.840101
54.585 11.492677
54.590 11.525971
54.595 11.15736
54.600 11.298638
54.605 11.571351
54.610 11.960498
54.615 12.434348
54.620 12.8202
54.625 13.035616
54.630 12.972171
54.635 12.222552
54.640 11.986594
54.645 11.606864
54.650 11.256985
54.655 10.484035
54.660 10.698946
54.665 11.231949
54.670 11.136356
54.675 10.950973
54.680 10.978745
54.685 10.715565
54.690 10.99149
54.695 10.645946
54.700 10.391107
54.705 10.441814
54.710 10.476359
54.715 10.625518
54.720 10.526918
54.725 10.115376
54.730 10.171835
54.735 10.507361
54.740 10.749398
54.745 10.729342
54.750 10.765162
54.755 11.055809
54.760 11.327741
54.765 11.167557
54.770 11.059278
54.775 10.993154
54.780 10.95975
54.785 10.779235
54.790 10.7828
54.795 11.063273
54.800 11.590583
54.805 12.020549
54.810 11.914948
54.815 11.841702
54.820 12.156939
54.825 12.55912
54.830 12.325298
54.835 11.96714
54.840 11.587345
54.845 11.590362
54.850 12.109131
54.855 12.36491
54.860 11.756004
54.865 12.058156
54.870 12.173188
54.875 12.62394
54.880 13.286921
54.885 13.303658
54.890 13.133941
54.895 13.024657
54.900 12.938709
54.905 12.801288
54.910 12.103215
54.915 11.996329
54.920 11.744914
54.925 12.114167
54.930 12.529374
54.935 12.287696
54.940 12.40825
54.945 13.068417
54.950 12.996077
54.955 12.700253
54.960 12.802851
54.965 12.295523
54.970 12.526981
54.975 12.45341
54.980 12.079672
54.985 11.894917
54.990 12.132474
54.995 11.992047
55.000 12.048944
55.005 12.001915
55.010 11.922354
55.015 12.204818
55.020 12.507112
55.025 12.63862
55.030 12.833062
55.035 12.908066
55.040 12.810917
55.045 12.683915
55.050 12.428667
55.055 12.55552
55.060 12.228864
55.065 12.304794
55.070 12.330038
55.075 12.379829
55.080 12.524915
55.085 12.647389
55.090 12.602145
55.095 12.320996
55.100 11.831402
55.105 11.482694
55.110 11.713123
55.115 11.674513
55.120 11.653294
55.125 11.047951
55.130 11.047183
55.135 11.365474
55.140 11.615615
55.145 11.901981
55.150 11.780798
55.155 11.1237
55.160 11.874734
55.165 12.420378
55.170 12.498116
55.175 12.363192
55.180 12.140973
55.185 12.284521
55.190 13.027094
55.195 13.027349
55.200 13.169945
55.205 13.635553
55.210 13.399632
55.215 12.922642
55.220 12.554523
55.225 12.034976
55.230 11.72318
55.235 11.401997
55.240 11.438012
55.245 11.695624
55.250 11.902125
55.255 12.126285
55.260 12.381527
55.265 12.543488
55.270 12.660978
55.275 12.287504
55.280 12.1822
55.285 12.270405
55.290 11.988513
55.295 11.821375
55.300 11.513663
55.305 11.733771
55.310 12.091415
55.315 12.104658
55.320 12.018234
55.325 12.078481
55.330 11.892614
55.335 11.676318
55.340 11.419051
55.345 11.233338
55.350 11.144562
55.355 11.32195
55.360 11.311837
55.365 11.878914
55.370 11.781152
55.375 12.109091
55.380 12.169201
55.385 12.29799
55.390 12.537909
55.395 12.605533
55.400 12.449114
55.405 12.461301
55.410 12.197926
55.415 12.578399
55.420 12.524761
55.425 12.499277
55.430 12.283513
55.435 12.345652
55.440 12.730742
55.445 13.054147
55.450 13.059806
55.455 12.930163
55.460 12.867842
55.465 13.388493
55.470 13.929222
55.475 14.244319
55.480 14.190684
55.485 14.175798
55.490 14.748342
55.495 15.23088
55.500 14.814508
55.505 14.190687
55.510 13.36735
55.515 13.565933
55.520 13.651035
55.525 13.178026
55.530 13.088645
55.535 12.850773
55.540 12.636689
55.545 12.502181
55.550 12.156153
55.555 12.193579
55.560 12.20542
55.565 12.554887
55.570 13.19342
55.575 13.706848
55.580 14.070911
55.585 13.681067
55.590 13.774714
55.595 13.82397
55.600 13.649589
55.605 12.997038
55.610 12.580896
55.615 12.43024
55.620 12.325447
55.625 12.138466
55.630 11.209728
55.635 10.913693
55.640 11.561584
55.645 11.577085
55.650 11.812681
55.655 12.104229
55.660 12.091841
55.665 12.110841
55.670 11.700622
55.675 11.168856
55.680 10.952727
55.685 10.320138
55.690 10.087469
55.695 11.023327
55.700 11.645108
55.705 12.248983
55.710 12.47667
55.715 12.608921
55.720 13.196224
55.725 13.153715
55.730 13.076528
55.735 13.892344
55.740 13.64674
55.745 13.649498
55.750 13.843758
55.755 14.286579
55.760 14.3588
55.765 13.606068
55.770 13.157826
55.775 13.186191
55.780 13.119416
55.785 12.512203
55.790 11.7445
55.795 11.781044
55.800 12.183859
55.805 13.047055
55.810 13.734974
55.815 14.240108
55.820 14.809823
55.825 14.258787
55.830 14.123287
55.835 13.966973
55.840 13.244112
55.845 13.028492
55.850 12.922665
55.855 12.542148
55.860 12.945771
55.865 13.157847
55.870 12.493921
55.875 12.235034
55.880 11.789536
55.885 11.58045
55.890 12.03058
55.895 12.724035
55.900 11.985585
55.905 12.105065
55.910 12.172499
55.915 12.469522
55.920 12.55703
55.925 12.040305
55.930 11.716837
55.935 12.588693
55.940 12.565173
55.945 13.14744
55.950 12.911543
55.955 12.982691
55.960 13.461367
55.965 13.463699
55.970 13.424081
55.975 13.425535
55.980 13.364747
55.985 13.663154
55.990 13.381795
55.995 13.017461
56.000 12.798332
56.005 12.748011
56.010 12.932474
56.015 12.811884
56.020 12.743051
56.025 12.612317
56.030 12.335684
56.035 11.882148
56.040 11.370588
56.045 11.332669
56.050 11.56485
56.055 11.930273
56.060 11.965734
56.065 11.932341
56.070 12.219494
56.075 13.027099
56.080 13.530502
56.085 13.556223
56.090 13.485671
56.095 13.534973
56.100 14.249683
56.105 14.588407
56.110 14.065452
56.115 13.378983
56.120 12.962853
56.125 13.436256
56.130 13.610879
56.135 13.430644
56.140 13.06819
56.145 13.077993
56.150 12.960439
56.155 13.014185
56.160 12.217291
56.165 12.117917
56.170 12.664639
56.175 12.86549
56.180 12.734631
56.185 13.015374
56.190 12.945257
56.195 13.130708
56.200 13.296327
56.205 13.247299
56.210 13.384402
56.215 13.794497
56.220 13.841577
56.225 14.243307
56.230 14.675426
56.235 14.556468
56.240 14.016998
56.245 13.610123
56.250 13.33515
56.255 13.449777
56.260 13.360564
56.265 13.068383
56.270 12.872329
56.275 13.394144
56.280 13.799934
56.285 13.715008
56.290 13.287582
56.295 13.37053
56.300 13.356798
56.305 13.544495
56.310 13.32164
56.315 13.337571
56.320 13.963249
56.325 13.936239
56.330 14.506758
56.335 14.705962
56.340 14.765349
56.345 14.737283
56.350 14.694118
56.355 14.196989
56.360 13.785744
56.365 13.082116
56.370 13.340961
56.375 13.230545
56.380 13.012424
56.385 12.985983
56.390 13.285425
56.395 13.65058
56.400 14.027076
56.405 13.794547
56.410 14.109437
56.415 14.490887
56.420 14.658665
56.425 14.51226
56.430 14.532919
56.435 13.886031
56.440 13.887255
56.445 13.670896
56.450 13.231812
56.455 13.053473
56.460 13.330531
56.465 13.445311
56.470 13.567039
56.475 13.130568
56.480 13.333178
56.485 13.699862
56.490 13.932004
56.495 14.090784
56.500 14.229017
56.505 14.492438
56.510 14.652877
56.515 14.33298
56.520 13.855419
56.525 14.245828
56.530 14.111159
56.535 14.181258
56.540 14.165538
56.545 14.129342
56.550 14.234479
56.555 14.579511
56.560 13.979198
56.565 13.790364
56.570 13.807136
56.575 13.611927
56.580 13.496966
56.585 13.323651
56.590 13.363215
56.595 13.839273
56.600 13.791753
56.605 13.778615
56.610 14.08816
56.615 14.288274
56.620 14.553645
56.625 13.845044
56.630 13.563948
56.635 14.027746
56.640 14.156423
56.645 14.403069
56.650 14.598866
56.655 14.51935
56.660 14.85417
56.665 14.967709
56.670 14.733495
56.675 13.938375
56.680 13.422281
56.685 13.605536
56.690 13.615156
56.695 13.855257
56.700 13.525855
56.705 13.471547
56.710 14.224219
56.715 14.503289
56.720 14.403397
56.725 14.27938
56.730 14.543521
56.735 15.372523
56.740 15.657106
56.745 15.59624
56.750 15.122361
56.755 14.806458
56.760 14.632437
56.765 13.899124
56.770 13.317877
56.775 13.103291
56.780 12.946832
56.785 13.303593
56.790 13.545046
56.795 13.755728
56.800 13.833772
56.805 14.122584
56.810 14.089486
56.815 14.210453
56.820 13.904782
56.825 14.247442
56.830 14.260832
56.835 14.487378
56.840 14.583207
56.845 14.725549
56.850 14.521259
56.855 14.590006
56.860 14.105255
56.865 14.056642
56.870 13.88148
56.875 13.283592
56.880 13.126905
56.885 13.438025
56.890 13.785275
56.895 14.060214
56.900 13.954341
56.905 14.008514
56.910 14.152216
56.915 13.931915
56.920 13.382763
56.925 13.139342
56.930 12.797033
56.935 12.965158
56.940 13.358301
56.945 13.413874
56.950 13.738944
56.955 14.066005
56.960 14.253963
56.965 14.253501
56.970 14.168883
56.975 13.590528
56.980 13.235764
56.985 13.251099
56.990 13.568781
56.995 13.287035
57.000 13.403945
57.005 13.164127
57.010 13.706611
57.015 14.075414
57.020 14.057917
57.025 13.940233
57.030 14.008517
57.035 14.029697
57.040 14.126072
57.045 14.055861
57.050 14.261525
57.055 14.22733
57.060 13.842328
57.065 13.601699
57.070 13.952712
57.075 14.223852
57.080 13.730951
57.085 13.411515
57.090 13.292621
57.095 13.437702
57.100 13.640075
57.105 13.361911
57.110 13.15956
57.115 13.549169
57.120 13.800808
57.125 14.158648
57.130 15.241127
57.135 15.662331
57.140 15.823744
57.145 16.065296
57.150 16.030628
57.155 16.089504
57.160 15.980813
57.165 15.642756
57.170 15.401173
57.175 15.309126
57.180 15.677268
57.185 15.782418
57.190 15.734667
57.195 16.119957
57.200 16.066418
57.205 16.0546
57.210 15.751745
57.215 15.446036
57.220 14.881559
57.225 14.361651
57.230 13.80597
57.235 13.562719
57.240 13.986708
57.245 14.308171
57.250 14.457443
57.255 15.723963
57.260 16.227072
57.265 16.126143
57.270 16.564936
57.275 15.910867
57.280 15.380112
57.285 15.38334
57.290 14.417451
57.295 13.763906
57.300 13.934641
57.305 13.395374
57.310 13.595268
57.315 13.965259
57.320 13.91621
57.325 14.041137
57.330 14.495065
57.335 13.8535
57.340 13.793354
57.345 13.708854
57.350 13.611529
57.355 13.539881
57.360 13.537113
57.365 13.603573
57.370 14.031502
57.375 14.802326
57.380 15.115752
57.385 15.09867
57.390 15.600638
57.395 15.561755
57.400 15.563417
57.405 15.189994
57.410 14.69132
57.415 14.642054
57.420 14.780408
57.425 14.085219
57.430 14.560905
57.435 15.075518
57.440 15.41096
57.445 15.74262
57.450 15.657156
57.455 15.745723
57.460 16.085194
57.465 15.838943
57.470 15.553638
57.475 15.420411
57.480 15.072955
57.485 14.93955
57.490 15.133822
57.495 15.331814
57.500 15.244129
57.505 14.905559
57.510 14.940807
57.515 15.426017
57.520 15.63829
57.525 15.578431
57.530 15.433876
57.535 15.58734
57.540 15.756747
57.545 16.12554
57.550 15.895469
57.555 15.625772
57.560 15.676853
57.565 15.433605
57.570 15.508348
57.575 15.588447
57.580 14.669118
57.585 14.584291
57.590 14.868746
57.595 14.543169
57.600 14.657375
57.605 14.680008
57.610 14.733388
57.615 15.276439
57.620 15.163153
57.625 16.020819
57.630 16.048111
57.635 15.964914
57.640 15.823183
57.645 15.910551
57.650 16.322746
57.655 16.460085
57.660 15.894693
57.665 15.794839
57.670 16.313116
57.675 16.519255
57.680 16.269629
57.685 15.993381
57.690 15.812397
57.695 15.719338
57.700 15.912057
57.705 15.455912
57.710 15.422092
57.715 15.395012
57.720 15.695079
57.725 15.387422
57.730 15.468778
57.735 15.4335
57.740 15.730477
57.745 15.923738
57.750 16.06621
57.755 16.048903
57.760 16.40275
57.765 16.154104
57.770 15.402161
57.775 15.296368
57.780 15.388313
57.785 15.162539
57.790 14.925444
57.795 14.54567
57.800 14.833637
57.805 15.14955
57.810 14.65057
57.815 14.055967
57.820 14.049626
57.825 14.4307
57.830 14.601722
57.835 14.512192
57.840 14.848347
57.845 15.327494
57.850 15.70074
57.855 15.768744
57.860 15.94514
57.865 16.327887
57.870 16.748108
57.875 16.609213
57.880 16.386362
57.885 16.62265
57.890 16.71343
57.895 16.325655
57.900 16.242403
57.905 16.260448
57.910 16.317755
57.915 16.696712
57.920 17.015739
57.925 17.029278
57.930 17.120811
57.935 17.022503
57.940 17.079231
57.945 17.145012
57.950 17.005535
57.955 16.655771
57.960 16.420095
57.965 17.218679
57.970 16.665588
57.975 16.305666
57.980 16.319857
57.985 16.460434
57.990 16.696489
57.995 16.564541
58.000 15.688391
58.005 15.728161
58.010 15.901449
58.015 15.619656
58.020 15.232088
58.025 15.451619
58.030 15.700187
58.035 16.021126
58.040 16.380667
58.045 16.844683
58.050 16.837612
58.055 16.83289
58.060 16.522972
58.065 16.570938
58.070 16.539108
58.075 16.71895
58.080 16.54302
58.085 16.603209
58.090 16.187059
58.095 15.974428
58.100 15.960642
58.105 15.868544
58.110 15.444402
58.115 15.60843
58.120 15.907818
58.125 16.264126
58.130 16.389782
58.135 16.492239
58.140 16.727533
58.145 17.369385
58.150 18.007433
58.155 18.510014
58.160 18.153147
58.165 18.586315
58.170 19.133686
58.175 19.514652
58.180 19.379934
58.185 19.374378
58.190 19.590683
58.195 20.028488
58.200 19.424356
58.205 19.14842
58.210 19.201593
58.215 19.416187
58.220 18.748119
58.225 18.20104
58.230 18.281315
58.235 18.857267
58.240 18.896992
58.245 18.222237
58.250 17.880564
58.255 18.34664
58.260 18.32091
58.265 18.244507
58.270 18.427294
58.275 18.650515
58.280 19.040724
58.285 19.163063
58.290 18.81456
58.295 19.095343
58.300 19.170866
58.305 18.639448
58.310 18.465893
58.315 18.336365
58.320 18.442787
58.325 18.959517
58.330 19.218666
58.335 19.238932
58.340 19.208561
58.345 19.912788
58.350 19.77599
58.355 19.476549
58.360 19.115133
58.365 19.550243
58.370 20.156641
58.375 20.657513
58.380 20.535099
58.385 21.604773
58.390 21.62097
58.395 21.748074
58.400 21.709925
58.405 21.955936
58.410 21.70616
58.415 21.10898
58.420 19.987228
58.425 20.280233
58.430 20.086842
58.435 19.983839
58.440 19.62755
58.445 19.759565
58.450 20.041935
58.455 20.151546
58.460 19.744158
58.465 20.271585
58.470 20.196608
58.475 19.891716
58.480 20.497641
58.485 21.230066
58.490 22.013796
58.495 22.813236
58.500 22.742308
58.505 22.845127
58.510 23.366787
58.515 22.782894
58.520 22.736654
58.525 22.438915
58.530 22.048998
58.535 21.842899
58.540 21.891466
58.545 21.327484
58.550 21.238932
58.555 20.715981
58.560 20.397041
58.565 20.394949
58.570 21.02746
58.575 21.010468
58.580 21.424732
58.585 21.714432
58.590 21.868546
58.595 22.427692
58.600 22.499651
58.605 21.78083
58.610 21.885357
58.615 22.312891
58.620 21.693779
58.625 21.842457
58.630 22.052069
58.635 21.958759
58.640 21.913857
58.645 21.890038
58.650 21.484856
58.655 21.741121
58.660 21.709747
58.665 21.51206
58.670 21.567087
58.675 21.516159
58.680 20.932987
58.685 20.518679
58.690 20.142616
58.695 20.605917
58.700 20.80328
58.705 20.676241
58.710 21.010761
58.715 21.527128
58.720 22.039421
58.725 22.101446
58.730 21.392801
58.735 21.118437
58.740 21.337128
58.745 21.225092
58.750 20.871559
58.755 21.046358
58.760 21.534698
58.765 21.353088
58.770 20.942884
58.775 20.361269
58.780 20.020372
58.785 19.723835
58.790 19.120096
58.795 18.682026
58.800 18.138483
58.805 18.192774
58.810 17.995525
58.815 17.650866
58.820 17.290756
58.825 17.219019
58.830 17.436594
58.835 17.469578
58.840 17.29689
58.845 17.323792
58.850 17.785307
58.855 18.334888
58.860 18.658545
58.865 18.650974
58.870 19.216562
58.875 20.146643
58.880 20.748699
58.885 21.169847
58.890 21.17798
58.895 20.478609
58.900 20.34094
58.905 19.987318
58.910 19.704235
58.915 19.503492
58.920 19.665506
58.925 19.531067
58.930 19.657608
58.935 20.031696
58.940 21.047764
58.945 21.258368
58.950 20.720551
58.955 20.279646
58.960 20.467922
58.965 20.96067
58.970 20.507389
58.975 19.656334
58.980 19.142504
58.985 18.947752
58.990 18.694342
58.995 18.749132
59.000 18.129885
59.005 18.13203
59.010 18.304455
59.015 19.095829
59.020 19.564573
59.025 20.414585
59.030 20.953783
59.035 21.394644
59.040 21.567585
59.045 21.055622
59.050 20.400021
59.055 20.942633
59.060 20.83181
59.065 20.46405
59.070 20.677216
59.075 20.935778
59.080 21.259144
59.085 21.125452
59.090 20.418079
59.095 19.87396
59.100 19.719027
59.105 19.44577
59.110 18.872684
59.115 18.863592
59.120 19.251806
59.125 19.48661
59.130 19.65703
59.135 19.532198
59.140 19.565947
59.145 19.338326
59.150 18.844227
59.155 18.559229
59.160 18.581093
59.165 19.014711
59.170 19.497553
59.175 19.437216
59.180 19.645422
59.185 20.202259
59.190 19.591003
59.195 19.031771
59.200 18.98148
59.205 18.974619
59.210 19.050379
59.215 18.613838
59.220 18.162453
59.225 18.335817
59.230 18.393557
59.235 17.95154
59.240 17.808113
59.245 18.146746
59.250 18.231863
59.255 17.9916
59.260 18.428251
59.265 18.564348
59.270 18.301794
59.275 18.269037
59.280 17.844631
59.285 18.387041
59.290 18.891253
59.295 19.150934
59.300 19.54204
59.305 19.518459
59.310 19.028194
59.315 19.232931
59.320 18.955145
59.325 19.015953
59.330 18.683805
59.335 18.517677
59.340 19.298
59.345 19.715574
59.350 19.459007
59.355 19.717615
59.360 19.530437
59.365 19.65947
59.370 19.447224
59.375 18.752172
59.380 18.884279
59.385 19.019932
59.390 18.453196
59.395 17.856945
59.400 17.446714
59.405 17.587494
59.410 17.627344
59.415 17.589539
59.420 17.940981
59.425 18.361317
59.430 18.954042
59.435 19.109716
59.440 19.256863
59.445 19.368866
59.450 19.376238
59.455 19.66213
59.460 19.593838
59.465 19.64843
59.470 19.503723
59.475 19.834044
59.480 19.170559
59.485 18.653963
59.490 17.964479
59.495 17.965807
59.500 17.881107
59.505 18.289467
59.510 18.229809
59.515 18.450802
59.520 18.595274
59.525 18.810699
59.530 18.310246
59.535 17.963287
59.540 17.916857
59.545 17.805254
59.550 18.286348
59.555 18.619385
59.560 19.233147
59.565 19.747437
59.570 19.559198
59.575 18.954693
59.580 18.641293
59.585 18.266924
59.590 17.747126
59.595 17.62652
59.600 17.841722
59.605 18.541805
59.610 18.891308
59.615 18.918736
59.620 18.926891
59.625 18.787176
59.630 18.649029
59.635 18.280918
59.640 17.791739
59.645 17.801378
59.650 18.673101
59.655 18.932928
59.660 19.462946
59.665 19.680113
59.670 19.37302
59.675 19.770729
59.680 19.825396
59.685 19.56251
59.690 19.815182
59.695 19.793474
59.700 19.680031
59.705 19.680368
59.710 19.289047
59.715 18.931715
59.720 18.592373
59.725 19.130608
59.730 19.173752
59.735 19.051132
59.740 19.286781
59.745 19.630966
59.750 20.002743
59.755 19.746706
59.760 19.38962
59.765 19.541746
59.770 20.013374
59.775 20.829828
59.780 20.870819
59.785 20.970173
59.790 21.072706
59.795 20.884867
59.800 20.76207
59.805 20.823616
59.810 20.270121
59.815 20.602837
59.820 20.629686
59.825 20.049612
59.830 19.350401
59.835 19.148125
59.840 19.592604
59.845 20.298557
59.850 19.583006
59.855 20.21842
59.860 21.342886
59.865 21.744732
59.870 21.481026
59.875 19.76511
59.880 18.485323
59.885 18.466171
59.890 18.052784
59.895 18.121508
59.900 18.414614
59.905 18.24247
59.910 18.577696
59.915 19.183413
59.920 18.811426
59.925 18.52083
59.930 18.343193
59.935 18.076885
59.940 18.602631
59.945 19.033951
59.950 19.054852
59.955 19.809385
59.960 19.805159
59.965 19.533352
59.970 19.765005
59.975 20.1035
59.980 20.698929
59.985 20.353533
59.990 19.998095
59.995 19.428036
60.000 19.669342
60.005 19.805538
60.010 19.192963
60.015 18.907808
60.020 19.495514
60.025 19.714861
60.030 20.542885
60.035 20.175762
60.040 20.05208
60.045 20.757877
60.050 21.035473
60.055 20.808285
60.060 20.685854
60.065 20.483454
60.070 20.481928
60.075 20.021494
60.080 19.148832
60.085 18.980829
60.090 18.657295
60.095 18.654854
60.100 18.733919
60.105 18.789661
60.110 19.027536
60.115 19.084364
60.120 19.074408
60.125 19.418716
60.130 20.048935
60.135 20.136198
60.140 19.883673
60.145 20.146603
60.150 19.844664
60.155 19.397278
60.160 18.621519
60.165 18.414797
60.170 18.718756
60.175 19.366047
60.180 19.520632
60.185 19.892431
60.190 19.732048
60.195 19.578247
60.200 19.714634
60.205 18.867998
60.210 18.135342
60.215 17.861271
60.220 17.483162
60.225 17.825674
60.230 18.483698
60.235 17.497017
60.240 18.058901
60.245 18.31451
60.250 18.244122
60.255 19.338083
60.260 20.07802
60.265 20.252232
60.270 20.221893
60.275 19.707239
60.280 19.48279
60.285 19.523802
60.290 18.671764
60.295 17.728512
60.300 17.523701
60.305 18.156042
60.310 18.284201
60.315 18.283463
60.320 18.556744
60.325 18.856258
60.330 19.109003
60.335 18.867514
60.340 18.762781
60.345 19.123035
60.350 19.266138
60.355 19.052042
60.360 18.059095
60.365 17.874655
60.370 17.775089
60.375 17.494347
60.380 16.946007
60.385 16.958632
60.390 16.524225
60.395 16.521078
60.400 16.086802
60.405 16.078848
60.410 16.529295
60.415 16.843695
60.420 16.76198
60.425 17.330137
60.430 18.446764
60.435 18.909863
60.440 18.81558
60.445 18.35339
60.450 18.097744
60.455 17.747614
60.460 17.489033
60.465 16.857666
60.470 17.123333
60.475 17.5378
60.480 17.880964
60.485 17.65081
60.490 17.846537
60.495 18.176336
60.500 18.439165
60.505 18.247782
60.510 17.965481
60.515 17.652956
60.520 17.778912
60.525 17.258553
60.530 17.084381
60.535 16.422297
60.540 16.489536
60.545 16.706696
60.550 16.684732
60.555 17.285959
60.560 17.769222
60.565 17.616146
60.570 18.139551
60.575 17.70645
60.580 17.295723
60.585 17.459339
60.590 16.96245
60.595 17.600843
60.600 17.628204
60.605 17.259398
60.610 17.258274
60.615 17.16416
60.620 17.309755
60.625 17.218946
60.630 16.699789
60.635 16.821381
60.640 17.85541
60.645 18.42247
60.650 18.826645
60.655 18.86977
60.660 18.930763
60.665 18.563658
60.670 18.006062
60.675 17.323326
60.680 16.803377
60.685 16.467852
60.690 16.352654
60.695 16.420122
60.700 16.737782
60.705 16.868353
60.710 17.052374
60.715 17.233593
60.720 17.109112
60.725 17.189255
60.730 16.963972
60.735 16.997955
60.740 17.285019
60.745 17.232565
60.750 17.216091
60.755 17.610395
60.760 17.375576
60.765 17.619547
60.770 18.005417
60.775 17.560005
60.780 17.343201
60.785 17.418728
60.790 16.930653
60.795 17.215509
60.800 17.283777
60.805 16.84654
60.810 17.444927
60.815 17.708296
60.820 17.714428
60.825 17.765333
60.830 17.305664
60.835 17.174671
60.840 17.223969
60.845 16.721273
60.850 16.561573
60.855 16.865341
60.860 16.911541
60.865 17.172844
60.870 17.175694
60.875 17.204741
60.880 17.159344
60.885 16.495304
60.890 16.252901
60.895 16.175295
60.900 16.410076
60.905 16.439762
60.910 16.391205
60.915 16.541201
60.920 17.070543
60.925 16.896137
60.930 16.929583
60.935 16.342602
60.940 16.254145
60.945 16.357201
60.950 16.934622
60.955 17.077307
60.960 17.918386
60.965 18.260164
60.970 18.369179
60.975 18.297855
60.980 18.345057
60.985 17.62278
60.990 16.634508
60.995 15.575801
61.000 14.759241
61.005 14.355301
61.010 14.514853
61.015 14.310382
61.020 14.791389
61.025 15.646108
61.030 15.673018
61.035 16.0849
61.040 16.496811
61.045 16.22401
61.050 15.994472
61.055 16.179625
61.060 16.276371
61.065 16.855852
61.070 17.311697
61.075 17.342972
61.080 18.133661
61.085 18.900831
61.090 18.532722
61.095 18.834696
61.100 19.249495
61.105 18.756689
61.110 18.644287
61.115 17.743328
61.120 17.004364
61.125 17.21102
61.130 16.731007
61.135 15.990561
61.140 16.574934
61.145 16.992992
61.150 17.333746
61.155 17.431097
61.160 17.450476
61.165 17.623428
61.170 17.868414
61.175 17.655043
61.180 17.118971
61.185 17.453623
61.190 17.482208
61.195 16.981701
61.200 17.295454
61.205 17.882469
61.210 17.743896
61.215 17.958151
61.220 17.848684
61.225 17.809057
61.230 18.247398
61.235 18.359814
61.240 18.120596
61.245 18.128361
61.250 17.898922
61.255 17.603359
61.260 17.65793
61.265 17.369984
61.270 16.791546
61.275 16.01535
61.280 16.176304
61.285 16.206076
61.290 16.636221
61.295 16.553993
61.300 16.278131
61.305 16.504793
61.310 17.418037
61.315 17.711681
61.320 18.307089
61.325 18.235252
61.330 17.725927
61.335 17.844822
61.340 17.920113
61.345 17.694405
61.350 17.288174
61.355 16.435717
61.360 16.259071
61.365 16.444862
61.370 16.51293
61.375 16.49041
61.380 16.35227
61.385 16.419815
61.390 16.564829
61.395 16.192183
61.400 16.975574
61.405 17.486712
61.410 16.946304
61.415 17.149864
61.420 17.480247
61.425 17.431368
61.430 17.970043
61.435 17.913483
61.440 17.484905
61.445 17.974409
61.450 18.033701
61.455 18.150446
61.460 18.569672
61.465 18.164371
61.470 17.814297
61.475 18.456207
61.480 18.039825
61.485 17.30575
61.490 17.240576
61.495 16.904522
61.500 17.001579
61.505 17.175547
61.510 16.302179
61.515 16.483829
61.520 17.481392
61.525 17.419012
61.530 17.998911
61.535 18.460651
61.540 18.109116
61.545 18.316593
61.550 17.826948
61.555 17.492491
61.560 17.520124
61.565 17.463936
61.570 17.197483
61.575 17.129171
61.580 17.248732
61.585 17.628311
61.590 16.76128
61.595 17.071814
61.600 16.650234
61.605 16.852465
61.610 17.716196
61.615 17.241945
61.620 17.49769
61.625 17.972271
61.630 17.510139
61.635 17.589958
61.640 17.523563
61.645 17.463539
61.650 17.513107
61.655 17.231054
61.660 17.163702
61.665 16.760918
61.670 16.486677
61.675 16.235842
61.680 15.983797
61.685 16.199806
61.690 15.971666
61.695 15.881971
61.700 16.148647
61.705 16.13262
61.710 16.049089
61.715 15.853553
61.720 16.386484
61.725 17.320791
61.730 17.487776
61.735 17.58024
61.740 17.786192
61.745 18.014235
61.750 17.884691
61.755 17.720995
61.760 17.321062
61.765 17.63979
61.770 17.915731
61.775 17.940611
61.780 17.966619
61.785 17.700895
61.790 17.22757
61.795 17.293951
61.800 16.674831
61.805 16.526974
61.810 16.479477
61.815 16.42824
61.820 15.760856
61.825 15.766788
61.830 15.739741
61.835 15.669496
61.840 15.079771
61.845 14.744841
61.850 14.517962
61.855 15.667058
61.860 15.939125
61.865 16.014748
61.870 16.568956
61.875 17.122005
61.880 17.643612
61.885 18.177624
61.890 17.485851
61.895 17.23564
61.900 16.817993
61.905 16.705212
61.910 17.090216
61.915 16.702858
61.920 16.122034
61.925 16.293325
61.930 16.137251
61.935 16.392687
61.940 16.603125
61.945 16.380238
61.950 16.931889
61.955 17.766918
61.960 18.033802
61.965 17.869358
61.970 17.648293
61.975 17.498856
61.980 17.698547
61.985 17.60948
61.990 17.234177
61.995 17.184563
62.000 17.289301
62.005 17.387823
62.010 17.616156
62.015 17.06115
62.020 16.909784
62.025 16.374733
62.030 16.595432
62.035 16.733057
62.040 16.703609
62.045 17.098322
62.050 16.983492
62.055 16.732096
62.060 17.039568
62.065 16.221899
62.070 16.155355
62.075 16.040857
62.080 15.496925
62.085 16.388309
62.090 16.881632
62.095 17.126207
62.100 18.23287
62.105 18.893555
62.110 18.50392
62.115 18.258348
62.120 17.849222
62.125 17.613794
62.130 17.328455
62.135 16.840672
62.140 16.299194
62.145 16.516039
62.150 17.030005
62.155 16.597296
62.160 16.846558
62.165 17.169289
62.170 17.137564
62.175 17.868765
62.180 18.229603
62.185 18.135899
62.190 18.556425
62.195 18.269953
62.200 17.973822
62.205 17.898703
62.210 17.474726
62.215 17.04459
62.220 16.990095
62.225 16.704851
62.230 16.596148
62.235 16.560621
62.240 16.559361
62.245 16.117834
62.250 16.161177
62.255 16.500736
62.260 16.774786
62.265 16.788143
62.270 17.039938
62.275 17.182766
62.280 17.054041
62.285 16.759239
62.290 16.212673
62.295 15.784157
62.300 16.052647
62.305 15.849594
62.310 15.983893
62.315 16.536354
62.320 16.580919
62.325 16.756323
62.330 16.928274
62.335 16.638077
62.340 16.912407
62.345 16.748983
62.350 16.550707
62.355 16.856491
62.360 16.728333
62.365 16.741751
62.370 16.870911
62.375 16.899538
62.380 16.506235
62.385 16.101488
62.390 15.930884
62.395 16.385288
62.400 16.288784
62.405 16.392799
62.410 16.13525
62.415 16.534304
62.420 17.610176
62.425 17.994043
62.430 17.990856
62.435 17.738119
62.440 17.877821
62.445 18.189816
62.450 18.301493
62.455 17.592987
62.460 17.52396
62.465 17.760633
62.470 18.293856
62.475 18.528191
62.480 18.276447
62.485 18.593903
62.490 18.835699
62.495 18.888741
62.500 18.743484
62.505 18.383537
62.510 18.304794
62.515 18.228054
62.520 18.353062
62.525 18.401112
62.530 17.833799
62.535 17.981318
62.540 18.607183
62.545 18.487097
62.550 17.932175
62.555 17.988808
62.560 18.057249
62.565 18.217051
62.570 18.135376
62.575 17.557108
62.580 17.542189
62.585 18.147076
62.590 18.168997
62.595 17.598667
62.600 17.330286
62.605 17.026947
62.610 17.20788
62.615 17.190697
62.620 16.478046
62.625 16.064802
62.630 16.401661
62.635 16.67248
62.640 16.697081
62.645 16.220057
62.650 16.563519
62.655 17.194839
62.660 17.239445
62.665 17.398376
62.670 17.960629
62.675 18.811865
62.680 19.377972
62.685 19.055891
62.690 19.436213
62.695 20.008976
62.700 19.694096
62.705 19.199339
62.710 18.288696
62.715 18.209801
62.720 18.403465
62.725 17.419281
62.730 16.741047
62.735 17.33503
62.740 17.1423
62.745 17.049961
62.750 16.562035
62.755 16.608185
62.760 17.380669
62.765 17.359533
62.770 16.758278
62.775 16.728148
62.780 17.072918
62.785 17.233444
62.790 17.280523
62.795 16.831161
62.800 16.596231
62.805 16.431419
62.810 16.480532
62.815 16.313501
62.820 16.521589
62.825 16.467089
62.830 16.723272
62.835 17.13448
62.840 17.674791
62.845 18.377056
62.850 18.396629
62.855 17.921907
62.860 17.578699
62.865 17.441513
62.870 17.162241
62.875 16.533056
62.880 15.636928
62.885 15.080112
62.890 15.121679
62.895 15.268639
62.900 15.806122
62.905 16.432009
62.910 16.971266
62.915 17.226271
62.920 17.254166
62.925 17.200703
62.930 17.206665
62.935 16.735277
62.940 16.521128
62.945 16.327291
62.950 16.756111
62.955 17.829702
62.960 18.238653
62.965 18.262655
62.970 18.82008
62.975 19.43733
62.980 19.806511
62.985 19.589092
62.990 19.338165
62.995 19.472824
63.000 20.09626
63.005 20.02272
63.010 20.203173
63.015 20.045599
63.020 19.362291
63.025 19.324396
63.030 19.142666
63.035 19.323299
63.040 19.456701
63.045 19.034458
63.050 19.086275
63.055 19.726007
63.060 19.456215
63.065 19.286428
63.070 18.821724
63.075 18.489159
63.080 18.570145
63.085 18.517494
63.090 18.272581
63.095 18.527082
63.100 18.86808
63.105 19.064651
63.110 19.088011
63.115 19.170206
63.120 19.28747
63.125 19.765999
63.130 19.900471
63.135 19.597771
63.140 19.494282
63.145 19.04933
63.150 18.490057
63.155 18.223536
63.160 18.037743
63.165 17.826794
63.170 17.483692
63.175 17.55665
63.180 17.613873
63.185 17.464918
63.190 17.080069
63.195 16.596968
63.200 16.60598
63.205 16.583868
63.210 16.917883
63.215 17.355589
63.220 17.353609
63.225 17.763105
63.230 17.64884
63.235 17.910555
63.240 18.074999
63.245 18.245209
63.250 18.496504
63.255 18.966253
63.260 19.3941
63.265 19.639986
63.270 19.526281
63.275 19.516678
63.280 18.842278
63.285 18.669622
63.290 17.938448
63.295 17.663116
63.300 17.873701
63.305 17.999382
63.310 18.400223
63.315 18.547369
63.320 18.97892
63.325 19.820696
63.330 20.129118
63.335 19.789385
63.340 19.662781
63.345 19.450779
63.350 19.4562
63.355 18.783432
63.360 18.225637
63.365 18.033663
63.370 18.429337
63.375 18.388477
63.380 18.519131
63.385 18.177048
63.390 18.491215
63.395 18.781521
63.400 19.01956
63.405 19.126513
63.410 18.787798
63.415 17.882187
63.420 17.66148
63.425 18.062687
63.430 18.439711
63.435 18.571335
63.440 18.279184
63.445 18.685156
63.450 19.37137
63.455 19.326372
63.460 18.907726
63.465 19.320663
63.470 19.556419
63.475 19.711159
63.480 19.650766
63.485 19.720629
63.490 20.246544
63.495 20.151203
63.500 19.533993
63.505 19.468727
63.510 19.430321
63.515 19.405998
63.520 19.661083
63.525 19.446276
63.530 19.8752
63.535 19.745785
63.540 19.255388
63.545 18.763174
63.550 18.664503
63.555 18.874516
63.560 19.191269
63.565 18.82284
63.570 18.663567
63.575 19.084364
63.580 19.68652
63.585 19.410492
63.590 19.208893
63.595 19.087713
63.600 18.946476
63.605 20.071781
63.610 20.180702
63.615 19.970741
63.620 20.07795
63.625 20.409214
63.630 20.389034
63.635 19.604767
63.640 18.668831
63.645 18.186325
63.650 18.262234
63.655 17.35638
63.660 17.063629
63.665 17.402096
63.670 17.797041
63.675 18.153257
63.680 17.998611
63.685 18.92079
63.690 19.791761
63.695 19.838783
63.700 19.576042
63.705 19.431082
63.710 19.410913
63.715 19.978275
63.720 19.625727
63.725 19.572605
63.730 19.34948
63.735 19.979475
63.740 20.727915
63.745 20.961779
63.750 21.655441
63.755 22.158728
63.760 22.11801
63.765 22.007454
63.770 21.413336
63.775 20.997744
63.780 21.088234
63.785 20.452684
63.790 19.81188
63.795 20.043411
63.800 20.860115
63.805 21.099197
63.810 21.386894
63.815 21.711134
63.820 22.084869
63.825 22.446154
63.830 22.681791
63.835 22.594278
63.840 22.687695
63.845 22.403896
63.850 21.681032
63.855 21.521217
63.860 21.532816
63.865 21.249712
63.870 20.980755
63.875 20.958748
63.880 20.891294
63.885 21.287622
63.890 21.168396
63.895 20.823177
63.900 20.83709
63.905 21.054195
63.910 20.999933
63.915 20.714926
63.920 20.500576
63.925 20.412615
63.930 20.463278
63.935 20.899157
63.940 20.779993
63.945 21.39945
63.950 21.959284
63.955 22.775648
63.960 23.233078
63.965 23.619638
63.970 24.021091
63.975 24.68367
63.980 25.140072
63.985 24.836433
63.990 24.354353
63.995 24.684952
64.000 24.563787
64.005 24.283609
64.010 24.618797
64.015 24.96657
64.020 25.344067
64.025 25.568884
64.030 25.92621
64.035 26.169355
64.040 26.193394
64.045 26.052816
64.050 26.329708
64.055 26.498369
64.060 26.301119
64.065 25.974152
64.070 26.449203
64.075 26.208391
64.080 25.913485
64.085 25.758265
64.090 25.436295
64.095 25.680254
64.100 25.482924
64.105 25.394917
64.110 25.827755
64.115 25.367506
64.120 25.414604
64.125 25.725418
64.130 25.158785
64.135 24.952377
64.140 24.7335
64.145 24.230362
64.150 24.144171
64.155 23.861517
64.160 23.530983
64.165 23.900303
64.170 23.831364
64.175 24.268145
64.180 24.407728
64.185 24.532095
64.190 24.303429
64.195 23.897268
64.200 23.725985
64.205 23.815397
64.210 23.896366
64.215 24.205446
64.220 24.437513
64.225 25.110567
64.230 26.239491
64.235 27.009907
64.240 27.256775
64.245 26.381439
64.250 25.924049
64.255 26.115797
64.260 25.202715
64.265 24.457838
64.270 24.361605
64.275 24.502203
64.280 25.030706
64.285 25.401936
64.290 25.689152
64.295 26.461763
64.300 26.390505
64.305 25.334675
64.310 24.872957
64.315 24.202606
64.320 23.817617
64.325 23.555458
64.330 23.206007
64.335 23.606237
64.340 24.341381
64.345 24.715485
64.350 25.126398
64.355 25.122505
64.360 24.730656
64.365 24.3659
64.370 23.623301
64.375 23.639406
64.380 23.890682
64.385 23.820072
64.390 23.197893
64.395 23.241152
64.400 23.766613
64.405 23.8246
64.410 23.694349
64.415 23.742722
64.420 24.279093
64.425 24.653456
64.430 24.153713
64.435 24.776506
64.440 25.238705
64.445 24.88135
64.450 24.883333
64.455 24.374563
64.460 24.138182
64.465 24.036541
64.470 23.537821
64.475 23.439888
64.480 23.174353
64.485 22.580032
64.490 22.493345
64.495 22.490189
64.500 23.238661
64.505 22.482792
64.510 22.3165
64.515 22.580866
64.520 22.354975
64.525 22.124981
64.530 22.159647
64.535 21.432659
64.540 21.268763
64.545 20.860876
64.550 21.117723
64.555 21.695904
64.560 22.649731
64.565 23.32752
64.570 23.577105
64.575 23.588305
64.580 23.577883
64.585 23.708151
64.590 23.570225
64.595 22.428688
64.600 21.811352
64.605 21.755436
64.610 21.954432
64.615 21.642263
64.620 21.058142
64.625 21.095936
64.630 21.548031
64.635 21.980112
64.640 22.329998
64.645 23.043308
64.650 22.743317
64.655 22.731192
64.660 23.049446
64.665 23.103039
64.670 23.00354
64.675 23.066032
64.680 22.963055
64.685 23.146568
64.690 22.835609
64.695 22.30076
64.700 22.158775
64.705 21.540693
64.710 21.62911
64.715 21.400482
64.720 21.82534
64.725 21.941856
64.730 21.962206
64.735 21.654507
64.740 21.75573
64.745 20.999462
64.750 21.06447
64.755 21.492432
64.760 21.193762
64.765 21.287663
64.770 21.501295
64.775 21.912373
64.780 21.646173
64.785 21.427235
64.790 20.89727
64.795 21.616304
64.800 21.487606
64.805 21.593763
64.810 21.633661
64.815 22.158688
64.820 22.208076
64.825 22.671137
64.830 22.037086
64.835 21.584782
64.840 20.889624
64.845 20.923933
64.850 21.313437
64.855 21.595995
64.860 21.770105
64.865 22.41046
64.870 22.72407
64.875 23.012375
64.880 22.783781
64.885 21.901451
64.890 20.963247
64.895 20.330727
64.900 19.877453
64.905 20.224497
64.910 20.484005
64.915 21.179556
64.920 21.648415
64.925 22.010841
64.930 21.855188
64.935 22.25518
64.940 22.483774
64.945 22.232197
64.950 22.186436
64.955 22.876181
64.960 22.980289
64.965 23.634892
64.970 23.230606
64.975 23.145592
64.980 23.315899
64.985 24.263803
64.990 24.172159
64.995 24.485737
65.000 23.9547
65.005 24.129633
65.010 24.515789
65.015 24.627272
65.020 24.241255
65.025 24.740562
65.030 25.147657
65.035 25.707939
65.040 26.16836
65.045 26.11187
65.050 25.864035
65.055 25.13558
65.060 24.632792
65.065 24.338249
65.070 24.15295
65.075 24.071726
65.080 23.978601
65.085 23.672077
65.090 23.204142
65.095 23.423023
65.100 23.881767
65.105 24.524813
65.110 24.094336
65.115 24.271059
65.120 24.960558
65.125 25.276968
65.130 24.570747
65.135 24.777445
65.140 25.013554
65.145 24.90943
65.150 24.606451
65.155 24.596226
65.160 24.513367
65.165 25.00765
65.170 24.464964
65.175 24.041018
65.180 24.158026
65.185 24.115728
65.190 23.68041
65.195 23.592411
65.200 23.688437
65.205 23.947714
65.210 23.80611
65.215 24.176804
65.220 23.808212
65.225 23.972815
65.230 23.752052
65.235 22.759947
65.240 22.333378
65.245 22.144678
65.250 22.354355
65.255 22.80389
65.260 22.721317
65.265 24.025778
65.270 25.442739
65.275 25.545033
65.280 25.813715
65.285 25.525419
65.290 25.184895
65.295 25.631908
65.300 25.431564
65.305 24.595354
65.310 24.862907
65.315 24.703835
65.320 25.017185
65.325 25.453541
65.330 24.712955
65.335 23.726692
65.340 23.586363
65.345 23.003801
65.350 22.654459
65.355 22.40304
65.360 22.215887
65.365 22.81321
65.370 23.513042
65.375 23.333103
65.380 23.076084
65.385 22.904352
65.390 22.508041
65.395 22.82658
65.400 22.685228
65.405 23.074596
65.410 23.066315
65.415 23.041174
65.420 23.406755
65.425 23.620972
65.430 23.539986
65.435 23.53993
65.440 23.485304
65.445 24.035347
65.450 24.039087
65.455 24.224295
65.460 24.55151
65.465 24.512466
65.470 23.990858
65.475 23.734909
65.480 23.829546
65.485 24.118973
65.490 24.029066
65.495 24.087475
65.500 24.14901
65.505 24.335026
65.510 25.348051
65.515 25.458004
65.520 25.156738
65.525 25.052607
65.530 25.280544
65.535 26.123684
65.540 26.160784
65.545 26.055653
65.550 26.325956
65.555 26.691774
65.560 26.861273
65.565 27.042074
65.570 26.706291
65.575 27.387331
65.580 27.667948
65.585 27.630497
65.590 27.274628
65.595 27.704248
65.600 27.395948
65.605 27.872297
65.610 28.082111
65.615 27.898188
65.620 28.321236
65.625 28.998798
65.630 29.016642
65.635 29.584208
65.640 29.980551
65.645 30.039698
65.650 30.506401
65.655 30.842205
65.660 31.134951
65.665 30.89163
65.670 30.200216
65.675 30.233557
65.680 30.726334
65.685 30.772211
65.690 31.727468
65.695 32.155014
65.700 32.300945
65.705 32.970566
65.710 32.837067
65.715 32.468567
65.720 32.330528
65.725 31.744316
65.730 31.415249
65.735 31.35957
65.740 31.310957
65.745 30.985119
65.750 30.787003
65.755 30.363867
65.760 30.668507
65.765 31.57795
65.770 32.081413
65.775 32.324116
65.780 32.674202
65.785 33.391628
65.790 33.699879
65.795 33.292259
65.800 33.191765
65.805 33.447716
65.810 33.226192
65.815 32.764046
65.820 32.389637
65.825 31.822479
65.830 32.185802
65.835 32.20496
65.840 32.467739
65.845 32.813595
65.850 33.987858
65.855 34.186897
65.860 34.826893
65.865 34.71619
65.870 33.888073
65.875 33.459797
65.880 33.772217
65.885 33.418068
65.890 34.517143
65.895 34.857052
65.900 34.948521
65.905 36.030556
65.910 36.557297
65.915 36.046841
65.920 36.215042
65.925 36.429218
65.930 37.018578
65.935 37.809521
65.940 37.322201
65.945 37.413143
65.950 38.064587
65.955 38.343918
65.960 37.33519
65.965 37.113148
65.970 37.441837
65.975 37.368324
65.980 36.752563
65.985 37.082767
65.990 36.440216
65.995 36.68671
66.000 36.708065
66.005 36.435207
66.010 37.120373
66.015 37.613117
66.020 37.443596
66.025 38.365273
66.030 39.219963
66.035 39.572536
66.040 39.761974
66.045 39.614048
66.050 40.529922
66.055 40.78709
66.060 40.827633
66.065 40.439438
66.070 39.836758
66.075 39.995098
66.080 40.443684
66.085 39.788506
66.090 39.328316
66.095 38.689678
66.100 38.372971
66.105 39.245457
66.110 39.268314
66.115 39.099468
66.120 39.515598
66.125 40.337345
66.130 40.718662
66.135 41.114964
66.140 40.844326
66.145 41.453365
66.150 41.141983
66.155 41.094879
66.160 40.154716
66.165 39.885544
66.170 39.084393
66.175 38.858639
66.180 38.35878
66.185 38.516438
66.190 38.367035
66.195 39.168995
66.200 39.4254
66.205 39.569027
66.210 39.5975
66.215 39.097401
66.220 38.56805
66.225 37.934032
66.230 37.77607
66.235 38.035839
66.240 37.939777
66.245 38.797482
66.250 38.829441
66.255 39.289085
66.260 39.282108
66.265 38.915264
66.270 38.692612
66.275 38.962532
66.280 37.682594
66.285 38.279301
66.290 38.849541
66.295 38.976913
66.300 38.135761
66.305 38.239822
66.310 37.654194
66.315 36.608208
66.320 35.630356
66.325 34.633083
66.330 33.777145
66.335 34.070805
66.340 33.552017
66.345 34.013569
66.350 34.940559
66.355 35.016903
66.360 35.366585
66.365 36.304424
66.370 36.18824
66.375 35.813862
66.380 35.343735
66.385 34.461838
66.390 34.052345
66.395 34.161522
66.400 33.664669
66.405 33.488113
66.410 33.454624
66.415 32.879452
66.420 32.717491
66.425 31.957905
66.430 30.51615
66.435 30.466751
66.440 30.068998
66.445 29.237495
66.450 28.988508
66.455 29.193476
66.460 29.173223
66.465 29.829727
66.470 29.565145
66.475 29.581339
66.480 29.840488
66.485 29.763662
66.490 29.352732
66.495 28.922739
66.500 28.421751
66.505 27.358089
66.510 26.349222
66.515 25.989496
66.520 25.822233
66.525 25.76436
66.530 25.799061
66.535 25.907394
66.540 26.842312
66.545 27.00104
66.550 26.69986
66.555 26.417704
66.560 26.071732
66.565 25.809582
66.570 25.75264
66.575 25.708979
66.580 25.444601
66.585 24.837252
66.590 25.119175
66.595 24.902809
66.600 24.716612
66.605 25.029791
66.610 24.982306
66.615 25.218227
66.620 25.857613
66.625 25.259195
66.630 25.22126
66.635 25.06601
66.640 24.012691
66.645 23.394716
66.650 23.91308
66.655 23.153154
66.660 22.983747
66.665 22.840097
66.670 22.738396
66.675 23.004066
66.680 23.333294
66.685 22.829247
66.690 23.630524
66.695 24.115181
66.700 24.577002
66.705 25.313622
66.710 25.591471
66.715 25.193586
66.720 24.03232
66.725 23.976917
66.730 23.904253
66.735 23.311829
66.740 22.467352
66.745 21.549351
66.750 21.327269
66.755 21.979679
66.760 21.728971
66.765 21.49979
66.770 20.809263
66.775 20.619349
66.780 21.399771
66.785 21.56983
66.790 21.133942
66.795 20.621153
66.800 20.46913
66.805 21.262125
66.810 21.269394
66.815 21.221956
66.820 21.697508
66.825 22.131996
66.830 22.009047
66.835 21.78591
66.840 21.434547
66.845 21.515659
66.850 21.292238
66.855 20.916494
66.860 20.657444
66.865 20.530821
66.870 20.988705
66.875 21.611494
66.880 21.788309
66.885 21.740574
66.890 21.602165
66.895 21.435074
66.900 21.755795
66.905 21.504471
66.910 21.077093
66.915 20.707523
66.920 21.450983
66.925 22.091257
66.930 21.933994
66.935 21.293013
66.940 21.263836
66.945 21.372972
66.950 21.494911
66.955 20.91081
66.960 20.6031
66.965 21.271263
66.970 21.521313
66.975 20.93334
66.980 20.916443
66.985 20.669199
66.990 20.240637
66.995 20.064205
67.000 19.756319
67.005 20.089483
67.010 20.370605
67.015 20.452538
67.020 20.905802
67.025 20.917526
67.030 20.87582
67.035 20.929466
67.040 21.408215
67.045 21.453234
67.050 21.173752
67.055 20.981455
67.060 21.018595
67.065 21.379923
67.070 21.162157
67.075 20.848537
67.080 20.298
67.085 19.668623
67.090 19.077543
67.095 19.704395
67.100 19.618319
67.105 20.128704
67.110 20.712175
67.115 21.659967
67.120 22.412117
67.125 23.012918
67.130 23.166521
67.135 22.814676
67.140 22.241652
67.145 21.701298
67.150 21.351099
67.155 21.249546
67.160 21.3106
67.165 20.84297
67.170 20.889484
67.175 21.147291
67.180 21.602377
67.185 21.374523
67.190 21.433241
67.195 21.191837
67.200 21.453125
67.205 21.29302
67.210 21.130787
67.215 20.783409
67.220 20.870991
67.225 20.515358
67.230 20.371613
67.235 20.067947
67.240 20.251425
67.245 20.617441
67.250 20.994555
67.255 21.80892
67.260 22.201416
67.265 22.588428
67.270 22.52352
67.275 22.585032
67.280 22.162827
67.285 21.748487
67.290 21.629395
67.295 21.156263
67.300 21.37104
67.305 21.589668
67.310 21.711693
67.315 21.193081
67.320 20.729553
67.325 20.331522
67.330 20.363192
67.335 20.919767
67.340 21.697479
67.345 21.454714
67.350 21.980812
67.355 21.667671
67.360 21.350361
67.365 21.746628
67.370 21.156725
67.375 21.23509
67.380 21.107805
67.385 21.058479
67.390 22.036249
67.395 22.060196
67.400 21.652338
67.405 21.4198
67.410 20.838507
67.415 21.340151
67.420 21.336102
67.425 20.880112
67.430 21.033791
67.435 21.346182
67.440 21.654146
67.445 21.406767
67.450 21.108248
67.455 21.603632
67.460 21.429512
67.465 21.387527
67.470 20.917686
67.475 20.207813
67.480 20.82168
67.485 21.123194
67.490 20.961838
67.495 20.981203
67.500 20.939159
67.505 21.218052
67.510 21.095985
67.515 20.895704
67.520 21.201649
67.525 21.488216
67.530 21.549171
67.535 21.242491
67.540 21.047983
67.545 21.496702
67.550 20.724047
67.555 20.365738
67.560 20.541298
67.565 21.055836
67.570 20.887255
67.575 20.550329
67.580 20.300419
67.585 20.96253
67.590 21.434633
67.595 20.892014
67.600 20.320225
67.605 20.337948
67.610 20.329023
67.615 20.177189
67.620 19.729681
67.625 19.565512
67.630 19.981009
67.635 20.399052
67.640 20.716894
67.645 21.030647
67.650 21.35195
67.655 21.474548
67.660 21.016983
67.665 20.683224
67.670 20.962605
67.675 21.377665
67.680 21.434267
67.685 21.217054
67.690 20.550619
67.695 20.2862
67.700 20.473398
67.705 20.055601
67.710 19.350212
67.715 19.644642
67.720 20.216694
67.725 21.430323
67.730 21.767403
67.735 21.71034
67.740 21.698586
67.745 21.28541
67.750 20.87674
67.755 20.499453
67.760 19.597101
67.765 19.130997
67.770 19.171894
67.775 19.167061
67.780 19.62291
67.785 19.312042
67.790 18.938684
67.795 18.778362
67.800 18.862978
67.805 18.789078
67.810 18.530163
67.815 18.932398
67.820 18.891733
67.825 19.351461
67.830 19.161459
67.835 18.660467
67.840 18.823746
67.845 18.746155
67.850 18.297945
67.855 18.52566
67.860 18.297447
67.865 19.29649
67.870 20.163389
67.875 20.18532
67.880 20.658863
67.885 21.317308
67.890 20.897091
67.895 20.799583
67.900 21.063404
67.905 20.91967
67.910 20.46977
67.915 20.275408
67.920 20.021654
67.925 20.590382
67.930 20.61861
67.935 20.259911
67.940 19.930933
67.945 20.322584
67.950 20.561319
67.955 20.261444
67.960 19.808475
67.965 19.560858
67.970 19.658649
67.975 19.466051
67.980 19.144701
67.985 18.82246
67.990 19.164528
67.995 19.244635
68.000 20.074604
68.005 19.546005
68.010 19.74473
68.015 19.646164
68.020 19.187389
68.025 19.016813
68.030 19.071692
68.035 19.037434
68.040 20.305971
68.045 20.628778
68.050 21.171516
68.055 21.544991
68.060 21.157377
68.065 20.651524
68.070 19.810896
68.075 19.534595
68.080 19.5893
68.085 19.559711
68.090 20.11117
68.095 20.821009
68.100 21.46995
68.105 21.482405
68.110 21.180416
68.115 21.113722
68.120 21.074396
68.125 20.810844
68.130 20.064438
68.135 19.666739
68.140 19.535789
68.145 18.661535
68.150 18.340466
68.155 18.068253
68.160 17.781134
68.165 18.050585
68.170 18.471588
68.175 19.405199
68.180 20.346651
68.185 20.667727
68.190 21.023746
68.195 21.664852
68.200 21.485167
68.205 21.4841
68.210 21.20801
68.215 20.855433
68.220 20.976498
68.225 21.005362
68.230 20.015562
68.235 20.0783
68.240 20.262951
68.245 20.497585
68.250 20.764687
68.255 20.472641
68.260 20.765894
68.265 21.574146
68.270 21.456728
68.275 20.905949
68.280 20.998777
68.285 20.715105
68.290 20.176336
68.295 19.792543
68.300 20.14946
68.305 20.328522
68.310 20.268972
68.315 19.790926
68.320 20.112801
68.325 20.401337
68.330 20.290508
68.335 19.745775
68.340 19.880709
68.345 19.827417
68.350 20.186882
68.355 20.690817
68.360 20.469814
68.365 20.25071
68.370 21.100086
68.375 20.909502
68.380 21.011732
68.385 20.470367
68.390 19.820917
68.395 20.03413
68.400 19.923656
68.405 18.644075
68.410 18.563547
68.415 17.983776
68.420 18.259304
68.425 18.749224
68.430 18.900167
68.435 18.934864
68.440 19.475298
68.445 20.007206
68.450 20.996864
68.455 21.545042
68.460 21.452923
68.465 21.35214
68.470 21.547247
68.475 21.625875
68.480 20.781145
68.485 19.812014
68.490 19.775595
68.495 20.122345
68.500 20.293964
68.505 20.43696
68.510 19.672522
68.515 20.564384
68.520 21.068859
68.525 20.01206
68.530 19.787584
68.535 19.818489
68.540 20.117636
68.545 20.640421
68.550 20.710123
68.555 20.866405
68.560 21.439013
68.565 21.176432
68.570 20.931482
68.575 20.786886
68.580 20.551434
68.585 20.197886
68.590 20.086708
68.595 20.092873
68.600 20.548353
68.605 20.973789
68.610 21.178108
68.615 21.758848
68.620 22.3694
68.625 23.022247
68.630 23.67621
68.635 23.700485
68.640 23.863062
68.645 23.702662
68.650 22.874607
68.655 22.657465
68.660 22.50598
68.665 21.873362
68.670 22.090607
68.675 22.084896
68.680 22.401899
68.685 23.451908
68.690 23.379251
68.695 23.280315
68.700 23.079861
68.705 22.907967
68.710 22.924202
68.715 22.708513
68.720 22.272949
68.725 22.455536
68.730 23.370085
68.735 23.809515
68.740 23.226624
68.745 23.23896
68.750 23.4408
68.755 23.809597
68.760 23.745264
68.765 23.693491
68.770 23.868877
68.775 24.285711
68.780 24.421146
68.785 24.393196
68.790 24.000374
68.795 23.359556
68.800 23.11961
68.805 22.795633
68.810 22.686184
68.815 22.565466
68.820 22.591543
68.825 22.097334
68.830 22.713982
68.835 23.411911
68.840 23.902222
68.845 24.354156
68.850 24.678764
68.855 24.995554
68.860 25.828321
68.865 25.377308
68.870 25.336155
68.875 25.807751
68.880 25.517097
68.885 25.195929
68.890 25.263968
68.895 25.543072
68.900 25.641445
68.905 25.306059
68.910 25.065643
68.915 25.611586
68.920 25.731543
68.925 25.833376
68.930 25.788071
68.935 26.192619
68.940 26.759069
68.945 26.605534
68.950 26.578642
68.955 26.766554
68.960 26.360811
68.965 26.064865
68.970 26.436438
68.975 26.242334
68.980 26.064308
68.985 26.27663
68.990 26.210625
68.995 26.482195
69.000 26.608934
69.005 26.111166
69.010 26.338589
69.015 26.359879
69.020 25.886017
69.025 25.114586
69.030 24.917751
69.035 24.92927
69.040 24.779863
69.045 24.711105
69.050 25.379179
69.055 25.991339
69.060 26.671831
69.065 26.638659
69.070 26.241531
69.075 26.570055
69.080 26.912218
69.085 26.251192
69.090 26.331285
69.095 26.615479
69.100 27.439575
69.105 28.296501
69.110 28.799778
69.115 28.636789
69.120 28.577852
69.125 29.519539
69.130 29.689852
69.135 28.768368
69.140 28.346849
69.145 28.583363
69.150 28.587828
69.155 28.962505
69.160 28.413275
69.165 28.136374
69.170 29.207365
69.175 29.706081
69.180 30.365734
69.185 31.084518
69.190 31.348129
69.195 31.992323
69.200 32.517639
69.205 32.571205
69.210 31.832678
69.215 31.167719
69.220 30.475769
69.225 30.005758
69.230 29.68667
69.235 29.486065
69.240 29.763933
69.245 30.055178
69.250 30.018305
69.255 30.0168
69.260 30.320864
69.265 30.180702
69.270 29.667759
69.275 29.502542
69.280 29.963556
69.285 30.07494
69.290 31.071899
69.295 31.196793
69.300 30.964401
69.305 31.504536
69.310 31.97048
69.315 32.034657
69.320 31.576471
69.325 30.962627
69.330 30.326931
69.335 30.156727
69.340 29.327295
69.345 29.457605
69.350 29.298403
69.355 29.761457
69.360 30.511078
69.365 31.200558
69.370 31.683388
69.375 32.069324
69.380 31.396372
69.385 31.449877
69.390 31.613333
69.395 31.575867
69.400 31.750517
69.405 31.457642
69.410 31.724295
69.415 32.222103
69.420 32.3531
69.425 31.790268
69.430 32.057442
69.435 32.351067
69.440 32.68037
69.445 33.025505
69.450 32.650944
69.455 33.013821
69.460 33.221893
69.465 33.152592
69.470 33.248055
69.475 33.106342
69.480 32.820126
69.485 32.674305
69.490 32.118591
69.495 31.533527
69.500 31.313606
69.505 31.016216
69.510 31.627674
69.515 32.067791
69.520 32.032822
69.525 32.332489
69.530 32.914894
69.535 32.733284
69.540 32.967751
69.545 32.559547
69.550 32.759628
69.555 33.324097
69.560 32.796387
69.565 32.549324
69.570 32.600361
69.575 32.426785
69.580 32.110756
69.585 31.022718
69.590 29.832272
69.595 29.955
69.600 29.55439
69.605 29.247719
69.610 29.018618
69.615 29.067995
69.620 29.929504
69.625 31.369814
69.630 31.414207
69.635 31.358757
69.640 31.637318
69.645 31.779573
69.650 31.619848
69.655 31.595192
69.660 30.670116
69.665 30.708757
69.670 31.301329
69.675 30.898039
69.680 30.518826
69.685 30.826704
69.690 31.097761
69.695 31.029276
69.700 30.962273
69.705 30.203527
69.710 29.685459
69.715 30.082781
69.720 29.3631
69.725 29.076193
69.730 28.747641
69.735 28.310646
69.740 28.396214
69.745 28.491026
69.750 27.853373
69.755 27.792856
69.760 27.371462
69.765 27.141691
69.770 27.194654
69.775 27.476982
69.780 26.917191
69.785 26.675478
69.790 26.403509
69.795 26.856184
69.800 26.989077
69.805 26.692968
69.810 26.251852
69.815 26.246433
69.820 26.329519
69.825 25.516918
69.830 24.78026
69.835 24.440845
69.840 23.980404
69.845 24.412878
69.850 24.329367
69.855 24.429159
69.860 24.447205
69.865 23.955181
69.870 23.730936
69.875 24.027477
69.880 23.731606
69.885 23.644361
69.890 23.171328
69.895 24.197588
69.900 25.044973
69.905 25.392698
69.910 25.907867
69.915 25.729828
69.920 25.565662
69.925 25.157858
69.930 24.485178
69.935 24.637661
69.940 23.522556
69.945 22.722971
69.950 22.990953
69.955 23.494902
69.960 23.258043
69.965 22.725471
69.970 22.044409
69.975 22.12455
69.980 21.778292
69.985 21.863474
69.990 21.232609
69.995 21.120674
70.000 21.164888
70.005 20.940905
70.010 20.981314
70.015 20.537601
70.020 20.007389
70.025 20.675064
70.030 20.539978
70.035 20.079489
70.040 20.325258
70.045 20.943811
70.050 21.214289
70.055 21.27186
70.060 21.058899
70.065 21.096752
70.070 20.657452
70.075 20.05369
70.080 19.185293
70.085 18.828754
70.090 18.482437
70.095 18.331699
70.100 19.154003
70.105 20.223686
70.110 20.169502
70.115 20.793505
70.120 20.932329
70.125 21.288736
70.130 21.461819
70.135 21.292406
70.140 21.302479
70.145 21.488525
70.150 20.789854
70.155 20.533403
70.160 20.471401
70.165 20.554611
70.170 19.819185
70.175 19.312092
70.180 19.596281
70.185 19.851591
70.190 20.157476
70.195 20.155233
70.200 20.096575
70.205 20.130224
70.210 19.945467
70.215 20.215216
70.220 20.148554
70.225 19.483397
70.230 19.089626
70.235 19.350899
70.240 19.134207
70.245 19.607887
70.250 20.072815
70.255 20.405193
70.260 20.72193
70.265 20.368484
70.270 20.015591
70.275 20.307402
70.280 19.370182
70.285 18.879747
70.290 18.515509
70.295 18.871983
70.300 19.130688
70.305 19.100195
70.310 19.126081
70.315 19.487947
70.320 19.946718
70.325 20.183565
70.330 19.620607
70.335 19.214766
70.340 19.511677
70.345 19.116539
70.350 18.740971
70.355 18.303471
70.360 18.459448
70.365 18.823738
70.370 19.520596
70.375 19.085243
70.380 19.387745
70.385 19.037291
70.390 19.294638
70.395 19.238367
70.400 19.029285
70.405 18.643616
70.410 18.993263
70.415 19.198553
70.420 18.798607
70.425 18.186438
70.430 18.136278
70.435 18.51787
70.440 19.128944
70.445 19.331743
70.450 19.684118
70.455 19.761892
70.460 20.540356
70.465 20.452335
70.470 20.418617
70.475 20.273485
70.480 19.956009
70.485 19.36799
70.490 19.64184
70.495 19.595331
70.500 20.280203
70.505 20.286831
70.510 21.080379
70.515 21.508739
70.520 22.432045
70.525 22.566319
70.530 22.234947
70.535 21.875755
70.540 21.125175
70.545 20.517849
70.550 19.901121
70.555 19.777252
70.560 20.164371
70.565 20.197348
70.570 20.503649
70.575 20.372118
70.580 20.047651
70.585 19.880802
70.590 19.336256
70.595 19.107147
70.600 18.769484
70.605 18.552187
70.610 18.612738
70.615 18.727919
70.620 18.630671
70.625 18.562767
70.630 18.587444
70.635 18.393326
70.640 18.616335
70.645 18.928722
70.650 18.616564
70.655 18.871412
70.660 18.724295
70.665 18.369932
70.670 18.504128
70.675 18.383141
70.680 18.690046
70.685 19.216045
70.690 19.571529
70.695 20.080713
70.700 20.460165
70.705 20.35141
70.710 20.261074
70.715 19.513243
70.720 19.395372
70.725 19.43704
70.730 19.407312
70.735 18.422735
70.740 18.312346
70.745 17.545078
70.750 17.285229
70.755 17.331554
70.760 17.164106
70.765 17.258696
70.770 17.751001
70.775 17.853853
70.780 18.640026
70.785 19.331392
70.790 19.10878
70.795 19.194164
70.800 19.247265
70.805 19.273006
70.810 19.771368
70.815 19.588554
70.820 19.159588
70.825 18.98531
70.830 18.700565
70.835 18.85372
70.840 18.346336
70.845 18.157207
70.850 17.764816
70.855 17.732319
70.860 17.613787
70.865 17.359451
70.870 17.06941
70.875 17.162975
70.880 16.992075
70.885 17.192757
70.890 17.425806
70.895 17.643684
70.900 18.171415
70.905 18.657621
70.910 18.617065
70.915 18.480213
70.920 18.721567
70.925 18.849957
70.930 19.505945
70.935 19.515427
70.940 19.333881
70.945 19.786745
70.950 19.950207
70.955 19.832445
70.960 19.909851
70.965 19.585552
70.970 19.634935
70.975 19.75069
70.980 19.31966
70.985 19.03693
70.990 18.815222
70.995 18.69249
71.000 18.507147
71.005 18.404625
71.010 18.741383
71.015 19.019928
71.020 19.642633
71.025 19.803898
71.030 19.953451
71.035 19.883436
71.040 20.182119
71.045 20.444103
71.050 21.032099
71.055 20.744246
71.060 20.406813
71.065 19.990683
71.070 19.790361
71.075 19.317501
71.080 18.81469
71.085 18.650488
71.090 18.540989
71.095 18.721807
71.100 18.669931
71.105 18.246042
71.110 18.004091
71.115 17.605959
71.120 17.31275
71.125 17.667978
71.130 18.162037
71.135 18.312092
71.140 18.707035
71.145 18.621687
71.150 18.576628
71.155 18.648588
71.160 18.278931
71.165 18.030281
71.170 18.474789
71.175 18.541466
71.180 18.832018
71.185 19.220587
71.190 19.329321
71.195 19.502478
71.200 19.512129
71.205 19.198545
71.210 19.254755
71.215 19.013622
71.220 18.948038
71.225 18.710836
71.230 18.385681
71.235 18.280815
71.240 18.643574
71.245 19.010614
71.250 19.466311
71.255 19.888145
71.260 19.970993
71.265 20.281046
71.270 20.178789
71.275 20.386568
71.280 20.008352
71.285 19.763166
71.290 19.755714
71.295 19.910692
71.300 19.135164
71.305 18.520887
71.310 17.683325
71.315 17.655504
71.320 17.479246
71.325 17.251406
71.330 16.813553
71.335 16.811899
71.340 17.434952
71.345 17.744055
71.350 18.085594
71.355 18.124931
71.360 18.027773
71.365 18.288366
71.370 19.173065
71.375 19.316376
71.380 19.001822
71.385 18.472897
71.390 18.612663
71.395 18.896656
71.400 18.987497
71.405 18.932299
71.410 19.20682
71.415 19.312754
71.420 19.633101
71.425 19.549459
71.430 19.419613
71.435 19.447742
71.440 19.175455
71.445 19.674517
71.450 20.377325
71.455 20.042599
71.460 20.026571
71.465 20.414865
71.470 20.525707
71.475 20.354681
71.480 19.342222
71.485 18.72946
71.490 18.777662
71.495 18.834831
71.500 18.859701
71.505 18.529087
71.510 18.222548
71.515 19.10358
71.520 19.473522
71.525 20.143177
71.530 20.211338
71.535 20.173595
71.540 20.305309
71.545 20.232515
71.550 19.674351
71.555 19.312357
71.560 19.33362
71.565 19.554937
71.570 19.910845
71.575 20.139467
71.580 20.407406
71.585 20.606319
71.590 20.45186
71.595 20.195612
71.600 19.869211
71.605 19.62381
71.610 20.028126
71.615 20.149565
71.620 19.649582
71.625 19.768291
71.630 19.61746
71.635 19.341555
71.640 19.251413
71.645 18.703569
71.650 19.013853
71.655 19.282635
71.660 18.812603
71.665 18.726458
71.670 18.301998
71.675 17.897896
71.680 17.869642
71.685 17.761499
71.690 17.977589
71.695 18.337017
71.700 18.402351
71.705 18.487387
71.710 17.611633
71.715 17.709906
71.720 17.295898
71.725 16.432123
71.730 16.809027
71.735 16.994213
71.740 17.114902
71.745 18.335678
71.750 18.201559
71.755 18.737646
71.760 18.998455
71.765 18.78731
71.770 19.340584
71.775 19.94528
71.780 19.820658
71.785 20.309683
71.790 20.37401
71.795 20.772448
71.800 20.428602
71.805 20.143847
71.810 19.978466
71.815 20.307272
71.820 19.8174
71.825 19.425982
71.830 18.902617
71.835 19.264086
71.840 18.857893
71.845 18.07756
71.850 17.141195
71.855 17.256533
71.860 17.849321
71.865 17.539387
71.870 17.495689
71.875 17.996002
71.880 18.197622
71.885 18.683399
71.890 18.656551
71.895 18.72023
71.900 19.259764
71.905 19.739998
71.910 19.613123
71.915 19.711218
71.920 19.715137
71.925 19.307398
71.930 19.118301
71.935 18.693403
71.940 18.232672
71.945 18.125967
71.950 18.521925
71.955 18.176912
71.960 18.216976
71.965 18.393034
71.970 18.286791
71.975 18.108477
71.980 18.236055
71.985 17.892176
71.990 17.927076
71.995 18.060287
72.000 18.032148
72.005 18.408857
72.010 18.525282
72.015 18.292767
72.020 18.40493
72.025 18.272985
72.030 18.046886
72.035 17.375149
72.040 16.848801
72.045 16.922611
72.050 17.573292
72.055 17.562822
72.060 17.859442
72.065 17.84753
72.070 18.846682
72.075 19.169821
72.080 19.148853
72.085 18.334177
72.090 18.416401
72.095 18.038515
72.100 18.127859
72.105 17.862761
72.110 17.491405
72.115 17.564278
72.120 17.822836
72.125 18.148703
72.130 18.480909
72.135 18.320927
72.140 18.262815
72.145 18.455444
72.150 18.252871
72.155 18.352978
72.160 18.312693
72.165 18.523018
72.170 18.513
72.175 18.312628
72.180 18.221384
72.185 17.857962
72.190 17.728844
72.195 17.712143
72.200 18.15136
72.205 18.302666
72.210 18.416296
72.215 18.060064
72.220 18.336569
72.225 18.543411
72.230 18.146633
72.235 17.659172
72.240 17.650791
72.245 18.214577
72.250 18.301817
72.255 18.118006
72.260 17.832735
72.265 17.615374
72.270 17.264118
72.275 17.003901
72.280 16.523046
72.285 17.006634
72.290 17.012442
72.295 17.238552
72.300 17.667637
72.305 17.995842
72.310 17.963858
72.315 18.742891
72.320 18.457483
72.325 18.257816
72.330 18.231159
72.335 18.407402
72.340 18.882095
72.345 19.179831
72.350 18.947296
72.355 19.551262
72.360 19.609531
72.365 19.646828
72.370 19.301256
72.375 18.819498
72.380 18.134039
72.385 17.601065
72.390 17.004299
72.395 16.859406
72.400 17.090103
72.405 17.102947
72.410 17.258068
72.415 17.218969
72.420 17.347139
72.425 17.362377
72.430 18.062181
72.435 17.968349
72.440 17.829424
72.445 18.053524
72.450 18.144897
72.455 18.140146
72.460 17.803291
72.465 17.699718
72.470 17.788456
72.475 18.142893
72.480 18.443451
72.485 18.634193
72.490 18.716196
72.495 18.490248
72.500 18.078699
72.505 18.589672
72.510 18.239489
72.515 18.108021
72.520 18.523924
72.525 18.935881
72.530 19.291222
72.535 19.204432
72.540 18.709867
72.545 18.063444
72.550 17.891129
72.555 17.530621
72.560 17.512651
72.565 17.227242
72.570 16.631708
72.575 17.044508
72.580 17.538712
72.585 17.396235
72.590 16.822275
72.595 16.962444
72.600 17.257242
72.605 17.610193
72.610 16.881702
72.615 17.005516
72.620 17.25762
72.625 17.466064
72.630 17.037737
72.635 16.77062
72.640 17.126223
72.645 17.379015
72.650 17.528908
72.655 17.896221
72.660 18.171181
72.665 18.598749
72.670 18.313963
72.675 18.176882
72.680 18.258469
72.685 18.140148
72.690 17.446039
72.695 17.645239
72.700 17.781532
72.705 17.650402
72.710 18.183641
72.715 18.391001
72.720 18.463022
72.725 18.827539
72.730 18.593498
72.735 18.291224
72.740 17.864532
72.745 17.208899
72.750 16.928083
72.755 16.660183
72.760 15.980781
72.765 15.738172
72.770 16.248238
72.775 16.826124
72.780 17.031136
72.785 17.103252
72.790 16.568512
72.795 16.184855
72.800 16.538654
72.805 16.597244
72.810 16.436049
72.815 16.353691
72.820 16.73967
72.825 17.342155
72.830 17.932005
72.835 17.92807
72.840 17.975578
72.845 17.8694
72.850 17.996117
72.855 18.403496
72.860 18.37278
72.865 18.543818
72.870 19.22374
72.875 19.555964
72.880 19.642948
72.885 19.370529
72.890 19.050545
72.895 19.045252
72.900 18.073139
72.905 17.995047
72.910 17.499744
72.915 17.350962
72.920 17.25691
72.925 17.425312
72.930 17.629301
72.935 17.687855
72.940 17.224533
72.945 17.057722
72.950 16.802408
72.955 17.102352
72.960 16.340628
72.965 16.643417
72.970 16.387909
72.975 16.601587
72.980 16.910728
72.985 16.935123
72.990 17.407955
72.995 17.433527
73.000 16.943548
