!@!!GADDS PLOTSO FILE: Chi integration type
!@!!Title/SampleName: map-150
!@!!Comment: ?
!@!!User: Bruker Instrument Administrator
!@!!Site: University of Illinois Chicago
!@!!Frame: map-150_01_000.gfrm
!@!!Wavelengths    1.54184   1.54056   1.54439
!@!!Frame angles: 2Theta: 63.000 Omega: 50.000 Phi: 0.000 Chi: 90.000
!@!!Integration range: 2Theta: 53.000 to 73.000  Gamma: -105.000 to -75.000
!@!!Integration method: bin normalized
!@!N
!@!SS
!@!M
!@!L 0.0 0.0 0.0 0.0
!@!XDegrees
!@!YCounts
53.000 10.292559
53.005 10.303473
53.010 10.056236
53.015 9.204433
53.020 8.529124
53.025 8.097281
53.030 7.56102
53.035 7.779787
53.040 8.002598
53.045 8.232919
53.050 8.423171
53.055 8.280334
53.060 8.801036
53.065 9.137994
53.070 9.090282
53.075 9.294516
53.080 9.597527
53.085 9.897719
53.090 9.864352
53.095 9.829468
53.100 9.722045
53.105 9.82141
53.110 9.487758
53.115 9.666223
53.120 9.961804
53.125 9.641639
53.130 9.902822
53.135 10.418648
53.140 10.692443
53.145 10.587403
53.150 10.288651
53.155 10.370015
53.160 10.447808
53.165 9.995462
53.170 9.571191
53.175 9.656506
53.180 9.911432
53.185 9.832327
53.190 9.852118
53.195 9.934283
53.200 10.343771
53.205 10.161063
53.210 10.100655
53.215 10.615559
53.220 10.47877
53.225 10.79708
53.230 10.416299
53.235 10.126629
53.240 10.349367
53.245 10.059289
53.250 9.713951
53.255 9.706706
53.260 9.101809
53.265 9.316872
53.270 9.717699
53.275 9.478132
53.280 9.563408
53.285 9.20167
53.290 9.727005
53.295 10.858979
53.300 11.132112
53.305 10.993299
53.310 11.259438
53.315 11.30179
53.320 11.397053
53.325 11.350915
53.330 11.074102
53.335 11.006481
53.340 10.593976
53.345 10.604506
53.350 10.677043
53.355 10.60687
53.360 10.317865
53.365 10.082681
53.370 9.791183
53.375 9.852064
53.380 9.905641
53.385 9.534189
53.390 9.626137
53.395 9.427627
53.400 9.739411
53.405 9.875963
53.410 9.755482
53.415 9.597422
53.420 9.571584
53.425 9.371759
53.430 9.315276
53.435 9.064896
53.440 9.229089
53.445 9.44186
53.450 9.565995
53.455 9.619235
53.460 9.983908
53.465 10.292765
53.470 10.289852
53.475 10.162703
53.480 10.325321
53.485 10.480082
53.490 10.419504
53.495 9.977717
53.500 10.168571
53.505 10.528693
53.510 10.783236
53.515 10.623876
53.520 10.784093
53.525 11.437185
53.530 12.087074
53.535 11.430823
53.540 10.943754
53.545 10.854761
53.550 10.983755
53.555 10.737992
53.560 10.005811
53.565 9.623394
53.570 9.913597
53.575 10.201896
53.580 10.029752
53.585 10.236144
53.590 10.287536
53.595 10.467873
53.600 10.801358
53.605 11.078382
53.610 10.619836
53.615 10.770913
53.620 10.89939
53.625 10.742092
53.630 9.935971
53.635 9.49736
53.640 9.292485
53.645 9.325895
53.650 9.099414
53.655 8.720861
53.660 9.28262
53.665 9.936173
53.670 10.011312
53.675 10.16977
53.680 10.22512
53.685 10.632449
53.690 10.767718
53.695 10.799317
53.700 10.545993
53.705 10.428932
53.710 10.03411
53.715 9.781265
53.720 9.477721
53.725 9.337934
53.730 8.963471
53.735 9.04053
53.740 9.357141
53.745 9.436849
53.750 9.37635
53.755 9.30628
53.760 9.552302
53.765 9.747198
53.770 10.097858
53.775 10.272449
53.780 10.413988
53.785 10.367895
53.790 10.761431
53.795 11.339531
53.800 11.240678
53.805 11.512391
53.810 11.460491
53.815 11.597621
53.820 11.656483
53.825 11.602537
53.830 11.473537
53.835 11.845228
53.840 11.824894
53.845 12.199883
53.850 12.562817
53.855 12.472213
53.860 12.276674
53.865 12.029901
53.870 11.722211
53.875 11.444575
53.880 10.863178
53.885 10.343289
53.890 10.165551
53.895 9.766774
53.900 9.348593
53.905 9.220566
53.910 9.11919
53.915 9.381852
53.920 9.356757
53.925 9.371811
53.930 9.341967
53.935 9.706584
53.940 9.715632
53.945 9.511412
53.950 9.642733
53.955 9.570849
53.960 9.726305
53.965 10.471167
53.970 10.467796
53.975 10.137726
53.980 10.121662
53.985 10.13554
53.990 10.491882
53.995 10.204165
54.000 9.413116
54.005 9.035139
54.010 9.587073
54.015 9.636105
54.020 9.56209
54.025 9.237823
54.030 9.391479
54.035 9.527726
54.040 10.018275
54.045 10.137366
54.050 10.593923
54.055 10.966778
54.060 10.916674
54.065 10.857193
54.070 10.83102
54.075 10.811167
54.080 10.580797
54.085 10.361917
54.090 10.491696
54.095 11.153533
54.100 11.292952
54.105 11.469853
54.110 11.255505
54.115 10.911994
54.120 10.845062
54.125 10.265699
54.130 10.351487
54.135 10.18926
54.140 10.005796
54.145 10.11694
54.150 10.221927
54.155 10.420797
54.160 10.464831
54.165 9.4074
54.170 9.648084
54.175 9.781125
54.180 9.398181
54.185 9.099003
54.190 9.043176
54.195 9.540195
54.200 10.11512
54.205 9.844782
54.210 10.3234
54.215 10.885324
54.220 11.07202
54.225 11.14393
54.230 11.065125
54.235 11.340631
54.240 11.41194
54.245 11.553731
54.250 12.073071
54.255 12.203773
54.260 12.384037
54.265 12.621035
54.270 12.258513
54.275 12.278285
54.280 12.123121
54.285 12.088313
54.290 12.025196
54.295 11.738592
54.300 11.252107
54.305 11.451361
54.310 11.437654
54.315 10.883488
54.320 10.255624
54.325 9.802933
54.330 10.002847
54.335 10.791858
54.340 11.479157
54.345 11.252625
54.350 11.453566
54.355 11.596755
54.360 11.555471
54.365 11.382209
54.370 10.50263
54.375 9.531281
54.380 9.162035
54.385 9.408903
54.390 10.044089
54.395 10.022128
54.400 10.005874
54.405 9.930621
54.410 10.357984
54.415 11.017651
54.420 10.77338
54.425 10.658735
54.430 10.563434
54.435 10.832151
54.440 11.215031
54.445 11.108517
54.450 10.733482
54.455 10.635423
54.460 10.451184
54.465 11.088642
54.470 10.778073
54.475 10.497375
54.480 10.734076
54.485 10.672545
54.490 10.742197
54.495 10.911764
54.500 10.511883
54.505 10.602542
54.510 11.105273
54.515 11.122766
54.520 11.063946
54.525 10.998727
54.530 10.931584
54.535 10.964106
54.540 10.945128
54.545 10.519005
54.550 10.460622
54.555 10.845756
54.560 10.77597
54.565 10.431401
54.570 10.526481
54.575 10.655051
54.580 11.086066
54.585 11.151752
54.590 11.244306
54.595 11.397777
54.600 11.07862
54.605 10.576397
54.610 10.313965
54.615 10.125508
54.620 10.282937
54.625 9.999975
54.630 9.810092
54.635 10.335584
54.640 10.513357
54.645 10.263175
54.650 10.184501
54.655 10.04438
54.660 10.212193
54.665 10.781304
54.670 10.833449
54.675 11.116179
54.680 11.305541
54.685 11.384024
54.690 11.33913
54.695 11.294785
54.700 10.974784
54.705 11.152903
54.710 11.333791
54.715 11.27348
54.720 11.087476
54.725 11.242256
54.730 11.170954
54.735 11.367501
54.740 11.459231
54.745 11.269628
54.750 11.672072
54.755 11.69137
54.760 11.412729
54.765 11.693825
54.770 11.704582
54.775 11.637519
54.780 11.962075
54.785 11.860625
54.790 12.621646
54.795 13.269215
54.800 12.941545
54.805 12.938723
54.810 12.78174
54.815 12.53279
54.820 12.323026
54.825 11.992665
54.830 11.573551
54.835 11.685558
54.840 11.50702
54.845 11.534745
54.850 11.506063
54.855 11.433687
54.860 10.899077
54.865 10.812979
54.870 10.815052
54.875 10.897272
54.880 10.952019
54.885 10.380208
54.890 10.307055
54.895 10.253408
54.900 10.229511
54.905 9.979645
54.910 10.095296
54.915 10.295636
54.920 10.439703
54.925 10.483034
54.930 10.817491
54.935 10.657608
54.940 10.706172
54.945 10.703633
54.950 10.656009
54.955 10.496842
54.960 10.429563
54.965 10.35401
54.970 10.508621
54.975 10.883955
54.980 10.938336
54.985 11.05162
54.990 11.099726
54.995 11.012938
55.000 11.377891
55.005 11.909797
55.010 11.773494
55.015 11.810713
55.020 12.837873
55.025 13.242988
55.030 13.619412
55.035 13.15727
55.040 12.349399
55.045 12.34812
55.050 12.0788
55.055 11.726036
55.060 12.017723
55.065 12.304595
55.070 12.434887
55.075 12.911502
55.080 13.129072
55.085 12.881898
55.090 12.607019
55.095 12.144161
55.100 11.807895
55.105 12.087675
55.110 12.011079
55.115 11.900994
55.120 12.24394
55.125 12.128473
55.130 12.353822
55.135 12.118252
55.140 11.512401
55.145 11.14199
55.150 11.086409
55.155 10.695179
55.160 10.608836
55.165 10.409498
55.170 10.330874
55.175 10.813865
55.180 11.622128
55.185 11.639901
55.190 12.110682
55.195 11.880605
55.200 12.250868
55.205 12.300729
55.210 11.623247
55.215 10.794438
55.220 10.784903
55.225 10.614229
55.230 10.499808
55.235 10.064954
55.240 10.072028
55.245 10.508078
55.250 10.825891
55.255 11.175189
55.260 11.346147
55.265 11.997971
55.270 12.625951
55.275 12.796493
55.280 12.284069
55.285 11.989482
55.290 11.666794
55.295 11.850598
55.300 11.336091
55.305 11.422548
55.310 11.460889
55.315 11.625799
55.320 11.483819
55.325 11.309435
55.330 11.279545
55.335 11.328003
55.340 11.282362
55.345 11.407362
55.350 11.334599
55.355 11.522178
55.360 11.797419
55.365 11.963024
55.370 11.79596
55.375 11.451857
55.380 11.379046
55.385 11.232665
55.390 11.110372
55.395 11.005479
55.400 10.459583
55.405 10.623847
55.410 10.793164
55.415 11.299215
55.420 11.6879
55.425 12.187748
55.430 12.104723
55.435 12.803729
55.440 13.12376
55.445 12.940718
55.450 12.516092
55.455 12.113729
55.460 11.65405
55.465 11.27234
55.470 10.735997
55.475 10.505807
55.480 11.044187
55.485 11.290207
55.490 11.661119
55.495 11.962749
55.500 12.433026
55.505 12.56942
55.510 12.325889
55.515 11.811906
55.520 11.596189
55.525 11.708019
55.530 11.340174
55.535 10.700434
55.540 10.369946
55.545 10.24954
55.550 10.486392
55.555 10.301596
55.560 9.720228
55.565 9.803709
55.570 10.586982
55.575 10.925375
55.580 10.816765
55.585 10.780441
55.590 11.237056
55.595 11.56763
55.600 11.548229
55.605 10.97479
55.610 11.347019
55.615 11.319387
55.620 11.064206
55.625 10.71576
55.630 10.755828
55.635 11.437536
55.640 11.449298
55.645 11.334789
55.650 11.638223
55.655 12.097999
55.660 12.315536
55.665 11.772449
55.670 11.118114
55.675 10.684146
55.680 10.338876
55.685 10.410844
55.690 10.35473
55.695 10.78131
55.700 11.320375
55.705 11.49041
55.710 11.996677
55.715 11.978992
55.720 11.667256
55.725 11.700801
55.730 11.551797
55.735 11.66861
55.740 11.661525
55.745 11.438612
55.750 11.597098
55.755 11.67382
55.760 11.31905
55.765 11.096121
55.770 10.891103
55.775 10.831036
55.780 10.977441
55.785 11.051692
55.790 11.146374
55.795 11.402495
55.800 11.331611
55.805 11.470302
55.810 11.426397
55.815 11.140648
55.820 11.16701
55.825 11.237394
55.830 11.461737
55.835 11.990342
55.840 11.703303
55.845 12.114322
55.850 12.251514
55.855 12.33169
55.860 12.253289
55.865 12.054221
55.870 11.598803
55.875 11.907346
55.880 11.884621
55.885 11.939129
55.890 11.779003
55.895 11.541066
55.900 11.385117
55.905 11.204483
55.910 10.80542
55.915 10.682007
55.920 10.89348
55.925 11.141536
55.930 11.266889
55.935 11.395729
55.940 11.679552
55.945 12.679306
55.950 13.49219
55.955 13.130463
55.960 13.485786
55.965 13.905315
55.970 14.346222
55.975 14.335184
55.980 13.357556
55.985 12.740087
55.990 12.314778
55.995 11.70395
56.000 11.29953
56.005 10.889783
56.010 11.023357
56.015 10.757611
56.020 10.773129
56.025 11.177528
56.030 11.343532
56.035 11.612543
56.040 11.485059
56.045 10.815358
56.050 10.93244
56.055 10.999362
56.060 10.909551
56.065 11.426949
56.070 11.200455
56.075 11.637301
56.080 11.822341
56.085 12.39022
56.090 12.722021
56.095 12.414132
56.100 11.82923
56.105 11.565362
56.110 11.260907
56.115 11.272394
56.120 10.835421
56.125 10.62491
56.130 10.520161
56.135 10.389791
56.140 10.672948
56.145 10.789324
56.150 11.254346
56.155 11.118983
56.160 11.066198
56.165 11.367312
56.170 11.837938
56.175 11.934587
56.180 11.993037
56.185 11.843359
56.190 12.003386
56.195 12.049134
56.200 11.781513
56.205 11.753146
56.210 11.97915
56.215 11.78019
56.220 11.939444
56.225 11.912327
56.230 11.778374
56.235 12.093083
56.240 12.360768
56.245 12.121596
56.250 11.992184
56.255 12.237199
56.260 12.578097
56.265 12.839416
56.270 12.312407
56.275 11.984748
56.280 12.132381
56.285 12.370911
56.290 12.238441
56.295 12.411523
56.300 12.890944
56.305 13.15521
56.310 13.043185
56.315 12.979423
56.320 13.047858
56.325 12.845004
56.330 12.690307
56.335 12.479281
56.340 12.406255
56.345 12.438745
56.350 12.397405
56.355 12.356633
56.360 12.279796
56.365 12.419116
56.370 12.721648
56.375 12.805173
56.380 12.430252
56.385 11.729543
56.390 11.767659
56.395 11.937123
56.400 11.663147
56.405 11.169785
56.410 11.069001
56.415 11.55373
56.420 12.581051
56.425 12.776757
56.430 12.597153
56.435 12.519865
56.440 12.611596
56.445 12.377815
56.450 12.299478
56.455 12.399534
56.460 11.645846
56.465 11.276802
56.470 11.072679
56.475 11.008346
56.480 11.626699
56.485 11.848177
56.490 11.858419
56.495 11.552778
56.500 11.930597
56.505 12.332509
56.510 12.767302
56.515 12.452039
56.520 11.885672
56.525 11.979293
56.530 12.555535
56.535 12.378613
56.540 12.186172
56.545 11.943966
56.550 12.163047
56.555 12.749475
56.560 12.842006
56.565 12.819522
56.570 12.956203
56.575 12.647924
56.580 12.377996
56.585 11.674577
56.590 11.19982
56.595 10.897956
56.600 10.87296
56.605 10.638028
56.610 10.903571
56.615 11.28423
56.620 11.573793
56.625 11.454683
56.630 11.364738
56.635 11.75527
56.640 12.5986
56.645 12.585197
56.650 12.295411
56.655 12.296634
56.660 12.527672
56.665 12.63986
56.670 12.299456
56.675 12.047363
56.680 12.516066
56.685 12.968866
56.690 12.860353
56.695 12.825617
56.700 12.803349
56.705 13.068885
56.710 12.543855
56.715 11.792651
56.720 11.344767
56.725 11.441916
56.730 11.6925
56.735 12.16899
56.740 11.729264
56.745 11.614384
56.750 11.957928
56.755 12.036339
56.760 11.974991
56.765 11.744319
56.770 11.667044
56.775 12.314523
56.780 13.164652
56.785 13.383459
56.790 13.729415
56.795 13.902874
56.800 14.018031
56.805 13.585213
56.810 13.138892
56.815 12.43535
56.820 12.550647
56.825 12.692131
56.830 13.027466
56.835 12.515661
56.840 12.747451
56.845 13.081705
56.850 13.482655
56.855 13.504636
56.860 13.23203
56.865 13.032327
56.870 13.285386
56.875 12.750434
56.880 12.480132
56.885 12.006916
56.890 11.790907
56.895 11.433925
56.900 11.140122
56.905 11.105988
56.910 11.149542
56.915 11.44599
56.920 11.497541
56.925 11.440964
56.930 11.66451
56.935 11.700539
56.940 12.176687
56.945 12.390252
56.950 12.02724
56.955 11.917989
56.960 12.561522
56.965 12.712367
56.970 12.618181
56.975 12.296519
56.980 12.07448
56.985 12.655021
56.990 12.693631
56.995 12.256539
57.000 12.443809
57.005 12.859232
57.010 12.811066
57.015 12.75614
57.020 12.284114
57.025 12.011307
57.030 11.707061
57.035 11.058835
57.040 10.363739
57.045 10.300733
57.050 10.687083
57.055 10.758018
57.060 10.937903
57.065 11.375709
57.070 11.661185
57.075 11.993877
57.080 11.778996
57.085 11.918037
57.090 12.488539
57.095 12.308309
57.100 12.123663
57.105 11.80057
57.110 11.968642
57.115 11.893953
57.120 11.540113
57.125 11.105946
57.130 11.164506
57.135 11.360046
57.140 11.339541
57.145 11.150668
57.150 11.508862
57.155 11.526889
57.160 11.932443
57.165 12.174305
57.170 12.009292
57.175 12.344779
57.180 12.44886
57.185 12.285177
57.190 12.292095
57.195 11.819687
57.200 11.884252
57.205 12.00639
57.210 12.061847
57.215 11.770252
57.220 11.392123
57.225 10.914863
57.230 10.709533
57.235 10.505461
57.240 10.625296
57.245 10.304227
57.250 10.457012
57.255 10.95467
57.260 10.993479
57.265 11.464258
57.270 11.567645
57.275 11.462873
57.280 12.063437
57.285 12.569749
57.290 12.498796
57.295 13.175557
57.300 13.046371
57.305 12.960336
57.310 13.261889
57.315 13.110701
57.320 12.375751
57.325 12.489018
57.330 12.330782
57.335 12.357574
57.340 12.222037
57.345 11.696928
57.350 11.55255
57.355 11.776411
57.360 11.354754
57.365 10.734956
57.370 10.425073
57.375 10.597017
57.380 10.629607
57.385 10.653776
57.390 10.499308
57.395 10.453874
57.400 10.764373
57.405 10.607059
57.410 10.358258
57.415 10.360977
57.420 10.366594
57.425 10.499033
57.430 10.944618
57.435 11.249877
57.440 11.533855
57.445 11.689487
57.450 11.84337
57.455 11.992803
57.460 12.629493
57.465 12.431149
57.470 12.514267
57.475 12.655174
57.480 12.526585
57.485 12.328727
57.490 12.126346
57.495 11.894041
57.500 11.898816
57.505 12.023289
57.510 11.89889
57.515 11.908827
57.520 12.201301
57.525 12.250425
57.530 12.179132
57.535 12.387848
57.540 12.464861
57.545 12.805328
57.550 12.685915
57.555 12.724141
57.560 12.757079
57.565 13.405385
57.570 13.158418
57.575 12.673597
57.580 12.242205
57.585 12.831119
57.590 13.40844
57.595 13.12635
57.600 12.577329
57.605 12.7903
57.610 13.336576
57.615 13.538716
57.620 13.049294
57.625 12.873801
57.630 12.516968
57.635 12.348621
57.640 11.916345
57.645 11.670253
57.650 11.912001
57.655 11.794977
57.660 11.757727
57.665 12.237494
57.670 12.687968
57.675 12.900921
57.680 12.922503
57.685 12.810534
57.690 12.670792
57.695 12.500708
57.700 12.392404
57.705 12.296247
57.710 12.147217
57.715 12.269513
57.720 12.105145
57.725 11.863636
57.730 11.689798
57.735 11.748774
57.740 12.361914
57.745 12.293451
57.750 12.359847
57.755 12.975699
57.760 13.177728
57.765 13.35254
57.770 13.013412
57.775 12.426571
57.780 12.40298
57.785 12.296398
57.790 12.0906
57.795 12.752162
57.800 12.953997
57.805 12.786279
57.810 12.908884
57.815 12.748629
57.820 12.30889
57.825 11.858333
57.830 11.268775
57.835 11.141154
57.840 11.728689
57.845 11.907691
57.850 12.292819
57.855 12.743161
57.860 13.063898
57.865 13.010261
57.870 13.237181
57.875 12.992345
57.880 13.099113
57.885 12.855807
57.890 12.441038
57.895 11.98429
57.900 11.756254
57.905 11.484383
57.910 11.809613
57.915 11.864461
57.920 11.692489
57.925 11.835202
57.930 11.916127
57.935 11.96312
57.940 11.832727
57.945 11.604949
57.950 11.487222
57.955 12.093559
57.960 12.176744
57.965 12.476515
57.970 12.701286
57.975 13.049494
57.980 12.819813
57.985 13.289932
57.990 13.210085
57.995 13.112299
58.000 13.08591
58.005 12.955886
58.010 12.855179
58.015 12.318095
58.020 11.748791
58.025 11.461018
58.030 11.861945
58.035 12.031768
58.040 12.183568
58.045 11.897367
58.050 12.045602
58.055 12.065528
58.060 12.17566
58.065 12.125178
58.070 12.196797
58.075 12.117233
58.080 12.854227
58.085 13.349718
58.090 13.481303
58.095 13.618557
58.100 13.61992
58.105 13.459621
58.110 13.290224
58.115 12.553668
58.120 12.54518
58.125 12.848325
58.130 12.739408
58.135 12.745523
58.140 13.014001
58.145 13.248178
58.150 13.01345
58.155 12.944413
58.160 12.396595
58.165 12.004115
58.170 11.579986
58.175 11.306953
58.180 10.87909
58.185 10.813588
58.190 10.463784
58.195 10.534222
58.200 11.012918
58.205 10.867687
58.210 11.190646
58.215 12.176593
58.220 12.807201
58.225 13.08624
58.230 12.988605
58.235 12.945168
58.240 13.237481
58.245 13.22558
58.250 12.840629
58.255 12.66337
58.260 12.966763
58.265 13.031186
58.270 13.15602
58.275 13.004698
58.280 12.764761
58.285 12.644843
58.290 12.516045
58.295 12.574002
58.300 12.843547
58.305 13.147681
58.310 12.986181
58.315 12.785976
58.320 12.947856
58.325 13.171197
58.330 12.802865
58.335 12.406804
58.340 12.316458
58.345 12.88751
58.350 13.572674
58.355 13.744982
58.360 14.072818
58.365 14.057519
58.370 14.483599
58.375 14.372782
58.380 13.899187
58.385 13.462141
58.390 13.058405
58.395 12.63486
58.400 12.9719
58.405 12.852541
58.410 13.048199
58.415 12.781199
58.420 13.486793
58.425 13.562099
58.430 13.602047
58.435 13.597537
58.440 13.442636
58.445 13.920012
58.450 14.488148
58.455 14.208126
58.460 14.491855
58.465 14.586312
58.470 14.691375
58.475 14.461237
58.480 13.9491
58.485 13.537843
58.490 13.667226
58.495 13.977716
58.500 14.40236
58.505 14.117358
58.510 14.385203
58.515 14.655663
58.520 15.291701
58.525 14.845008
58.530 14.043797
58.535 13.62202
58.540 13.675779
58.545 13.827457
58.550 13.627575
58.555 13.148381
58.560 13.69561
58.565 14.336699
58.570 14.328044
58.575 14.479279
58.580 14.242186
58.585 14.253752
58.590 13.76196
58.595 13.71609
58.600 13.485228
58.605 13.277161
58.610 13.357515
58.615 13.544733
58.620 13.697051
58.625 14.40774
58.630 14.271177
58.635 14.437345
58.640 14.729161
58.645 14.521182
58.650 14.463551
58.655 15.00681
58.660 15.113142
58.665 15.332007
58.670 15.465872
58.675 16.003141
58.680 16.444603
58.685 16.063475
58.690 15.601762
58.695 15.541122
58.700 15.043166
58.705 14.80506
58.710 14.363641
58.715 14.189212
58.720 14.37771
58.725 13.877194
58.730 13.629608
58.735 13.927409
58.740 14.118915
58.745 14.041042
58.750 14.300334
58.755 14.423994
58.760 14.949406
58.765 15.043077
58.770 15.185136
58.775 15.365549
58.780 15.185551
58.785 14.495443
58.790 14.600343
58.795 14.030479
58.800 14.22086
58.805 14.714844
58.810 14.407201
58.815 14.944355
58.820 15.417823
58.825 15.61204
58.830 15.652742
58.835 15.115287
58.840 14.399708
58.845 14.433574
58.850 13.906157
58.855 13.636189
58.860 13.404135
58.865 13.897592
58.870 14.181669
58.875 13.980763
58.880 13.964914
58.885 14.576328
58.890 14.911559
58.895 15.499195
58.900 15.913476
58.905 15.933399
58.910 16.747934
58.915 17.135918
58.920 16.693258
58.925 16.596998
58.930 16.186695
58.935 15.975883
58.940 16.01981
58.945 15.4674
58.950 14.968265
58.955 14.670437
58.960 14.437245
58.965 14.471413
58.970 14.169562
58.975 14.047541
58.980 14.513248
58.985 15.082412
58.990 15.676186
58.995 15.299397
59.000 15.124437
59.005 15.350693
59.010 15.377852
59.015 15.349523
59.020 15.277525
59.025 15.184608
59.030 15.550416
59.035 15.408234
59.040 15.25453
59.045 15.508557
59.050 15.143798
59.055 15.138692
59.060 15.226726
59.065 15.309323
59.070 15.203756
59.075 15.268636
59.080 15.395496
59.085 15.392608
59.090 15.104323
59.095 14.774574
59.100 14.20965
59.105 14.197667
59.110 13.981913
59.115 13.197052
59.120 13.247914
59.125 13.736958
59.130 14.093665
59.135 14.566043
59.140 14.518664
59.145 14.496448
59.150 14.685379
59.155 14.695974
59.160 14.358989
59.165 14.369166
59.170 14.311188
59.175 14.323075
59.180 14.291452
59.185 14.066045
59.190 13.644407
59.195 13.438835
59.200 13.315536
59.205 13.247983
59.210 13.53925
59.215 13.377975
59.220 13.658198
59.225 14.017015
59.230 14.370061
59.235 13.99052
59.240 14.485659
59.245 14.615471
59.250 14.282516
59.255 14.45471
59.260 14.230868
59.265 13.984193
59.270 14.448296
59.275 14.069278
59.280 13.686016
59.285 13.830053
59.290 13.272712
59.295 12.923402
59.300 12.793699
59.305 12.694731
59.310 12.507723
59.315 12.703004
59.320 13.044998
59.325 13.296997
59.330 14.236934
59.335 15.426541
59.340 15.838308
59.345 16.30715
59.350 16.664232
59.355 16.563755
59.360 16.610992
59.365 16.081867
59.370 15.45803
59.375 14.883105
59.380 14.871491
59.385 14.619737
59.390 15.232232
59.395 15.427422
59.400 15.178175
59.405 14.602262
59.410 15.034758
59.415 14.84467
59.420 15.016046
59.425 14.68492
59.430 14.853778
59.435 15.373535
59.440 15.332792
59.445 15.052522
59.450 15.336214
59.455 14.896392
59.460 14.29011
59.465 13.73896
59.470 13.04083
59.475 12.993882
59.480 12.645557
59.485 12.364188
59.490 12.822759
59.495 13.171612
59.500 13.684457
59.505 14.229184
59.510 14.42898
59.515 14.685331
59.520 14.551158
59.525 14.341236
59.530 14.268725
59.535 14.255007
59.540 14.383531
59.545 14.600177
59.550 14.765347
59.555 14.751619
59.560 14.901281
59.565 14.337776
59.570 13.673524
59.575 13.430108
59.580 13.55316
59.585 13.496567
59.590 13.478752
59.595 13.607222
59.600 14.231333
59.605 14.801162
59.610 14.701612
59.615 14.964305
59.620 14.946257
59.625 15.059573
59.630 15.276461
59.635 15.725256
59.640 15.551507
59.645 15.42793
59.650 15.624554
59.655 16.309572
59.660 16.584099
59.665 16.311653
59.670 15.823852
59.675 16.088993
59.680 15.68383
59.685 14.916226
59.690 14.953195
59.695 14.930928
59.700 15.862255
59.705 16.066149
59.710 16.521727
59.715 16.708632
59.720 16.495085
59.725 16.160851
59.730 16.25102
59.735 16.179558
59.740 16.196844
59.745 16.439611
59.750 16.72423
59.755 16.882101
59.760 16.571493
59.765 16.116093
59.770 15.6981
59.775 15.655094
59.780 15.095909
59.785 14.67635
59.790 14.638498
59.795 14.566689
59.800 14.851384
59.805 14.511469
59.810 14.390703
59.815 15.118537
59.820 16.322771
59.825 16.588484
59.830 16.763687
59.835 16.6084
59.840 16.54179
59.845 16.349516
59.850 15.502643
59.855 14.820328
59.860 14.684114
59.865 14.594626
59.870 14.840045
59.875 14.88506
59.880 15.036652
59.885 15.253885
59.890 14.934243
59.895 14.874918
59.900 14.883499
59.905 14.585439
59.910 14.055091
59.915 13.913248
59.920 14.165881
59.925 14.76699
59.930 15.065392
59.935 15.296521
59.940 15.374469
59.945 15.570702
59.950 15.652646
59.955 15.054251
59.960 14.598592
59.965 14.352477
59.970 13.86748
59.975 13.65021
59.980 13.507308
59.985 13.37663
59.990 13.842209
59.995 13.821633
60.000 13.851182
60.005 14.111416
60.010 14.41084
60.015 14.182272
60.020 14.26118
60.025 14.09725
60.030 14.052144
60.035 14.131101
60.040 14.61677
60.045 14.863132
60.050 15.25511
60.055 15.428868
60.060 15.195299
60.065 15.176108
60.070 14.750438
60.075 14.331873
60.080 14.292569
60.085 14.474558
60.090 14.317362
60.095 14.359575
60.100 14.476298
60.105 14.253514
60.110 14.036645
60.115 13.956672
60.120 13.817848
60.125 14.031902
60.130 14.067869
60.135 14.019445
60.140 14.244676
60.145 14.371812
60.150 14.824178
60.155 15.001672
60.160 14.720781
60.165 14.685596
60.170 14.98514
60.175 14.814281
60.180 14.339561
60.185 13.559226
60.190 13.225748
60.195 13.073428
60.200 13.38777
60.205 13.448428
60.210 13.310129
60.215 13.370528
60.220 13.708614
60.225 13.66436
60.230 13.826095
60.235 13.817767
60.240 13.527092
60.245 13.705282
60.250 13.700806
60.255 13.428764
60.260 13.707759
60.265 13.633421
60.270 13.356702
60.275 13.131417
60.280 13.367112
60.285 13.874768
60.290 14.005621
60.295 13.739059
60.300 13.873496
60.305 13.770333
60.310 13.762688
60.315 13.472578
60.320 13.089175
60.325 13.72326
60.330 13.557597
60.335 13.338211
60.340 13.332022
60.345 13.802496
60.350 14.06664
60.355 13.771806
60.360 13.370184
60.365 14.004283
60.370 14.057587
60.375 14.257657
60.380 14.438078
60.385 14.595927
60.390 14.947741
60.395 14.765294
60.400 14.162714
60.405 14.065003
60.410 14.312604
60.415 14.106443
60.420 13.868796
60.425 13.812666
60.430 13.932264
60.435 14.056117
60.440 14.385516
60.445 14.264705
60.450 13.781409
60.455 13.910994
60.460 13.789412
60.465 13.89828
60.470 13.549576
60.475 13.170611
60.480 13.284309
60.485 13.656211
60.490 13.478069
60.495 13.239101
60.500 13.255178
60.505 13.588242
60.510 13.383681
60.515 12.799106
60.520 12.41015
60.525 12.44381
60.530 12.79903
60.535 12.678269
60.540 12.733513
60.545 12.648953
60.550 13.166466
60.555 13.164609
60.560 13.223166
60.565 12.962539
60.570 12.780575
60.575 12.52406
60.580 13.260856
60.585 13.429282
60.590 13.570495
60.595 13.355783
60.600 13.53981
60.605 13.622637
60.610 14.014517
60.615 13.802711
60.620 13.957808
60.625 13.921957
60.630 13.666497
60.635 13.716289
60.640 13.245529
60.645 13.007102
60.650 13.069455
60.655 12.618986
60.660 12.594364
60.665 12.7953
60.670 12.715134
60.675 13.210961
60.680 13.074352
60.685 12.433067
60.690 12.538166
60.695 12.487068
60.700 12.443184
60.705 12.391852
60.710 12.233599
60.715 11.748507
60.720 11.989124
60.725 11.998762
60.730 12.195601
60.735 12.252297
60.740 12.213114
60.745 12.321355
60.750 12.889879
60.755 12.948434
60.760 13.044578
60.765 13.352242
60.770 13.858985
60.775 13.930867
60.780 13.764754
60.785 13.555032
60.790 13.181849
60.795 13.218973
60.800 13.047023
60.805 12.484182
60.810 12.360349
60.815 12.449083
60.820 12.330606
60.825 12.749637
60.830 12.582454
60.835 12.501345
60.840 12.717502
60.845 12.879197
60.850 13.15524
60.855 13.88366
60.860 13.585303
60.865 13.578429
60.870 13.791489
60.875 13.661384
60.880 13.273183
60.885 12.925227
60.890 12.627514
60.895 13.171742
60.900 12.891601
60.905 12.421634
60.910 12.342973
60.915 12.47779
60.920 12.568887
60.925 12.230098
60.930 12.066231
60.935 12.197808
60.940 12.091168
60.945 11.958445
60.950 12.129191
60.955 12.05761
60.960 12.00473
60.965 11.874056
60.970 12.266636
60.975 12.568673
60.980 12.796206
60.985 12.493608
60.990 12.26004
60.995 12.16361
61.000 12.232078
61.005 12.471657
61.010 12.479052
61.015 12.510706
61.020 12.234632
61.025 12.440223
61.030 12.23978
61.035 12.149257
61.040 11.893247
61.045 11.663061
61.050 11.421121
61.055 11.697134
61.060 12.032333
61.065 12.715539
61.070 12.354587
61.075 12.249122
61.080 12.675204
61.085 12.853478
61.090 12.838455
61.095 12.241807
61.100 12.119824
61.105 12.683582
61.110 12.463603
61.115 12.219889
61.120 12.278772
61.125 12.441987
61.130 12.691997
61.135 12.494966
61.140 12.509599
61.145 12.886624
61.150 12.809223
61.155 12.637449
61.160 12.301643
61.165 12.356044
61.170 12.441486
61.175 12.198613
61.180 11.451643
61.185 11.725381
61.190 12.019677
61.195 12.27499
61.200 12.66585
61.205 13.129466
61.210 13.217932
61.215 13.429403
61.220 13.500264
61.225 13.570074
61.230 13.707997
61.235 12.629249
61.240 12.163239
61.245 12.341047
61.250 12.725238
61.255 12.967933
61.260 12.749201
61.265 12.726234
61.270 13.494556
61.275 13.840135
61.280 13.755484
61.285 13.226762
61.290 12.979922
61.295 12.99481
61.300 13.201587
61.305 13.411404
61.310 12.872206
61.315 13.00372
61.320 13.307582
61.325 13.097878
61.330 13.560529
61.335 13.216881
61.340 12.785285
61.345 12.923823
61.350 13.327757
61.355 13.449696
61.360 13.648974
61.365 13.282217
61.370 13.183295
61.375 13.320378
61.380 13.270515
61.385 12.852587
61.390 12.782681
61.395 12.749484
61.400 13.042958
61.405 13.139498
61.410 13.261385
61.415 13.265362
61.420 13.179081
61.425 13.369332
61.430 13.459495
61.435 13.481483
61.440 13.580162
61.445 13.59828
61.450 13.958661
61.455 14.391338
61.460 14.39346
61.465 14.27417
61.470 14.134291
61.475 14.320136
61.480 14.107564
61.485 13.69628
61.490 13.281856
61.495 12.68722
61.500 12.243705
61.505 11.918329
61.510 11.478009
61.515 11.759225
61.520 11.455663
61.525 11.873331
61.530 12.520618
61.535 12.903146
61.540 13.236959
61.545 13.693305
61.550 14.3127
61.555 15.009665
61.560 14.764131
61.565 14.517294
61.570 14.4164
61.575 14.447885
61.580 14.094172
61.585 13.231785
61.590 13.011534
61.595 13.224499
61.600 13.153514
61.605 13.427239
61.610 13.500748
61.615 13.516034
61.620 13.376143
61.625 13.30015
61.630 13.02222
61.635 12.923586
61.640 12.46953
61.645 11.856182
61.650 12.234404
61.655 12.541977
61.660 13.048349
61.665 13.274498
61.670 13.743503
61.675 14.09674
61.680 14.465407
61.685 14.350392
61.690 14.765244
61.695 14.143822
61.700 13.542095
61.705 13.11434
61.710 13.028597
61.715 13.027338
61.720 12.557726
61.725 11.786971
61.730 12.031045
61.735 12.351739
61.740 12.189866
61.745 11.827744
61.750 11.991677
61.755 12.695941
61.760 12.975772
61.765 12.400347
61.770 12.609382
61.775 12.903658
61.780 12.919015
61.785 12.808688
61.790 12.421785
61.795 12.309205
61.800 12.61497
61.805 12.380651
61.810 12.761122
61.815 12.7862
61.820 13.050634
61.825 13.276741
61.830 13.44748
61.835 13.57454
61.840 13.515396
61.845 13.205064
61.850 13.404484
61.855 12.841077
61.860 12.386987
61.865 12.246905
61.870 12.533128
61.875 12.716475
61.880 12.871746
61.885 12.9958
61.890 13.708137
61.895 14.442364
61.900 14.860645
61.905 14.698032
61.910 14.430701
61.915 14.001629
61.920 13.616977
61.925 13.130145
61.930 12.522437
61.935 12.505928
61.940 12.153952
61.945 11.930062
61.950 12.384295
61.955 12.755144
61.960 12.491566
61.965 12.936915
61.970 13.03544
61.975 13.583119
61.980 13.787013
61.985 13.631739
61.990 13.173592
61.995 13.319343
62.000 12.579372
62.005 12.448628
62.010 12.764474
62.015 12.95205
62.020 12.609029
62.025 12.742552
62.030 12.514788
62.035 12.790689
62.040 12.522044
62.045 12.176109
62.050 12.739949
62.055 13.201672
62.060 13.566212
62.065 14.409688
62.070 14.599515
62.075 14.5855
62.080 14.239114
62.085 13.404306
62.090 13.190643
62.095 12.913463
62.100 12.321578
62.105 12.943027
62.110 13.122923
62.115 13.287587
62.120 13.695313
62.125 13.932121
62.130 13.8874
62.135 13.809524
62.140 13.629583
62.145 13.63113
62.150 13.654112
62.155 13.237379
62.160 13.193602
62.165 13.423279
62.170 13.71308
62.175 13.518792
62.180 13.135866
62.185 13.248116
62.190 13.382677
62.195 13.426231
62.200 13.133479
62.205 12.452758
62.210 12.482762
62.215 12.718827
62.220 12.188628
62.225 12.16988
62.230 12.027298
62.235 12.203661
62.240 12.634014
62.245 12.906024
62.250 13.422221
62.255 13.75798
62.260 13.548891
62.265 13.434846
62.270 13.529029
62.275 13.638812
62.280 13.538907
62.285 13.209989
62.290 13.173715
62.295 13.487498
62.300 13.811547
62.305 13.412631
62.310 13.090674
62.315 12.757247
62.320 12.510547
62.325 12.644494
62.330 12.829856
62.335 13.132786
62.340 13.143551
62.345 13.520931
62.350 13.809038
62.355 13.875247
62.360 13.683505
62.365 13.508134
62.370 13.181599
62.375 13.495254
62.380 13.715573
62.385 13.822255
62.390 14.006072
62.395 14.229973
62.400 14.498195
62.405 14.808189
62.410 15.143884
62.415 14.979576
62.420 14.895328
62.425 14.579395
62.430 14.826978
62.435 14.512671
62.440 14.225434
62.445 13.855026
62.450 13.926566
62.455 14.566866
62.460 15.184746
62.465 15.243516
62.470 15.358028
62.475 15.598356
62.480 15.906645
62.485 15.710495
62.490 15.194826
62.495 15.33869
62.500 15.325913
62.505 15.001178
62.510 14.353586
62.515 13.913128
62.520 14.196595
62.525 14.093093
62.530 13.48406
62.535 12.973489
62.540 13.231972
62.545 14.020845
62.550 14.13932
62.555 13.947051
62.560 13.45884
62.565 13.692545
62.570 13.946347
62.575 13.232552
62.580 12.629336
62.585 12.084922
62.590 12.071417
62.595 12.174341
62.600 11.823766
62.605 11.805801
62.610 12.440054
62.615 12.725245
62.620 13.767648
62.625 13.915847
62.630 14.38289
62.635 14.46673
62.640 14.348665
62.645 14.431913
62.650 14.622296
62.655 13.976213
62.660 13.740797
62.665 13.591858
62.670 14.082582
62.675 14.400413
62.680 13.945111
62.685 13.426991
62.690 13.449574
62.695 13.229903
62.700 12.973693
62.705 13.086059
62.710 13.642568
62.715 14.141296
62.720 14.663246
62.725 14.818748
62.730 15.303044
62.735 15.305539
62.740 14.835429
62.745 14.462157
62.750 14.477676
62.755 14.315703
62.760 14.38586
62.765 15.034761
62.770 15.234155
62.775 15.209473
62.780 14.992035
62.785 15.186502
62.790 15.444077
62.795 15.107301
62.800 14.360382
62.805 14.202773
62.810 14.273264
62.815 14.550132
62.820 14.860145
62.825 14.620675
62.830 14.084682
62.835 14.280522
62.840 14.440706
62.845 14.504172
62.850 14.334332
62.855 13.695246
62.860 13.427044
62.865 13.66903
62.870 13.534432
62.875 13.691778
62.880 13.700252
62.885 13.153982
62.890 12.964332
62.895 13.079403
62.900 13.358708
62.905 13.913734
62.910 13.781618
62.915 13.705187
62.920 13.805679
62.925 13.761006
62.930 13.485443
62.935 13.571218
62.940 13.564144
62.945 13.432154
62.950 13.392542
62.955 13.666478
62.960 13.891925
62.965 14.227709
62.970 14.060616
62.975 13.794984
62.980 13.441241
62.985 13.231756
62.990 12.927737
62.995 12.43339
63.000 12.456986
63.005 12.404041
63.010 12.474072
63.015 12.942187
63.020 13.016747
63.025 13.490601
63.030 14.069492
63.035 14.431642
63.040 14.545458
63.045 14.360144
63.050 13.687009
63.055 13.680638
63.060 13.607703
63.065 13.429845
63.070 12.702425
63.075 12.191916
63.080 12.16999
63.085 12.586681
63.090 12.791346
63.095 12.514916
63.100 12.247133
63.105 12.251057
63.110 12.249267
63.115 12.344712
63.120 12.168536
63.125 11.949366
63.130 11.838731
63.135 11.964307
63.140 12.403141
63.145 12.574794
63.150 12.688665
63.155 12.597545
63.160 12.947933
63.165 13.317401
63.170 13.546824
63.175 13.888221
63.180 14.32415
63.185 14.729025
63.190 14.658668
63.195 14.321187
63.200 14.517932
63.205 14.178989
63.210 13.284111
63.215 12.421283
63.220 11.94055
63.225 12.313156
63.230 12.469275
63.235 12.284535
63.240 12.661817
63.245 12.763309
63.250 13.142495
63.255 13.483958
63.260 13.561383
63.265 13.533457
63.270 13.409855
63.275 13.527398
63.280 14.311982
63.285 14.935555
63.290 14.533735
63.295 13.993279
63.300 13.866568
63.305 14.138858
63.310 13.892611
63.315 13.283393
63.320 12.936634
63.325 13.499448
63.330 13.780559
63.335 13.489067
63.340 12.728666
63.345 12.714015
63.350 13.067995
63.355 12.849676
63.360 12.699265
63.365 12.661965
63.370 13.235753
63.375 13.772264
63.380 13.878546
63.385 13.350771
63.390 12.905684
63.395 12.946941
63.400 13.181707
63.405 12.610924
63.410 12.907599
63.415 13.147219
63.420 13.570786
63.425 13.931921
63.430 13.701243
63.435 13.545228
63.440 13.519184
63.445 13.154692
63.450 12.93696
63.455 12.648193
63.460 12.279791
63.465 11.961185
63.470 11.819828
63.475 12.155756
63.480 12.104113
63.485 12.539227
63.490 12.566338
63.495 12.907663
63.500 13.389869
63.505 13.446689
63.510 13.679914
63.515 13.438446
63.520 12.794426
63.525 13.024286
63.530 13.125803
63.535 13.277056
63.540 13.247618
63.545 12.857703
63.550 12.584305
63.555 12.601389
63.560 12.771739
63.565 12.559787
63.570 12.300837
63.575 12.273026
63.580 12.540273
63.585 13.081309
63.590 13.039974
63.595 13.06954
63.600 13.424656
63.605 13.66584
63.610 13.720508
63.615 13.773194
63.620 13.923122
63.625 13.921239
63.630 13.285139
63.635 13.353178
63.640 13.402377
63.645 13.792213
63.650 13.590173
63.655 13.419679
63.660 13.659003
63.665 14.044795
63.670 13.78935
63.675 13.692944
63.680 13.869815
63.685 13.82457
63.690 13.760815
63.695 14.006063
63.700 14.425426
63.705 14.820313
63.710 15.231376
63.715 14.957935
63.720 15.407995
63.725 15.462908
63.730 15.289636
63.735 14.896161
63.740 14.7837
63.745 14.112041
63.750 14.12782
63.755 14.316184
63.760 14.271578
63.765 14.094212
63.770 13.941811
63.775 13.898587
63.780 14.252111
63.785 14.118126
63.790 14.086435
63.795 14.479191
63.800 14.149364
63.805 14.481563
63.810 14.319704
63.815 14.427884
63.820 14.145535
63.825 13.759341
63.830 13.555767
63.835 13.936024
63.840 13.801424
63.845 14.060108
63.850 13.982497
63.855 13.820537
63.860 14.214072
63.865 14.563663
63.870 14.769924
63.875 14.553845
63.880 14.287455
63.885 14.170872
63.890 14.298232
63.895 13.795571
63.900 13.572381
63.905 13.086228
63.910 12.767764
63.915 12.624927
63.920 13.350882
63.925 13.828271
63.930 13.80755
63.935 13.933405
63.940 13.923548
63.945 14.117313
63.950 13.918172
63.955 13.525186
63.960 12.891801
63.965 13.095675
63.970 13.017382
63.975 12.758313
63.980 12.70407
63.985 12.739284
63.990 13.294044
63.995 13.757756
64.000 14.094333
64.005 14.030543
64.010 14.689669
64.015 14.735683
64.020 15.065834
64.025 14.682741
64.030 14.301465
64.035 14.031771
64.040 14.330496
64.045 14.118201
64.050 14.312321
64.055 13.917967
64.060 13.569293
64.065 13.95725
64.070 13.811864
64.075 13.843357
64.080 13.926654
64.085 14.052019
64.090 14.333665
64.095 14.536918
64.100 14.148783
64.105 13.830046
64.110 13.482813
64.115 13.791492
64.120 13.957129
64.125 13.882337
64.130 14.1167
64.135 14.188384
64.140 14.490629
64.145 14.837691
64.150 14.705326
64.155 14.457968
64.160 14.265666
64.165 14.008558
64.170 14.491111
64.175 14.516621
64.180 14.241161
64.185 14.130584
64.190 14.588582
64.195 14.402531
64.200 14.460255
64.205 13.974683
64.210 13.951477
64.215 13.874879
64.220 13.759451
64.225 13.298864
64.230 14.158797
64.235 14.387138
64.240 14.371656
64.245 14.384755
64.250 14.508988
64.255 15.497929
64.260 16.040003
64.265 15.443779
64.270 15.45406
64.275 15.844893
64.280 15.919102
64.285 15.443696
64.290 14.559115
64.295 14.317839
64.300 14.183161
64.305 13.70215
64.310 13.450191
64.315 13.681452
64.320 14.097993
64.325 14.181145
64.330 14.425605
64.335 14.911508
64.340 15.343184
64.345 15.158019
64.350 15.207433
64.355 15.074425
64.360 15.001733
64.365 14.790389
64.370 14.320974
64.375 14.065735
64.380 14.282566
64.385 14.534341
64.390 14.477262
64.395 14.39843
64.400 14.807679
64.405 15.021774
64.410 15.059464
64.415 14.823989
64.420 14.824954
64.425 14.889762
64.430 15.197908
64.435 14.902665
64.440 15.250502
64.445 15.714336
64.450 15.856245
64.455 15.769823
64.460 15.871447
64.465 15.901666
64.470 16.530178
64.475 16.927235
64.480 16.876141
64.485 17.041481
64.490 17.296335
64.495 17.607765
64.500 17.64175
64.505 17.166731
64.510 16.986336
64.515 17.230532
64.520 17.337416
64.525 16.792759
64.530 16.196098
64.535 15.500538
64.540 14.803747
64.545 14.585567
64.550 14.161109
64.555 14.042312
64.560 14.318136
64.565 14.475602
64.570 14.967432
64.575 15.372658
64.580 15.051976
64.585 15.168182
64.590 15.220175
64.595 15.667548
64.600 15.640874
64.605 15.573955
64.610 16.005644
64.615 16.795078
64.620 17.410141
64.625 17.627329
64.630 16.955528
64.635 17.095655
64.640 17.204119
64.645 16.816811
64.650 16.420479
64.655 16.482267
64.660 16.636707
64.665 17.291964
64.670 17.471235
64.675 16.893169
64.680 17.108686
64.685 17.291035
64.690 17.131405
64.695 16.592743
64.700 16.318487
64.705 16.08037
64.710 16.672306
64.715 17.162214
64.720 17.378813
64.725 17.305052
64.730 17.315365
64.735 17.454174
64.740 17.33279
64.745 17.118702
64.750 16.834412
64.755 16.036037
64.760 15.849065
64.765 15.952943
64.770 16.073282
64.775 16.381039
64.780 16.575222
64.785 16.758532
64.790 17.653622
64.795 18.069338
64.800 18.501371
64.805 18.302832
64.810 18.084303
64.815 18.609592
64.820 19.22397
64.825 19.261539
64.830 19.252459
64.835 18.990143
64.840 19.30583
64.845 19.662163
64.850 19.047586
64.855 18.138065
64.860 17.998713
64.865 18.171648
64.870 18.201527
64.875 18.516527
64.880 18.707884
64.885 18.67823
64.890 18.631126
64.895 19.004515
64.900 19.09671
64.905 19.06658
64.910 18.844864
64.915 18.626348
64.920 18.932598
64.925 19.388361
64.930 18.96129
64.935 19.187527
64.940 19.59362
64.945 19.130999
64.950 18.939402
64.955 19.462378
64.960 20.048658
64.965 20.203522
64.970 20.126669
64.975 20.857637
64.980 22.107681
64.985 22.599026
64.990 22.308624
64.995 21.737257
65.000 21.695993
65.005 21.653002
65.010 20.940594
65.015 20.534521
65.020 21.035555
65.025 20.87244
65.030 20.970888
65.035 21.111273
65.040 20.932871
65.045 20.663677
65.050 20.363956
65.055 20.822504
65.060 21.27907
65.065 21.05105
65.070 21.273491
65.075 21.569695
65.080 21.872942
65.085 21.857445
65.090 21.016237
65.095 21.040115
65.100 20.553141
65.105 20.204016
65.110 20.642195
65.115 20.992992
65.120 21.672491
65.125 22.052887
65.130 22.298916
65.135 23.067989
65.140 23.105688
65.145 22.583683
65.150 22.510506
65.155 22.333241
65.160 21.861868
65.165 22.165918
65.170 22.2521
65.175 21.826424
65.180 21.79109
65.185 21.951956
65.190 21.637062
65.195 20.887068
65.200 20.474493
65.205 20.994574
65.210 21.24361
65.215 20.630808
65.220 20.498882
65.225 20.545935
65.230 20.589109
65.235 20.193283
65.240 19.762182
65.245 19.553688
65.250 19.741329
65.255 19.641062
65.260 19.570827
65.265 20.292532
65.270 20.477131
65.275 20.725283
65.280 20.953388
65.285 20.659794
65.290 20.522913
65.295 20.117147
65.300 19.363365
65.305 19.179169
65.310 18.398361
65.315 18.398293
65.320 18.827221
65.325 19.061459
65.330 19.334267
65.335 19.305752
65.340 19.654642
65.345 19.92417
65.350 19.834476
65.355 20.081673
65.360 20.060457
65.365 19.923588
65.370 20.226753
65.375 19.46299
65.380 19.224339
65.385 18.754669
65.390 18.025953
65.395 17.86594
65.400 17.530457
65.405 16.833605
65.410 16.816246
65.415 16.79167
65.420 16.861156
65.425 17.186836
65.430 17.239794
65.435 17.372192
65.440 17.670675
65.445 18.120911
65.450 18.147528
65.455 17.806057
65.460 17.670244
65.465 17.851313
65.470 18.069021
65.475 17.861475
65.480 17.9298
65.485 17.899714
65.490 17.770687
65.495 17.466444
65.500 17.525164
65.505 17.063601
65.510 16.862783
65.515 16.157495
65.520 16.148403
65.525 16.544195
65.530 16.06472
65.535 15.463513
65.540 16.005243
65.545 16.426682
65.550 16.716335
65.555 16.763985
65.560 16.775955
65.565 17.42631
65.570 18.253599
65.575 18.468559
65.580 19.1493
65.585 19.354017
65.590 19.436899
65.595 19.341368
65.600 18.832775
65.605 18.911377
65.610 18.90152
65.615 18.033112
65.620 17.815914
65.625 17.790031
65.630 18.015028
65.635 18.167498
65.640 17.639332
65.645 17.709658
65.650 17.886387
65.655 17.454168
65.660 17.386879
65.665 17.370783
65.670 17.46649
65.675 18.075705
65.680 17.843506
65.685 18.022303
65.690 18.774689
65.695 18.815624
65.700 19.247965
65.705 19.733856
65.710 19.75753
65.715 19.564985
65.720 19.497753
65.725 19.641106
65.730 20.034494
65.735 19.842199
65.740 19.503647
65.745 19.187754
65.750 19.61001
65.755 19.775795
65.760 19.557089
65.765 19.041481
65.770 18.685219
65.775 18.726679
65.780 18.555532
65.785 18.537012
65.790 18.564142
65.795 18.548523
65.800 18.648001
65.805 19.335257
65.810 19.644165
65.815 19.744183
65.820 19.361326
65.825 19.050636
65.830 19.217653
65.835 19.232183
65.840 18.873699
65.845 18.481224
65.850 18.755184
65.855 19.111767
65.860 19.65027
65.865 19.881905
65.870 20.186378
65.875 20.094416
65.880 20.417913
65.885 20.826048
65.890 21.158714
65.895 21.451208
65.900 21.586855
65.905 21.710529
65.910 21.5329
65.915 21.5734
65.920 21.522055
65.925 21.215208
65.930 20.949263
65.935 20.869209
65.940 21.263874
65.945 21.678829
65.950 21.881374
65.955 22.01379
65.960 22.52969
65.965 22.892115
65.970 22.802727
65.975 22.429388
65.980 22.073648
65.985 21.915949
65.990 22.03367
65.995 22.245127
66.000 22.108154
66.005 22.285719
66.010 22.131422
66.015 22.479843
66.020 22.496859
66.025 22.175632
66.030 21.289255
66.035 21.159946
66.040 21.33654
66.045 21.689516
66.050 22.199362
66.055 22.694988
66.060 23.266537
66.065 23.3466
66.070 22.998787
66.075 23.314062
66.080 23.380789
66.085 22.877947
66.090 22.258345
66.095 22.308191
66.100 22.528831
66.105 23.444979
66.110 23.000574
66.115 22.638597
66.120 22.253307
66.125 22.273092
66.130 22.163469
66.135 22.148611
66.140 22.015976
66.145 22.191292
66.150 22.094223
66.155 22.621044
66.160 22.854992
66.165 22.986681
66.170 22.920153
66.175 22.84086
66.180 22.710815
66.185 22.96843
66.190 23.05562
66.195 22.937256
66.200 22.515873
66.205 22.431482
66.210 22.798868
66.215 22.734203
66.220 22.389805
66.225 22.449118
66.230 23.054367
66.235 23.400944
66.240 23.202978
66.245 23.16054
66.250 23.670387
66.255 23.507473
66.260 23.097401
66.265 23.203058
66.270 23.975512
66.275 24.220451
66.280 23.649454
66.285 23.474319
66.290 24.151075
66.295 24.263153
66.300 23.606859
66.305 23.392042
66.310 23.249714
66.315 23.93944
66.320 24.270382
66.325 23.91247
66.330 23.61204
66.335 23.608862
66.340 22.883736
66.345 22.650877
66.350 21.565697
66.355 21.049673
66.360 21.25061
66.365 21.41107
66.370 21.036289
66.375 20.623688
66.380 20.642008
66.385 21.285769
66.390 21.443762
66.395 21.406187
66.400 21.440823
66.405 21.823698
66.410 21.822779
66.415 21.85696
66.420 21.752327
66.425 21.334295
66.430 21.268518
66.435 21.012051
66.440 20.323627
66.445 19.99551
66.450 19.689766
66.455 19.173254
66.460 19.485899
66.465 19.046783
66.470 19.171974
66.475 19.309284
66.480 19.384571
66.485 19.284212
66.490 19.783382
66.495 19.390841
66.500 19.386549
66.505 19.517126
66.510 19.929823
66.515 19.390606
66.520 19.368814
66.525 19.031286
66.530 18.819004
66.535 18.734133
66.540 18.123606
66.545 17.798531
66.550 17.842163
66.555 17.767984
66.560 17.439606
66.565 17.770655
66.570 17.919159
66.575 18.22817
66.580 17.893749
66.585 17.73423
66.590 17.646448
66.595 18.0023
66.600 17.700039
66.605 17.570435
66.610 17.23329
66.615 17.704554
66.620 18.353888
66.625 18.481281
66.630 18.061239
66.635 17.882681
66.640 17.684256
66.645 17.283884
66.650 16.725601
66.655 16.682053
66.660 16.177162
66.665 15.694171
66.670 15.474537
66.675 15.465215
66.680 15.664738
66.685 15.373511
66.690 14.8338
66.695 14.800089
66.700 14.979483
66.705 15.426336
66.710 15.705414
66.715 15.094287
66.720 15.245769
66.725 15.304477
66.730 14.941084
66.735 14.777048
66.740 14.365362
66.745 14.104476
66.750 14.602615
66.755 14.328912
66.760 14.271836
66.765 14.889371
66.770 15.18962
66.775 14.925405
66.780 14.939246
66.785 14.862927
66.790 14.782996
66.795 14.589017
66.800 14.556893
66.805 14.718926
66.810 15.145165
66.815 15.310141
66.820 15.581315
66.825 16.060678
66.830 16.515175
66.835 16.486511
66.840 16.421217
66.845 15.975768
66.850 15.737436
66.855 15.487275
66.860 15.582007
66.865 15.379651
66.870 14.855285
66.875 14.544242
66.880 14.234245
66.885 14.246683
66.890 13.95351
66.895 13.956514
66.900 13.597552
66.905 13.712496
66.910 13.952412
66.915 14.42387
66.920 14.861249
66.925 15.432619
66.930 15.262043
66.935 15.916873
66.940 15.779169
66.945 15.604616
66.950 15.409506
66.955 14.707705
66.960 14.382674
66.965 14.163246
66.970 13.805728
66.975 13.790803
66.980 13.995212
66.985 14.217767
66.990 14.529592
66.995 14.619445
67.000 14.723851
67.005 14.873738
67.010 14.723495
67.015 14.486618
67.020 14.23386
67.025 13.97846
67.030 13.996569
67.035 14.047075
67.040 14.09569
67.045 14.11522
67.050 14.53261
67.055 14.731161
67.060 14.580721
67.065 14.274202
67.070 13.846311
67.075 13.953012
67.080 14.377973
67.085 14.286242
67.090 14.317785
67.095 14.502668
67.100 14.818291
67.105 14.870998
67.110 14.5489
67.115 14.865636
67.120 14.961235
67.125 14.770835
67.130 14.770177
67.135 14.739552
67.140 15.326117
67.145 15.555999
67.150 15.061285
67.155 15.245017
67.160 15.330486
67.165 15.589263
67.170 15.191557
67.175 14.718631
67.180 14.709193
67.185 14.486553
67.190 14.721484
67.195 14.40578
67.200 14.456437
67.205 14.859437
67.210 14.889977
67.215 14.545865
67.220 15.338218
67.225 15.509955
67.230 15.885629
67.235 16.135027
67.240 15.544788
67.245 15.110636
67.250 15.065931
67.255 14.298095
67.260 14.009174
67.265 13.739703
67.270 13.583758
67.275 14.365485
67.280 15.071801
67.285 15.175754
67.290 15.420997
67.295 15.056272
67.300 14.872838
67.305 14.705047
67.310 14.12831
67.315 13.781343
67.320 13.693375
67.325 13.86153
67.330 14.345291
67.335 14.251937
67.340 14.312855
67.345 14.586581
67.350 14.456068
67.355 14.497005
67.360 14.213855
67.365 14.186673
67.370 14.503522
67.375 14.512876
67.380 14.482163
67.385 14.613305
67.390 14.59745
67.395 14.698662
67.400 14.902969
67.405 15.200814
67.410 15.258193
67.415 14.999845
67.420 14.652538
67.425 14.662987
67.430 14.910128
67.435 14.669677
67.440 13.968184
67.445 13.791938
67.450 13.881575
67.455 14.069966
67.460 13.769553
67.465 13.639584
67.470 13.875903
67.475 14.143138
67.480 14.197687
67.485 14.565353
67.490 14.637736
67.495 14.700388
67.500 14.36147
67.505 14.29654
67.510 14.40339
67.515 14.5416
67.520 14.637575
67.525 14.34582
67.530 14.242487
67.535 14.643035
67.540 14.480893
67.545 14.229417
67.550 13.88547
67.555 13.799372
67.560 14.339215
67.565 14.405581
67.570 14.050838
67.575 14.559462
67.580 15.077437
67.585 15.143774
67.590 15.141565
67.595 15.165729
67.600 15.319334
67.605 14.806201
67.610 14.245015
67.615 13.95754
67.620 14.019389
67.625 13.981818
67.630 13.733067
67.635 13.599942
67.640 13.817671
67.645 13.971815
67.650 14.317714
67.655 14.480369
67.660 14.468263
67.665 14.685865
67.670 14.85649
67.675 14.987535
67.680 14.942708
67.685 15.014473
67.690 14.630218
67.695 14.707688
67.700 14.243003
67.705 13.821359
67.710 13.989132
67.715 13.766974
67.720 13.153592
67.725 13.019014
67.730 13.051021
67.735 13.485267
67.740 13.851721
67.745 13.559641
67.750 13.709849
67.755 13.832723
67.760 13.605098
67.765 13.688636
67.770 13.638861
67.775 13.742775
67.780 14.3903
67.785 14.723289
67.790 15.201072
67.795 15.767412
67.800 15.653695
67.805 15.560016
67.810 15.423575
67.815 15.188805
67.820 15.164568
67.825 15.223819
67.830 15.206293
67.835 15.214138
67.840 14.911702
67.845 14.960942
67.850 15.346612
67.855 15.740244
67.860 15.632437
67.865 15.262768
67.870 15.426491
67.875 15.956455
67.880 15.99774
67.885 15.920055
67.890 15.582791
67.895 15.314559
67.900 15.256604
67.905 15.259804
67.910 15.211823
67.915 15.322735
67.920 15.11332
67.925 14.738556
67.930 14.520404
67.935 14.818169
67.940 14.609585
67.945 14.129346
67.950 13.812065
67.955 13.704183
67.960 14.072292
67.965 14.601101
67.970 14.354632
67.975 14.218518
67.980 14.263582
67.985 14.178409
67.990 14.222134
67.995 14.142471
68.000 13.963788
68.005 14.070848
68.010 14.272728
68.015 14.665456
68.020 14.592927
68.025 14.234672
68.030 14.446395
68.035 14.597091
68.040 14.328107
68.045 13.839458
68.050 13.342851
68.055 13.331026
68.060 13.538781
68.065 13.485871
68.070 13.473105
68.075 13.80728
68.080 14.051705
68.085 13.822897
68.090 13.924409
68.095 14.497823
68.100 14.700928
68.105 15.406926
68.110 15.302914
68.115 15.589189
68.120 15.845885
68.125 15.988928
68.130 15.675939
68.135 15.118955
68.140 14.538924
68.145 14.940397
68.150 14.933779
68.155 15.132601
68.160 15.144324
68.165 14.989834
68.170 14.907666
68.175 14.663308
68.180 14.033446
68.185 14.385065
68.190 14.336102
68.195 13.94816
68.200 13.638762
68.205 13.595889
68.210 14.075337
68.215 14.522026
68.220 14.303963
68.225 14.376136
68.230 14.476747
68.235 14.951745
68.240 15.016833
68.245 14.702705
68.250 14.104128
68.255 14.041578
68.260 14.334831
68.265 14.899776
68.270 14.88012
68.275 14.331059
68.280 14.388249
68.285 14.924355
68.290 14.774712
68.295 14.444017
68.300 14.088754
68.305 13.657681
68.310 14.156517
68.315 14.275278
68.320 14.162879
68.325 14.078857
68.330 13.9254
68.335 13.85832
68.340 14.188294
68.345 14.328173
68.350 14.294791
68.355 14.265348
68.360 14.361193
68.365 14.349588
68.370 14.129297
68.375 13.597493
68.380 13.221795
68.385 13.365136
68.390 13.260569
68.395 13.025681
68.400 13.149542
68.405 13.616381
68.410 14.497983
68.415 14.510471
68.420 14.391658
68.425 14.473352
68.430 14.269882
68.435 13.697314
68.440 13.522306
68.445 12.938877
68.450 13.068891
68.455 13.752973
68.460 13.973072
68.465 14.237891
68.470 14.608665
68.475 14.476801
68.480 14.499971
68.485 14.609999
68.490 13.803276
68.495 13.700856
68.500 13.596471
68.505 13.647804
68.510 13.501791
68.515 13.581567
68.520 13.247938
68.525 13.507627
68.530 13.748284
68.535 13.948982
68.540 14.23276
68.545 14.85858
68.550 14.712256
68.555 14.623888
68.560 15.116045
68.565 15.35251
68.570 15.505295
68.575 15.141966
68.580 14.486194
68.585 14.655336
68.590 14.032929
68.595 12.850087
68.600 12.149055
68.605 11.574632
68.610 11.481705
68.615 11.470666
68.620 11.532355
68.625 12.088827
68.630 12.254873
68.635 12.629408
68.640 13.396946
68.645 14.05662
68.650 14.314015
68.655 14.411513
68.660 14.59115
68.665 15.025895
68.670 14.811952
68.675 14.613654
68.680 14.651986
68.685 14.709034
68.690 14.51917
68.695 14.652431
68.700 14.491888
68.705 14.851716
68.710 14.580433
68.715 14.48069
68.720 14.543957
68.725 14.877131
68.730 14.847058
68.735 14.829267
68.740 14.613874
68.745 14.619236
68.750 14.211217
68.755 14.2145
68.760 14.687146
68.765 15.119662
68.770 15.343122
68.775 15.208467
68.780 15.289909
68.785 15.683739
68.790 15.600809
68.795 15.554446
68.800 15.446743
68.805 15.402024
68.810 15.89127
68.815 16.404352
68.820 16.445889
68.825 16.518122
68.830 16.582663
68.835 16.720955
68.840 16.807156
68.845 17.165703
68.850 16.729513
68.855 16.827219
68.860 16.422604
68.865 15.9993
68.870 16.225054
68.875 16.519154
68.880 16.17466
68.885 16.169901
68.890 15.798825
68.895 16.083866
68.900 15.830559
68.905 15.607631
68.910 14.931355
68.915 14.952989
68.920 15.125751
68.925 15.031423
68.930 15.328389
68.935 15.402923
68.940 15.657016
68.945 15.704652
68.950 15.893708
68.955 16.065689
68.960 16.500139
68.965 16.892441
68.970 16.932133
68.975 16.970444
68.980 16.908476
68.985 16.566492
68.990 16.566881
68.995 16.428249
69.000 16.074932
69.005 15.724577
69.010 15.843416
69.015 15.890471
69.020 16.061287
69.025 16.036545
69.030 16.799282
69.035 16.461756
69.040 16.709385
69.045 16.879276
69.050 16.86342
69.055 16.946749
69.060 16.743145
69.065 16.155241
69.070 16.588793
69.075 16.632919
69.080 16.281139
69.085 16.241819
69.090 16.33366
69.095 16.230347
69.100 15.974869
69.105 16.513197
69.110 16.969866
69.115 17.402498
69.120 17.349575
69.125 17.266142
69.130 17.622238
69.135 17.719503
69.140 17.903736
69.145 17.990755
69.150 17.814415
69.155 18.381878
69.160 18.52663
69.165 19.03018
69.170 19.074453
69.175 18.536337
69.180 17.742193
69.185 17.705772
69.190 17.029512
69.195 16.794849
69.200 15.984519
69.205 15.93972
69.210 15.605999
69.215 16.081598
69.220 16.263985
69.225 16.31489
69.230 16.502645
69.235 16.894535
69.240 16.899492
69.245 16.991762
69.250 16.996019
69.255 17.514547
69.260 18.129084
69.265 18.590424
69.270 18.515171
69.275 18.001823
69.280 17.787554
69.285 17.739548
69.290 16.935663
69.295 16.425367
69.300 15.83627
69.305 16.146833
69.310 16.742048
69.315 17.150648
69.320 17.480625
69.325 18.200615
69.330 18.660032
69.335 18.450382
69.340 18.766565
69.345 19.886248
69.350 20.581562
69.355 20.833735
69.360 20.966753
69.365 21.436384
69.370 21.646782
69.375 21.254976
69.380 20.398983
69.385 20.268688
69.390 20.501923
69.395 20.389503
69.400 20.744507
69.405 21.082396
69.410 21.127893
69.415 21.266171
69.420 21.013485
69.425 20.50902
69.430 20.414761
69.435 20.055143
69.440 20.184114
69.445 20.055464
69.450 20.317141
69.455 20.785374
69.460 20.998549
69.465 20.313463
69.470 20.226484
69.475 20.310642
69.480 20.294703
69.485 19.920803
69.490 19.547583
69.495 19.92786
69.500 20.722841
69.505 21.28582
69.510 21.605715
69.515 22.807119
69.520 23.063982
69.525 22.419476
69.530 22.42971
69.535 22.32407
69.540 21.569729
69.545 21.188465
69.550 20.146269
69.555 20.138783
69.560 20.382166
69.565 20.566046
69.570 20.914356
69.575 20.777571
69.580 20.464893
69.585 20.682938
69.590 20.474493
69.595 20.266661
69.600 19.699303
69.605 19.852863
69.610 19.948792
69.615 20.440546
69.620 20.562893
69.625 20.353518
69.630 20.723665
69.635 20.354496
69.640 19.592312
69.645 19.9114
69.650 19.650326
69.655 19.588663
69.660 20.157326
69.665 20.551195
69.670 20.894098
69.675 21.344473
69.680 21.736443
69.685 21.292397
69.690 21.768881
69.695 21.480055
69.700 21.276503
69.705 20.827284
69.710 19.982824
69.715 19.289478
69.720 19.608372
69.725 18.933855
69.730 19.065189
69.735 19.122396
69.740 19.638973
69.745 19.741236
69.750 19.93367
69.755 20.439833
69.760 20.249287
69.765 19.624588
69.770 19.182945
69.775 19.022543
69.780 19.395409
69.785 19.053602
69.790 18.656307
69.795 18.382475
69.800 18.523352
69.805 18.434038
69.810 17.530264
69.815 16.959755
69.820 16.782333
69.825 17.221052
69.830 17.907232
69.835 18.070349
69.840 17.963127
69.845 18.683739
69.850 18.764444
69.855 18.365582
69.860 18.042818
69.865 17.078682
69.870 16.773096
69.875 16.505835
69.880 16.254696
69.885 16.87409
69.890 16.775322
69.895 15.995725
69.900 16.195171
69.905 16.153286
69.910 16.454079
69.915 16.705938
69.920 16.418365
69.925 16.453167
69.930 16.332266
69.935 16.286623
69.940 16.465561
69.945 16.653664
69.950 16.363148
69.955 16.350239
69.960 16.861685
69.965 17.367855
69.970 16.381189
69.975 16.148468
69.980 15.108288
69.985 14.671979
69.990 14.742926
69.995 14.091969
70.000 13.897802
70.005 14.509789
70.010 14.166237
70.015 14.529634
70.020 14.286106
70.025 14.152651
70.030 14.697974
70.035 14.553046
70.040 14.318071
70.045 14.403247
70.050 14.42055
70.055 14.231646
70.060 14.033488
70.065 13.626368
70.070 14.007114
70.075 14.13216
70.080 14.153845
70.085 14.393143
70.090 14.457291
70.095 14.319857
70.100 14.53456
70.105 14.540524
70.110 14.435826
70.115 14.652765
70.120 14.556895
70.125 15.031792
70.130 15.619911
70.135 15.402594
70.140 15.34993
70.145 15.496596
70.150 15.636733
70.155 16.05164
70.160 15.49155
70.165 15.277635
70.170 15.448175
70.175 15.14419
70.180 15.347931
70.185 15.514173
70.190 15.082005
70.195 14.68562
70.200 14.429938
70.205 14.526101
70.210 14.557658
70.215 14.954184
70.220 14.853284
70.225 15.203284
70.230 15.311838
70.235 15.004758
70.240 14.832715
70.245 14.513436
70.250 13.987967
70.255 13.49504
70.260 13.174904
70.265 13.277081
70.270 13.727494
70.275 14.261192
70.280 14.463161
70.285 14.505456
70.290 14.425988
70.295 14.815599
70.300 14.946532
70.305 14.478702
70.310 14.554729
70.315 14.007795
70.320 13.938686
70.325 13.460987
70.330 13.363095
70.335 13.416006
70.340 13.418078
70.345 13.267057
70.350 13.171803
70.355 13.097986
70.360 13.817731
70.365 13.641862
70.370 13.877043
70.375 14.264998
70.380 14.561084
70.385 14.692587
70.390 14.91236
70.395 15.079384
70.400 15.101174
70.405 14.965958
70.410 14.29553
70.415 13.785048
70.420 13.920568
70.425 13.955511
70.430 13.621307
70.435 13.816183
70.440 14.175752
70.445 14.663844
70.450 14.981199
70.455 15.263634
70.460 14.966888
70.465 14.819887
70.470 14.620675
70.475 14.038837
70.480 13.765135
70.485 13.419263
70.490 13.282491
70.495 13.247828
70.500 13.638141
70.505 13.366272
70.510 13.596398
70.515 14.126865
70.520 14.222134
70.525 14.328211
70.530 14.218488
70.535 14.017985
70.540 13.991303
70.545 13.839451
70.550 14.09439
70.555 14.515086
70.560 14.585888
70.565 14.913283
70.570 15.331833
70.575 15.459042
70.580 15.365862
70.585 14.530634
70.590 13.908872
70.595 14.172735
70.600 14.515343
70.605 14.237151
70.610 14.524312
70.615 14.564548
70.620 14.728846
70.625 14.470153
70.630 14.074135
70.635 13.967119
70.640 13.86711
70.645 13.449809
70.650 13.293915
70.655 13.482193
70.660 14.126529
70.665 14.081449
70.670 13.974794
70.675 14.155904
70.680 14.739551
70.685 15.166984
70.690 14.973223
70.695 14.543996
70.700 13.788949
70.705 13.215276
70.710 13.249841
70.715 13.064584
70.720 12.871722
70.725 12.720063
70.730 13.074937
70.735 13.631201
70.740 13.786138
70.745 13.555058
70.750 13.330955
70.755 13.210415
70.760 13.362344
70.765 13.315949
70.770 13.010198
70.775 13.125893
70.780 13.025561
70.785 12.912595
70.790 12.855515
70.795 12.766129
70.800 12.97194
70.805 13.237257
70.810 13.341543
70.815 13.6416
70.820 13.974523
70.825 14.253147
70.830 14.246282
70.835 13.986156
70.840 14.040712
70.845 13.77471
70.850 13.420656
70.855 13.779679
70.860 13.557855
70.865 13.804508
70.870 13.816352
70.875 13.896678
70.880 14.154454
70.885 14.550961
70.890 14.445885
70.895 14.4133
70.900 13.814383
70.905 13.99381
70.910 13.757554
70.915 13.698874
70.920 12.713593
70.925 12.093205
70.930 11.960927
70.935 12.464318
70.940 12.170966
70.945 11.730837
70.950 11.375941
70.955 12.119356
70.960 12.086294
70.965 12.166327
70.970 12.654274
70.975 12.848874
70.980 12.880654
70.985 13.129385
70.990 13.06948
70.995 12.576893
71.000 12.547432
71.005 12.09123
71.010 12.258965
71.015 12.825407
71.020 13.104971
71.025 13.667328
71.030 14.203342
71.035 14.15878
71.040 13.893821
71.045 14.207171
71.050 13.844271
71.055 13.532616
71.060 13.432503
71.065 13.619623
71.070 13.917357
71.075 14.150383
71.080 14.259087
71.085 14.301255
71.090 14.150247
71.095 13.949654
71.100 13.391467
71.105 12.873058
71.110 12.301307
71.115 12.357137
71.120 12.820765
71.125 13.03991
71.130 13.130157
71.135 13.511689
71.140 13.951499
71.145 14.107616
71.150 13.850403
71.155 13.604781
71.160 13.131777
71.165 12.992359
71.170 12.846739
71.175 12.674995
71.180 12.190673
71.185 12.116551
71.190 12.072276
71.195 13.016398
71.200 12.911359
71.205 13.266093
71.210 13.720621
71.215 14.062193
71.220 13.89507
71.225 13.357898
71.230 12.914312
71.235 13.224065
71.240 12.692713
71.245 12.462675
71.250 12.848478
71.255 12.835548
71.260 12.919724
71.265 13.344165
71.270 13.842683
71.275 14.199003
71.280 14.574249
71.285 14.59783
71.290 15.196246
71.295 15.430036
71.300 14.974345
71.305 14.55513
71.310 14.115615
71.315 13.624139
71.320 13.329054
71.325 12.648357
71.330 12.746552
71.335 12.906977
71.340 13.424121
71.345 13.801317
71.350 14.186603
71.355 14.08511
71.360 14.22807
71.365 13.759231
71.370 13.662154
71.375 13.672601
71.380 13.283538
71.385 13.334188
71.390 13.201263
71.395 13.232372
71.400 12.780352
71.405 12.325125
71.410 12.281102
71.415 12.588995
71.420 12.801162
71.425 12.69691
71.430 12.535473
71.435 12.936825
71.440 13.082402
71.445 13.095068
71.450 12.833403
71.455 13.255801
71.460 13.665635
71.465 13.946738
71.470 13.622491
71.475 13.237099
71.480 13.184804
71.485 13.336043
71.490 13.302396
71.495 13.445485
71.500 13.744032
71.505 13.551759
71.510 13.922149
71.515 13.47775
71.520 13.127702
71.525 12.851092
71.530 12.691371
71.535 12.986959
71.540 13.596321
71.545 13.557741
71.550 13.773903
71.555 13.765016
71.560 13.702001
71.565 13.51331
71.570 13.122282
71.575 12.498258
71.580 12.287951
71.585 12.430355
71.590 12.597632
71.595 12.8851
71.600 12.910118
71.605 13.240238
71.610 13.761979
71.615 14.083713
71.620 13.842564
71.625 13.887724
71.630 14.294387
71.635 14.302538
71.640 14.446379
71.645 14.588505
71.650 14.540005
71.655 14.734828
71.660 14.492304
71.665 13.795657
71.670 13.944438
71.675 13.506894
71.680 13.027038
71.685 12.856182
71.690 12.612069
71.695 12.726004
71.700 13.055331
71.705 12.806547
71.710 12.684551
71.715 13.138264
71.720 13.346306
71.725 13.119602
71.730 13.08296
71.735 12.79953
71.740 12.743428
71.745 12.784114
71.750 12.64359
71.755 12.849554
71.760 12.963144
71.765 12.705439
71.770 13.047697
71.775 13.147389
71.780 12.985869
71.785 13.11844
71.790 12.857183
71.795 12.284431
71.800 12.336587
71.805 12.130895
71.810 11.968554
71.815 12.145329
71.820 12.148686
71.825 12.479698
71.830 13.256185
71.835 13.477981
71.840 13.753946
71.845 14.210666
71.850 14.168187
71.855 14.185783
71.860 14.215803
71.865 14.038262
71.870 13.760312
71.875 13.302672
71.880 12.870224
71.885 12.672672
71.890 12.610276
71.895 12.727536
71.900 12.988463
71.905 13.175014
71.910 13.443557
71.915 13.49741
71.920 13.56493
71.925 13.975338
71.930 13.75348
71.935 13.413773
71.940 13.377026
71.945 12.84147
71.950 12.443315
71.955 11.936843
71.960 11.504112
71.965 11.599729
71.970 12.259029
71.975 12.599049
71.980 13.540931
71.985 14.125051
71.990 14.53704
71.995 14.676109
72.000 14.383425
72.005 13.556925
72.010 13.680193
72.015 13.691462
72.020 13.91163
72.025 13.687346
72.030 13.65698
72.035 14.278483
72.040 14.207047
72.045 13.330246
72.050 13.536337
72.055 13.693009
72.060 13.799577
72.065 13.672131
72.070 13.414524
72.075 13.916276
72.080 14.025651
72.085 14.009406
72.090 13.662438
72.095 13.581553
72.100 13.422074
72.105 13.115698
72.110 12.852545
72.115 12.622145
72.120 12.540076
72.125 12.726499
72.130 12.987056
72.135 13.239137
72.140 13.370263
72.145 13.457335
72.150 13.225649
72.155 12.796494
72.160 12.233526
72.165 12.142612
72.170 12.346692
72.175 12.593579
72.180 12.165616
72.185 12.488761
72.190 12.679586
72.195 13.239452
72.200 13.302619
72.205 12.917451
72.210 13.070607
72.215 13.785051
72.220 13.583801
72.225 14.042646
72.230 13.986928
72.235 14.516167
72.240 14.545341
72.245 14.504028
72.250 14.5034
72.255 14.028526
72.260 13.346603
72.265 13.101909
72.270 12.840651
72.275 12.90906
72.280 12.963084
72.285 13.189584
72.290 13.665566
72.295 13.761917
72.300 13.566014
72.305 13.24775
72.310 12.836351
72.315 12.485406
72.320 12.472792
72.325 11.991671
72.330 11.640067
72.335 12.011259
72.340 12.600461
72.345 12.879651
72.350 12.888457
72.355 12.920278
72.360 13.260748
72.365 13.485163
72.370 12.9436
72.375 12.820032
72.380 12.820783
72.385 12.413473
72.390 12.81084
72.395 12.690415
72.400 12.582355
72.405 12.553561
72.410 12.494105
72.415 12.875247
72.420 12.808666
72.425 12.922167
72.430 13.675144
72.435 13.738133
72.440 13.659404
72.445 13.653924
72.450 13.841692
72.455 14.022371
72.460 13.675816
72.465 13.365934
72.470 13.69276
72.475 14.039554
72.480 14.004798
72.485 13.540019
72.490 13.62049
72.495 13.494459
72.500 13.303612
72.505 13.044682
72.510 13.041327
72.515 12.853687
72.520 12.799318
72.525 12.756333
72.530 12.861656
72.535 13.099566
72.540 13.220099
72.545 13.334202
72.550 13.13879
72.555 13.307707
72.560 13.395641
72.565 13.296461
72.570 13.411751
72.575 13.378133
72.580 13.514707
72.585 13.90939
72.590 14.033148
72.595 13.637453
72.600 13.647346
72.605 13.564692
72.610 13.398269
72.615 13.735353
72.620 14.189392
72.625 14.619
72.630 14.624887
72.635 14.571336
72.640 14.199753
72.645 13.696927
72.650 13.126731
72.655 12.199035
72.660 11.768382
72.665 11.70531
72.670 12.217402
72.675 12.43838
72.680 12.596864
72.685 12.569366
72.690 13.376224
72.695 13.559465
72.700 13.322212
72.705 13.242108
72.710 13.393606
72.715 13.010893
72.720 12.658755
72.725 12.511017
72.730 12.61972
72.735 12.895489
72.740 12.756446
72.745 12.685788
72.750 12.608359
72.755 12.603823
72.760 12.827843
72.765 12.905711
72.770 13.020407
72.775 13.455873
72.780 13.720218
72.785 14.083861
72.790 13.388963
72.795 12.935429
72.800 12.957479
72.805 12.498948
72.810 12.62765
72.815 12.664222
72.820 12.837736
72.825 13.55572
72.830 13.20765
72.835 13.614087
72.840 13.658667
72.845 13.402257
72.850 13.561816
72.855 13.987122
72.860 13.870544
72.865 14.024264
72.870 13.578284
72.875 13.492727
72.880 13.040139
72.885 12.421147
72.890 11.810668
72.895 11.825976
72.900 11.652826
72.905 11.606156
72.910 11.659283
72.915 12.281636
72.920 12.368522
72.925 12.829214
72.930 12.550901
72.935 12.494942
72.940 12.551304
72.945 12.775824
72.950 12.885901
72.955 12.971025
72.960 13.023467
72.965 13.831653
72.970 14.037136
72.975 14.394266
72.980 14.355369
72.985 14.231733
72.990 14.156505
72.995 13.733946
73.000 13.350615
