!@!!GADDS PLOTSO FILE: Chi integration type
!@!!Title/SampleName: map-1c
!@!!Comment: ?
!@!!User: Bruker Instrument Administrator
!@!!Site: University of Illinois Chicago
!@!!Frame: map-1c_01_000.gfrm
!@!!Wavelengths    1.54184   1.54056   1.54439
!@!!Frame angles: 2Theta: 63.000 Omega: 50.000 Phi: 0.000 Chi: 90.000
!@!!Integration range: 2Theta: 53.000 to 73.000  Gamma: -105.000 to -75.000
!@!!Integration method: bin normalized
!@!N
!@!SS
!@!M
!@!L 0.0 0.0 0.0 0.0
!@!XDegrees
!@!YCounts
53.000 8.344428
53.005 8.899986
53.010 9.078393
53.015 9.119353
53.020 8.981363
53.025 9.223737
53.030 9.855248
53.035 9.551733
53.040 9.181942
53.045 9.696437
53.050 9.688485
53.055 9.851912
53.060 9.302418
53.065 8.801373
53.070 8.499074
53.075 8.551234
53.080 8.157298
53.085 8.080745
53.090 8.055902
53.095 8.165915
53.100 8.574994
53.105 9.015676
53.110 9.247555
53.115 9.081953
53.120 9.151524
53.125 9.201951
53.130 8.498464
53.135 8.162451
53.140 8.027917
53.145 7.8681
53.150 8.03641
53.155 7.999087
53.160 8.122887
53.165 8.606975
53.170 8.80205
53.175 8.753815
53.180 8.879065
53.185 8.875458
53.190 9.215225
53.195 9.78443
53.200 9.786234
53.205 9.573291
53.210 9.509272
53.215 9.907392
53.220 9.885229
53.225 9.624552
53.230 9.106498
53.235 8.990066
53.240 9.200925
53.245 8.854668
53.250 8.536527
53.255 8.575124
53.260 8.777615
53.265 8.904631
53.270 8.813777
53.275 8.878968
53.280 9.025698
53.285 9.479452
53.290 9.149294
53.295 9.099306
53.300 8.837007
53.305 8.664802
53.310 8.274232
53.315 8.096019
53.320 7.916488
53.325 8.077672
53.330 8.192827
53.335 8.079882
53.340 8.376882
53.345 8.985942
53.350 8.997443
53.355 8.834496
53.360 8.78108
53.365 8.695511
53.370 9.067575
53.375 9.329812
53.380 9.511922
53.385 8.908536
53.390 9.102182
53.395 9.439356
53.400 9.696964
53.405 9.662956
53.410 9.632722
53.415 9.577162
53.420 9.604324
53.425 9.3201
53.430 9.219412
53.435 9.168181
53.440 8.80419
53.445 8.558768
53.450 8.576142
53.455 8.754154
53.460 8.761531
53.465 9.093905
53.470 9.21207
53.475 9.031047
53.480 8.889509
53.485 8.887691
53.490 8.98288
53.495 9.278527
53.500 9.326098
53.505 9.451818
53.510 9.748201
53.515 9.936196
53.520 10.206264
53.525 10.028356
53.530 9.865129
53.535 9.642728
53.540 9.747572
53.545 9.870923
53.550 9.893882
53.555 9.922213
53.560 9.734018
53.565 9.314384
53.570 9.493321
53.575 9.548442
53.580 9.489472
53.585 9.038834
53.590 9.410649
53.595 10.002391
53.600 10.301619
53.605 9.837232
53.610 9.668598
53.615 9.573195
53.620 9.835443
53.625 9.697805
53.630 9.280294
53.635 9.143399
53.640 9.415122
53.645 9.576493
53.650 9.912409
53.655 9.806931
53.660 9.689942
53.665 10.083364
53.670 10.274307
53.675 10.147814
53.680 10.082474
53.685 9.767904
53.690 10.246042
53.695 9.916489
53.700 9.745995
53.705 9.573219
53.710 9.543205
53.715 10.10616
53.720 10.033637
53.725 9.880257
53.730 9.936351
53.735 9.733235
53.740 10.15187
53.745 9.91732
53.750 9.530196
53.755 9.543606
53.760 9.688157
53.765 9.906083
53.770 10.185189
53.775 9.888193
53.780 9.89953
53.785 9.917046
53.790 9.974476
53.795 9.900617
53.800 10.027133
53.805 9.693149
53.810 9.99601
53.815 10.629594
53.820 10.681543
53.825 10.673437
53.830 10.731212
53.835 10.625798
53.840 10.742476
53.845 10.722257
53.850 10.697268
53.855 10.559489
53.860 10.223501
53.865 9.971177
53.870 9.964225
53.875 9.663504
53.880 8.979906
53.885 8.660327
53.890 8.619883
53.895 8.843718
53.900 8.703671
53.905 8.619675
53.910 8.831611
53.915 8.98398
53.920 9.000082
53.925 9.184126
53.930 9.767275
53.935 9.904064
53.940 10.000844
53.945 10.102294
53.950 10.12088
53.955 10.312889
53.960 10.31624
53.965 10.311923
53.970 10.742537
53.975 10.897784
53.980 10.945369
53.985 11.188083
53.990 11.000781
53.995 10.964669
54.000 10.654172
54.005 10.550289
54.010 10.630729
54.015 10.547932
54.020 10.511619
54.025 10.646849
54.030 10.230875
54.035 10.297576
54.040 10.657873
54.045 10.477187
54.050 10.559069
54.055 10.503087
54.060 10.979839
54.065 11.289086
54.070 10.993557
54.075 10.608251
54.080 11.146538
54.085 11.328732
54.090 11.290136
54.095 11.224502
54.100 11.302995
54.105 11.532261
54.110 11.470218
54.115 10.895053
54.120 10.885942
54.125 11.013275
54.130 10.384841
54.135 9.969348
54.140 10.178144
54.145 9.937783
54.150 9.96022
54.155 9.545486
54.160 9.280442
54.165 9.975514
54.170 9.836816
54.175 9.400283
54.180 9.642979
54.185 10.486876
54.190 11.063588
54.195 11.196552
54.200 11.018097
54.205 11.048969
54.210 11.536461
54.215 11.330608
54.220 11.075677
54.225 10.872416
54.230 10.991319
54.235 11.355818
54.240 11.488675
54.245 11.809882
54.250 11.862574
54.255 11.420621
54.260 11.430522
54.265 11.291364
54.270 10.896832
54.275 10.383494
54.280 9.989533
54.285 9.551355
54.290 9.672647
54.295 9.832344
54.300 9.798933
54.305 10.336081
54.310 10.352637
54.315 10.299679
54.320 10.415485
54.325 10.228175
54.330 10.062986
54.335 10.214999
54.340 10.275406
54.345 10.31273
54.350 10.358985
54.355 10.121217
54.360 9.950131
54.365 9.454837
54.370 8.87714
54.375 8.798645
54.380 8.954442
54.385 9.271449
54.390 9.503671
54.395 9.890533
54.400 10.422883
54.405 10.933276
54.410 10.977486
54.415 10.51345
54.420 10.416871
54.425 10.412973
54.430 10.019519
54.435 9.6345
54.440 9.053646
54.445 9.189502
54.450 9.058603
54.455 9.133388
54.460 9.227127
54.465 9.487268
54.470 9.235631
54.475 9.523257
54.480 9.462678
54.485 9.513605
54.490 9.887651
54.495 9.654772
54.500 9.731495
54.505 10.103583
54.510 10.051932
54.515 9.844223
54.520 9.596333
54.525 9.17215
54.530 9.677788
54.535 9.793012
54.540 10.137012
54.545 10.275817
54.550 10.743782
54.555 11.488398
54.560 11.604209
54.565 11.145525
54.570 10.679262
54.575 10.067554
54.580 9.583842
54.585 9.135279
54.590 8.804417
54.595 8.84263
54.600 9.009863
54.605 9.096773
54.610 9.447794
54.615 10.054443
54.620 10.113355
54.625 10.146693
54.630 9.952062
54.635 10.32909
54.640 10.5898
54.645 10.662773
54.650 10.641554
54.655 10.80344
54.660 10.553349
54.665 10.440552
54.670 10.204059
54.675 9.94003
54.680 10.237113
54.685 10.108685
54.690 10.237815
54.695 10.160124
54.700 10.662951
54.705 11.106158
54.710 11.254538
54.715 10.847442
54.720 10.740624
54.725 10.578217
54.730 10.638982
54.735 10.216121
54.740 9.466677
54.745 9.839405
54.750 9.964456
54.755 10.309291
54.760 10.595906
54.765 10.856319
54.770 11.459636
54.775 11.754274
54.780 11.297575
54.785 10.839544
54.790 10.914872
54.795 10.778624
54.800 10.611666
54.805 10.564516
54.810 10.48908
54.815 10.303638
54.820 10.318114
54.825 9.961878
54.830 10.548262
54.835 10.436824
54.840 10.234605
54.845 10.42193
54.850 10.539367
54.855 10.608683
54.860 10.233172
54.865 9.648372
54.870 10.012161
54.875 10.361598
54.880 10.143528
54.885 10.334322
54.890 10.509943
54.895 10.575792
54.900 10.438515
54.905 10.045185
54.910 10.027676
54.915 10.504182
54.920 10.90778
54.925 10.843408
54.930 10.647945
54.935 10.697644
54.940 10.375822
54.945 10.463264
54.950 10.537837
54.955 10.303278
54.960 10.16502
54.965 10.207631
54.970 10.223669
54.975 10.248899
54.980 9.819878
54.985 9.732286
54.990 9.543902
54.995 9.445086
55.000 9.242867
55.005 9.562125
55.010 9.843255
55.015 10.171357
55.020 10.466359
55.025 11.142342
55.030 11.525349
55.035 12.159925
55.040 11.901925
55.045 11.810493
55.050 11.433804
55.055 11.054424
55.060 10.91412
55.065 11.42384
55.070 11.437563
55.075 11.778792
55.080 11.951956
55.085 12.006432
55.090 11.579896
55.095 11.045601
55.100 10.658692
55.105 10.740976
55.110 10.858126
55.115 11.022564
55.120 11.352994
55.125 12.131981
55.130 12.732734
55.135 12.590246
55.140 12.111418
55.145 11.854913
55.150 11.772072
55.155 11.287552
55.160 11.258731
55.165 11.017517
55.170 11.078715
55.175 11.294825
55.180 11.084702
55.185 11.491033
55.190 11.744883
55.195 11.473629
55.200 11.292148
55.205 11.122144
55.210 10.945376
55.215 10.616289
55.220 10.654353
55.225 10.690309
55.230 10.761954
55.235 10.976263
55.240 10.915485
55.245 11.389924
55.250 11.293591
55.255 11.253803
55.260 11.087879
55.265 11.068766
55.270 11.356859
55.275 11.584312
55.280 11.67203
55.285 12.006373
55.290 11.545356
55.295 11.545049
55.300 11.309091
55.305 11.119159
55.310 10.753201
55.315 10.495865
55.320 10.099385
55.325 10.159317
55.330 10.123948
55.335 10.100584
55.340 10.1957
55.345 10.297902
55.350 10.906374
55.355 11.282572
55.360 11.767964
55.365 12.296575
55.370 12.722158
55.375 12.977159
55.380 12.603434
55.385 11.843496
55.390 11.314985
55.395 10.910245
55.400 10.773847
55.405 10.421256
55.410 10.167727
55.415 10.108889
55.420 10.181206
55.425 10.653001
55.430 10.828586
55.435 10.294829
55.440 10.562743
55.445 11.065401
55.450 11.476912
55.455 11.954765
55.460 11.792036
55.465 12.248211
55.470 12.741872
55.475 12.210056
55.480 12.037118
55.485 11.993288
55.490 12.247436
55.495 12.292972
55.500 12.704438
55.505 13.031679
55.510 13.334829
55.515 13.607267
55.520 13.606
55.525 13.362099
55.530 13.363441
55.535 13.126315
55.540 13.184221
55.545 13.032939
55.550 12.663647
55.555 12.406857
55.560 12.330601
55.565 12.495815
55.570 11.826106
55.575 11.517304
55.580 11.516516
55.585 11.670364
55.590 11.557079
55.595 11.242139
55.600 10.96166
55.605 11.146268
55.610 10.469649
55.615 10.172626
55.620 9.951088
55.625 9.741057
55.630 9.814181
55.635 10.118808
55.640 9.8757
55.645 10.341975
55.650 10.761436
55.655 10.857291
55.660 10.96868
55.665 11.1731
55.670 10.592417
55.675 11.11556
55.680 11.488523
55.685 11.615903
55.690 11.751838
55.695 11.724353
55.700 11.300621
55.705 11.708514
55.710 11.900323
55.715 12.540335
55.720 12.728874
55.725 12.635039
55.730 12.932089
55.735 13.003393
55.740 12.606586
55.745 12.260699
55.750 11.784211
55.755 11.600335
55.760 11.344296
55.765 10.987898
55.770 11.586555
55.775 12.106986
55.780 12.068134
55.785 11.632267
55.790 11.476705
55.795 11.501741
55.800 11.782535
55.805 11.184921
55.810 11.044831
55.815 10.912958
55.820 11.103299
55.825 11.722703
55.830 12.082388
55.835 12.169737
55.840 12.618261
55.845 12.516978
55.850 12.468362
55.855 12.406084
55.860 12.385211
55.865 12.443973
55.870 12.186174
55.875 11.83362
55.880 12.010685
55.885 12.164819
55.890 12.301532
55.895 11.931997
55.900 11.723023
55.905 11.912331
55.910 11.465554
55.915 11.128678
55.920 11.470631
55.925 11.930688
55.930 12.724141
55.935 12.835503
55.940 12.823048
55.945 13.395963
55.950 13.373805
55.955 13.110025
55.960 12.896635
55.965 12.622841
55.970 12.88062
55.975 12.891016
55.980 12.840669
55.985 12.723392
55.990 12.301385
55.995 12.440009
56.000 12.741668
56.005 12.849051
56.010 12.76932
56.015 12.685682
56.020 12.71233
56.025 12.982634
56.030 12.19852
56.035 11.361028
56.040 10.556236
56.045 10.876145
56.050 11.106705
56.055 11.155071
56.060 10.747574
56.065 10.947623
56.070 11.236403
56.075 11.614439
56.080 11.265311
56.085 10.891242
56.090 10.768339
56.095 10.998872
56.100 10.790505
56.105 10.813743
56.110 11.379091
56.115 12.157545
56.120 12.305012
56.125 12.475207
56.130 12.621203
56.135 13.190682
56.140 13.402412
56.145 12.896279
56.150 12.685372
56.155 12.372731
56.160 12.260111
56.165 12.311837
56.170 12.049895
56.175 11.752931
56.180 11.604868
56.185 12.026405
56.190 12.362247
56.195 12.167251
56.200 12.522613
56.205 13.054646
56.210 13.196221
56.215 13.231251
56.220 13.281427
56.225 13.538354
56.230 13.825366
56.235 13.524543
56.240 13.684812
56.245 13.698419
56.250 13.575415
56.255 13.152178
56.260 13.184355
56.265 12.862977
56.270 12.464614
56.275 12.070927
56.280 11.824463
56.285 11.418992
56.290 11.651766
56.295 11.629781
56.300 11.728099
56.305 11.785725
56.310 12.166893
56.315 12.705673
56.320 12.757185
56.325 12.495504
56.330 12.535906
56.335 12.085749
56.340 11.798862
56.345 11.695679
56.350 11.94433
56.355 12.24882
56.360 12.335787
56.365 12.371022
56.370 12.774292
56.375 12.558391
56.380 12.308262
56.385 11.944256
56.390 12.194351
56.395 12.116072
56.400 12.382171
56.405 12.497417
56.410 12.818463
56.415 12.919444
56.420 12.692914
56.425 12.587823
56.430 12.927194
56.435 12.996379
56.440 12.993869
56.445 13.178869
56.450 13.358543
56.455 13.405481
56.460 13.312179
56.465 12.626823
56.470 12.513779
56.475 12.587916
56.480 11.841807
56.485 11.748364
56.490 11.68066
56.495 11.855411
56.500 12.388724
56.505 12.721485
56.510 12.647319
56.515 12.676265
56.520 12.448266
56.525 12.473911
56.530 12.62062
56.535 12.09713
56.540 12.24108
56.545 12.270157
56.550 12.16049
56.555 12.748238
56.560 13.183359
56.565 12.950813
56.570 12.837088
56.575 12.559064
56.580 12.791838
56.585 12.697802
56.590 11.902335
56.595 11.533206
56.600 12.193569
56.605 12.505364
56.610 12.327013
56.615 12.41351
56.620 12.433493
56.625 12.496178
56.630 12.16731
56.635 12.036611
56.640 11.8842
56.645 11.913105
56.650 11.9559
56.655 12.256091
56.660 12.940877
56.665 13.505507
56.670 13.255509
56.675 13.539012
56.680 13.589082
56.685 13.819729
56.690 14.001022
56.695 13.519903
56.700 13.106249
56.705 13.400135
56.710 13.124605
56.715 13.116124
56.720 13.585658
56.725 13.818732
56.730 14.176959
56.735 14.369178
56.740 14.17619
56.745 14.393656
56.750 14.236855
56.755 13.866616
56.760 13.407373
56.765 12.979121
56.770 13.095281
56.775 13.254295
56.780 13.363358
56.785 13.28434
56.790 13.198
56.795 13.753889
56.800 14.289755
56.805 13.963619
56.810 13.571322
56.815 13.648902
56.820 13.781523
56.825 13.630597
56.830 13.664913
56.835 13.823048
56.840 14.190247
56.845 14.885087
56.850 14.974508
56.855 15.069855
56.860 14.855077
56.865 14.666464
56.870 14.12536
56.875 13.709927
56.880 13.916709
56.885 13.720037
56.890 13.39171
56.895 13.352205
56.900 13.558613
56.905 14.319937
56.910 14.176062
56.915 13.814894
56.920 14.075679
56.925 14.56706
56.930 14.92559
56.935 14.272345
56.940 13.57502
56.945 13.027336
56.950 12.651499
56.955 13.376981
56.960 13.628589
56.965 13.261382
56.970 13.356579
56.975 13.810288
56.980 14.566328
56.985 14.51867
56.990 13.994442
56.995 13.764061
57.000 13.875102
57.005 14.071701
57.010 14.147464
57.015 13.629992
57.020 13.616506
57.025 13.073978
57.030 13.015903
57.035 13.030413
57.040 12.631738
57.045 12.653787
57.050 12.770887
57.055 13.020656
57.060 13.462039
57.065 13.056038
57.070 12.979746
57.075 13.557792
57.080 13.636507
57.085 13.411803
57.090 13.405578
57.095 13.446122
57.100 14.037395
57.105 14.197869
57.110 13.499257
57.115 13.806255
57.120 13.935699
57.125 13.358028
57.130 13.16172
57.135 12.928368
57.140 12.755498
57.145 13.282189
57.150 12.961375
57.155 13.412842
57.160 13.994213
57.165 14.095473
57.170 14.359735
57.175 14.519343
57.180 14.695357
57.185 14.5019
57.190 14.046668
57.195 13.919894
57.200 13.762192
57.205 13.865277
57.210 12.880174
57.215 11.982486
57.220 12.079427
57.225 12.251224
57.230 11.890004
57.235 11.660236
57.240 11.496548
57.245 12.252134
57.250 12.768471
57.255 12.880378
57.260 13.063902
57.265 13.443272
57.270 13.798861
57.275 13.6882
57.280 13.217028
57.285 13.575614
57.290 13.834643
57.295 13.262404
57.300 12.994597
57.305 12.825305
57.310 13.134359
57.315 13.324859
57.320 13.126763
57.325 13.675979
57.330 14.558887
57.335 14.958405
57.340 15.229177
57.345 14.939083
57.350 14.141034
57.355 13.423457
57.360 12.614794
57.365 12.263539
57.370 12.106983
57.375 11.86381
57.380 11.781541
57.385 12.685267
57.390 13.276602
57.395 13.428124
57.400 13.383455
57.405 13.772892
57.410 13.778068
57.415 14.105573
57.420 14.389661
57.425 14.38655
57.430 14.585777
57.435 14.919481
57.440 14.598213
57.445 14.880322
57.450 15.046047
57.455 14.825787
57.460 14.745693
57.465 14.693393
57.470 14.201313
57.475 14.085264
57.480 14.06284
57.485 14.140973
57.490 14.287152
57.495 13.985888
57.500 13.87578
57.505 13.903324
57.510 14.136985
57.515 14.30784
57.520 14.549141
57.525 14.37479
57.530 14.069966
57.535 13.632043
57.540 13.521133
57.545 12.874256
57.550 12.519438
57.555 12.236705
57.560 12.701436
57.565 13.380789
57.570 13.737234
57.575 14.01345
57.580 14.542748
57.585 14.457848
57.590 13.630259
57.595 13.562672
57.600 13.763918
57.605 14.251401
57.610 14.381068
57.615 14.277591
57.620 14.396412
57.625 15.410237
57.630 15.632441
57.635 15.480947
57.640 15.159977
57.645 15.059186
57.650 14.768801
57.655 15.196928
57.660 15.42659
57.665 15.017137
57.670 15.282456
57.675 15.643634
57.680 16.150223
57.685 16.342209
57.690 15.883573
57.695 15.419421
57.700 15.56494
57.705 15.642715
57.710 15.750503
57.715 15.523838
57.720 15.808104
57.725 15.79213
57.730 15.808976
57.735 15.688972
57.740 15.706111
57.745 15.48461
57.750 15.348332
57.755 15.224184
57.760 15.27241
57.765 15.92083
57.770 15.89739
57.775 15.371262
57.780 15.799664
57.785 16.219297
57.790 16.123468
57.795 16.263208
57.800 16.009239
57.805 15.84551
57.810 15.633099
57.815 15.4081
57.820 15.285485
57.825 14.979757
57.830 14.114844
57.835 13.782522
57.840 13.691614
57.845 13.575461
57.850 13.455773
57.855 13.647624
57.860 13.827553
57.865 13.6497
57.870 13.621428
57.875 13.517718
57.880 13.174243
57.885 13.333753
57.890 12.710017
57.895 12.701794
57.900 13.354383
57.905 13.525637
57.910 14.31838
57.915 14.841835
57.920 14.77729
57.925 14.804369
57.930 15.135903
57.935 15.658016
57.940 16.125687
57.945 15.300678
57.950 15.295982
57.955 15.05094
57.960 15.487116
57.965 16.011005
57.970 15.616064
57.975 15.608792
57.980 16.062429
57.985 15.958941
57.990 15.982723
57.995 15.276727
58.000 14.58357
58.005 14.606976
58.010 14.385658
58.015 14.200445
58.020 13.783103
58.025 14.358632
58.030 14.857882
58.035 15.137864
58.040 14.711789
58.045 14.717116
58.050 14.838638
58.055 15.294637
58.060 15.542459
58.065 15.904596
58.070 15.794608
58.075 16.048241
58.080 16.17045
58.085 15.98053
58.090 16.02103
58.095 15.816789
58.100 15.557871
58.105 15.650963
58.110 16.135151
58.115 16.405304
58.120 16.815271
58.125 16.299746
58.130 16.073126
58.135 15.932548
58.140 15.559232
58.145 14.985366
58.150 14.594285
58.155 14.646608
58.160 14.510211
58.165 14.50475
58.170 14.502528
58.175 15.077722
58.180 15.552035
58.185 15.890619
58.190 15.632234
58.195 15.814795
58.200 16.231062
58.205 16.523912
58.210 16.278971
58.215 15.911909
58.220 15.752717
58.225 15.793574
58.230 15.669314
58.235 15.561492
58.240 15.75578
58.245 15.798177
58.250 15.820172
58.255 15.966119
58.260 16.16909
58.265 16.14699
58.270 15.747873
58.275 14.87577
58.280 14.333968
58.285 14.554206
58.290 15.07496
58.295 15.535378
58.300 15.521017
58.305 15.467198
58.310 15.845991
58.315 15.894321
58.320 15.677991
58.325 15.700921
58.330 15.985245
58.335 16.47892
58.340 16.60881
58.345 16.824768
58.350 17.04014
58.355 16.667568
58.360 16.596491
58.365 16.430555
58.370 16.345404
58.375 17.029842
58.380 17.309998
58.385 17.143867
58.390 17.183332
58.395 16.835135
58.400 16.384594
58.405 15.833388
58.410 15.487979
58.415 15.285739
58.420 16.12562
58.425 16.587669
58.430 16.725702
58.435 16.899361
58.440 17.132215
58.445 17.372744
58.450 17.293308
58.455 17.03587
58.460 17.118879
58.465 16.718292
58.470 16.83691
58.475 17.051744
58.480 16.625906
58.485 16.51792
58.490 16.171663
58.495 15.886975
58.500 16.339012
58.505 16.301588
58.510 16.246849
58.515 16.936464
58.520 17.455019
58.525 17.920649
58.530 17.943254
58.535 17.57147
58.540 17.546764
58.545 17.645741
58.550 17.323818
58.555 16.804792
58.560 16.478382
58.565 16.244287
58.570 16.087811
58.575 16.163668
58.580 16.042459
58.585 16.559685
58.590 16.79402
58.595 16.790003
58.600 16.743124
58.605 16.855833
58.610 16.711418
58.615 16.650595
58.620 16.402552
58.625 16.634848
58.630 17.212492
58.635 17.428528
58.640 17.799732
58.645 18.084509
58.650 18.111622
58.655 17.528008
58.660 17.129263
58.665 16.948442
58.670 17.026258
58.675 16.947163
58.680 16.662718
58.685 16.367126
58.690 16.615149
58.695 17.291712
58.700 17.383604
58.705 17.071878
58.710 17.177004
58.715 17.459963
58.720 17.917532
58.725 18.421709
58.730 17.98604
58.735 18.00596
58.740 18.095053
58.745 18.056683
58.750 18.151865
58.755 18.144836
58.760 17.905659
58.765 17.692835
58.770 18.056063
58.775 18.461102
58.780 18.660234
58.785 18.391474
58.790 18.053663
58.795 17.876776
58.800 18.173656
58.805 17.246689
58.810 16.965406
58.815 16.645411
58.820 16.944586
58.825 17.068647
58.830 17.250744
58.835 16.823812
58.840 17.564856
58.845 17.661003
58.850 17.882893
58.855 17.835901
58.860 17.582418
58.865 17.814087
58.870 18.6038
58.875 18.008274
58.880 17.791145
58.885 17.574818
58.890 17.374247
58.895 17.478466
58.900 16.985874
58.905 16.049734
58.910 16.011305
58.915 16.150377
58.920 15.990027
58.925 15.885331
58.930 15.766952
58.935 16.32711
58.940 17.30794
58.945 17.859291
58.950 17.860828
58.955 17.779787
58.960 17.937281
58.965 18.156424
58.970 17.583731
58.975 17.851391
58.980 17.736156
58.985 17.619184
58.990 18.038237
58.995 18.443563
59.000 18.10601
59.005 18.776756
59.010 18.190443
59.015 18.006851
59.020 18.203533
59.025 17.573971
59.030 17.583103
59.035 17.602722
59.040 17.145891
59.045 17.143936
59.050 17.125101
59.055 17.241398
59.060 17.356621
59.065 17.433884
59.070 17.489809
59.075 17.626945
59.080 17.373363
59.085 17.495308
59.090 18.188253
59.095 18.525106
59.100 18.28425
59.105 18.231184
59.110 18.699341
59.115 18.857344
59.120 19.044243
59.125 18.626854
59.130 18.722322
59.135 18.57682
59.140 18.32638
59.145 18.013962
59.150 17.430412
59.155 17.179449
59.160 17.00868
59.165 16.866837
59.170 16.765661
59.175 16.665293
59.180 16.784529
59.185 17.031736
59.190 16.549055
59.195 17.030476
59.200 16.721022
59.205 17.149559
59.210 17.296635
59.215 16.850134
59.220 17.186089
59.225 17.228109
59.230 17.028212
59.235 17.588949
59.240 17.736162
59.245 18.240711
59.250 18.836636
59.255 18.908329
59.260 19.503208
59.265 19.636299
59.270 19.505348
59.275 19.540087
59.280 18.931122
59.285 18.153847
59.290 18.297535
59.295 18.482172
59.300 18.500576
59.305 17.89043
59.310 17.299492
59.315 17.556036
59.320 17.736765
59.325 17.083975
59.330 16.442236
59.335 16.606783
59.340 17.155231
59.345 17.392611
59.350 16.930092
59.355 16.760376
59.360 17.4953
59.365 18.214581
59.370 18.353268
59.375 18.3027
59.380 18.734348
59.385 19.839991
59.390 20.737513
59.395 20.447737
59.400 20.308411
59.405 20.68313
59.410 20.882128
59.415 20.346609
59.420 19.621544
59.425 19.558956
59.430 19.167562
59.435 18.615795
59.440 17.960554
59.445 17.343077
59.450 17.094515
59.455 17.572031
59.460 18.132793
59.465 18.291756
59.470 18.483372
59.475 18.490427
59.480 18.971697
59.485 19.48427
59.490 18.970541
59.495 18.435213
59.500 18.804209
59.505 18.863012
59.510 19.230467
59.515 19.550055
59.520 19.912975
59.525 20.433283
59.530 20.566128
59.535 20.395233
59.540 20.764793
59.545 21.082188
59.550 21.321075
59.555 21.754669
59.560 21.611523
59.565 21.612793
59.570 21.284878
59.575 20.843632
59.580 20.360601
59.585 19.475805
59.590 18.997
59.595 19.092714
59.600 19.331476
59.605 19.560377
59.610 19.30534
59.615 19.222134
59.620 19.76952
59.625 19.780369
59.630 19.92955
59.635 20.249754
59.640 20.776539
59.645 21.62826
59.650 22.341824
59.655 21.553915
59.660 20.983925
59.665 20.717447
59.670 20.548923
59.675 19.937981
59.680 19.409006
59.685 19.374121
59.690 20.133228
59.695 20.690304
59.700 21.159807
59.705 21.152393
59.710 20.930334
59.715 20.856428
59.720 20.846518
59.725 20.693134
59.730 20.744135
59.735 19.887169
59.740 20.323612
59.745 20.868023
59.750 20.71987
59.755 20.581072
59.760 20.256964
59.765 19.945938
59.770 20.358917
59.775 20.381781
59.780 20.422789
59.785 20.165426
59.790 20.134762
59.795 20.160185
59.800 20.338121
59.805 19.613573
59.810 19.101046
59.815 19.287014
59.820 19.674652
59.825 19.712292
59.830 20.67922
59.835 20.976923
59.840 21.670094
59.845 21.879606
59.850 22.208931
59.855 22.486641
59.860 22.117884
59.865 21.591923
59.870 21.433659
59.875 21.71632
59.880 21.771626
59.885 20.849506
59.890 20.417236
59.895 20.235144
59.900 19.893747
59.905 20.063234
59.910 19.791506
59.915 19.075853
59.920 19.441311
59.925 20.141691
59.930 20.922882
59.935 21.177143
59.940 21.292986
59.945 20.923798
59.950 21.136152
59.955 20.993673
59.960 20.38105
59.965 20.105127
59.970 19.833067
59.975 19.758757
59.980 19.961781
59.985 20.0019
59.990 20.485764
59.995 20.769115
60.000 20.491566
60.005 20.193913
60.010 19.725491
60.015 19.87858
60.020 19.834467
60.025 19.861216
60.030 20.11025
60.035 19.802837
60.040 20.217714
60.045 20.408094
60.050 20.323143
60.055 21.042671
60.060 21.743528
60.065 22.29092
60.070 22.587463
60.075 22.493416
60.080 22.36569
60.085 22.247261
60.090 21.528879
60.095 20.532425
60.100 20.424801
60.105 21.153767
60.110 21.489744
60.115 21.390368
60.120 21.513062
60.125 21.562996
60.130 21.638391
60.135 21.285812
60.140 20.517078
60.145 20.358692
60.150 21.071074
60.155 20.922552
60.160 20.932793
60.165 20.285185
60.170 20.258202
60.175 20.400419
60.180 20.302185
60.185 19.655132
60.190 19.456532
60.195 19.453325
60.200 20.259087
60.205 20.392832
60.210 20.436588
60.215 20.236902
60.220 19.641172
60.225 19.832855
60.230 19.843239
60.235 19.213264
60.240 18.9814
60.245 18.349798
60.250 18.080784
60.255 19.033449
60.260 19.324995
60.265 18.851208
60.270 18.98954
60.275 19.120403
60.280 19.711151
60.285 19.571484
60.290 18.602671
60.295 18.236599
60.300 18.46664
60.305 18.699955
60.310 18.823071
60.315 18.732157
60.320 18.984203
60.325 19.549717
60.330 19.786451
60.335 20.316103
60.340 20.228245
60.345 20.26565
60.350 20.545479
60.355 20.699226
60.360 20.04928
60.365 19.494507
60.370 18.748159
60.375 18.075987
60.380 17.497736
60.385 17.117031
60.390 16.737991
60.395 18.137981
60.400 18.353954
60.405 19.039429
60.410 19.405579
60.415 20.351028
60.420 20.39797
60.425 20.301861
60.430 19.311951
60.435 19.235863
60.440 18.696228
60.445 18.400759
60.450 17.583
60.455 18.062674
60.460 18.283033
60.465 18.137386
60.470 18.10968
60.475 18.294666
60.480 18.528481
60.485 18.571402
60.490 18.194529
60.495 18.439602
60.500 18.47624
60.505 18.942354
60.510 19.030306
60.515 18.831909
60.520 18.922596
60.525 19.220301
60.530 19.435678
60.535 19.407269
60.540 19.323734
60.545 19.356371
60.550 19.262707
60.555 19.325081
60.560 19.02529
60.565 18.897907
60.570 19.047819
60.575 18.973154
60.580 18.804211
60.585 18.166384
60.590 17.851233
60.595 17.564365
60.600 17.558146
60.605 17.278957
60.610 17.494123
60.615 17.987274
60.620 18.656471
60.625 18.628363
60.630 18.701197
60.635 18.727392
60.640 18.077511
60.645 17.522182
60.650 17.088472
60.655 16.400608
60.660 16.176134
60.665 16.138294
60.670 16.005342
60.675 16.358696
60.680 16.915962
60.685 17.580647
60.690 17.890135
60.695 18.017406
60.700 18.088388
60.705 18.470987
60.710 18.144506
60.715 17.225937
60.720 16.750957
60.725 17.131739
60.730 16.833225
60.735 16.770716
60.740 16.240484
60.745 16.713131
60.750 17.174088
60.755 17.071203
60.760 16.840679
60.765 17.610205
60.770 17.846775
60.775 18.168131
60.780 17.767672
60.785 17.419249
60.790 16.611792
60.795 16.249144
60.800 15.4
60.805 15.0404
60.810 14.556013
60.815 14.467236
60.820 14.663523
60.825 15.703723
60.830 15.866636
60.835 16.473761
60.840 16.384069
60.845 16.808554
60.850 17.169062
60.855 17.809731
60.860 17.766851
60.865 17.787901
60.870 17.911226
60.875 18.284483
60.880 18.202673
60.885 17.586016
60.890 16.607014
60.895 16.22304
60.900 16.141241
60.905 15.663109
60.910 15.690725
60.915 15.282166
60.920 15.344342
60.925 15.986471
60.930 16.23048
60.935 16.245722
60.940 16.340689
60.945 16.608267
60.950 16.954617
60.955 17.317429
60.960 17.730469
60.965 17.714128
60.970 17.736145
60.975 18.145285
60.980 17.866766
60.985 17.878962
60.990 17.706493
60.995 17.299728
61.000 17.376194
61.005 16.937889
61.010 16.447428
61.015 16.16189
61.020 15.37601
61.025 15.423863
61.030 15.691229
61.035 15.738522
61.040 16.29204
61.045 16.464775
61.050 17.038988
61.055 17.337889
61.060 17.134338
61.065 16.98308
61.070 17.108307
61.075 16.856462
61.080 16.628269
61.085 16.401505
61.090 17.168821
61.095 17.296654
61.100 16.967997
61.105 16.842279
61.110 16.672934
61.115 17.160751
61.120 17.257681
61.125 17.101748
61.130 17.234947
61.135 17.099543
61.140 16.87558
61.145 16.800301
61.150 16.667124
61.155 17.155354
61.160 16.76099
61.165 16.364353
61.170 16.726259
61.175 17.337963
61.180 17.419275
61.185 17.618572
61.190 17.202801
61.195 17.377913
61.200 17.609558
61.205 17.919868
61.210 17.895887
61.215 18.036594
61.220 17.98148
61.225 18.248627
61.230 17.862629
61.235 18.023499
61.240 17.970858
61.245 17.507368
61.250 17.426762
61.255 16.656981
61.260 16.647903
61.265 17.13077
61.270 16.852005
61.275 16.560575
61.280 16.814096
61.285 16.940329
61.290 16.94821
61.295 17.074697
61.300 17.404749
61.305 17.638687
61.310 17.993242
61.315 17.879608
61.320 17.647966
61.325 17.494881
61.330 17.471394
61.335 17.445007
61.340 17.218357
61.345 17.161217
61.350 17.61322
61.355 17.81694
61.360 17.955555
61.365 17.41437
61.370 17.289406
61.375 17.371193
61.380 16.983734
61.385 16.422005
61.390 16.069908
61.395 16.083727
61.400 16.291817
61.405 16.172102
61.410 15.830393
61.415 15.925435
61.420 16.301094
61.425 16.6194
61.430 16.306149
61.435 15.750993
61.440 15.427537
61.445 15.713496
61.450 15.824808
61.455 15.898078
61.460 15.855247
61.465 15.946486
61.470 16.188826
61.475 16.784483
61.480 16.713505
61.485 16.601795
61.490 16.858614
61.495 17.647341
61.500 17.769688
61.505 17.414539
61.510 16.919968
61.515 16.618443
61.520 16.388124
61.525 16.363781
61.530 16.12616
61.535 16.124664
61.540 16.271402
61.545 16.651457
61.550 16.63603
61.555 16.918392
61.560 16.70236
61.565 16.606359
61.570 17.051727
61.575 17.403902
61.580 17.601067
61.585 18.006567
61.590 17.208004
61.595 17.289608
61.600 17.56258
61.605 17.216434
61.610 17.236465
61.615 17.331148
61.620 17.077948
61.625 16.985523
61.630 16.485098
61.635 16.207331
61.640 16.484854
61.645 16.368797
61.650 16.296885
61.655 16.801582
61.660 17.397734
61.665 17.57909
61.670 17.696756
61.675 17.90983
61.680 17.719488
61.685 17.023865
61.690 16.631742
61.695 16.569281
61.700 16.138206
61.705 16.026953
61.710 15.301122
61.715 15.087177
61.720 15.249114
61.725 14.95996
61.730 14.884759
61.735 15.354364
61.740 15.718762
61.745 16.130577
61.750 16.753361
61.755 17.401318
61.760 17.44939
61.765 17.850416
61.770 17.860449
61.775 17.493216
61.780 17.341125
61.785 16.432674
61.790 16.00124
61.795 16.765392
61.800 15.972645
61.805 15.276016
61.810 15.160269
61.815 15.506834
61.820 15.854647
61.825 15.706833
61.830 15.452245
61.835 15.665224
61.840 15.949559
61.845 15.986845
61.850 15.888124
61.855 15.853382
61.860 15.826822
61.865 15.63502
61.870 16.084692
61.875 16.331121
61.880 16.574617
61.885 16.889889
61.890 17.054972
61.895 16.963236
61.900 17.674519
61.905 18.279169
61.910 18.361813
61.915 17.853661
61.920 17.858816
61.925 18.228876
61.930 18.201899
61.935 17.104761
61.940 16.182281
61.945 16.244486
61.950 16.384918
61.955 16.738371
61.960 17.267916
61.965 17.229704
61.970 17.609123
61.975 17.812233
61.980 16.747534
61.985 16.226538
61.990 15.962806
61.995 15.35951
62.000 15.0091
62.005 15.628274
62.010 16.381718
62.015 17.298685
62.020 17.752096
62.025 17.641659
62.030 17.589935
62.035 17.905855
62.040 17.431465
62.045 16.885048
62.050 16.722733
62.055 16.248024
62.060 16.436531
62.065 16.694387
62.070 16.800308
62.075 17.159357
62.080 17.347389
62.085 17.285322
62.090 17.48756
62.095 17.460026
62.100 17.417593
62.105 17.021351
62.110 16.435453
62.115 16.245062
62.120 16.389656
62.125 16.06641
62.130 16.026598
62.135 16.320475
62.140 16.563251
62.145 16.561508
62.150 17.227596
62.155 17.458729
62.160 17.946098
62.165 18.079441
62.170 18.312037
62.175 18.55447
62.180 19.409435
62.185 19.043539
62.190 19.023529
62.195 18.650196
62.200 18.045908
62.205 17.203789
62.210 16.802753
62.215 16.23173
62.220 16.036203
62.225 15.355053
62.230 15.326871
62.235 15.506467
62.240 15.540382
62.245 15.385501
62.250 15.278985
62.255 15.070927
62.260 15.633482
62.265 16.233322
62.270 16.62862
62.275 16.714846
62.280 17.138597
62.285 17.272339
62.290 17.328842
62.295 16.89789
62.300 16.457041
62.305 16.482067
62.310 17.045647
62.315 17.026524
62.320 16.977026
62.325 16.739796
62.330 16.695503
62.335 16.332895
62.340 15.617433
62.345 15.784095
62.350 15.548948
62.355 16.045712
62.360 16.895317
62.365 17.572296
62.370 17.992382
62.375 18.337994
62.380 18.32588
62.385 18.285784
62.390 17.363993
62.395 17.328766
62.400 17.397581
62.405 17.2719
62.410 17.176041
62.415 16.53511
62.420 17.082968
62.425 17.54763
62.430 17.632523
62.435 17.547863
62.440 17.440762
62.445 17.284061
62.450 17.355497
62.455 17.027277
62.460 17.337917
62.465 17.173475
62.470 16.864458
62.475 17.319817
62.480 17.496542
62.485 17.688316
62.490 17.701149
62.495 17.001791
62.500 16.85828
62.505 16.817408
62.510 16.707615
62.515 17.091913
62.520 17.499205
62.525 17.832949
62.530 17.89403
62.535 17.664658
62.540 17.402514
62.545 17.229336
62.550 16.578741
62.555 15.750863
62.560 14.95685
62.565 15.358003
62.570 15.472699
62.575 15.601472
62.580 15.633385
62.585 15.480286
62.590 15.517834
62.595 15.719222
62.600 15.448491
62.605 15.572898
62.610 15.594379
62.615 16.013477
62.620 16.063129
62.625 15.81617
62.630 15.583073
62.635 15.749791
62.640 15.332186
62.645 15.471643
62.650 15.158707
62.655 15.441312
62.660 16.002783
62.665 16.211342
62.670 16.310987
62.675 16.632347
62.680 16.577147
62.685 16.399372
62.690 16.383566
62.695 16.188366
62.700 16.304979
62.705 16.576498
62.710 16.996336
62.715 17.026943
62.720 17.295177
62.725 17.020144
62.730 17.556595
62.735 17.635389
62.740 17.18923
62.745 17.065931
62.750 16.855221
62.755 17.046011
62.760 17.224953
62.765 17.093756
62.770 16.849356
62.775 16.619497
62.780 16.290512
62.785 16.430567
62.790 16.219872
62.795 15.820932
62.800 15.75896
62.805 16.137995
62.810 16.119478
62.815 16.293325
62.820 16.661749
62.825 17.281107
62.830 17.793512
62.835 17.816338
62.840 17.503996
62.845 17.545605
62.850 17.147341
62.855 16.249279
62.860 15.643957
62.865 14.95492
62.870 15.117047
62.875 15.831235
62.880 16.550238
62.885 16.872925
62.890 17.345711
62.895 17.478424
62.900 17.869389
62.905 17.690136
62.910 17.378197
62.915 16.97695
62.920 17.191036
62.925 17.428846
62.930 17.605122
62.935 18.035484
62.940 17.382294
62.945 17.368748
62.950 17.437298
62.955 17.215897
62.960 16.600378
62.965 16.470741
62.970 16.257332
62.975 16.936424
62.980 16.963581
62.985 17.181908
62.990 17.650684
62.995 18.851425
63.000 19.745125
63.005 19.827518
63.010 19.656937
63.015 19.493582
63.020 19.501253
63.025 19.400263
63.030 18.728443
63.035 18.538221
63.040 18.997461
63.045 19.133545
63.050 18.965303
63.055 18.451021
63.060 18.215082
63.065 18.301233
63.070 17.547777
63.075 17.181974
63.080 17.291811
63.085 16.985163
63.090 16.741812
63.095 16.395126
63.100 15.780054
63.105 16.133341
63.110 16.354836
63.115 16.294819
63.120 16.543392
63.125 17.247286
63.130 17.952902
63.135 18.71081
63.140 19.082094
63.145 18.932753
63.150 18.176096
63.155 18.354685
63.160 17.725492
63.165 16.856174
63.170 15.941084
63.175 15.556369
63.180 15.043136
63.185 15.433364
63.190 15.542984
63.195 15.83675
63.200 16.557608
63.205 16.874229
63.210 16.958916
63.215 17.096132
63.220 17.027227
63.225 16.662508
63.230 16.784899
63.235 16.902248
63.240 16.773148
63.245 16.402155
63.250 16.723162
63.255 17.23189
63.260 17.879171
63.265 18.416286
63.270 18.178324
63.275 18.633801
63.280 19.313093
63.285 19.508038
63.290 19.361467
63.295 19.173401
63.300 19.015896
63.305 18.695343
63.310 18.752567
63.315 19.236586
63.320 19.320887
63.325 19.248791
63.330 18.645334
63.335 18.275925
63.340 18.071934
63.345 17.471701
63.350 16.841101
63.355 16.594145
63.360 15.851054
63.365 15.76355
63.370 15.973435
63.375 16.707783
63.380 16.61939
63.385 16.99152
63.390 16.67683
63.395 17.138903
63.400 17.527891
63.405 17.523584
63.410 17.365885
63.415 17.342054
63.420 17.230223
63.425 17.677378
63.430 18.061695
63.435 18.758047
63.440 18.861387
63.445 18.656818
63.450 19.19721
63.455 19.291689
63.460 19.598404
63.465 19.548134
63.470 19.069075
63.475 19.369112
63.480 19.871843
63.485 19.722975
63.490 19.230915
63.495 18.754366
63.500 18.600601
63.505 18.469433
63.510 17.82807
63.515 16.876148
63.520 16.539822
63.525 16.600416
63.530 16.398932
63.535 16.337746
63.540 16.812397
63.545 17.093992
63.550 17.679743
63.555 17.994663
63.560 18.281441
63.565 18.108948
63.570 17.642378
63.575 16.798931
63.580 16.941181
63.585 17.526039
63.590 18.217436
63.595 17.990217
63.600 18.596447
63.605 18.71841
63.610 19.30323
63.615 20.006926
63.620 19.788292
63.625 19.608946
63.630 20.05233
63.635 20.192995
63.640 20.351759
63.645 19.755196
63.650 19.297808
63.655 18.891176
63.660 18.428446
63.665 18.563387
63.670 17.766581
63.675 17.70562
63.680 17.698383
63.685 17.311993
63.690 16.870718
63.695 16.87533
63.700 16.986631
63.705 18.177168
63.710 18.227552
63.715 18.123241
63.720 18.324417
63.725 19.03772
63.730 19.251457
63.735 19.163977
63.740 19.178843
63.745 19.519785
63.750 19.792065
63.755 19.537802
63.760 19.489264
63.765 19.612926
63.770 20.118708
63.775 19.626066
63.780 19.441385
63.785 19.560452
63.790 19.719667
63.795 19.724369
63.800 20.046276
63.805 19.76786
63.810 19.959528
63.815 20.278271
63.820 19.818077
63.825 19.629812
63.830 19.369423
63.835 18.814983
63.840 18.648306
63.845 18.925722
63.850 18.994955
63.855 19.184776
63.860 18.857496
63.865 18.557747
63.870 18.735466
63.875 18.917875
63.880 18.649414
63.885 18.87701
63.890 19.243898
63.895 19.753878
63.900 19.929985
63.905 19.774679
63.910 18.963787
63.915 18.353107
63.920 18.1558
63.925 17.693125
63.930 17.234762
63.935 17.360716
63.940 17.377359
63.945 17.638191
63.950 17.506104
63.955 17.315123
63.960 18.087673
63.965 18.552916
63.970 18.48856
63.975 18.850941
63.980 19.179983
63.985 19.765743
63.990 19.6978
63.995 20.052303
64.000 20.258148
64.005 20.329931
64.010 20.758043
64.015 21.540718
64.020 21.878969
64.025 22.255684
64.030 21.747215
64.035 21.443718
64.040 21.311897
64.045 20.730923
64.050 19.995972
64.055 19.175394
64.060 19.137575
64.065 19.674778
64.070 20.043621
64.075 19.971048
64.080 19.927101
64.085 20.00322
64.090 20.730917
64.095 20.631536
64.100 20.584572
64.105 20.264641
64.110 20.355513
64.115 20.347145
64.120 20.528589
64.125 20.264856
64.130 19.881536
64.135 19.687029
64.140 20.170748
64.145 19.893776
64.150 19.910934
64.155 19.903954
64.160 20.001055
64.165 20.387781
64.170 20.623404
64.175 20.550859
64.180 20.264509
64.185 20.425905
64.190 20.512428
64.195 19.984625
64.200 19.538557
64.205 18.956018
64.210 18.893175
64.215 19.677931
64.220 20.019281
64.225 19.901621
64.230 20.117874
64.235 20.419863
64.240 20.69396
64.245 20.251637
64.250 19.395136
64.255 18.486403
64.260 18.508245
64.265 18.912598
64.270 18.730732
64.275 18.290195
64.280 18.963774
64.285 19.507313
64.290 19.819704
64.295 19.485168
64.300 19.285456
64.305 18.910589
64.310 19.668266
64.315 19.638144
64.320 19.444525
64.325 19.687338
64.330 19.955654
64.335 19.958923
64.340 20.588142
64.345 20.545227
64.350 20.866524
64.355 21.400002
64.360 21.938553
64.365 22.18062
64.370 21.909805
64.375 21.786272
64.380 21.599159
64.385 21.721449
64.390 21.23444
64.395 20.038027
64.400 20.471161
64.405 21.00419
64.410 21.033615
64.415 21.05345
64.420 20.876608
64.425 20.952379
64.430 21.174671
64.435 21.228886
64.440 21.462595
64.445 21.516306
64.450 21.210459
64.455 21.025742
64.460 21.523264
64.465 21.713039
64.470 20.958838
64.475 20.195461
64.480 20.363262
64.485 20.650133
64.490 20.970497
64.495 20.9942
64.500 20.9032
64.505 21.329399
64.510 21.437887
64.515 21.743601
64.520 22.361092
64.525 22.467197
64.530 22.754269
64.535 23.694357
64.540 23.716412
64.545 23.600718
64.550 23.297626
64.555 22.827909
64.560 21.898312
64.565 21.482689
64.570 20.570875
64.575 20.193478
64.580 20.163961
64.585 19.477755
64.590 19.145712
64.595 19.334694
64.600 19.454586
64.605 19.329123
64.610 19.667095
64.615 20.039246
64.620 20.049213
64.625 20.402349
64.630 20.602425
64.635 20.726231
64.640 20.790813
64.645 20.947754
64.650 20.74855
64.655 20.521633
64.660 20.252771
64.665 19.998642
64.670 19.26368
64.675 19.526823
64.680 19.672749
64.685 20.223272
64.690 20.842714
64.695 20.982573
64.700 21.219709
64.705 21.765009
64.710 21.827215
64.715 21.60498
64.720 21.452574
64.725 21.100842
64.730 21.017281
64.735 21.264326
64.740 20.9517
64.745 20.525482
64.750 20.11874
64.755 20.142033
64.760 20.357248
64.765 20.683899
64.770 20.19293
64.775 20.120289
64.780 20.365034
64.785 21.109861
64.790 22.291061
64.795 22.835009
64.800 22.3337
64.805 22.877052
64.810 23.226517
64.815 23.646414
64.820 23.261246
64.825 21.921309
64.830 21.242285
64.835 21.497318
64.840 21.343311
64.845 21.31126
64.850 21.531939
64.855 21.443274
64.860 21.693867
64.865 21.973732
64.870 21.746765
64.875 21.296654
64.880 20.646181
64.885 19.666418
64.890 20.108389
64.895 20.244299
64.900 20.204037
64.905 20.798918
64.910 21.5802
64.915 22.481325
64.920 23.307951
64.925 22.849638
64.930 23.006405
64.935 23.24164
64.940 22.690428
64.945 22.481249
64.950 22.258024
64.955 21.75775
64.960 21.434889
64.965 20.833908
64.970 20.645178
64.975 20.607004
64.980 20.508369
64.985 20.493395
64.990 20.510555
64.995 21.096088
65.000 21.583906
65.005 22.024719
65.010 22.738913
65.015 22.869507
65.020 22.785009
65.025 23.077101
65.030 23.299356
65.035 22.853645
65.040 22.952761
65.045 22.38092
65.050 22.787395
65.055 22.983362
65.060 23.050598
65.065 23.104685
65.070 23.411259
65.075 23.124016
65.080 23.361902
65.085 23.311844
65.090 23.363913
65.095 23.649546
65.100 23.360294
65.105 23.80364
65.110 24.002504
65.115 24.105654
65.120 24.305975
65.125 23.864082
65.130 23.904243
65.135 24.031916
65.140 24.187218
65.145 24.324333
65.150 23.713356
65.155 23.494841
65.160 24.410429
65.165 24.190067
65.170 24.199303
65.175 23.696184
65.180 23.891518
65.185 24.57482
65.190 24.222868
65.195 23.851345
65.200 24.011372
65.205 24.304564
65.210 23.854612
65.215 22.834169
65.220 22.767006
65.225 22.782894
65.230 23.210186
65.235 23.0471
65.240 22.276644
65.245 22.910276
65.250 23.636663
65.255 23.794413
65.260 24.628944
65.265 24.799871
65.270 24.738195
65.275 24.526129
65.280 24.17469
65.285 24.161688
65.290 24.072962
65.295 23.081964
65.300 22.775364
65.305 23.789034
65.310 24.363949
65.315 24.36886
65.320 24.246346
65.325 23.767416
65.330 23.281643
65.335 22.714682
65.340 22.197577
65.345 22.635847
65.350 22.825323
65.355 23.158182
65.360 23.706961
65.365 24.541489
65.370 25.208933
65.375 25.188162
65.380 24.708096
65.385 24.715385
65.390 25.108202
65.395 25.28628
65.400 25.286791
65.405 24.665489
65.410 24.977823
65.415 25.348024
65.420 25.669567
65.425 25.117832
65.430 25.610308
65.435 25.947016
65.440 25.858099
65.445 25.382402
65.450 25.149734
65.455 24.948664
65.460 25.024954
65.465 24.941111
65.470 25.188915
65.475 25.373171
65.480 25.595875
65.485 26.39406
65.490 26.687063
65.495 27.060459
65.500 26.553804
65.505 26.97208
65.510 27.717878
65.515 27.453674
65.520 26.864937
65.525 26.281282
65.530 25.854015
65.535 25.901211
65.540 25.660789
65.545 25.833538
65.550 26.004192
65.555 26.313721
65.560 27.067568
65.565 27.898933
65.570 28.63349
65.575 29.082491
65.580 29.242449
65.585 29.278423
65.590 29.830446
65.595 29.641594
65.600 29.363831
65.605 29.919287
65.610 30.122931
65.615 30.343952
65.620 31.226128
65.625 31.631283
65.630 31.482061
65.635 31.434683
65.640 31.106327
65.645 30.849201
65.650 30.481926
65.655 30.799423
65.660 30.95318
65.665 30.943409
65.670 30.710978
65.675 30.285751
65.680 30.563229
65.685 31.114445
65.690 30.093756
65.695 30.582111
65.700 31.980642
65.705 32.99041
65.710 33.257172
65.715 32.963322
65.720 32.848846
65.725 33.672012
65.730 33.348934
65.735 32.592258
65.740 32.111759
65.745 32.090576
65.750 32.752117
65.755 33.26511
65.760 33.513725
65.765 33.713623
65.770 33.861626
65.775 33.884914
65.780 34.624149
65.785 34.760345
65.790 34.596943
65.795 34.58078
65.800 34.571442
65.805 34.201946
65.810 34.106712
65.815 33.467827
65.820 33.099461
65.825 33.689251
65.830 33.115707
65.835 33.267483
65.840 33.825691
65.845 33.779419
65.850 34.752613
65.855 35.184681
65.860 34.722672
65.865 34.891685
65.870 34.854496
65.875 35.084396
65.880 35.73864
65.885 35.298443
65.890 34.901367
65.895 35.285343
65.900 35.647423
65.905 35.137383
65.910 35.083649
65.915 34.334419
65.920 34.484253
65.925 34.377159
65.930 34.177727
65.935 34.545406
65.940 35.6847
65.945 35.685101
65.950 36.156155
65.955 36.960121
65.960 37.433857
65.965 38.092926
65.970 37.47205
65.975 36.710804
65.980 37.06424
65.985 37.116375
65.990 37.061214
65.995 38.033905
66.000 38.710979
66.005 39.583309
66.010 39.851421
66.015 39.596958
66.020 39.028965
66.025 38.544178
66.030 37.882992
66.035 37.153358
66.040 38.324192
66.045 39.016514
66.050 39.633362
66.055 39.927959
66.060 40.085831
66.065 41.158245
66.070 40.548958
66.075 39.49683
66.080 40.073799
66.085 40.853619
66.090 40.639767
66.095 40.773815
66.100 40.268402
66.105 40.736111
66.110 41.670528
66.115 41.090538
66.120 40.432739
66.125 41.60416
66.130 42.053776
66.135 42.3428
66.140 42.055866
66.145 40.661045
66.150 39.971687
66.155 40.337051
66.160 39.463329
66.165 38.70705
66.170 38.675507
66.175 38.15033
66.180 38.904671
66.185 39.568584
66.190 39.272324
66.195 39.216816
66.200 39.052475
66.205 38.969845
66.210 39.486023
66.215 39.287857
66.220 39.530708
66.225 39.504612
66.230 40.148487
66.235 40.296703
66.240 39.760826
66.245 39.217731
66.250 38.881908
66.255 38.353298
66.260 38.243607
66.265 37.84898
66.270 37.762012
66.275 36.861935
66.280 36.101395
66.285 35.671871
66.290 35.901222
66.295 36.494587
66.300 36.510063
66.305 36.273933
66.310 36.93243
66.315 37.757656
66.320 37.928555
66.325 37.019547
66.330 35.750095
66.335 34.843075
66.340 35.164562
66.345 35.370537
66.350 34.769611
66.355 34.528069
66.360 34.807838
66.365 35.206245
66.370 34.861595
66.375 34.009659
66.380 34.536407
66.385 35.131954
66.390 34.657139
66.395 34.269245
66.400 33.961674
66.405 34.359665
66.410 34.925251
66.415 34.233341
66.420 33.638981
66.425 33.55584
66.430 33.776173
66.435 33.693153
66.440 33.067657
66.445 32.565639
66.450 31.274733
66.455 30.990944
66.460 30.300982
66.465 29.652136
66.470 29.486015
66.475 29.426611
66.480 29.490749
66.485 29.18133
66.490 29.296045
66.495 30.200857
66.500 30.027538
66.505 30.185696
66.510 30.313604
66.515 30.675917
66.520 31.067757
66.525 30.447359
66.530 29.527353
66.535 29.640255
66.540 28.841057
66.545 28.125475
66.550 27.278145
66.555 26.866228
66.560 27.193682
66.565 27.256168
66.570 27.485468
66.575 27.525244
66.580 27.161037
66.585 27.443741
66.590 27.39032
66.595 27.58149
66.600 27.558783
66.605 27.155163
66.610 27.481438
66.615 27.118404
66.620 26.18679
66.625 25.922346
66.630 24.949871
66.635 24.682032
66.640 24.324427
66.645 23.86829
66.650 23.835663
66.655 23.989265
66.660 23.866745
66.665 23.643431
66.670 23.21559
66.675 23.208973
66.680 23.628117
66.685 23.735601
66.690 23.788965
66.695 23.753054
66.700 23.678293
66.705 24.118172
66.710 23.8783
66.715 23.445011
66.720 23.032734
66.725 22.426846
66.730 22.20837
66.735 22.213158
66.740 22.611242
66.745 22.765888
66.750 22.922205
66.755 22.520882
66.760 22.507736
66.765 22.270508
66.770 22.301506
66.775 21.446787
66.780 21.358074
66.785 21.187916
66.790 21.825064
66.795 21.694115
66.800 22.124739
66.805 21.788406
66.810 21.585318
66.815 21.411724
66.820 21.856892
66.825 21.792982
66.830 21.758305
66.835 21.704987
66.840 22.126659
66.845 22.395678
66.850 22.647032
66.855 22.376547
66.860 22.942308
66.865 22.643499
66.870 22.446962
66.875 21.984167
66.880 22.275362
66.885 22.301977
66.890 21.958263
66.895 22.008703
66.900 21.881311
66.905 21.962305
66.910 22.216093
66.915 21.810774
66.920 21.750196
66.925 21.401987
66.930 21.012112
66.935 21.545519
66.940 21.272346
66.945 21.177868
66.950 21.132278
66.955 21.371767
66.960 21.67252
66.965 21.891912
66.970 21.817373
66.975 21.452158
66.980 21.632742
66.985 21.564034
66.990 21.442801
66.995 21.384813
67.000 20.709784
67.005 20.388262
67.010 20.759501
67.015 20.382908
67.020 19.810141
67.025 19.56811
67.030 19.111603
67.035 19.510483
67.040 19.878109
67.045 19.886406
67.050 20.0793
67.055 20.213907
67.060 20.282457
67.065 20.825451
67.070 20.541462
67.075 20.421486
67.080 20.668966
67.085 20.971092
67.090 21.200645
67.095 20.964329
67.100 21.029053
67.105 21.096243
67.110 20.688488
67.115 19.93268
67.120 19.8883
67.125 20.004848
67.130 20.06502
67.135 19.931919
67.140 20.041224
67.145 20.369452
67.150 20.680933
67.155 20.813692
67.160 20.860708
67.165 20.662882
67.170 21.184101
67.175 21.05735
67.180 21.101065
67.185 21.103815
67.190 20.639809
67.195 20.406553
67.200 19.938639
67.205 19.252716
67.210 19.534376
67.215 19.404654
67.220 19.679007
67.225 19.895035
67.230 19.933844
67.235 20.436605
67.240 20.869987
67.245 20.784885
67.250 20.660593
67.255 20.845602
67.260 20.715088
67.265 20.740526
67.270 21.041178
67.275 20.686466
67.280 20.333063
67.285 20.718554
67.290 20.488258
67.295 20.53982
67.300 20.807959
67.305 19.975264
67.310 19.941658
67.315 19.894547
67.320 19.733524
67.325 19.50275
67.330 19.75034
67.335 20.148252
67.340 20.522074
67.345 20.419113
67.350 20.414442
67.355 20.499151
67.360 20.734184
67.365 20.208956
67.370 19.16358
67.375 18.856716
67.380 18.942032
67.385 18.466412
67.390 18.136074
67.395 17.754854
67.400 17.624525
67.405 18.362843
67.410 18.282417
67.415 18.207594
67.420 19.370678
67.425 19.914318
67.430 20.30526
67.435 20.705353
67.440 20.808144
67.445 21.218319
67.450 21.647179
67.455 20.984539
67.460 20.607662
67.465 20.509178
67.470 20.586008
67.475 20.210939
67.480 19.915016
67.485 19.810265
67.490 20.588078
67.495 21.072716
67.500 21.03356
67.505 21.009657
67.510 21.428377
67.515 22.133562
67.520 22.020493
67.525 21.431501
67.530 21.336199
67.535 21.303871
67.540 20.752472
67.545 20.409651
67.550 20.171562
67.555 20.867474
67.560 21.142967
67.565 20.244547
67.570 20.152634
67.575 20.33316
67.580 20.495693
67.585 20.758335
67.590 20.866043
67.595 20.764988
67.600 21.342707
67.605 22.021675
67.610 22.284082
67.615 22.211924
67.620 21.4331
67.625 20.824854
67.630 20.473965
67.635 19.968269
67.640 19.553381
67.645 19.371281
67.650 19.464462
67.655 19.87007
67.660 19.091642
67.665 19.56131
67.670 19.937601
67.675 20.114119
67.680 20.514034
67.685 20.331808
67.690 19.732475
67.695 20.466833
67.700 20.270317
67.705 20.121481
67.710 19.701996
67.715 19.947577
67.720 20.329445
67.725 20.712355
67.730 20.734854
67.735 20.457867
67.740 20.644596
67.745 20.826685
67.750 20.530079
67.755 19.719358
67.760 19.460657
67.765 19.002302
67.770 18.828606
67.775 18.450909
67.780 17.799519
67.785 17.549068
67.790 18.132561
67.795 17.878607
67.800 18.269199
67.805 18.450098
67.810 18.902975
67.815 18.998396
67.820 18.945631
67.825 18.594423
67.830 18.73395
67.835 18.755922
67.840 18.945421
67.845 18.529099
67.850 18.883558
67.855 19.050648
67.860 19.184752
67.865 18.885098
67.870 18.459684
67.875 18.250448
67.880 18.995264
67.885 18.774933
67.890 18.716446
67.895 19.345566
67.900 19.800608
67.905 20.065928
67.910 19.859234
67.915 19.759706
67.920 19.991493
67.925 19.589134
67.930 19.879339
67.935 21.034328
67.940 21.351162
67.945 21.407495
67.950 21.325924
67.955 21.670395
67.960 22.136568
67.965 20.797853
67.970 19.874041
67.975 19.749899
67.980 20.009466
67.985 20.408567
67.990 20.73278
67.995 20.829075
68.000 21.592653
68.005 21.951725
68.010 22.243475
68.015 22.438604
68.020 22.004547
68.025 21.351166
68.030 21.516087
68.035 21.514462
68.040 21.412994
68.045 21.122223
68.050 21.096434
68.055 21.25358
68.060 21.385532
68.065 20.968479
68.070 20.524282
68.075 20.294733
68.080 20.444822
68.085 20.782524
68.090 20.833845
68.095 21.101536
68.100 21.148914
68.105 21.202219
68.110 21.574554
68.115 21.36554
68.120 21.407875
68.125 21.134542
68.130 20.745794
68.135 20.977005
68.140 20.18746
68.145 20.175962
68.150 20.200874
68.155 20.059307
68.160 20.343824
68.165 20.130445
68.170 20.14464
68.175 20.713341
68.180 20.148079
68.185 19.627283
68.190 19.344118
68.195 19.359135
68.200 19.566124
68.205 19.523928
68.210 19.300962
68.215 19.81452
68.220 19.218895
68.225 18.884119
68.230 18.80368
68.235 18.713503
68.240 18.567381
68.245 19.190086
68.250 19.459551
68.255 19.861113
68.260 19.859346
68.265 19.72814
68.270 19.797365
68.275 19.518402
68.280 18.808838
68.285 18.687336
68.290 18.841311
68.295 19.293682
68.300 19.424652
68.305 19.812525
68.310 20.355766
68.315 20.863235
68.320 20.656914
68.325 20.68609
68.330 20.374535
68.335 19.882236
68.340 20.013479
68.345 20.545273
68.350 21.138653
68.355 21.965332
68.360 22.529671
68.365 22.728592
68.370 22.95509
68.375 22.508297
68.380 22.025249
68.385 21.453634
68.390 20.907684
68.395 20.255562
68.400 20.327845
68.405 20.377192
68.410 21.202057
68.415 21.217216
68.420 20.878639
68.425 21.096876
68.430 21.408155
68.435 21.396698
68.440 21.475798
68.445 21.439381
68.450 21.405931
68.455 21.328745
68.460 20.666695
68.465 20.300352
68.470 19.997442
68.475 19.557589
68.480 19.176971
68.485 18.785299
68.490 19.793085
68.495 20.854458
68.500 20.995367
68.505 21.280022
68.510 20.960321
68.515 21.028902
68.520 20.955486
68.525 20.49815
68.530 19.910744
68.535 19.82316
68.540 19.749817
68.545 19.670202
68.550 19.439804
68.555 20.042189
68.560 19.819782
68.565 19.751926
68.570 19.600855
68.575 19.801626
68.580 20.013401
68.585 20.06678
68.590 19.789616
68.595 19.341122
68.600 19.774952
68.605 20.213503
68.610 20.067947
68.615 20.365065
68.620 20.226009
68.625 19.849892
68.630 19.949144
68.635 19.695917
68.640 19.744181
68.645 20.031649
68.650 19.713127
68.655 20.035311
68.660 20.866203
68.665 21.190781
68.670 20.981033
68.675 21.092499
68.680 21.754759
68.685 22.990643
68.690 22.708399
68.695 21.777617
68.700 21.484535
68.705 21.7299
68.710 21.167931
68.715 20.281204
68.720 19.429968
68.725 20.329977
68.730 21.23173
68.735 21.773655
68.740 22.155609
68.745 22.325977
68.750 22.632498
68.755 22.686422
68.760 22.010124
68.765 22.206663
68.770 22.122746
68.775 22.08396
68.780 21.634766
68.785 21.36661
68.790 21.778721
68.795 22.01428
68.800 22.810181
68.805 23.456184
68.810 23.770151
68.815 24.096373
68.820 23.904917
68.825 23.082762
68.830 22.965681
68.835 21.830406
68.840 21.039204
68.845 20.831343
68.850 21.145815
68.855 21.600227
68.860 21.965059
68.865 21.908993
68.870 22.336206
68.875 22.56789
68.880 22.234247
68.885 21.964277
68.890 21.972084
68.895 22.498123
68.900 22.209694
68.905 22.014418
68.910 22.425436
68.915 22.814131
68.920 23.201349
68.925 23.109503
68.930 22.556154
68.935 23.127234
68.940 22.786865
68.945 23.261539
68.950 24.11158
68.955 23.732786
68.960 23.833735
68.965 24.072088
68.970 23.596447
68.975 23.679977
68.980 23.218271
68.985 23.037745
68.990 23.624277
68.995 24.197672
69.000 24.92061
69.005 25.914581
69.010 25.993395
69.015 25.734196
69.020 25.726879
69.025 25.771664
69.030 25.653828
69.035 25.420921
69.040 25.769533
69.045 26.060148
69.050 26.246748
69.055 26.137827
69.060 25.352486
69.065 24.875532
69.070 24.356281
69.075 23.769396
69.080 23.428473
69.085 23.223448
69.090 23.580944
69.095 24.063063
69.100 25.054649
69.105 25.770235
69.110 26.124418
69.115 26.675961
69.120 27.190052
69.125 27.568512
69.130 27.51906
69.135 26.791351
69.140 26.612856
69.145 26.674463
69.150 26.263535
69.155 26.49526
69.160 26.082973
69.165 26.389603
69.170 27.480831
69.175 27.67737
69.180 27.146618
69.185 27.203617
69.190 27.28511
69.195 27.973194
69.200 27.85148
69.205 26.922297
69.210 27.4401
69.215 27.605957
69.220 27.977715
69.225 27.854065
69.230 27.874237
69.235 28.180149
69.240 28.323429
69.245 28.111933
69.250 28.436954
69.255 28.082245
69.260 28.004181
69.265 27.774502
69.270 27.48988
69.275 27.371185
69.280 26.963823
69.285 27.766533
69.290 28.477064
69.295 27.913994
69.300 27.626261
69.305 27.615116
69.310 28.725744
69.315 30.279299
69.320 29.928625
69.325 30.15346
69.330 30.504274
69.335 30.927696
69.340 30.525448
69.345 29.951147
69.350 29.942406
69.355 30.414145
69.360 31.064726
69.365 32.175713
69.370 32.030876
69.375 32.522518
69.380 32.488525
69.385 32.51223
69.390 32.401932
69.395 31.734556
69.400 31.911684
69.405 32.162548
69.410 31.769506
69.415 31.587988
69.420 30.775335
69.425 30.566591
69.430 31.197556
69.435 31.332209
69.440 31.722597
69.445 32.056141
69.450 31.965315
69.455 32.637608
69.460 33.193211
69.465 32.20789
69.470 31.862602
69.475 32.001926
69.480 32.198784
69.485 31.736328
69.490 31.674658
69.495 31.669085
69.500 32.172749
69.505 32.235626
69.510 32.435493
69.515 33.384621
69.520 34.102646
69.525 33.634495
69.530 32.520725
69.535 32.344608
69.540 32.786453
69.545 32.899097
69.550 31.899446
69.555 31.668139
69.560 31.769733
69.565 32.331909
69.570 32.716415
69.575 32.312187
69.580 32.02993
69.585 32.321629
69.590 32.18705
69.595 31.639465
69.600 31.035299
69.605 30.961128
69.610 31.012407
69.615 30.812607
69.620 30.714226
69.625 31.000994
69.630 31.737379
69.635 32.629108
69.640 32.732624
69.645 32.769459
69.650 32.890575
69.655 32.890991
69.660 32.903576
69.665 32.442444
69.670 32.058239
69.675 32.300259
69.680 32.092579
69.685 32.27248
69.690 32.045403
69.695 32.217178
69.700 31.842972
69.705 31.337545
69.710 30.530552
69.715 30.343
69.720 30.010517
69.725 30.430809
69.730 29.673506
69.735 29.286488
69.740 29.262476
69.745 29.578688
69.750 29.342167
69.755 29.089941
69.760 28.437962
69.765 28.580168
69.770 28.904242
69.775 28.95451
69.780 28.625462
69.785 29.060078
69.790 28.125669
69.795 27.914841
69.800 27.400986
69.805 26.631229
69.810 26.161552
69.815 26.243799
69.820 25.934103
69.825 26.67601
69.830 26.670357
69.835 26.948233
69.840 26.793053
69.845 26.187534
69.850 25.857916
69.855 26.206741
69.860 25.725883
69.865 25.586901
69.870 25.300915
69.875 25.791964
69.880 26.083944
69.885 25.569998
69.890 24.764303
69.895 24.251013
69.900 24.171488
69.905 23.872332
69.910 23.512344
69.915 23.272261
69.920 23.097534
69.925 23.497419
69.930 24.241529
69.935 24.291397
69.940 24.694212
69.945 24.725113
69.950 25.364824
69.955 25.576801
69.960 25.289057
69.965 25.074108
69.970 25.339186
69.975 25.29027
69.980 25.035847
69.985 24.37532
69.990 24.490847
69.995 24.246256
70.000 23.762737
70.005 22.840664
70.010 22.176283
70.015 22.545797
70.020 22.370466
70.025 22.318394
70.030 22.072758
70.035 22.233669
70.040 22.269737
70.045 22.268366
70.050 22.048309
70.055 22.008835
70.060 21.694645
70.065 22.105398
70.070 22.270468
70.075 22.044298
70.080 21.965038
70.085 21.829826
70.090 22.283449
70.095 22.773018
70.100 22.638943
70.105 22.50473
70.110 22.774094
70.115 22.517992
70.120 22.327986
70.125 22.141203
70.130 21.831656
70.135 20.588923
70.140 20.455906
70.145 20.75034
70.150 21.228682
70.155 21.178724
70.160 21.054245
70.165 21.167263
70.170 21.312624
70.175 21.092535
70.180 20.389694
70.185 19.542967
70.190 19.055733
70.195 19.005936
70.200 18.937723
70.205 18.677061
70.210 18.681442
70.215 19.228268
70.220 20.000729
70.225 20.093124
70.230 19.728188
70.235 19.68572
70.240 20.652267
70.245 20.674809
70.250 20.421879
70.255 20.30209
70.260 20.423218
70.265 20.532055
70.270 20.578459
70.275 20.172472
70.280 19.664864
70.285 19.572149
70.290 19.477283
70.295 19.509409
70.300 19.353024
70.305 19.515528
70.310 19.643808
70.315 20.068647
70.320 20.101469
70.325 20.510881
70.330 20.516396
70.335 20.331953
70.340 20.206423
70.345 20.053427
70.350 20.265802
70.355 20.349483
70.360 20.174301
70.365 19.892624
70.370 20.152815
70.375 19.984064
70.380 19.830423
70.385 19.415823
70.390 18.916164
70.395 18.327383
70.400 18.270632
70.405 18.361523
70.410 18.161434
70.415 18.398476
70.420 18.577444
70.425 19.059269
70.430 19.259947
70.435 18.860788
70.440 19.206619
70.445 19.423374
70.450 19.785812
70.455 19.830559
70.460 19.536734
70.465 19.518436
70.470 19.687775
70.475 19.08433
70.480 18.831894
70.485 18.0247
70.490 17.660332
70.495 18.025728
70.500 18.819473
70.505 19.005568
70.510 19.250185
70.515 19.557604
70.520 19.977562
70.525 20.203611
70.530 20.106253
70.535 20.045406
70.540 19.747265
70.545 20.241449
70.550 20.0772
70.555 20.423487
70.560 20.093962
70.565 20.19692
70.570 19.554785
70.575 19.549519
70.580 19.203342
70.585 19.209179
70.590 18.95513
70.595 18.979181
70.600 19.083454
70.605 19.56011
70.610 19.830992
70.615 19.783209
70.620 20.232578
70.625 20.380159
70.630 20.050753
70.635 19.752264
70.640 20.17811
70.645 19.907131
70.650 19.459036
70.655 18.732643
70.660 18.887236
70.665 19.111584
70.670 19.011726
70.675 18.492813
70.680 18.279749
70.685 18.43383
70.690 18.421986
70.695 18.226553
70.700 17.889376
70.705 17.588985
70.710 18.312435
70.715 18.939068
70.720 18.911308
70.725 18.639452
70.730 18.998186
70.735 19.715261
70.740 19.779833
70.745 18.529335
70.750 18.588697
70.755 19.015532
70.760 19.466587
70.765 19.200329
70.770 18.824369
70.775 18.939774
70.780 19.473722
70.785 18.724794
70.790 19.031158
70.795 18.584307
70.800 18.651606
70.805 18.380196
70.810 18.674633
70.815 18.791273
70.820 19.057274
70.825 18.466734
70.830 18.74222
70.835 19.05088
70.840 19.108519
70.845 18.633326
70.850 18.877939
70.855 18.773239
70.860 18.887114
70.865 18.811037
70.870 19.37361
70.875 19.42042
70.880 19.789335
70.885 20.075085
70.890 20.351534
70.895 20.872189
70.900 20.971418
70.905 20.441988
70.910 20.625351
70.915 20.14361
70.920 19.731121
70.925 18.896358
70.930 18.210354
70.935 18.015659
70.940 17.710215
70.945 17.533697
70.950 17.541901
70.955 17.61035
70.960 18.330973
70.965 18.447308
70.970 18.713743
70.975 19.065817
70.980 19.284542
70.985 19.326712
70.990 19.145359
70.995 19.025206
71.000 18.786467
71.005 18.585342
71.010 18.598158
71.015 18.662952
71.020 18.759184
71.025 19.049644
71.030 18.773777
71.035 18.757593
71.040 18.723591
71.045 17.96184
71.050 17.964558
71.055 18.001682
71.060 17.892393
71.065 17.977123
71.070 18.134865
71.075 18.3627
71.080 18.731714
71.085 18.653883
71.090 18.881811
71.095 18.79789
71.100 19.167391
71.105 18.525394
71.110 18.42864
71.115 18.269997
71.120 18.309296
71.125 18.117477
71.130 18.359793
71.135 17.982172
71.140 18.367813
71.145 18.929403
71.150 19.698153
71.155 19.699627
71.160 19.833298
71.165 20.287178
71.170 21.25593
71.175 21.82235
71.180 21.146856
71.185 20.573656
71.190 20.724848
71.195 20.671684
71.200 20.053753
71.205 19.700691
71.210 19.370333
71.215 19.222574
71.220 18.843872
71.225 18.266062
71.230 18.232847
71.235 17.714344
71.240 17.821169
71.245 17.960207
71.250 18.415648
71.255 18.49103
71.260 18.573021
71.265 18.758228
71.270 18.534536
71.275 17.672457
71.280 17.380989
71.285 16.699615
71.290 17.067928
71.295 16.610739
71.300 16.311483
71.305 16.741413
71.310 16.873661
71.315 17.132252
71.320 17.518658
71.325 17.220547
71.330 17.267702
71.335 17.716866
71.340 18.347128
71.345 18.505072
71.350 18.379852
71.355 18.346611
71.360 18.558445
71.365 18.660767
71.370 18.744289
71.375 18.455383
71.380 18.563087
71.385 18.707439
71.390 19.220127
71.395 19.251787
71.400 19.975098
71.405 19.887541
71.410 20.039448
71.415 20.19405
71.420 20.46134
71.425 20.333462
71.430 20.170206
71.435 19.64567
71.440 19.427898
71.445 19.684687
71.450 19.599695
71.455 19.36632
71.460 19.231071
71.465 19.611835
71.470 20.260439
71.475 20.305149
71.480 20.049467
71.485 20.208668
71.490 20.391544
71.495 20.117617
71.500 19.758596
71.505 19.135914
71.510 19.73831
71.515 19.782028
71.520 19.610155
71.525 19.717634
71.530 19.803135
71.535 19.482031
71.540 19.139341
71.545 18.622499
71.550 18.463112
71.555 18.295584
71.560 18.183634
71.565 18.147692
71.570 18.590734
71.575 18.177809
71.580 18.005133
71.585 18.272884
71.590 18.386091
71.595 18.358587
71.600 18.318216
71.605 18.550255
71.610 18.782162
71.615 18.943853
71.620 18.798496
71.625 19.102427
71.630 18.607933
71.635 18.483099
71.640 18.241383
71.645 18.028809
71.650 18.441643
71.655 18.057827
71.660 17.600859
71.665 17.728971
71.670 17.633541
71.675 17.793665
71.680 17.815102
71.685 17.33444
71.690 17.43363
71.695 17.572073
71.700 17.952339
71.705 18.53764
71.710 18.352139
71.715 18.81736
71.720 18.827974
71.725 18.821098
71.730 19.075819
71.735 18.826578
71.740 18.515451
71.745 18.80843
71.750 18.262894
71.755 18.79788
71.760 19.492945
71.765 20.037468
71.770 20.448608
71.775 20.122965
71.780 19.443657
71.785 19.574997
71.790 19.227123
71.795 18.593996
71.800 17.882273
71.805 17.789286
71.810 18.309015
71.815 18.903416
71.820 18.702951
71.825 18.444292
71.830 18.423576
71.835 18.275053
71.840 18.369221
71.845 19.0007
71.850 18.841208
71.855 19.223406
71.860 19.000654
71.865 19.076061
71.870 19.203342
71.875 19.095718
71.880 18.633123
71.885 18.825714
71.890 18.797569
71.895 19.034651
71.900 18.897898
71.905 18.990158
71.910 19.474569
71.915 19.281584
71.920 19.368395
71.925 19.686481
71.930 19.722212
71.935 19.948763
71.940 19.889881
71.945 19.499975
71.950 19.442703
71.955 19.342932
71.960 19.093485
71.965 19.068085
71.970 18.735916
71.975 18.495842
71.980 18.84798
71.985 18.298647
71.990 17.911768
71.995 18.046217
72.000 18.067484
72.005 18.046499
72.010 18.038645
72.015 17.993155
72.020 18.127748
72.025 18.271767
72.030 18.073742
72.035 18.111666
72.040 18.882847
72.045 18.578856
72.050 18.328697
72.055 18.629259
72.060 18.639044
72.065 18.806232
72.070 18.423386
72.075 17.516523
72.080 17.614191
72.085 17.882233
72.090 17.958721
72.095 17.89682
72.100 17.595943
72.105 17.895699
72.110 18.037214
72.115 17.533079
72.120 17.96685
72.125 18.304909
72.130 18.909487
72.135 19.321676
72.140 19.569986
72.145 19.373354
72.150 19.390844
72.155 18.782269
72.160 18.00466
72.165 17.816534
72.170 17.745836
72.175 17.673676
72.180 17.13204
72.185 16.775244
72.190 16.78772
72.195 16.67378
72.200 17.168129
72.205 17.390457
72.210 17.483978
72.215 18.222731
72.220 18.230423
72.225 18.445839
72.230 18.73436
72.235 17.930578
72.240 17.617001
72.245 17.79105
72.250 18.272638
72.255 18.886936
72.260 18.874624
72.265 19.075344
72.270 19.501612
72.275 19.194868
72.280 18.878675
72.285 18.335754
72.290 18.428225
72.295 18.333153
72.300 17.617638
72.305 17.413456
72.310 18.146097
72.315 18.640545
72.320 18.857059
72.325 18.871704
72.330 19.302225
72.335 19.61665
72.340 19.171093
72.345 19.235691
72.350 18.797974
72.355 18.000271
72.360 18.493156
72.365 18.07716
72.370 18.536173
72.375 18.500469
72.380 18.307314
72.385 18.241426
72.390 18.533041
72.395 18.322601
72.400 18.767677
72.405 18.90064
72.410 18.836054
72.415 19.040583
72.420 19.010447
72.425 18.547085
72.430 18.033527
72.435 17.23827
72.440 16.919922
72.445 17.197512
72.450 17.185448
72.455 17.534117
72.460 17.685287
72.465 18.1434
72.470 18.283205
72.475 18.535534
72.480 18.062654
72.485 18.816418
72.490 18.755238
72.495 18.472347
72.500 18.196024
72.505 17.89719
72.510 17.797403
72.515 17.588909
72.520 18.152542
72.525 18.616121
72.530 18.538708
72.535 19.078114
72.540 19.30238
72.545 19.188519
72.550 19.259197
72.555 18.784674
72.560 18.912075
72.565 18.618113
72.570 18.17153
72.575 18.57011
72.580 18.703398
72.585 18.507759
72.590 17.879623
72.595 17.433035
72.600 18.322123
72.605 18.578463
72.610 18.217346
72.615 18.250578
72.620 17.828196
72.625 18.204159
72.630 17.344576
72.635 17.070704
72.640 17.031904
72.645 16.73382
72.650 16.416687
72.655 16.461435
72.660 16.587833
72.665 17.145987
72.670 16.556627
72.675 16.509363
72.680 16.921494
72.685 16.987833
72.690 16.797119
72.695 17.059908
72.700 17.091707
72.705 17.482552
72.710 17.802122
72.715 17.663383
72.720 18.097179
72.725 17.790968
72.730 17.456081
72.735 17.228563
72.740 17.248247
72.745 16.850887
72.750 16.853373
72.755 16.410038
72.760 16.576809
72.765 17.113625
72.770 17.390415
72.775 17.15711
72.780 17.359221
72.785 17.440134
72.790 17.644949
72.795 17.788513
72.800 17.342974
72.805 17.016171
72.810 16.732193
72.815 17.202595
72.820 16.85433
72.825 16.319603
72.830 16.068008
72.835 16.314331
72.840 15.926741
72.845 15.89156
72.850 15.499512
72.855 15.615182
72.860 15.720228
72.865 15.919208
72.870 16.23315
72.875 16.532581
72.880 16.974154
72.885 17.128592
72.890 17.375082
72.895 17.762272
72.900 18.11603
72.905 18.267479
72.910 18.090748
72.915 17.55876
72.920 17.77557
72.925 17.91412
72.930 17.294004
72.935 16.731197
72.940 16.783092
72.945 17.035286
72.950 16.843859
72.955 16.771881
72.960 16.376917
72.965 16.776875
72.970 16.844919
72.975 16.481771
72.980 16.72554
72.985 17.002161
72.990 16.975143
72.995 16.749033
73.000 16.808756
