!@!!GADDS PLOTSO FILE: Chi integration type
!@!!Title/SampleName: map-78
!@!!Comment: ?
!@!!User: Bruker Instrument Administrator
!@!!Site: University of Illinois Chicago
!@!!Frame: map-78_01_000.gfrm
!@!!Wavelengths    1.54184   1.54056   1.54439
!@!!Frame angles: 2Theta: 63.000 Omega: 50.000 Phi: 0.000 Chi: 90.000
!@!!Integration range: 2Theta: 53.000 to 73.000  Gamma: -105.000 to -75.000
!@!!Integration method: bin normalized
!@!N
!@!SS
!@!M
!@!L 0.0 0.0 0.0 0.0
!@!XDegrees
!@!YCounts
53.000 8.188766
53.005 8.197534
53.010 8.614233
53.015 8.88674
53.020 9.140213
53.025 9.116377
53.030 8.901382
53.035 8.650027
53.040 8.838036
53.045 9.13085
53.050 9.263952
53.055 9.249984
53.060 9.383043
53.065 9.506698
53.070 9.427786
53.075 9.312978
53.080 8.920197
53.085 8.787714
53.090 9.220332
53.095 9.569333
53.100 9.895482
53.105 9.847109
53.110 9.749521
53.115 9.970636
53.120 10.041012
53.125 9.580532
53.130 9.762813
53.135 9.89673
53.140 9.789563
53.145 9.932548
53.150 9.87668
53.155 9.661999
53.160 9.385837
53.165 8.698133
53.170 8.793354
53.175 8.721232
53.180 8.559599
53.185 8.555311
53.190 8.683909
53.195 9.210322
53.200 9.386096
53.205 9.475898
53.210 9.836399
53.215 9.635514
53.220 9.608953
53.225 9.669693
53.230 9.421185
53.235 9.702374
53.240 9.548126
53.245 9.086941
53.250 8.789939
53.255 8.538341
53.260 8.210862
53.265 8.095151
53.270 8.031487
53.275 8.414212
53.280 8.755734
53.285 8.886748
53.290 9.08565
53.295 9.317232
53.300 9.426405
53.305 9.402879
53.310 9.356424
53.315 9.411626
53.320 10.238104
53.325 10.179664
53.330 10.096598
53.335 9.911276
53.340 9.691339
53.345 9.660853
53.350 9.584708
53.355 8.875139
53.360 8.8735
53.365 8.762808
53.370 8.503755
53.375 8.536377
53.380 8.515713
53.385 8.691817
53.390 9.18247
53.395 9.620216
53.400 9.958916
53.405 10.277158
53.410 10.531842
53.415 10.800437
53.420 10.735909
53.425 10.160372
53.430 9.899717
53.435 9.778486
53.440 9.77158
53.445 9.630707
53.450 9.459941
53.455 9.536049
53.460 9.968938
53.465 10.191196
53.470 9.919864
53.475 10.295751
53.480 10.734587
53.485 11.175895
53.490 11.529173
53.495 11.447431
53.500 11.665634
53.505 11.716059
53.510 11.22451
53.515 11.161328
53.520 10.627231
53.525 10.133615
53.530 9.416985
53.535 9.103531
53.540 9.488438
53.545 9.258385
53.550 9.373646
53.555 9.475652
53.560 9.733203
53.565 10.430386
53.570 10.464405
53.575 10.260971
53.580 10.545622
53.585 10.061691
53.590 10.00348
53.595 9.983946
53.600 9.699768
53.605 9.525847
53.610 9.130381
53.615 9.107769
53.620 9.054863
53.625 9.466949
53.630 9.416684
53.635 9.806119
53.640 10.021729
53.645 10.210092
53.650 10.281741
53.655 10.270506
53.660 9.956511
53.665 9.932658
53.670 9.950208
53.675 10.142271
53.680 10.431918
53.685 10.507295
53.690 10.478651
53.695 10.472654
53.700 10.164829
53.705 9.906492
53.710 9.723904
53.715 9.871796
53.720 9.95167
53.725 9.841993
53.730 10.061492
53.735 10.285965
53.740 10.351027
53.745 9.962739
53.750 9.343517
53.755 9.535797
53.760 9.5564
53.765 9.472243
53.770 9.665293
53.775 9.574512
53.780 9.864451
53.785 9.980492
53.790 10.323682
53.795 10.308419
53.800 10.334367
53.805 10.521646
53.810 10.662571
53.815 10.773206
53.820 10.681958
53.825 10.293427
53.830 10.441306
53.835 10.436032
53.840 10.16623
53.845 10.146081
53.850 9.857801
53.855 9.726499
53.860 9.756293
53.865 10.048575
53.870 9.849555
53.875 9.640079
53.880 9.532957
53.885 9.574577
53.890 9.646111
53.895 9.576208
53.900 9.164504
53.905 8.968755
53.910 9.09592
53.915 9.402374
53.920 9.773523
53.925 9.739639
53.930 9.669093
53.935 9.885178
53.940 10.104347
53.945 9.851618
53.950 9.260845
53.955 9.106876
53.960 8.944811
53.965 8.729669
53.970 8.896831
53.975 8.962134
53.980 9.11552
53.985 9.624885
53.990 9.58083
53.995 9.691329
54.000 9.665013
54.005 9.626998
54.010 9.717641
54.015 9.407081
54.020 9.324896
54.025 9.590259
54.030 9.731413
54.035 9.844311
54.040 9.825135
54.045 9.661389
54.050 10.094777
54.055 9.908186
54.060 9.744411
54.065 10.002363
54.070 10.015824
54.075 10.284744
54.080 10.704069
54.085 10.88526
54.090 11.125454
54.095 11.196996
54.100 11.430215
54.105 11.299358
54.110 11.114388
54.115 10.773885
54.120 10.463781
54.125 10.631018
54.130 10.369472
54.135 9.862413
54.140 10.084623
54.145 10.355877
54.150 10.648181
54.155 10.932848
54.160 10.20645
54.165 10.275341
54.170 10.451878
54.175 10.357141
54.180 10.156062
54.185 9.743256
54.190 9.997273
54.195 10.00282
54.200 9.992568
54.205 9.88205
54.210 10.081279
54.215 10.107697
54.220 10.187807
54.225 9.972782
54.230 10.299696
54.235 10.59444
54.240 10.612619
54.245 10.612766
54.250 10.744681
54.255 10.737523
54.260 11.232114
54.265 10.845693
54.270 10.834339
54.275 11.336316
54.280 11.216781
54.285 10.973793
54.290 11.185247
54.295 11.195649
54.300 11.396136
54.305 11.392267
54.310 11.356652
54.315 11.428364
54.320 10.981103
54.325 11.110423
54.330 11.190331
54.335 11.381405
54.340 10.938025
54.345 10.305266
54.350 10.422405
54.355 10.588524
54.360 10.297334
54.365 10.276834
54.370 10.358468
54.375 10.422336
54.380 10.491947
54.385 10.23473
54.390 10.261664
54.395 10.216575
54.400 10.204539
54.405 10.408945
54.410 10.948643
54.415 11.574493
54.420 12.02477
54.425 11.504863
54.430 11.437415
54.435 11.308745
54.440 10.814997
54.445 10.657106
54.450 10.042068
54.455 10.235124
54.460 10.818238
54.465 10.548291
54.470 10.715858
54.475 10.941693
54.480 10.851283
54.485 11.047335
54.490 10.756314
54.495 10.514946
54.500 10.611498
54.505 10.518998
54.510 10.149835
54.515 9.861223
54.520 10.114975
54.525 10.064485
54.530 10.046255
54.535 9.949705
54.540 9.649488
54.545 9.929051
54.550 9.971926
54.555 9.869329
54.560 9.848304
54.565 10.082963
54.570 9.99557
54.575 10.794148
54.580 10.697062
54.585 10.910966
54.590 10.779696
54.595 11.39213
54.600 11.765608
54.605 11.47443
54.610 11.263594
54.615 11.559773
54.620 11.512525
54.625 11.179522
54.630 10.426919
54.635 9.99122
54.640 10.082074
54.645 9.516789
54.650 9.475869
54.655 9.905392
54.660 10.228075
54.665 10.252608
54.670 10.266196
54.675 10.740904
54.680 10.909583
54.685 10.731958
54.690 10.643745
54.695 10.971003
54.700 11.528611
54.705 11.388002
54.710 10.789087
54.715 11.007773
54.720 11.272264
54.725 11.405387
54.730 11.206753
54.735 11.190168
54.740 11.718856
54.745 12.411588
54.750 12.55765
54.755 12.181513
54.760 12.30123
54.765 12.479207
54.770 12.887369
54.775 13.130074
54.780 12.489177
54.785 12.418252
54.790 12.139739
54.795 11.788803
54.800 11.578564
54.805 11.18235
54.810 10.700066
54.815 10.335287
54.820 10.177451
54.825 10.525782
54.830 10.743353
54.835 10.447114
54.840 10.526896
54.845 10.811426
54.850 10.66942
54.855 10.486203
54.860 10.38694
54.865 10.285424
54.870 10.42586
54.875 10.542944
54.880 10.547504
54.885 10.910897
54.890 11.119965
54.895 11.287579
54.900 11.683696
54.905 11.916315
54.910 11.749525
54.915 11.954204
54.920 12.43905
54.925 12.242093
54.930 12.061922
54.935 11.617234
54.940 10.884165
54.945 10.428381
54.950 10.222292
54.955 9.618337
54.960 9.445321
54.965 9.425838
54.970 9.652665
54.975 10.058803
54.980 10.217907
54.985 10.276007
54.990 10.748032
54.995 11.251921
55.000 11.326463
55.005 11.377777
55.010 11.282433
55.015 11.467264
55.020 11.461557
55.025 11.319205
55.030 11.083532
55.035 10.682183
55.040 10.955987
55.045 11.429963
55.050 11.739356
55.055 11.384439
55.060 11.297132
55.065 11.358113
55.070 11.794906
55.075 11.388857
55.080 11.050485
55.085 11.671178
55.090 12.140299
55.095 12.185506
55.100 12.029921
55.105 11.867618
55.110 12.137508
55.115 12.088889
55.120 11.485901
55.125 11.210398
55.130 11.362945
55.135 11.411894
55.140 10.770597
55.145 10.656968
55.150 10.484673
55.155 10.563778
55.160 10.843434
55.165 10.492026
55.170 10.781679
55.175 11.334656
55.180 11.211106
55.185 11.472488
55.190 11.328882
55.195 11.44109
55.200 11.616615
55.205 11.670855
55.210 12.096213
55.215 12.096983
55.220 12.265858
55.225 12.382415
55.230 12.386395
55.235 12.680021
55.240 12.505636
55.245 12.407852
55.250 12.60439
55.255 12.299636
55.260 12.240058
55.265 12.213782
55.270 12.142533
55.275 11.952891
55.280 11.675101
55.285 11.521116
55.290 11.379465
55.295 10.901842
55.300 10.914347
55.305 10.633082
55.310 10.197725
55.315 10.253801
55.320 10.48234
55.325 11.167668
55.330 11.570731
55.335 11.255731
55.340 11.880763
55.345 12.119552
55.350 12.1548
55.355 11.840402
55.360 12.167514
55.365 12.180892
55.370 12.487289
55.375 12.554697
55.380 12.761761
55.385 12.818508
55.390 12.891401
55.395 12.391178
55.400 12.275879
55.405 12.028806
55.410 11.929646
55.415 12.119088
55.420 12.494083
55.425 12.218971
55.430 12.001366
55.435 11.932608
55.440 11.72498
55.445 11.651259
55.450 11.278551
55.455 10.706663
55.460 11.262291
55.465 11.560221
55.470 11.389305
55.475 11.218122
55.480 10.991387
55.485 10.96352
55.490 11.270109
55.495 11.666164
55.500 12.032667
55.505 12.502801
55.510 12.863222
55.515 13.327326
55.520 13.634498
55.525 13.087187
55.530 12.991142
55.535 12.678486
55.540 12.284091
55.545 11.695747
55.550 11.363992
55.555 11.387385
55.560 10.586658
55.565 9.677135
55.570 9.925459
55.575 10.206993
55.580 10.490254
55.585 10.513952
55.590 10.592078
55.595 11.171309
55.600 10.970732
55.605 10.407726
55.610 10.446906
55.615 10.417204
55.620 10.157561
55.625 10.242249
55.630 10.604096
55.635 11.417614
55.640 11.899675
55.645 11.762392
55.650 11.912009
55.655 12.188608
55.660 12.457693
55.665 12.41936
55.670 12.134956
55.675 11.494252
55.680 11.233037
55.685 11.587931
55.690 11.859699
55.695 11.570807
55.700 11.5038
55.705 11.748691
55.710 11.860145
55.715 12.02122
55.720 11.718347
55.725 11.851892
55.730 11.963383
55.735 11.798974
55.740 11.688704
55.745 11.935643
55.750 12.123343
55.755 11.893449
55.760 11.245242
55.765 11.338632
55.770 11.188039
55.775 11.319955
55.780 11.408917
55.785 11.310489
55.790 11.417555
55.795 12.005978
55.800 12.002213
55.805 12.156994
55.810 12.343006
55.815 12.723803
55.820 13.087939
55.825 12.993556
55.830 12.748424
55.835 13.111476
55.840 13.396703
55.845 13.635341
55.850 13.0903
55.855 13.056603
55.860 12.852149
55.865 12.967812
55.870 12.800595
55.875 12.748141
55.880 12.47481
55.885 12.536487
55.890 12.375283
55.895 12.411305
55.900 12.218155
55.905 11.779392
55.910 11.974124
55.915 12.303566
55.920 12.876101
55.925 12.774421
55.930 12.622785
55.935 13.0645
55.940 13.468429
55.945 13.369725
55.950 13.502885
55.955 13.210285
55.960 13.439108
55.965 13.396197
55.970 13.317156
55.975 13.492616
55.980 13.479345
55.985 13.34665
55.990 13.468842
55.995 13.339935
56.000 13.229685
56.005 12.597117
56.010 12.422644
56.015 12.131971
56.020 11.767237
56.025 11.612565
56.030 11.493335
56.035 11.764734
56.040 11.723927
56.045 11.981174
56.050 12.114369
56.055 12.03071
56.060 12.281672
56.065 11.937013
56.070 11.860919
56.075 11.679323
56.080 11.309464
56.085 11.449908
56.090 11.229761
56.095 11.412334
56.100 11.922927
56.105 12.572342
56.110 12.519089
56.115 12.009439
56.120 11.826542
56.125 11.589695
56.130 11.257678
56.135 10.948629
56.140 10.357673
56.145 10.716734
56.150 11.04055
56.155 11.021069
56.160 11.191585
56.165 11.517527
56.170 11.865196
56.175 12.361457
56.180 12.643565
56.185 12.634777
56.190 13.228373
56.195 13.841116
56.200 13.947206
56.205 14.364302
56.210 14.014579
56.215 13.456689
56.220 13.309813
56.225 13.295912
56.230 12.96261
56.235 12.634454
56.240 12.264028
56.245 12.945977
56.250 13.913353
56.255 14.058702
56.260 13.688488
56.265 13.921625
56.270 13.866217
56.275 13.634092
56.280 12.859288
56.285 12.200073
56.290 12.011631
56.295 11.661139
56.300 11.330398
56.305 11.684217
56.310 12.371641
56.315 12.671892
56.320 12.592669
56.325 13.039496
56.330 13.22471
56.335 13.353025
56.340 13.011467
56.345 12.520549
56.350 12.558327
56.355 12.724704
56.360 12.476151
56.365 12.78328
56.370 12.7616
56.375 12.737077
56.380 12.848118
56.385 12.576905
56.390 12.513066
56.395 13.080655
56.400 12.914568
56.405 12.885398
56.410 12.597698
56.415 12.171918
56.420 12.068076
56.425 11.929332
56.430 11.635889
56.435 11.57302
56.440 11.705892
56.445 12.365354
56.450 12.800534
56.455 12.968994
56.460 12.784122
56.465 12.726953
56.470 12.71172
56.475 12.284476
56.480 11.783278
56.485 12.065816
56.490 12.525134
56.495 12.766585
56.500 13.019833
56.505 13.540998
56.510 13.834797
56.515 13.738218
56.520 13.156471
56.525 13.066677
56.530 13.15587
56.535 12.825044
56.540 12.784484
56.545 12.686283
56.550 12.981263
56.555 12.831921
56.560 12.59628
56.565 12.246722
56.570 12.045751
56.575 11.679868
56.580 11.913733
56.585 12.085196
56.590 12.244653
56.595 12.054437
56.600 12.353164
56.605 12.845252
56.610 13.415021
56.615 13.490417
56.620 13.262943
56.625 14.029551
56.630 14.405836
56.635 14.161614
56.640 13.964908
56.645 13.704939
56.650 13.613227
56.655 13.893159
56.660 13.712157
56.665 14.22813
56.670 13.514972
56.675 13.283992
56.680 12.971163
56.685 13.060411
56.690 13.096088
56.695 13.012486
56.700 13.146864
56.705 13.85221
56.710 14.305637
56.715 14.388885
56.720 14.310905
56.725 14.200323
56.730 13.241155
56.735 12.800966
56.740 12.725439
56.745 12.590181
56.750 12.826344
56.755 12.593006
56.760 12.861528
56.765 13.426712
56.770 13.256093
56.775 12.884651
56.780 12.633917
56.785 12.389343
56.790 12.692978
56.795 12.878975
56.800 13.081161
56.805 13.256468
56.810 13.306567
56.815 13.411485
56.820 13.047869
56.825 12.709156
56.830 12.355986
56.835 11.689544
56.840 11.936062
56.845 12.169477
56.850 12.563194
56.855 12.718972
56.860 12.540294
56.865 12.324097
56.870 12.351419
56.875 12.563413
56.880 11.876101
56.885 11.486469
56.890 11.436634
56.895 11.268596
56.900 11.744633
56.905 12.233398
56.910 12.08498
56.915 12.540759
56.920 12.46209
56.925 12.778679
56.930 13.328183
56.935 13.463099
56.940 13.067754
56.945 12.910753
56.950 12.921083
56.955 12.780149
56.960 12.416617
56.965 12.38945
56.970 12.417408
56.975 12.656697
56.980 12.994367
56.985 12.970687
56.990 13.275469
56.995 13.431444
57.000 12.886225
57.005 12.485518
57.010 12.319868
57.015 12.42346
57.020 12.345908
57.025 12.591571
57.030 13.155318
57.035 14.088613
57.040 14.349082
57.045 14.451665
57.050 14.363307
57.055 14.864488
57.060 14.774464
57.065 14.167295
57.070 13.566696
57.075 13.471818
57.080 13.201191
57.085 13.307186
57.090 13.036836
57.095 12.845238
57.100 13.025966
57.105 13.216083
57.110 12.891853
57.115 13.006938
57.120 12.469873
57.125 12.20539
57.130 12.625711
57.135 12.94908
57.140 13.203082
57.145 13.562973
57.150 13.787403
57.155 13.872279
57.160 13.966212
57.165 13.5267
57.170 12.968534
57.175 12.801985
57.180 12.88872
57.185 13.173285
57.190 13.221318
57.195 13.252678
57.200 13.519201
57.205 13.478115
57.210 13.557662
57.215 13.196415
57.220 13.107128
57.225 12.90683
57.230 12.828297
57.235 12.94872
57.240 12.86911
57.245 12.880847
57.250 12.648215
57.255 12.485269
57.260 12.827657
57.265 12.781748
57.270 12.818708
57.275 12.878737
57.280 13.184273
57.285 13.628706
57.290 13.771173
57.295 14.00062
57.300 14.170491
57.305 14.348889
57.310 14.483605
57.315 14.642462
57.320 14.824747
57.325 14.468406
57.330 14.466347
57.335 14.402608
57.340 14.231546
57.345 13.805726
57.350 13.149334
57.355 12.855832
57.360 13.244054
57.365 13.475409
57.370 13.031553
57.375 12.956182
57.380 13.308311
57.385 13.289514
57.390 13.585057
57.395 13.274196
57.400 13.145935
57.405 13.34945
57.410 13.606168
57.415 13.877039
57.420 13.988002
57.425 14.067697
57.430 13.97792
57.435 14.261143
57.440 14.488979
57.445 14.211866
57.450 14.000535
57.455 13.707377
57.460 13.297737
57.465 13.123507
57.470 12.964222
57.475 12.932067
57.480 13.17483
57.485 13.274395
57.490 13.585837
57.495 14.296248
57.500 14.649458
57.505 14.397069
57.510 14.368632
57.515 14.351796
57.520 14.652863
57.525 14.521285
57.530 14.527234
57.535 14.689989
57.540 15.00771
57.545 15.239663
57.550 15.459644
57.555 15.586928
57.560 15.646536
57.565 15.196866
57.570 15.240846
57.575 14.680874
57.580 14.185387
57.585 13.762075
57.590 13.359344
57.595 13.671079
57.600 13.934755
57.605 13.501735
57.610 13.758175
57.615 13.971128
57.620 14.518888
57.625 14.524046
57.630 14.32391
57.635 14.29277
57.640 14.546403
57.645 14.649795
57.650 14.531108
57.655 14.274721
57.660 14.161024
57.665 14.046977
57.670 13.883529
57.675 13.535373
57.680 13.462669
57.685 13.043036
57.690 12.885481
57.695 13.056998
57.700 12.650556
57.705 12.830215
57.710 13.245005
57.715 13.276016
57.720 13.652367
57.725 13.892925
57.730 14.044754
57.735 14.533937
57.740 14.620148
57.745 14.336036
57.750 14.177038
57.755 14.415871
57.760 14.521896
57.765 14.565536
57.770 14.514357
57.775 14.3301
57.780 14.695767
57.785 14.647622
57.790 13.823077
57.795 13.250536
57.800 12.836665
57.805 12.753081
57.810 12.88583
57.815 13.228211
57.820 13.738729
57.825 13.834292
57.830 13.810181
57.835 14.147814
57.840 14.501198
57.845 14.091786
57.850 14.134717
57.855 13.965789
57.860 14.237026
57.865 14.408305
57.870 13.858905
57.875 13.564248
57.880 14.050362
57.885 13.785676
57.890 14.273881
57.895 14.78771
57.900 15.278472
57.905 15.558681
57.910 15.810522
57.915 15.620356
57.920 15.647371
57.925 15.587184
57.930 15.109912
57.935 14.365942
57.940 14.21477
57.945 14.54936
57.950 14.858884
57.955 14.594579
57.960 14.744308
57.965 15.36699
57.970 15.873016
57.975 16.315123
57.980 16.086554
57.985 15.851975
57.990 15.676805
57.995 15.392457
58.000 15.287168
58.005 15.321392
58.010 14.472942
58.015 14.468307
58.020 14.547623
58.025 13.914713
58.030 13.712952
58.035 13.58668
58.040 13.605161
58.045 13.907739
58.050 13.823901
58.055 14.231645
58.060 14.982836
58.065 14.913847
58.070 15.154794
58.075 14.958169
58.080 15.457278
58.085 15.782823
58.090 15.917639
58.095 16.160713
58.100 16.139061
58.105 16.173712
58.110 16.266077
58.115 16.35309
58.120 15.955113
58.125 15.631372
58.130 15.076077
58.135 14.951052
58.140 14.703019
58.145 14.247071
58.150 13.271179
58.155 12.885695
58.160 12.673583
58.165 13.2275
58.170 13.622745
58.175 14.098825
58.180 14.877988
58.185 15.569575
58.190 16.213125
58.195 16.679764
58.200 16.40983
58.205 16.237875
58.210 16.153526
58.215 16.010323
58.220 15.830189
58.225 15.432126
58.230 14.767425
58.235 14.431736
58.240 14.453244
58.245 13.97686
58.250 13.510592
58.255 13.357408
58.260 13.935786
58.265 14.278909
58.270 14.609938
58.275 14.68907
58.280 14.89298
58.285 15.321012
58.290 15.138985
58.295 14.719236
58.300 15.24095
58.305 15.442928
58.310 14.836954
58.315 14.567669
58.320 14.237309
58.325 14.70949
58.330 14.334882
58.335 14.275695
58.340 14.725896
58.345 15.30709
58.350 15.503469
58.355 15.50758
58.360 15.870317
58.365 16.64282
58.370 16.287428
58.375 15.832891
58.380 15.596022
58.385 15.582714
58.390 15.764675
58.395 15.228902
58.400 14.898304
58.405 14.975785
58.410 15.224963
58.415 15.216881
58.420 15.190088
58.425 15.09078
58.430 15.264501
58.435 14.827614
58.440 14.621571
58.445 14.463262
58.450 14.615608
58.455 14.631007
58.460 14.842516
58.465 14.779657
58.470 14.952794
58.475 15.015915
58.480 14.888716
58.485 14.988885
58.490 15.4113
58.495 15.221597
58.500 14.823386
58.505 14.762847
58.510 14.218431
58.515 14.31456
58.520 14.141838
58.525 13.691878
58.530 14.173356
58.535 14.915871
58.540 15.215792
58.545 15.805099
58.550 15.738384
58.555 15.625319
58.560 15.923019
58.565 16.606838
58.570 17.153679
58.575 17.783848
58.580 18.116753
58.585 18.278887
58.590 18.236818
58.595 18.098427
58.600 17.752701
58.605 17.209412
58.610 16.679424
58.615 15.982882
58.620 15.914574
58.625 16.237934
58.630 16.533482
58.635 16.455542
58.640 16.066292
58.645 15.455029
58.650 15.558595
58.655 15.498569
58.660 15.008603
58.665 14.4675
58.670 14.50626
58.675 14.771821
58.680 15.157867
58.685 15.848177
58.690 15.789359
58.695 16.062925
58.700 16.002455
58.705 15.977919
58.710 16.131039
58.715 16.396301
58.720 15.824933
58.725 16.09794
58.730 16.051775
58.735 15.709408
58.740 15.929631
58.745 16.4884
58.750 16.425753
58.755 16.518333
58.760 16.764891
58.765 17.068251
58.770 17.409218
58.775 17.422813
58.780 17.11463
58.785 16.917166
58.790 16.636116
58.795 16.433937
58.800 16.539387
58.805 16.155199
58.810 15.736271
58.815 15.665002
58.820 15.642364
58.825 15.98696
58.830 15.766264
58.835 15.309263
58.840 15.217711
58.845 15.214486
58.850 15.62309
58.855 15.878203
58.860 15.904565
58.865 16.291273
58.870 16.576101
58.875 16.660362
58.880 16.472544
58.885 15.721243
58.890 15.316468
58.895 15.497685
58.900 15.610767
58.905 15.683331
58.910 15.383968
58.915 15.70639
58.920 15.960135
58.925 16.21298
58.930 16.009506
58.935 15.994468
58.940 16.254789
58.945 16.27751
58.950 16.353004
58.955 16.382715
58.960 16.504395
58.965 16.470297
58.970 16.246073
58.975 16.53014
58.980 16.64719
58.985 16.382181
58.990 16.037409
58.995 15.813828
59.000 15.712646
59.005 16.09635
59.010 16.051832
59.015 16.06048
59.020 16.777313
59.025 17.343489
59.030 17.270914
59.035 17.526432
59.040 17.53256
59.045 17.971077
59.050 18.038128
59.055 17.713253
59.060 17.914169
59.065 18.074615
59.070 17.567215
59.075 16.416504
59.080 16.259752
59.085 16.118023
59.090 15.466292
59.095 15.159535
59.100 14.837301
59.105 15.165949
59.110 15.944101
59.115 15.879187
59.120 15.983962
59.125 16.375357
59.130 16.363081
59.135 16.537121
59.140 16.530672
59.145 16.732096
59.150 16.480379
59.155 16.135578
59.160 16.065742
59.165 15.98243
59.170 16.291309
59.175 16.558311
59.180 15.939375
59.185 16.021471
59.190 16.123949
59.195 16.50458
59.200 16.618225
59.205 15.865267
59.210 15.566571
59.215 15.953806
59.220 16.487988
59.225 16.401335
59.230 16.192694
59.235 15.845425
59.240 15.897951
59.245 15.966892
59.250 15.986642
59.255 15.96268
59.260 16.463139
59.265 17.043043
59.270 17.624414
59.275 17.663013
59.280 17.470383
59.285 17.086021
59.290 16.674191
59.295 16.692904
59.300 16.568798
59.305 16.59593
59.310 16.729162
59.315 16.790497
59.320 17.109175
59.325 16.999239
59.330 16.507994
59.335 16.497725
59.340 16.246113
59.345 16.246851
59.350 16.275215
59.355 16.187737
59.360 17.016806
59.365 17.537981
59.370 17.713741
59.375 18.163912
59.380 18.301762
59.385 18.320185
59.390 18.720209
59.395 18.264044
59.400 17.818586
59.405 16.926064
59.410 16.326
59.415 16.758408
59.420 17.447279
59.425 17.185213
59.430 17.03117
59.435 17.187582
59.440 17.987352
59.445 18.509649
59.450 18.195488
59.455 17.620047
59.460 18.36804
59.465 19.235222
59.470 18.911898
59.475 18.539036
59.480 18.39163
59.485 18.116806
59.490 18.296843
59.495 18.395481
59.500 17.882669
59.505 17.53474
59.510 17.532108
59.515 17.710279
59.520 17.646261
59.525 17.014439
59.530 15.681709
59.535 15.843703
59.540 16.209402
59.545 16.18301
59.550 16.327772
59.555 16.642441
59.560 17.241404
59.565 18.097439
59.570 18.284525
59.575 18.470753
59.580 18.265949
59.585 18.014368
59.590 17.605864
59.595 17.451523
59.600 17.368628
59.605 17.550539
59.610 17.776325
59.615 18.715857
59.620 19.098471
59.625 19.536655
59.630 20.355392
59.635 20.057335
59.640 19.924385
59.645 19.785049
59.650 19.289755
59.655 19.148487
59.660 19.105001
59.665 18.374985
59.670 18.255598
59.675 18.227802
59.680 18.059731
59.685 17.719645
59.690 18.137627
59.695 18.3573
59.700 19.080105
59.705 19.183916
59.710 19.102922
59.715 19.528673
59.720 19.609009
59.725 18.846453
59.730 18.814831
59.735 18.617098
59.740 18.847055
59.745 18.701345
59.750 18.609179
59.755 18.441788
59.760 18.921068
59.765 19.067101
59.770 19.243696
59.775 19.983257
59.780 20.401924
59.785 20.888517
59.790 21.795517
59.795 22.027281
59.800 21.808794
59.805 21.255049
59.810 20.558701
59.815 20.402815
59.820 20.397205
59.825 19.860098
59.830 19.212656
59.835 19.196056
59.840 19.592402
59.845 19.895319
59.850 19.350479
59.855 19.032778
59.860 19.08688
59.865 19.364336
59.870 19.271103
59.875 19.657204
59.880 20.656038
59.885 21.402679
59.890 22.14942
59.895 22.210636
59.900 22.764845
59.905 22.72044
59.910 22.088232
59.915 21.477955
59.920 21.148869
59.925 20.914328
59.930 21.145403
59.935 20.9284
59.940 20.567677
59.945 20.540079
59.950 20.557299
59.955 20.157824
59.960 19.749365
59.965 19.422541
59.970 19.18519
59.975 19.523331
59.980 19.549017
59.985 19.539217
59.990 20.299616
59.995 20.670952
60.000 20.581488
60.005 20.839249
60.010 21.075808
60.015 20.940392
60.020 20.879171
60.025 20.622765
60.030 20.174561
60.035 20.245344
60.040 20.565193
60.045 20.927286
60.050 20.887318
60.055 21.396769
60.060 21.575193
60.065 22.074823
60.070 22.446333
60.075 21.669296
60.080 21.265871
60.085 21.796814
60.090 21.082756
60.095 20.684191
60.100 20.754431
60.105 20.644819
60.110 21.047554
60.115 20.494759
60.120 19.926167
60.125 20.11356
60.130 20.525198
60.135 20.431803
60.140 20.855471
60.145 21.157394
60.150 21.525703
60.155 22.423389
60.160 22.949488
60.165 22.876703
60.170 23.205685
60.175 23.097141
60.180 22.97291
60.185 22.909016
60.190 22.423639
60.195 21.715231
60.200 21.523361
60.205 21.158228
60.210 21.058765
60.215 21.455986
60.220 21.77673
60.225 21.742754
60.230 22.18092
60.235 22.229378
60.240 22.106375
60.245 22.096266
60.250 22.018618
60.255 21.914415
60.260 22.05654
60.265 22.028744
60.270 22.060843
60.275 22.472626
60.280 22.627447
60.285 21.964884
60.290 21.292883
60.295 20.313192
60.300 19.98068
60.305 19.583721
60.310 19.463354
60.315 19.634966
60.320 21.260416
60.325 22.761276
60.330 23.822371
60.335 23.983892
60.340 24.501722
60.345 24.602709
60.350 23.968723
60.355 22.882669
60.360 21.998056
60.365 22.287931
60.370 22.527729
60.375 22.400957
60.380 22.782232
60.385 23.123554
60.390 23.59763
60.395 23.420273
60.400 22.539455
60.405 22.362801
60.410 21.867653
60.415 21.061556
60.420 20.435093
60.425 20.257551
60.430 20.45755
60.435 20.633568
60.440 20.375164
60.445 20.466932
60.450 20.292032
60.455 20.552496
60.460 20.36537
60.465 20.031439
60.470 20.369507
60.475 20.666832
60.480 20.907866
60.485 21.14654
60.490 21.045481
60.495 20.629698
60.500 20.736237
60.505 20.805664
60.510 20.458988
60.515 20.662457
60.520 20.917627
60.525 20.492851
60.530 20.575964
60.535 19.792213
60.540 19.876921
60.545 19.744543
60.550 19.58555
60.555 19.236553
60.560 19.621943
60.565 20.145592
60.570 20.480728
60.575 20.490343
60.580 21.012028
60.585 20.543303
60.590 21.00836
60.595 20.841124
60.600 20.10634
60.605 19.665695
60.610 19.255707
60.615 18.663445
60.620 18.409586
60.625 18.070724
60.630 17.800594
60.635 17.970453
60.640 17.592688
60.645 17.586964
60.650 17.991909
60.655 18.663052
60.660 18.276558
60.665 18.543396
60.670 19.008942
60.675 19.740595
60.680 19.634052
60.685 19.235962
60.690 19.136515
60.695 19.710293
60.700 19.80393
60.705 19.633562
60.710 18.721977
60.715 18.149618
60.720 17.805445
60.725 17.248659
60.730 16.341082
60.735 16.278891
60.740 16.123434
60.745 16.498598
60.750 17.018879
60.755 16.878546
60.760 17.343487
60.765 18.604818
60.770 18.690182
60.775 18.630423
60.780 18.822319
60.785 19.001648
60.790 19.172852
60.795 18.903961
60.800 18.373888
60.805 17.930767
60.810 18.035151
60.815 17.381668
60.820 17.230139
60.825 17.659943
60.830 17.404186
60.835 17.302757
60.840 17.623707
60.845 18.093927
60.850 19.362055
60.855 20.06624
60.860 20.410524
60.865 20.57621
60.870 20.473278
60.875 20.461914
60.880 20.237978
60.885 19.395004
60.890 19.388119
60.895 19.674078
60.900 19.91983
60.905 20.219362
60.910 20.033001
60.915 20.072922
60.920 19.916586
60.925 18.919312
60.930 18.32798
60.935 17.835526
60.940 17.381195
60.945 17.002014
60.950 16.355968
60.955 15.961351
60.960 16.341043
60.965 16.198093
60.970 16.347746
60.975 16.236095
60.980 16.720451
60.985 17.304949
60.990 17.825781
60.995 16.644421
61.000 15.990217
61.005 15.924191
61.010 15.789714
61.015 15.225083
61.020 15.250226
61.025 14.780863
61.030 15.250606
61.035 15.55967
61.040 16.338688
61.045 16.933159
61.050 17.463139
61.055 17.490705
61.060 18.176022
61.065 18.308651
61.070 17.915813
61.075 17.091639
61.080 16.908079
61.085 17.016886
61.090 16.807091
61.095 17.059145
61.100 17.393194
61.105 17.630335
61.110 17.700371
61.115 17.876673
61.120 17.395088
61.125 17.646734
61.130 17.019646
61.135 17.010805
61.140 17.37368
61.145 17.694283
61.150 17.073545
61.155 17.354322
61.160 17.308086
61.165 17.060974
61.170 16.760012
61.175 16.733179
61.180 16.11154
61.185 15.874812
61.190 15.401887
61.195 15.920469
61.200 17.279518
61.205 18.32173
61.210 18.347097
61.215 18.85499
61.220 18.962105
61.225 19.142191
61.230 18.510906
61.235 17.999157
61.240 17.767759
61.245 17.934896
61.250 18.300341
61.255 18.892769
61.260 19.001846
61.265 18.477673
61.270 18.183607
61.275 17.785328
61.280 18.249315
61.285 18.453888
61.290 18.563326
61.295 18.699993
61.300 19.210516
61.305 18.994303
61.310 18.872173
61.315 18.561592
61.320 18.255754
61.325 17.472883
61.330 17.110392
61.335 16.691187
61.340 16.787605
61.345 16.700056
61.350 16.011806
61.355 16.138998
61.360 16.952951
61.365 17.561092
61.370 17.717171
61.375 17.676291
61.380 17.945831
61.385 18.031563
61.390 17.766253
61.395 17.081493
61.400 16.533306
61.405 16.226768
61.410 16.152819
61.415 15.889762
61.420 16.400789
61.425 16.615381
61.430 16.690432
61.435 16.728189
61.440 16.779501
61.445 17.275925
61.450 17.189983
61.455 16.55761
61.460 16.296412
61.465 16.17547
61.470 16.469193
61.475 16.696907
61.480 16.38039
61.485 16.372618
61.490 16.702305
61.495 16.553852
61.500 16.783434
61.505 16.801085
61.510 16.984894
61.515 17.156275
61.520 17.044004
61.525 17.050976
61.530 17.439459
61.535 17.677818
61.540 17.739758
61.545 17.692207
61.550 17.533094
61.555 17.560698
61.560 17.408695
61.565 17.294512
61.570 17.153906
61.575 16.625563
61.580 15.878925
61.585 16.201674
61.590 16.484091
61.595 16.772606
61.600 16.675116
61.605 16.500275
61.610 17.204056
61.615 17.405251
61.620 17.335693
61.625 17.354933
61.630 16.996218
61.635 16.893536
61.640 17.038849
61.645 16.71451
61.650 16.892233
61.655 16.610832
61.660 16.074766
61.665 16.302595
61.670 16.162666
61.675 15.804366
61.680 15.411772
61.685 15.168339
61.690 15.255061
61.695 15.384793
61.700 14.969151
61.705 15.222426
61.710 15.835299
61.715 16.433847
61.720 16.572098
61.725 16.435915
61.730 16.873827
61.735 17.141888
61.740 17.222145
61.745 16.782156
61.750 16.429253
61.755 16.467323
61.760 16.723766
61.765 16.721424
61.770 16.774952
61.775 17.298643
61.780 17.322708
61.785 17.778568
61.790 18.587362
61.795 18.880692
61.800 18.757114
61.805 18.650377
61.810 18.328087
61.815 18.392426
61.820 18.248417
61.825 17.471668
61.830 17.232622
61.835 17.272539
61.840 17.064487
61.845 17.494036
61.850 17.89397
61.855 17.212852
61.860 17.357376
61.865 17.416555
61.870 18.203697
61.875 18.54357
61.880 18.070675
61.885 18.052094
61.890 19.580997
61.895 19.738085
61.900 19.670269
61.905 18.772133
61.910 18.462107
61.915 18.458321
61.920 18.608004
61.925 17.276409
61.930 16.825893
61.935 16.723341
61.940 16.746689
61.945 16.74991
61.950 16.645424
61.955 16.252331
61.960 16.341539
61.965 16.3099
61.970 16.545752
61.975 16.979816
61.980 16.990271
61.985 16.765558
61.990 16.693264
61.995 16.896849
62.000 17.186054
62.005 16.880516
62.010 16.626627
62.015 16.4121
62.020 16.272867
62.025 16.373585
62.030 16.281786
62.035 16.213135
62.040 16.701227
62.045 16.827398
62.050 17.141281
62.055 17.274649
62.060 17.361092
62.065 16.964546
62.070 16.344698
62.075 16.123482
62.080 15.832809
62.085 16.094927
62.090 16.060736
62.095 15.960226
62.100 16.330526
62.105 16.852999
62.110 16.911114
62.115 17.009937
62.120 17.27659
62.125 17.759533
62.130 17.919956
62.135 17.952036
62.140 18.154554
62.145 18.587017
62.150 19.197901
62.155 18.878757
62.160 18.487539
62.165 18.388054
62.170 19.280354
62.175 19.526247
62.180 19.706095
62.185 19.315796
62.190 19.001385
62.195 18.747599
62.200 18.207872
62.205 17.093374
62.210 15.870636
62.215 14.888266
62.220 14.849754
62.225 14.794572
62.230 15.180177
62.235 16.023838
62.240 17.079206
62.245 17.778841
62.250 17.915598
62.255 17.642206
62.260 17.773745
62.265 17.310097
62.270 16.974716
62.275 16.721066
62.280 16.353279
62.285 16.387468
62.290 16.897079
62.295 17.322241
62.300 17.91263
62.305 17.785936
62.310 17.168909
62.315 17.257792
62.320 17.261097
62.325 16.796724
62.330 16.440672
62.335 16.066257
62.340 16.322708
62.345 16.682957
62.350 16.503723
62.355 16.07539
62.360 16.588947
62.365 17.066595
62.370 17.177265
62.375 16.922436
62.380 17.431858
62.385 17.717621
62.390 17.80167
62.395 17.479921
62.400 17.614275
62.405 17.711737
62.410 18.352146
62.415 18.570856
62.420 18.759445
62.425 18.729801
62.430 18.620018
62.435 18.309473
62.440 18.314913
62.445 18.265915
62.450 18.440931
62.455 18.40152
62.460 18.475126
62.465 18.822405
62.470 19.179264
62.475 19.451052
62.480 19.066196
62.485 18.202707
62.490 18.216312
62.495 18.321499
62.500 18.179403
62.505 17.639069
62.510 17.131006
62.515 16.858641
62.520 17.083326
62.525 17.1423
62.530 17.310287
62.535 17.10799
62.540 16.762539
62.545 16.442423
62.550 16.11171
62.555 15.842731
62.560 15.930548
62.565 15.585425
62.570 15.195282
62.575 15.620841
62.580 16.196259
62.585 16.506727
62.590 16.323698
62.595 16.022211
62.600 16.264734
62.605 16.100729
62.610 15.593215
62.615 15.054441
62.620 14.746198
62.625 15.041544
62.630 15.447293
62.635 15.585557
62.640 15.634159
62.645 16.064699
62.650 16.183983
62.655 16.510695
62.660 16.392265
62.665 15.980214
62.670 16.301918
62.675 16.896749
62.680 16.889732
62.685 16.48855
62.690 16.724636
62.695 16.768785
62.700 17.002613
62.705 17.355324
62.710 18.007929
62.715 18.023539
62.720 18.677401
62.725 18.249662
62.730 17.926231
62.735 17.844704
62.740 17.270145
62.745 16.803015
62.750 16.787142
62.755 16.659809
62.760 17.11561
62.765 17.802122
62.770 17.538458
62.775 17.510063
62.780 17.481953
62.785 17.457319
62.790 17.763475
62.795 17.609007
62.800 16.943277
62.805 16.926401
62.810 16.726288
62.815 16.518093
62.820 16.525211
62.825 16.034245
62.830 16.246197
62.835 17.287283
62.840 17.550919
62.845 17.738047
62.850 17.83392
62.855 18.249897
62.860 18.262346
62.865 18.243507
62.870 17.992865
62.875 18.008026
62.880 18.461088
62.885 18.417463
62.890 17.975498
62.895 17.733324
62.900 17.633221
62.905 17.017654
62.910 17.227713
62.915 16.411613
62.920 16.029064
62.925 16.504059
62.930 16.916845
62.935 16.916555
62.940 17.038733
62.945 16.755003
62.950 17.457579
62.955 17.647415
62.960 17.37952
62.965 17.619747
62.970 18.056332
62.975 18.319529
62.980 18.275679
62.985 17.848251
62.990 18.348866
62.995 18.323635
63.000 18.032131
63.005 17.96847
63.010 17.713673
63.015 17.914093
63.020 18.175095
63.025 17.850431
63.030 17.829565
63.035 17.648138
63.040 17.546509
63.045 17.867277
63.050 17.525118
63.055 17.528069
63.060 17.750139
63.065 17.981585
63.070 18.113974
63.075 17.941452
63.080 17.972231
63.085 18.202137
63.090 18.117676
63.095 18.431166
63.100 18.28162
63.105 18.468956
63.110 18.936068
63.115 18.744116
63.120 18.510563
63.125 18.71043
63.130 18.382254
63.135 18.345268
63.140 18.187082
63.145 17.708511
63.150 17.849045
63.155 17.627769
63.160 17.157011
63.165 17.045197
63.170 17.279556
63.175 17.553612
63.180 18.023935
63.185 18.364471
63.190 18.649637
63.195 18.617128
63.200 18.457043
63.205 17.539598
63.210 17.12001
63.215 16.430664
63.220 15.823023
63.225 16.089449
63.230 16.238205
63.235 16.505527
63.240 17.634241
63.245 18.14254
63.250 18.576355
63.255 19.109264
63.260 18.763577
63.265 18.304302
63.270 18.40403
63.275 17.873564
63.280 17.533352
63.285 17.527685
63.290 17.580942
63.295 18.177902
63.300 18.855637
63.305 19.068682
63.310 18.931089
63.315 18.992338
63.320 18.855991
63.325 18.779915
63.330 19.311762
63.335 19.37487
63.340 19.119162
63.345 19.193136
63.350 19.081232
63.355 19.354015
63.360 19.769283
63.365 19.730003
63.370 19.689072
63.375 19.833376
63.380 20.239527
63.385 19.983139
63.390 19.863096
63.395 19.008596
63.400 18.163637
63.405 17.426413
63.410 16.719219
63.415 16.178722
63.420 15.872106
63.425 15.810843
63.430 16.631304
63.435 17.003883
63.440 17.263067
63.445 17.757252
63.450 17.929817
63.455 18.699066
63.460 18.447193
63.465 18.153419
63.470 17.946766
63.475 18.162327
63.480 18.582529
63.485 18.668295
63.490 17.760963
63.495 17.308603
63.500 16.736559
63.505 16.651558
63.510 16.737534
63.515 16.570097
63.520 17.024319
63.525 16.84878
63.530 17.365486
63.535 17.869566
63.540 17.789255
63.545 17.5014
63.550 16.906393
63.555 16.382824
63.560 16.341509
63.565 16.485302
63.570 16.52194
63.575 17.121143
63.580 16.956753
63.585 17.187935
63.590 17.795914
63.595 18.162706
63.600 18.009384
63.605 17.938635
63.610 17.372829
63.615 17.712864
63.620 17.783447
63.625 17.579609
63.630 17.56811
63.635 17.11957
63.640 17.491476
63.645 17.87693
63.650 18.122633
63.655 18.321432
63.660 18.56995
63.665 18.534365
63.670 18.730677
63.675 18.331017
63.680 18.030077
63.685 18.076166
63.690 17.6588
63.695 17.566755
63.700 18.057281
63.705 18.320812
63.710 18.484669
63.715 19.017483
63.720 18.568235
63.725 18.730597
63.730 18.836748
63.735 18.389452
63.740 18.257587
63.745 17.875996
63.750 17.594494
63.755 18.125433
63.760 17.866533
63.765 17.629183
63.770 18.126091
63.775 18.44696
63.780 18.712893
63.785 18.921967
63.790 18.700043
63.795 18.96834
63.800 19.129879
63.805 19.097012
63.810 19.057438
63.815 19.21954
63.820 19.088615
63.825 18.817402
63.830 19.132801
63.835 18.936815
63.840 19.232445
63.845 18.886942
63.850 18.7015
63.855 18.200022
63.860 18.340755
63.865 18.04756
63.870 17.711916
63.875 16.967438
63.880 16.812523
63.885 16.672277
63.890 16.961578
63.895 16.553465
63.900 16.174318
63.905 16.101974
63.910 15.955378
63.915 15.855724
63.920 15.361052
63.925 15.335358
63.930 16.155857
63.935 16.538671
63.940 16.864311
63.945 17.293161
63.950 18.17264
63.955 18.313093
63.960 18.367016
63.965 18.058865
63.970 18.404943
63.975 18.59067
63.980 19.029451
63.985 18.816315
63.990 19.133459
63.995 19.200914
64.000 18.918732
64.005 18.641979
64.010 18.867817
64.015 18.900913
64.020 19.182671
64.025 19.966114
64.030 20.151943
64.035 19.885515
64.040 19.743868
64.045 19.972582
64.050 19.755194
64.055 19.747595
64.060 19.141088
64.065 19.368954
64.070 20.020508
64.075 20.156189
64.080 19.573505
64.085 19.054296
64.090 18.561432
64.095 18.517933
64.100 18.363308
64.105 18.579405
64.110 18.813499
64.115 18.74081
64.120 18.866983
64.125 18.885445
64.130 18.875059
64.135 18.856985
64.140 18.644825
64.145 18.125721
64.150 18.207216
64.155 18.490221
64.160 17.878122
64.165 17.56448
64.170 17.35471
64.175 17.125715
64.180 17.269995
64.185 17.415359
64.190 17.079178
64.195 17.474823
64.200 17.491869
64.205 17.124262
64.210 16.803637
64.215 16.565149
64.220 16.283499
64.225 16.311096
64.230 16.035763
64.235 15.932837
64.240 16.276426
64.245 16.266111
64.250 16.083008
64.255 16.572104
64.260 17.424929
64.265 18.026556
64.270 18.255077
64.275 18.579735
64.280 18.821945
64.285 19.467932
64.290 19.584351
64.295 19.059565
64.300 19.507666
64.305 19.338764
64.310 18.921328
64.315 18.944462
64.320 18.768188
64.325 18.672333
64.330 18.149582
64.335 17.433537
64.340 17.64645
64.345 18.005199
64.350 18.648859
64.355 18.945627
64.360 18.797974
64.365 19.054199
64.370 19.480797
64.375 19.350752
64.380 19.202684
64.385 18.542494
64.390 18.116207
64.395 18.389086
64.400 18.367861
64.405 18.642088
64.410 19.137419
64.415 19.412151
64.420 19.748121
64.425 20.522192
64.430 20.947191
64.435 21.517994
64.440 21.290981
64.445 21.434423
64.450 22.021034
64.455 21.605186
64.460 21.047039
64.465 20.885233
64.470 20.799448
64.475 20.823566
64.480 20.846186
64.485 20.23177
64.490 20.569977
64.495 20.881315
64.500 21.125542
64.505 20.918161
64.510 20.650606
64.515 20.922688
64.520 21.195017
64.525 21.154343
64.530 20.452599
64.535 20.455276
64.540 20.63456
64.545 20.442926
64.550 19.909168
64.555 19.570261
64.560 19.331581
64.565 19.569397
64.570 19.432325
64.575 19.267273
64.580 19.365128
64.585 19.911642
64.590 20.065069
64.595 19.955114
64.600 20.180634
64.605 19.818939
64.610 20.494818
64.615 20.877672
64.620 20.811062
64.625 20.799646
64.630 21.528603
64.635 21.532076
64.640 21.355066
64.645 20.511726
64.650 20.102287
64.655 20.157621
64.660 20.284847
64.665 19.181929
64.670 19.083643
64.675 19.384552
64.680 19.628666
64.685 19.661983
64.690 19.23735
64.695 19.60673
64.700 20.420485
64.705 21.083117
64.710 21.271738
64.715 21.492243
64.720 21.607845
64.725 21.633804
64.730 21.074141
64.735 20.389664
64.740 19.287371
64.745 18.902212
64.750 19.043697
64.755 18.685919
64.760 18.843735
64.765 19.272209
64.770 19.264111
64.775 19.82365
64.780 20.043982
64.785 20.125668
64.790 20.027218
64.795 19.387558
64.800 19.304482
64.805 19.610756
64.810 19.653486
64.815 19.848101
64.820 19.992876
64.825 20.654066
64.830 21.347815
64.835 21.800676
64.840 21.761011
64.845 21.877417
64.850 21.893513
64.855 21.893301
64.860 22.103329
64.865 21.739458
64.870 21.071136
64.875 20.963272
64.880 20.861645
64.885 20.655159
64.890 20.562742
64.895 20.063385
64.900 19.710896
64.905 19.928589
64.910 20.149225
64.915 20.424023
64.920 20.303986
64.925 19.656128
64.930 19.71167
64.935 20.563848
64.940 20.36257
64.945 20.460772
64.950 20.629608
64.955 20.958244
64.960 21.721546
64.965 21.495445
64.970 21.081505
64.975 21.074011
64.980 21.035812
64.985 20.829721
64.990 20.430059
64.995 20.406527
65.000 20.740822
65.005 21.14196
65.010 21.430244
65.015 21.638025
65.020 22.123779
65.025 22.639194
65.030 22.509092
65.035 22.575005
65.040 22.991049
65.045 23.422277
65.050 23.024441
65.055 22.544325
65.060 22.813129
65.065 23.321154
65.070 23.246931
65.075 22.705656
65.080 23.037369
65.085 23.376329
65.090 23.662861
65.095 22.900373
65.100 22.737614
65.105 23.02911
65.110 23.024889
65.115 22.929049
65.120 22.943295
65.125 22.990252
65.130 23.889484
65.135 23.653332
65.140 23.496952
65.145 23.135946
65.150 22.658928
65.155 22.504129
65.160 22.808887
65.165 22.154062
65.170 22.259884
65.175 22.220253
65.180 22.325109
65.185 22.260454
65.190 22.640324
65.195 22.279968
65.200 22.527201
65.205 22.315954
65.210 22.359768
65.215 22.473303
65.220 22.206938
65.225 21.882217
65.230 21.897354
65.235 21.857475
65.240 22.0924
65.245 21.799994
65.250 22.166029
65.255 22.669678
65.260 22.815262
65.265 22.906565
65.270 22.928156
65.275 22.895657
65.280 22.915009
65.285 22.860876
65.290 22.454544
65.295 22.630032
65.300 22.847971
65.305 23.276005
65.310 23.689188
65.315 23.818619
65.320 23.79702
65.325 23.274431
65.330 23.28175
65.335 23.834457
65.340 23.347893
65.345 22.947666
65.350 22.94043
65.355 22.665403
65.360 22.966139
65.365 22.694431
65.370 22.038595
65.375 22.012882
65.380 22.774012
65.385 23.031359
65.390 23.429865
65.395 23.962286
65.400 24.018723
65.405 23.680901
65.410 22.971167
65.415 22.215321
65.420 22.037842
65.425 22.328953
65.430 22.172043
65.435 22.707861
65.440 24.153187
65.445 25.546488
65.450 27.260395
65.455 27.970564
65.460 28.537415
65.465 29.051844
65.470 29.15276
65.475 28.691467
65.480 28.526329
65.485 28.12833
65.490 27.974207
65.495 27.96089
65.500 27.822153
65.505 27.38216
65.510 27.777098
65.515 28.150934
65.520 27.786573
65.525 27.041889
65.530 26.439495
65.535 26.753973
65.540 27.667902
65.545 27.957176
65.550 27.730816
65.555 27.681637
65.560 28.337355
65.565 28.507915
65.570 28.146328
65.575 27.759933
65.580 27.771791
65.585 28.184963
65.590 28.197256
65.595 28.442036
65.600 28.688938
65.605 29.196926
65.610 29.161789
65.615 29.858313
65.620 29.821005
65.625 30.041231
65.630 30.065409
65.635 29.964926
65.640 29.943213
65.645 29.928282
65.650 30.103689
65.655 30.823341
65.660 31.424305
65.665 31.593597
65.670 32.232201
65.675 32.841049
65.680 33.391788
65.685 32.791718
65.690 32.750713
65.695 33.079533
65.700 34.33292
65.705 33.834412
65.710 33.183289
65.715 32.497059
65.720 32.79874
65.725 33.030781
65.730 33.007702
65.735 31.938372
65.740 32.354939
65.745 32.846188
65.750 33.436947
65.755 33.930363
65.760 34.551136
65.765 34.825653
65.770 35.500633
65.775 36.225349
65.780 37.124123
65.785 37.204082
65.790 37.31789
65.795 37.449326
65.800 37.462021
65.805 38.097664
65.810 37.603096
65.815 38.319473
65.820 39.077118
65.825 39.457462
65.830 39.794918
65.835 39.28997
65.840 39.038589
65.845 39.655247
65.850 39.380928
65.855 38.7355
65.860 38.225288
65.865 38.611469
65.870 38.566917
65.875 38.092041
65.880 37.276413
65.885 38.023426
65.890 38.671871
65.895 38.675159
65.900 37.177349
65.905 38.067265
65.910 38.683842
65.915 38.472343
65.920 38.379669
65.925 38.342163
65.930 38.078472
65.935 39.117405
65.940 38.806984
65.945 38.516167
65.950 38.538681
65.955 37.246609
65.960 36.745907
65.965 36.539944
65.970 35.793285
65.975 35.705948
65.980 36.176193
65.985 36.834072
65.990 37.459427
65.995 38.029663
66.000 38.151802
66.005 38.958874
66.010 39.507549
66.015 39.49762
66.020 39.899555
66.025 39.951145
66.030 40.221718
66.035 40.358315
66.040 39.582912
66.045 39.108131
66.050 38.547928
66.055 37.428719
66.060 37.276886
66.065 37.118439
66.070 37.224552
66.075 37.642651
66.080 37.918819
66.085 38.872616
66.090 39.19101
66.095 39.604137
66.100 39.588879
66.105 39.355824
66.110 38.269241
66.115 37.788452
66.120 36.298252
66.125 36.688324
66.130 36.329735
66.135 36.247009
66.140 36.410133
66.145 36.840809
66.150 37.222172
66.155 37.621521
66.160 37.605927
66.165 37.287334
66.170 37.03204
66.175 36.361656
66.180 36.064308
66.185 35.485611
66.190 35.21637
66.195 34.955269
66.200 35.600468
66.205 35.565815
66.210 35.862511
66.215 36.191525
66.220 36.480278
66.225 36.078945
66.230 35.58654
66.235 34.706459
66.240 34.535664
66.245 33.970974
66.250 33.836769
66.255 33.970695
66.260 34.026218
66.265 34.821056
66.270 35.397552
66.275 35.167618
66.280 34.40015
66.285 34.071293
66.290 33.629196
66.295 33.828377
66.300 33.088913
66.305 32.174053
66.310 32.490578
66.315 32.764011
66.320 33.410061
66.325 33.598988
66.330 33.063869
66.335 33.29055
66.340 33.58231
66.345 33.713863
66.350 33.686859
66.355 33.424366
66.360 33.127193
66.365 32.77758
66.370 31.585783
66.375 30.457134
66.380 29.671923
66.385 29.560898
66.390 28.756147
66.395 28.203554
66.400 29.239206
66.405 29.789963
66.410 29.584297
66.415 29.877216
66.420 29.758461
66.425 30.163067
66.430 30.747936
66.435 30.166409
66.440 29.440784
66.445 30.028353
66.450 30.263041
66.455 30.070635
66.460 29.409803
66.465 28.244417
66.470 28.068409
66.475 28.492298
66.480 28.618052
66.485 29.021065
66.490 29.251404
66.495 29.89049
66.500 30.294222
66.505 29.912237
66.510 29.291002
66.515 28.472546
66.520 27.112421
66.525 26.802288
66.530 26.917274
66.535 27.270216
66.540 27.207724
66.545 26.95632
66.550 26.603962
66.555 26.313192
66.560 26.371086
66.565 26.215405
66.570 26.445995
66.575 26.499226
66.580 26.732704
66.585 26.949059
66.590 27.371906
66.595 26.691305
66.600 26.176025
66.605 26.308561
66.610 26.949232
66.615 27.538605
66.620 27.668642
66.625 27.79534
66.630 28.013687
66.635 27.733173
66.640 27.320805
66.645 26.295174
66.650 25.746738
66.655 25.579866
66.660 26.05423
66.665 26.103252
66.670 26.232742
66.675 25.838247
66.680 25.93704
66.685 25.730909
66.690 25.094786
66.695 24.145206
66.700 24.308355
66.705 24.101196
66.710 24.074377
66.715 24.014467
66.720 24.284681
66.725 24.629648
66.730 25.245243
66.735 25.069443
66.740 25.254328
66.745 25.705149
66.750 26.399517
66.755 26.177984
66.760 25.928822
66.765 24.682489
66.770 25.079132
66.775 25.435087
66.780 24.29623
66.785 23.213701
66.790 22.866423
66.795 23.059769
66.800 23.215506
66.805 22.949158
66.810 22.449909
66.815 22.971502
66.820 23.407541
66.825 23.33522
66.830 23.186457
66.835 23.781105
66.840 23.297407
66.845 23.091259
66.850 23.280025
66.855 23.034651
66.860 23.664686
66.865 23.671831
66.870 23.30419
66.875 23.308086
66.880 23.505028
66.885 23.356586
66.890 23.526661
66.895 23.211653
66.900 22.858986
66.905 22.685045
66.910 22.738384
66.915 22.817429
66.920 23.099524
66.925 22.766903
66.930 22.743088
66.935 23.446461
66.940 24.003038
66.945 24.088848
66.950 24.050486
66.955 23.332918
66.960 23.576445
66.965 23.782011
66.970 23.906534
66.975 22.881758
66.980 22.568022
66.985 22.707571
66.990 23.47398
66.995 23.411697
67.000 23.064079
67.005 22.847021
67.010 23.628912
67.015 23.899546
67.020 23.586676
67.025 23.111408
67.030 22.599369
67.035 22.851042
67.040 22.560844
67.045 22.382849
67.050 22.050022
67.055 21.908354
67.060 21.947405
67.065 22.25042
67.070 22.291798
67.075 22.507084
67.080 22.505775
67.085 22.473604
67.090 22.574083
67.095 22.439505
67.100 22.502293
67.105 22.91831
67.110 22.557981
67.115 22.769951
67.120 23.339682
67.125 23.367748
67.130 23.961191
67.135 23.896957
67.140 23.458883
67.145 23.717045
67.150 23.43869
67.155 23.059242
67.160 23.239594
67.165 22.924292
67.170 22.73481
67.175 22.390247
67.180 22.202848
67.185 22.409323
67.190 22.728771
67.195 22.751101
67.200 22.891588
67.205 23.308241
67.210 23.834612
67.215 23.858147
67.220 23.322008
67.225 23.309866
67.230 22.958542
67.235 22.790846
67.240 22.584692
67.245 22.689396
67.250 22.871435
67.255 22.949659
67.260 23.023172
67.265 23.270269
67.270 23.10861
67.275 22.576885
67.280 22.667143
67.285 22.637577
67.290 22.255058
67.295 22.031111
67.300 22.26346
67.305 22.235107
67.310 22.03961
67.315 21.264603
67.320 21.231401
67.325 21.573153
67.330 21.27186
67.335 20.504549
67.340 20.20426
67.345 20.472733
67.350 20.556101
67.355 20.484015
67.360 20.575264
67.365 20.904181
67.370 21.380289
67.375 21.855368
67.380 22.256392
67.385 22.296328
67.390 22.147223
67.395 21.880777
67.400 22.076859
67.405 22.147999
67.410 21.52615
67.415 20.936113
67.420 20.872677
67.425 21.11426
67.430 21.632751
67.435 21.17749
67.440 21.231363
67.445 21.795689
67.450 22.077381
67.455 22.138084
67.460 21.79125
67.465 21.26148
67.470 21.594276
67.475 21.985823
67.480 21.983784
67.485 22.536425
67.490 23.031866
67.495 23.070463
67.500 22.672258
67.505 22.383238
67.510 22.090874
67.515 22.032127
67.520 21.855131
67.525 21.45022
67.530 21.596699
67.535 21.571241
67.540 20.841534
67.545 20.492102
67.550 20.400169
67.555 20.13467
67.560 20.166327
67.565 20.389038
67.570 20.694893
67.575 21.393255
67.580 21.380489
67.585 20.895691
67.590 20.626963
67.595 20.076696
67.600 19.784147
67.605 19.885288
67.610 19.671185
67.615 19.716814
67.620 19.95672
67.625 20.23057
67.630 20.591536
67.635 20.446093
67.640 20.261259
67.645 20.312346
67.650 20.814749
67.655 21.917398
67.660 22.458673
67.665 22.543821
67.670 23.022501
67.675 23.024012
67.680 23.189945
67.685 23.013552
67.690 21.661619
67.695 21.667091
67.700 21.78471
67.705 21.928102
67.710 22.295605
67.715 22.039465
67.720 21.721579
67.725 22.477303
67.730 22.983896
67.735 23.345144
67.740 23.313108
67.745 22.912369
67.750 23.612173
67.755 23.543732
67.760 23.036957
67.765 22.283089
67.770 21.779421
67.775 21.870718
67.780 21.817389
67.785 21.356842
67.790 21.108006
67.795 20.905489
67.800 20.497652
67.805 20.121344
67.810 19.267078
67.815 19.250443
67.820 18.994144
67.825 19.221039
67.830 19.198069
67.835 19.371334
67.840 19.647575
67.845 20.324951
67.850 20.706396
67.855 21.560184
67.860 21.649572
67.865 22.256945
67.870 22.368958
67.875 22.512575
67.880 22.616405
67.885 22.038486
67.890 21.437744
67.895 21.44455
67.900 21.611603
67.905 22.010075
67.910 22.690115
67.915 22.590122
67.920 22.843449
67.925 22.580173
67.930 22.449644
67.935 22.214417
67.940 21.43652
67.945 20.841431
67.950 21.491995
67.955 20.982798
67.960 21.681395
67.965 22.298782
67.970 21.77738
67.975 22.361158
67.980 22.572577
67.985 21.953014
67.990 22.596458
67.995 21.722857
68.000 21.094625
68.005 22.015833
68.010 22.443316
68.015 22.18191
68.020 22.874905
68.025 22.951029
68.030 23.877489
68.035 24.084362
68.040 23.261375
68.045 22.597311
68.050 22.295179
68.055 21.816261
68.060 21.946264
68.065 21.141525
68.070 21.173885
68.075 21.173326
68.080 21.339939
68.085 21.7062
68.090 21.315758
68.095 21.214787
68.100 21.415947
68.105 21.651863
68.110 21.953176
68.115 21.856453
68.120 21.442617
68.125 21.52718
68.130 21.63246
68.135 21.734436
68.140 21.09411
68.145 20.862902
68.150 20.766853
68.155 21.02561
68.160 20.862469
68.165 20.660009
68.170 20.828541
68.175 21.592485
68.180 21.825027
68.185 22.263754
68.190 22.281437
68.195 22.684311
68.200 22.887033
68.205 22.594408
68.210 22.33795
68.215 22.407557
68.220 22.303881
68.225 23.134432
68.230 23.035753
68.235 22.580441
68.240 22.904585
68.245 22.585651
68.250 22.018774
68.255 21.03113
68.260 20.035397
68.265 19.79517
68.270 19.74404
68.275 20.22048
68.280 20.416214
68.285 20.656536
68.290 20.842619
68.295 20.802532
68.300 21.063219
68.305 20.912552
68.310 20.440899
68.315 20.298344
68.320 20.077351
68.325 20.597483
68.330 20.35144
68.335 20.605639
68.340 20.929441
68.345 21.108225
68.350 21.13233
68.355 21.087292
68.360 21.156939
68.365 21.445837
68.370 20.859543
68.375 20.81638
68.380 20.819786
68.385 20.876556
68.390 21.783585
68.395 22.416374
68.400 22.781612
68.405 23.503359
68.410 23.586823
68.415 23.733118
68.420 23.605768
68.425 22.61639
68.430 22.113634
68.435 21.212307
68.440 20.936943
68.445 20.666578
68.450 20.66662
68.455 21.047586
68.460 21.133028
68.465 21.193449
68.470 21.914484
68.475 21.58894
68.480 21.858274
68.485 21.962942
68.490 21.788305
68.495 22.407864
68.500 22.672667
68.505 22.593098
68.510 22.445934
68.515 22.270082
68.520 22.168188
68.525 21.649641
68.530 21.177965
68.535 20.671276
68.540 20.947472
68.545 21.058046
68.550 21.488232
68.555 21.972111
68.560 21.711372
68.565 21.748737
68.570 21.799646
68.575 22.28244
68.580 22.747915
68.585 22.629824
68.590 23.096945
68.595 23.981859
68.600 24.276413
68.605 24.083176
68.610 23.244572
68.615 22.841047
68.620 22.476133
68.625 21.92329
68.630 21.396463
68.635 21.33806
68.640 21.827969
68.645 21.860283
68.650 21.622204
68.655 21.431725
68.660 21.197052
68.665 21.189856
68.670 21.063536
68.675 21.099833
68.680 21.954758
68.685 22.40432
68.690 22.22394
68.695 22.284452
68.700 22.831413
68.705 22.972061
68.710 23.014828
68.715 22.218996
68.720 21.953228
68.725 22.453058
68.730 22.522127
68.735 22.149717
68.740 21.704895
68.745 21.339205
68.750 21.622688
68.755 21.67774
68.760 22.033262
68.765 22.03611
68.770 22.516546
68.775 22.398031
68.780 22.092329
68.785 22.251703
68.790 21.831257
68.795 21.040361
68.800 21.167782
68.805 21.035353
68.810 21.650232
68.815 21.879057
68.820 22.190735
68.825 23.015392
68.830 23.784931
68.835 23.17523
68.840 22.913445
68.845 23.451824
68.850 24.030914
68.855 23.243555
68.860 22.905703
68.865 22.576149
68.870 22.731632
68.875 23.1054
68.880 22.480621
68.885 21.630024
68.890 21.970909
68.895 22.690187
68.900 23.122076
68.905 23.913139
68.910 23.199709
68.915 23.228178
68.920 23.328564
68.925 22.946228
68.930 22.482986
68.935 21.965532
68.940 21.571276
68.945 21.572405
68.950 21.736153
68.955 21.862152
68.960 22.102018
68.965 22.149612
68.970 23.086761
68.975 23.691641
68.980 24.092205
68.985 24.375444
68.990 25.108498
68.995 25.289335
69.000 25.445843
69.005 25.810688
69.010 25.270187
69.015 25.368906
69.020 25.284893
69.025 25.038069
69.030 24.87088
69.035 24.095108
69.040 23.244486
69.045 23.471939
69.050 23.493876
69.055 23.849358
69.060 23.589872
69.065 23.859663
69.070 24.522806
69.075 24.953161
69.080 24.979805
69.085 24.730402
69.090 24.372698
69.095 24.515425
69.100 24.852034
69.105 25.07332
69.110 25.394653
69.115 25.817732
69.120 26.996237
69.125 27.163685
69.130 27.42263
69.135 27.655266
69.140 27.066961
69.145 26.853752
69.150 26.074459
69.155 25.658089
69.160 25.39065
69.165 25.074352
69.170 24.890171
69.175 24.948193
69.180 25.311201
69.185 25.950527
69.190 25.919014
69.195 26.615765
69.200 26.467402
69.205 27.008425
69.210 27.504196
69.215 26.654154
69.220 27.181789
69.225 26.922451
69.230 26.748966
69.235 26.380991
69.240 25.784967
69.245 25.588808
69.250 26.016649
69.255 26.020155
69.260 26.058596
69.265 26.558882
69.270 27.420502
69.275 27.210262
69.280 27.770407
69.285 27.492413
69.290 27.165359
69.295 26.986666
69.300 26.545847
69.305 26.868084
69.310 26.874908
69.315 27.387363
69.320 27.534895
69.325 27.129837
69.330 27.593266
69.335 27.280849
69.340 26.776581
69.345 26.782103
69.350 25.322432
69.355 24.923006
69.360 25.351027
69.365 25.936947
69.370 26.776384
69.375 26.850468
69.380 26.910685
69.385 27.463808
69.390 28.549952
69.395 28.621431
69.400 28.427238
69.405 27.883495
69.410 27.966099
69.415 28.94438
69.420 29.567772
69.425 29.06259
69.430 29.06604
69.435 28.771528
69.440 29.409632
69.445 29.62508
69.450 29.38566
69.455 28.871771
69.460 28.713011
69.465 28.473635
69.470 27.997286
69.475 28.40761
69.480 28.657207
69.485 29.296808
69.490 29.881968
69.495 30.498329
69.500 31.14813
69.505 31.293533
69.510 31.147551
69.515 30.79155
69.520 30.265202
69.525 29.903982
69.530 29.428276
69.535 29.52067
69.540 29.764296
69.545 29.267115
69.550 29.330233
69.555 29.20801
69.560 29.059978
69.565 29.418203
69.570 29.069628
69.575 28.899345
69.580 28.854691
69.585 29.155037
69.590 29.438168
69.595 29.131594
69.600 28.420567
69.605 28.490017
69.610 29.150015
69.615 29.51664
69.620 29.144194
69.625 28.319105
69.630 28.460327
69.635 29.335854
69.640 29.502542
69.645 28.545408
69.650 28.256588
69.655 28.297495
69.660 28.963024
69.665 29.21361
69.670 29.602509
69.675 29.570688
69.680 30.12516
69.685 30.041595
69.690 29.759985
69.695 30.164938
69.700 30.982237
69.705 29.92502
69.710 29.320305
69.715 28.501228
69.720 28.696869
69.725 28.730124
69.730 27.084402
69.735 25.989819
69.740 26.318905
69.745 26.715067
69.750 26.596001
69.755 25.986425
69.760 26.123821
69.765 26.639839
69.770 26.183468
69.775 25.707836
69.780 25.529291
69.785 25.831671
69.790 25.323082
69.795 24.885948
69.800 24.732492
69.805 24.716152
69.810 24.677946
69.815 24.870607
69.820 24.571371
69.825 25.452162
69.830 24.876514
69.835 25.108559
69.840 25.20369
69.845 25.32177
69.850 24.85836
69.855 25.32658
69.860 25.564869
69.865 25.24272
69.870 25.71703
69.875 25.643503
69.880 25.750147
69.885 26.665071
69.890 26.586346
69.895 26.307936
69.900 26.451424
69.905 26.197025
69.910 25.718866
69.915 25.658291
69.920 25.308519
69.925 25.062254
69.930 25.208006
69.935 25.143906
69.940 24.964006
69.945 24.844975
69.950 24.795946
69.955 24.310007
69.960 24.262793
69.965 23.370358
69.970 22.698935
69.975 22.680092
69.980 22.92029
69.985 22.780642
69.990 22.437988
69.995 22.556831
70.000 23.620718
70.005 23.92894
70.010 23.470402
70.015 22.681921
70.020 22.410454
70.025 22.120443
70.030 21.892746
70.035 21.700016
70.040 21.963015
70.045 22.276407
70.050 21.820639
70.055 21.714169
70.060 22.25985
70.065 21.907518
70.070 21.969976
70.075 21.880564
70.080 21.646679
70.085 22.597107
70.090 22.732
70.095 22.637106
70.100 23.045908
70.105 22.253162
70.110 21.996187
70.115 21.832668
70.120 20.99044
70.125 20.493233
70.130 20.341377
70.135 19.207148
70.140 19.268723
70.145 19.130873
70.150 19.452816
70.155 18.964691
70.160 18.80477
70.165 18.868311
70.170 19.549427
70.175 19.510294
70.180 19.968885
70.185 19.997364
70.190 20.50725
70.195 20.257549
70.200 20.464664
70.205 20.665417
70.210 20.000406
70.215 19.854433
70.220 20.43033
70.225 20.953421
70.230 21.667751
70.235 21.190464
70.240 21.301151
70.245 21.613605
70.250 21.792261
70.255 21.303659
70.260 21.183207
70.265 21.090258
70.270 20.800066
70.275 21.1203
70.280 20.959404
70.285 20.596519
70.290 20.381498
70.295 19.93528
70.300 19.649626
70.305 19.932674
70.310 20.13777
70.315 20.452883
70.320 20.447098
70.325 20.752279
70.330 21.034853
70.335 20.692823
70.340 20.284935
70.345 19.945625
70.350 19.567013
70.355 19.651213
70.360 19.173185
70.365 19.347656
70.370 19.784937
70.375 20.039436
70.380 19.820051
70.385 20.010799
70.390 20.622356
70.395 20.615393
70.400 20.000139
70.405 20.02989
70.410 19.684864
70.415 19.291443
70.420 18.808447
70.425 18.729618
70.430 18.96279
70.435 19.32563
70.440 19.433537
70.445 19.47714
70.450 19.666996
70.455 19.759859
70.460 19.298132
70.465 19.29143
70.470 18.876905
70.475 18.398577
70.480 18.614632
70.485 19.094948
70.490 18.903294
70.495 19.332951
70.500 20.01745
70.505 20.2535
70.510 20.275902
70.515 20.060663
70.520 19.874075
70.525 20.031631
70.530 19.997389
70.535 20.161722
70.540 20.620855
70.545 21.012455
70.550 21.293943
70.555 21.42334
70.560 21.008535
70.565 20.98254
70.570 20.142731
70.575 19.470808
70.580 19.190008
70.585 18.917786
70.590 18.946499
70.595 18.916172
70.600 18.630335
70.605 18.373314
70.610 18.713617
70.615 18.771416
70.620 19.035059
70.625 19.187708
70.630 19.880045
70.635 20.488598
70.640 20.846855
70.645 20.827318
70.650 20.573755
70.655 20.627844
70.660 19.931061
70.665 18.861673
70.670 18.634336
70.675 18.766525
70.680 18.658863
70.685 19.184389
70.690 19.282877
70.695 20.158985
70.700 20.476696
70.705 20.167971
70.710 20.223656
70.715 20.192139
70.720 20.2624
70.725 19.324886
70.730 18.347754
70.735 18.410501
70.740 18.174036
70.745 17.808083
70.750 17.659462
70.755 18.291929
70.760 19.024345
70.765 19.014311
70.770 19.038641
70.775 19.401337
70.780 19.914606
70.785 19.690359
70.790 18.886902
70.795 18.55961
70.800 18.433386
70.805 18.599157
70.810 18.601004
70.815 18.253557
70.820 18.803999
70.825 19.071165
70.830 19.507383
70.835 19.748095
70.840 19.832621
70.845 20.593487
70.850 20.775742
70.855 20.32539
70.860 20.510403
70.865 20.589617
70.870 20.52021
70.875 20.461796
70.880 19.473869
70.885 19.542435
70.890 19.278316
70.895 18.920429
70.900 18.717493
70.905 18.329779
70.910 17.665493
70.915 17.488403
70.920 17.342514
70.925 17.551149
70.930 18.014753
70.935 18.056725
70.940 18.456675
70.945 18.864313
70.950 19.058191
70.955 18.476189
70.960 18.844118
70.965 18.554296
70.970 18.769068
70.975 18.980659
70.980 19.139492
70.985 19.34103
70.990 19.198149
70.995 18.602858
71.000 19.395119
71.005 19.258408
71.010 19.037746
71.015 18.886436
71.020 18.993723
71.025 19.329998
71.030 19.122358
71.035 18.510853
71.040 18.586082
71.045 19.364677
71.050 19.638617
71.055 20.283527
71.060 20.496708
71.065 20.193104
71.070 20.348938
71.075 20.132347
71.080 19.334017
71.085 18.69416
71.090 18.317755
71.095 18.689806
71.100 18.537502
71.105 18.366638
71.110 18.428982
71.115 18.753061
71.120 18.908588
71.125 19.117071
71.130 19.177998
71.135 19.205658
71.140 19.749031
71.145 19.901905
71.150 19.467844
71.155 19.675953
71.160 19.34453
71.165 19.586285
71.170 19.818748
71.175 19.159986
71.180 18.85425
71.185 18.781458
71.190 18.412792
71.195 18.816734
71.200 18.368013
71.205 18.449057
71.210 18.675657
71.215 18.390795
71.220 18.510319
71.225 18.752985
71.230 18.45685
71.235 18.885893
71.240 18.974579
71.245 19.054131
71.250 19.714651
71.255 19.663004
71.260 18.962383
71.265 19.038692
71.270 19.098614
71.275 18.971302
71.280 18.944458
71.285 18.796152
71.290 19.355467
71.295 19.826649
71.300 19.576839
71.305 19.268316
71.310 19.404305
71.315 19.274004
71.320 19.065636
71.325 18.30858
71.330 18.431692
71.335 18.429472
71.340 18.250051
71.345 18.346079
71.350 18.352167
71.355 18.244867
71.360 18.609959
71.365 18.657076
71.370 18.647509
71.375 18.706413
71.380 18.599264
71.385 18.587894
71.390 18.962629
71.395 18.970724
71.400 18.655195
71.405 18.743599
71.410 19.242685
71.415 19.713762
71.420 20.129538
71.425 19.771935
71.430 19.208471
71.435 19.733824
71.440 19.559139
71.445 19.336828
71.450 19.083395
71.455 19.521244
71.460 20.009483
71.465 20.985998
71.470 20.541767
71.475 20.33375
71.480 20.037514
71.485 19.73134
71.490 19.139051
71.495 19.049927
71.500 19.019642
71.505 19.079479
71.510 20.01162
71.515 20.213566
71.520 20.281435
71.525 20.118851
71.530 19.922678
71.535 19.970879
71.540 19.749804
71.545 19.049051
71.550 19.56815
71.555 19.576611
71.560 19.41749
71.565 19.126293
71.570 18.787817
71.575 18.706766
71.580 18.806688
71.585 18.992355
71.590 19.161579
71.595 19.31362
71.600 19.559877
71.605 19.670956
71.610 20.039309
71.615 19.788147
71.620 19.242903
71.625 19.198681
71.630 19.635685
71.635 19.423172
71.640 19.393686
71.645 19.756067
71.650 19.949829
71.655 20.032379
71.660 19.9627
71.665 19.540165
71.670 19.811106
71.675 19.631424
71.680 19.150787
71.685 18.466351
71.690 18.838526
71.695 19.383499
71.700 19.580572
71.705 19.17223
71.710 19.085571
71.715 18.90995
71.720 19.766317
71.725 19.161194
71.730 19.147516
71.735 19.385584
71.740 19.441336
71.745 19.859417
71.750 19.83396
71.755 19.193909
71.760 18.675352
71.765 18.464922
71.770 18.520802
71.775 18.744295
71.780 18.228889
71.785 18.192614
71.790 18.442802
71.795 18.987803
71.800 18.806606
71.805 18.939022
71.810 19.184139
71.815 19.379181
71.820 19.356647
71.825 19.195194
71.830 18.996407
71.835 18.982721
71.840 18.706665
71.845 18.739716
71.850 19.59396
71.855 20.063084
71.860 20.160585
71.865 19.903761
71.870 19.776068
71.875 20.251638
71.880 19.548294
71.885 19.313801
71.890 19.148026
71.895 19.458994
71.900 20.058689
71.905 20.032946
71.910 19.866337
71.915 20.074198
71.920 19.741087
71.925 19.650486
71.930 19.106316
71.935 19.35037
71.940 19.104416
71.945 18.61755
71.950 18.535488
71.955 18.647469
71.960 18.721956
71.965 18.270199
71.970 17.702217
71.975 17.518705
71.980 18.254715
71.985 17.893707
71.990 17.861425
71.995 17.678221
72.000 18.206789
72.005 18.340384
72.010 17.754801
72.015 16.822126
72.020 17.261534
72.025 16.928587
72.030 16.866194
72.035 16.372509
72.040 16.674137
72.045 17.496965
72.050 17.745743
72.055 17.064793
72.060 17.645449
72.065 17.609972
72.070 17.811672
72.075 17.398739
72.080 17.628288
72.085 18.120008
72.090 18.238255
72.095 17.925024
72.100 18.463535
72.105 18.796801
72.110 19.152737
72.115 19.33806
72.120 19.406498
72.125 20.006039
72.130 20.181068
72.135 20.290926
72.140 20.501801
72.145 20.163054
72.150 19.521385
72.155 19.897081
72.160 20.023539
72.165 20.052307
72.170 19.48175
72.175 19.330753
72.180 19.668646
72.185 19.527056
72.190 19.136539
72.195 19.263124
72.200 19.454155
72.205 19.526539
72.210 19.398512
72.215 18.888008
72.220 18.77783
72.225 19.16902
72.230 18.30736
72.235 17.973049
72.240 17.423851
72.245 17.537895
72.250 17.541998
72.255 17.17675
72.260 16.877687
72.265 17.331928
72.270 17.960659
72.275 18.543188
72.280 18.268793
72.285 18.124748
72.290 18.191221
72.295 18.214157
72.300 18.049959
72.305 17.867397
72.310 17.812901
72.315 18.489115
72.320 18.588234
72.325 19.106129
72.330 19.545668
72.335 19.165289
72.340 19.012438
72.345 18.718357
72.350 18.153469
72.355 18.514929
72.360 18.483364
72.365 18.523991
72.370 18.798904
72.375 19.10696
72.380 19.630123
72.385 19.793798
72.390 19.972918
72.395 19.176741
72.400 18.707685
72.405 18.964037
72.410 19.002663
72.415 19.282284
72.420 19.710417
72.425 18.915363
72.430 18.918873
72.435 18.35886
72.440 17.997278
72.445 17.847458
72.450 17.568815
72.455 17.603273
72.460 17.895502
72.465 18.380503
72.470 18.726421
72.475 18.568447
72.480 18.642508
72.485 17.781271
72.490 17.764938
72.495 18.17782
72.500 18.074917
72.505 18.263147
72.510 18.018747
72.515 18.144726
72.520 18.91785
72.525 18.735281
72.530 18.833698
72.535 19.416311
72.540 19.786331
72.545 19.957146
72.550 20.13393
72.555 20.152477
72.560 20.016146
72.565 19.264797
72.570 18.586081
72.575 18.056095
72.580 18.125984
72.585 17.802368
72.590 17.861702
72.595 17.758238
72.600 17.875925
72.605 18.226791
72.610 18.308191
72.615 18.008394
72.620 17.350996
72.625 17.70636
72.630 18.080044
72.635 17.855568
72.640 17.738821
72.645 17.68947
72.650 17.53282
72.655 16.992966
72.660 16.675951
72.665 17.050005
72.670 17.436665
72.675 17.779583
72.680 17.444098
72.685 17.886574
72.690 19.378773
72.695 19.447521
72.700 18.978848
72.705 18.918493
72.710 18.973991
72.715 19.231504
72.720 19.160381
72.725 18.712046
72.730 18.498035
72.735 18.121641
72.740 17.72559
72.745 17.337505
72.750 17.590485
72.755 17.087914
72.760 16.296085
72.765 16.785175
72.770 17.30896
72.775 17.636047
72.780 17.625114
72.785 17.386496
72.790 17.701982
72.795 17.142872
72.800 17.072762
72.805 16.964479
72.810 17.603251
72.815 17.846415
72.820 18.035543
72.825 19.408701
72.830 19.895519
72.835 19.381172
72.840 18.629751
72.845 18.420807
72.850 18.631678
72.855 17.899008
72.860 16.972601
72.865 16.677864
72.870 17.006998
72.875 17.006634
72.880 16.365166
72.885 16.328064
72.890 15.880651
72.895 15.466584
72.900 15.387253
72.905 15.455388
72.910 15.406316
72.915 15.563866
72.920 15.796414
72.925 16.411573
72.930 17.177784
72.935 17.515047
72.940 18.21876
72.945 18.198605
72.950 18.262381
72.955 18.358578
72.960 18.729748
72.965 18.661434
72.970 18.867689
72.975 18.715076
72.980 19.140223
72.985 19.123434
72.990 18.408182
72.995 18.5354
73.000 18.50083
