!@!!GADDS PLOTSO FILE: Chi integration type
!@!!Title/SampleName: map-17c
!@!!Comment: ?
!@!!User: Bruker Instrument Administrator
!@!!Site: University of Illinois Chicago
!@!!Frame: map-17c_01_000.gfrm
!@!!Wavelengths    1.54184   1.54056   1.54439
!@!!Frame angles: 2Theta: 63.000 Omega: 50.000 Phi: 0.000 Chi: 90.000
!@!!Integration range: 2Theta: 53.000 to 73.000  Gamma: -105.000 to -75.000
!@!!Integration method: bin normalized
!@!N
!@!SS
!@!M
!@!L 0.0 0.0 0.0 0.0
!@!XDegrees
!@!YCounts
53.000 10.272161
53.005 10.246387
53.010 10.66353
53.015 10.531902
53.020 10.218204
53.025 9.993312
53.030 9.991082
53.035 9.984836
53.040 9.858922
53.045 9.313001
53.050 8.914716
53.055 9.056522
53.060 8.600553
53.065 8.152883
53.070 8.282248
53.075 8.472486
53.080 8.872658
53.085 9.115854
53.090 8.732654
53.095 8.994015
53.100 9.195344
53.105 9.868114
53.110 9.972885
53.115 10.215676
53.120 10.221421
53.125 10.920796
53.130 10.874726
53.135 10.510008
53.140 9.841674
53.145 9.638582
53.150 8.926274
53.155 8.610282
53.160 8.033681
53.165 8.236459
53.170 8.382327
53.175 8.458426
53.180 8.600596
53.185 9.094063
53.190 9.370542
53.195 9.096283
53.200 8.596689
53.205 8.540732
53.210 8.627421
53.215 8.579612
53.220 8.528889
53.225 8.679089
53.230 9.151015
53.235 9.94241
53.240 10.000469
53.245 9.800889
53.250 9.881353
53.255 9.338096
53.260 9.031817
53.265 8.77753
53.270 8.642026
53.275 8.616161
53.280 8.410296
53.285 8.442572
53.290 8.579193
53.295 8.665133
53.300 8.385981
53.305 8.281495
53.310 8.482943
53.315 8.765824
53.320 8.918139
53.325 9.180343
53.330 9.135984
53.335 9.018423
53.340 9.214777
53.345 9.019745
53.350 9.022763
53.355 9.149858
53.360 9.146124
53.365 9.447488
53.370 9.331923
53.375 9.273745
53.380 9.404928
53.385 9.360955
53.390 9.181725
53.395 9.166037
53.400 9.062292
53.405 8.885134
53.410 9.07795
53.415 9.178869
53.420 9.650217
53.425 9.990763
53.430 10.18477
53.435 10.527129
53.440 10.643378
53.445 10.332833
53.450 10.072165
53.455 10.072656
53.460 10.045531
53.465 9.86937
53.470 9.983876
53.475 10.122651
53.480 11.042224
53.485 11.306404
53.490 10.759287
53.495 10.922751
53.500 10.806582
53.505 10.992826
53.510 10.939061
53.515 10.081348
53.520 10.151793
53.525 10.323222
53.530 10.55788
53.535 10.512671
53.540 10.120892
53.545 10.213853
53.550 10.594763
53.555 10.705869
53.560 10.212993
53.565 10.02516
53.570 10.719489
53.575 11.279055
53.580 11.438123
53.585 10.688334
53.590 10.647295
53.595 11.189928
53.600 11.522099
53.605 11.016433
53.610 10.789032
53.615 11.060425
53.620 11.712295
53.625 11.598614
53.630 11.404939
53.635 10.981858
53.640 10.82293
53.645 10.318547
53.650 9.759381
53.655 9.616911
53.660 9.85408
53.665 9.403452
53.670 9.025206
53.675 9.235154
53.680 9.51217
53.685 9.539002
53.690 9.56579
53.695 9.59676
53.700 10.230605
53.705 10.24987
53.710 9.915463
53.715 9.979
53.720 10.447603
53.725 10.603954
53.730 10.660544
53.735 11.262529
53.740 11.74874
53.745 11.831444
53.750 11.564872
53.755 11.551453
53.760 11.224701
53.765 10.950863
53.770 9.960567
53.775 9.723178
53.780 9.839208
53.785 10.359765
53.790 10.020587
53.795 10.092061
53.800 10.285482
53.805 11.132993
53.810 11.555724
53.815 11.477346
53.820 11.109152
53.825 11.521709
53.830 11.834167
53.835 11.960121
53.840 11.422449
53.845 11.111441
53.850 10.984124
53.855 10.680988
53.860 10.458866
53.865 10.014772
53.870 9.892635
53.875 10.109052
53.880 10.295832
53.885 10.769226
53.890 10.982267
53.895 10.958995
53.900 11.03223
53.905 11.20245
53.910 10.919684
53.915 10.532749
53.920 10.378284
53.925 10.23337
53.930 10.185489
53.935 10.184937
53.940 10.44055
53.945 11.029246
53.950 11.25618
53.955 11.277797
53.960 11.403814
53.965 11.312392
53.970 10.602067
53.975 10.361023
53.980 10.076727
53.985 9.962079
53.990 9.647778
53.995 9.840547
54.000 10.426752
54.005 11.340963
54.010 11.28278
54.015 11.504077
54.020 11.516224
54.025 11.380645
54.030 11.317241
54.035 10.790504
54.040 10.044067
54.045 10.066169
54.050 9.835782
54.055 10.200752
54.060 10.260403
54.065 9.970578
54.070 10.225423
54.075 10.261878
54.080 10.379568
54.085 10.483853
54.090 10.795971
54.095 10.93553
54.100 11.100514
54.105 11.163522
54.110 11.028671
54.115 10.887461
54.120 10.519243
54.125 9.901141
54.130 10.295608
54.135 10.16119
54.140 10.247457
54.145 10.534822
54.150 10.621354
54.155 11.208778
54.160 11.180248
54.165 10.550774
54.170 10.250551
54.175 9.717363
54.180 9.165489
54.185 8.961905
54.190 8.554108
54.195 8.45639
54.200 8.972571
54.205 9.476262
54.210 9.695138
54.215 9.866302
54.220 9.711251
54.225 9.640977
54.230 9.81504
54.235 9.6919
54.240 9.511932
54.245 9.375238
54.250 9.154828
54.255 9.25166
54.260 9.738892
54.265 9.52879
54.270 9.351079
54.275 9.632621
54.280 9.943961
54.285 10.401096
54.290 10.777249
54.295 10.577308
54.300 10.666496
54.305 11.196805
54.310 11.180813
54.315 11.098056
54.320 10.79675
54.325 10.530751
54.330 10.585984
54.335 10.835364
54.340 10.953213
54.345 10.974442
54.350 11.371448
54.355 11.616826
54.360 11.535954
54.365 11.929833
54.370 11.99436
54.375 11.672747
54.380 11.566223
54.385 11.528626
54.390 11.341683
54.395 11.23613
54.400 10.845513
54.405 10.325334
54.410 10.486776
54.415 10.758577
54.420 10.769237
54.425 10.745873
54.430 10.29449
54.435 10.341014
54.440 10.507893
54.445 10.068868
54.450 9.553174
54.455 9.319336
54.460 9.949512
54.465 10.253019
54.470 10.101256
54.475 10.573132
54.480 11.382702
54.485 11.637964
54.490 11.448589
54.495 11.331341
54.500 11.216722
54.505 11.172174
54.510 10.578378
54.515 10.332369
54.520 10.541475
54.525 10.198794
54.530 9.816744
54.535 9.756775
54.540 9.828802
54.545 9.865738
54.550 9.50382
54.555 9.756936
54.560 10.729238
54.565 11.228551
54.570 11.61952
54.575 11.731674
54.580 11.819836
54.585 12.130579
54.590 11.714498
54.595 11.360203
54.600 11.195669
54.605 11.407184
54.610 11.675699
54.615 11.335728
54.620 11.296435
54.625 11.561607
54.630 11.774269
54.635 11.420325
54.640 10.982191
54.645 10.685277
54.650 10.640538
54.655 10.543215
54.660 10.384158
54.665 10.037464
54.670 9.98773
54.675 9.845973
54.680 10.130186
54.685 9.942688
54.690 9.897198
54.695 9.774465
54.700 9.649179
54.705 9.871039
54.710 9.939011
54.715 10.378786
54.720 10.633989
54.725 10.163613
54.730 10.420844
54.735 10.690205
54.740 10.698925
54.745 11.187531
54.750 10.936526
54.755 11.085523
54.760 10.805479
54.765 10.527781
54.770 10.834561
54.775 11.148954
54.780 10.96896
54.785 11.288343
54.790 11.758018
54.795 12.439372
54.800 12.712241
54.805 12.521766
54.810 12.522181
54.815 11.940355
54.820 11.189064
54.825 11.01815
54.830 10.500448
54.835 10.172914
54.840 9.668444
54.845 9.199229
54.850 9.457973
54.855 9.601624
54.860 9.260019
54.865 9.200454
54.870 9.025368
54.875 9.514238
54.880 10.113944
54.885 10.421884
54.890 10.789128
54.895 11.250534
54.900 11.456661
54.905 11.724533
54.910 11.560953
54.915 11.501758
54.920 11.230199
54.925 11.117841
54.930 11.034668
54.935 11.12805
54.940 11.427808
54.945 10.986222
54.950 10.816769
54.955 10.575096
54.960 10.513522
54.965 10.33385
54.970 10.18115
54.975 10.403111
54.980 10.733133
54.985 11.002519
54.990 11.550959
54.995 11.21873
55.000 11.542433
55.005 11.972734
55.010 12.122346
55.015 12.090462
55.020 11.737506
55.025 11.727901
55.030 11.989084
55.035 11.783878
55.040 11.165447
55.045 10.85118
55.050 11.074327
55.055 11.210637
55.060 11.247628
55.065 11.491923
55.070 11.910185
55.075 12.095197
55.080 11.837043
55.085 11.267789
55.090 10.816684
55.095 10.602918
55.100 10.410928
55.105 10.282925
55.110 10.234898
55.115 10.444214
55.120 10.864969
55.125 11.459953
55.130 11.54389
55.135 11.36435
55.140 11.23336
55.145 11.406873
55.150 11.270978
55.155 10.707334
55.160 10.499466
55.165 10.570427
55.170 10.691662
55.175 10.506706
55.180 9.905793
55.185 9.641226
55.190 9.849027
55.195 9.766747
55.200 9.531465
55.205 9.268971
55.210 9.589741
55.215 10.242524
55.220 10.94228
55.225 11.777315
55.230 12.202404
55.235 12.462946
55.240 12.832264
55.245 12.768207
55.250 12.720683
55.255 12.63739
55.260 11.932543
55.265 11.969517
55.270 11.949265
55.275 11.625794
55.280 11.617205
55.285 11.638927
55.290 11.28303
55.295 11.394688
55.300 11.676768
55.305 12.02564
55.310 12.035269
55.315 11.984893
55.320 12.268745
55.325 11.912284
55.330 11.601915
55.335 11.061179
55.340 10.80557
55.345 10.734558
55.350 10.353264
55.355 10.213459
55.360 10.987426
55.365 10.895403
55.370 11.115526
55.375 11.862918
55.380 12.353505
55.385 12.43236
55.390 12.100208
55.395 12.125016
55.400 12.250267
55.405 12.024383
55.410 11.696301
55.415 11.566525
55.420 12.126042
55.425 11.819995
55.430 10.932398
55.435 10.559507
55.440 10.419761
55.445 10.674363
55.450 10.706284
55.455 10.774831
55.460 11.561466
55.465 12.551937
55.470 12.845846
55.475 12.566133
55.480 12.021049
55.485 11.416512
55.490 11.1879
55.495 11.006415
55.500 10.576241
55.505 10.803757
55.510 11.176474
55.515 11.494219
55.520 11.963531
55.525 11.64222
55.530 10.996238
55.535 11.23067
55.540 10.81691
55.545 10.636958
55.550 10.689512
55.555 10.975213
55.560 11.251948
55.565 11.915685
55.570 11.725676
55.575 11.419966
55.580 11.53265
55.585 11.415225
55.590 11.245892
55.595 11.487062
55.600 11.036006
55.605 11.071789
55.610 11.33364
55.615 11.227493
55.620 11.675142
55.625 12.04614
55.630 12.143758
55.635 12.735133
55.640 12.657919
55.645 12.195753
55.650 12.247135
55.655 11.986925
55.660 11.603601
55.665 11.802339
55.670 11.756217
55.675 11.965954
55.680 12.251836
55.685 12.098319
55.690 12.364987
55.695 12.678394
55.700 12.092061
55.705 11.745741
55.710 11.973261
55.715 12.069019
55.720 12.104637
55.725 11.697344
55.730 11.745742
55.735 12.115733
55.740 12.356207
55.745 12.258192
55.750 12.248674
55.755 12.202084
55.760 11.953343
55.765 11.422932
55.770 11.00194
55.775 10.900788
55.780 11.317466
55.785 11.285438
55.790 11.256339
55.795 11.554919
55.800 11.8275
55.805 12.12667
55.810 12.006419
55.815 12.190282
55.820 12.319213
55.825 12.203773
55.830 12.3363
55.835 12.692118
55.840 12.624426
55.845 13.100446
55.850 12.767588
55.855 12.597879
55.860 13.342074
55.865 13.121948
55.870 13.005684
55.875 12.917544
55.880 12.351778
55.885 11.646777
55.890 11.19449
55.895 10.87276
55.900 10.8443
55.905 10.917442
55.910 11.053016
55.915 11.42768
55.920 12.227787
55.925 12.203514
55.930 11.862808
55.935 11.954309
55.940 11.848317
55.945 12.034211
55.950 12.370465
55.955 11.911317
55.960 12.022841
55.965 12.327928
55.970 12.451598
55.975 12.439542
55.980 12.240172
55.985 11.980946
55.990 12.674483
55.995 12.510771
56.000 12.226933
56.005 12.161623
56.010 12.10542
56.015 11.912761
56.020 12.043119
56.025 11.594455
56.030 11.812276
56.035 12.015687
56.040 12.088327
56.045 11.756901
56.050 11.770303
56.055 11.710256
56.060 11.687865
56.065 11.878123
56.070 11.844869
56.075 11.939724
56.080 12.152445
56.085 12.104795
56.090 12.214472
56.095 12.102548
56.100 11.722045
56.105 11.695655
56.110 11.207205
56.115 11.221313
56.120 11.117149
56.125 11.609239
56.130 11.494898
56.135 11.37943
56.140 11.714198
56.145 12.016521
56.150 12.111669
56.155 12.177727
56.160 12.026696
56.165 12.140171
56.170 12.579147
56.175 12.240882
56.180 12.031576
56.185 12.305696
56.190 12.267691
56.195 12.510854
56.200 12.805161
56.205 12.540712
56.210 12.375908
56.215 12.553286
56.220 11.8393
56.225 11.936006
56.230 11.819181
56.235 11.811341
56.240 11.660497
56.245 11.891164
56.250 11.983693
56.255 12.214827
56.260 12.609586
56.265 12.40696
56.270 12.428898
56.275 12.595967
56.280 12.379499
56.285 12.561194
56.290 12.760862
56.295 12.458591
56.300 12.378808
56.305 12.21863
56.310 11.75561
56.315 11.491163
56.320 11.164161
56.325 11.076707
56.330 11.181675
56.335 11.134031
56.340 11.437414
56.345 12.035569
56.350 12.656316
56.355 12.664868
56.360 12.183314
56.365 12.448676
56.370 13.057007
56.375 13.54983
56.380 13.321729
56.385 12.763505
56.390 12.563322
56.395 12.553472
56.400 12.452356
56.405 12.496819
56.410 12.111636
56.415 11.974133
56.420 12.103532
56.425 12.08474
56.430 12.114015
56.435 12.011584
56.440 11.996202
56.445 12.630322
56.450 13.340246
56.455 14.002338
56.460 14.677322
56.465 14.992054
56.470 14.631042
56.475 14.093683
56.480 13.298927
56.485 12.997378
56.490 13.151134
56.495 12.580581
56.500 12.39989
56.505 12.30834
56.510 12.587914
56.515 12.869238
56.520 12.497866
56.525 12.242993
56.530 12.886223
56.535 12.86645
56.540 12.967865
56.545 12.755159
56.550 12.603172
56.555 12.731712
56.560 12.912114
56.565 12.539387
56.570 12.078526
56.575 11.755129
56.580 11.991446
56.585 11.814416
56.590 11.799623
56.595 11.471278
56.600 11.584152
56.605 12.000496
56.610 12.348363
56.615 12.142738
56.620 12.949059
56.625 12.95085
56.630 13.110452
56.635 13.247968
56.640 13.467885
56.645 13.45376
56.650 13.524813
56.655 12.849591
56.660 12.444843
56.665 12.158329
56.670 11.795049
56.675 11.469245
56.680 11.211441
56.685 11.172864
56.690 11.489667
56.695 12.002649
56.700 11.99179
56.705 12.119962
56.710 12.03242
56.715 12.119183
56.720 12.424706
56.725 12.596923
56.730 12.658402
56.735 12.8203
56.740 12.870037
56.745 12.885309
56.750 12.908261
56.755 12.887401
56.760 12.734665
56.765 12.376984
56.770 12.328633
56.775 12.313153
56.780 13.116208
56.785 13.506519
56.790 13.61199
56.795 13.706895
56.800 14.37069
56.805 14.67356
56.810 14.887008
56.815 14.105021
56.820 13.930081
56.825 13.820973
56.830 13.27991
56.835 12.827675
56.840 12.434344
56.845 12.143446
56.850 12.008325
56.855 11.597213
56.860 11.180722
56.865 11.664615
56.870 11.830172
56.875 11.909898
56.880 11.705297
56.885 11.623044
56.890 11.819139
56.895 12.111806
56.900 11.67871
56.905 11.344024
56.910 11.698747
56.915 12.315579
56.920 12.436785
56.925 12.665716
56.930 12.85208
56.935 13.468184
56.940 13.555965
56.945 13.267696
56.950 13.017535
56.955 12.673238
56.960 12.266251
56.965 12.449685
56.970 12.474421
56.975 12.997583
56.980 13.389382
56.985 13.686399
56.990 14.068342
56.995 14.186304
57.000 13.880692
57.005 13.667631
57.010 13.856463
57.015 13.707532
57.020 13.658092
57.025 13.576806
57.030 13.487168
57.035 13.783102
57.040 13.909567
57.045 13.253167
57.050 13.51076
57.055 13.738301
57.060 13.410398
57.065 13.156693
57.070 13.246089
57.075 13.444938
57.080 13.720257
57.085 13.234142
57.090 12.814855
57.095 13.03548
57.100 12.591803
57.105 11.899241
57.110 11.914717
57.115 11.757282
57.120 11.817438
57.125 12.336374
57.130 12.526944
57.135 12.830776
57.140 13.276731
57.145 12.982627
57.150 13.022573
57.155 12.859352
57.160 12.487225
57.165 12.837396
57.170 13.13448
57.175 13.443918
57.180 13.31166
57.185 13.458239
57.190 13.290364
57.195 13.277476
57.200 13.272502
57.205 12.859945
57.210 12.326077
57.215 12.028043
57.220 11.881942
57.225 12.167145
57.230 11.980755
57.235 11.817415
57.240 12.209449
57.245 12.308064
57.250 12.734897
57.255 13.349107
57.260 13.760886
57.265 14.178941
57.270 13.958644
57.275 13.850361
57.280 14.181711
57.285 14.31795
57.290 14.410571
57.295 14.066026
57.300 14.023851
57.305 14.008224
57.310 14.121733
57.315 14.284866
57.320 14.518909
57.325 14.25306
57.330 14.216858
57.335 14.052269
57.340 14.113037
57.345 14.005923
57.350 13.581178
57.355 13.258796
57.360 13.863422
57.365 13.991453
57.370 14.265441
57.375 14.066582
57.380 14.564901
57.385 15.116313
57.390 15.663393
57.395 15.587701
57.400 15.796282
57.405 15.723829
57.410 15.699763
57.415 14.967309
57.420 14.158705
57.425 13.363323
57.430 13.18237
57.435 13.034035
57.440 13.342006
57.445 13.502081
57.450 13.498199
57.455 13.142924
57.460 12.961274
57.465 12.690548
57.470 12.534513
57.475 12.506531
57.480 12.663739
57.485 13.405951
57.490 13.881744
57.495 13.99333
57.500 13.861957
57.505 14.252779
57.510 14.753881
57.515 14.981734
57.520 14.95155
57.525 15.141104
57.530 14.782226
57.535 14.797065
57.540 14.453764
57.545 14.423193
57.550 14.500005
57.555 14.265823
57.560 14.267922
57.565 14.372338
57.570 14.546357
57.575 14.49391
57.580 13.622105
57.585 13.348648
57.590 13.781349
57.595 13.978297
57.600 14.14362
57.605 14.185598
57.610 14.10826
57.615 14.435026
57.620 14.474823
57.625 14.010402
57.630 13.928591
57.635 13.886113
57.640 13.923576
57.645 14.265895
57.650 14.403782
57.655 14.440074
57.660 14.076632
57.665 14.255639
57.670 14.271764
57.675 13.97429
57.680 13.563678
57.685 13.273461
57.690 13.458445
57.695 14.184207
57.700 14.024168
57.705 14.15071
57.710 14.758456
57.715 15.291153
57.720 15.623351
57.725 15.46245
57.730 14.740263
57.735 15.193181
57.740 15.280405
57.745 14.63118
57.750 14.46535
57.755 14.181858
57.760 14.217203
57.765 14.575979
57.770 14.216065
57.775 14.22897
57.780 14.297935
57.785 14.284914
57.790 14.720093
57.795 14.546486
57.800 14.30418
57.805 14.371851
57.810 14.675124
57.815 14.656268
57.820 14.383508
57.825 14.265726
57.830 14.621716
57.835 14.850925
57.840 14.811121
57.845 14.501743
57.850 14.593451
57.855 14.427273
57.860 14.06701
57.865 13.352008
57.870 12.861309
57.875 12.264836
57.880 12.030332
57.885 12.125801
57.890 12.085068
57.895 12.602818
57.900 13.348422
57.905 13.888474
57.910 13.926411
57.915 14.001038
57.920 13.949149
57.925 14.131988
57.930 14.006618
57.935 13.660755
57.940 13.989761
57.945 14.154065
57.950 14.025355
57.955 14.074622
57.960 14.033999
57.965 14.213475
57.970 14.522936
57.975 14.118277
57.980 14.310068
57.985 14.79556
57.990 14.832314
57.995 14.714522
58.000 14.186641
58.005 13.623105
58.010 13.941751
58.015 14.184253
58.020 13.99506
58.025 14.193471
58.030 14.487646
58.035 14.822924
58.040 15.62064
58.045 15.571495
58.050 15.513956
58.055 15.676579
58.060 15.335788
58.065 15.206002
58.070 14.978093
58.075 14.677546
58.080 15.040236
58.085 15.573174
58.090 15.388851
58.095 15.592327
58.100 15.693792
58.105 15.882567
58.110 15.485277
58.115 15.004435
58.120 14.447648
58.125 14.382217
58.130 14.43327
58.135 14.811005
58.140 15.383027
58.145 16.132467
58.150 16.593027
58.155 16.682104
58.160 16.910038
58.165 17.194693
58.170 17.091475
58.175 17.140078
58.180 16.923826
58.185 16.187849
58.190 15.982023
58.195 16.340395
58.200 16.080515
58.205 15.911503
58.210 15.906079
58.215 16.022676
58.220 16.794231
58.225 17.070168
58.230 17.063055
58.235 17.640781
58.240 18.153839
58.245 17.682243
58.250 17.5718
58.255 17.230669
58.260 17.39595
58.265 17.130056
58.270 16.882755
58.275 16.571043
58.280 17.163733
58.285 17.662193
58.290 17.943489
58.295 18.201431
58.300 18.166443
58.305 18.37295
58.310 18.412603
58.315 18.756424
58.320 18.915895
58.325 19.07571
58.330 18.924595
58.335 19.083075
58.340 19.458111
58.345 20.123495
58.350 19.827471
58.355 19.86557
58.360 20.355911
58.365 21.148497
58.370 21.417162
58.375 21.227381
58.380 20.824734
58.385 21.143381
58.390 21.577518
58.395 21.63537
58.400 21.193665
58.405 21.254808
58.410 21.324265
58.415 21.595915
58.420 22.235567
58.425 22.580172
58.430 22.278416
58.435 22.216028
58.440 22.453402
58.445 23.017569
58.450 22.973837
58.455 22.812078
58.460 22.917934
58.465 23.699236
58.470 24.500454
58.475 24.330086
58.480 23.68811
58.485 24.107063
58.490 24.097692
58.495 24.253109
58.500 24.373049
58.505 24.809008
58.510 25.109997
58.515 24.911556
58.520 24.751493
58.525 24.76795
58.530 24.376635
58.535 23.497482
58.540 22.423
58.545 22.52853
58.550 22.966639
58.555 23.231709
58.560 22.890903
58.565 22.740074
58.570 22.782768
58.575 23.192965
58.580 23.482979
58.585 23.598892
58.590 23.241095
58.595 23.799726
58.600 24.369465
58.605 24.653934
58.610 24.650339
58.615 24.675625
58.620 24.620844
58.625 24.638609
58.630 24.71839
58.635 24.623034
58.640 24.638502
58.645 24.888763
58.650 24.616091
58.655 24.523987
58.660 24.250387
58.665 23.464897
58.670 22.982616
58.675 23.143358
58.680 23.260754
58.685 23.10965
58.690 23.041628
58.695 23.620789
58.700 24.128435
58.705 23.731096
58.710 22.546602
58.715 21.904451
58.720 21.492956
58.725 21.154537
58.730 20.357485
58.735 19.882587
58.740 19.825964
58.745 20.050749
58.750 19.871164
58.755 20.014753
58.760 20.265757
58.765 20.262867
58.770 20.0131
58.775 20.130384
58.780 19.761724
58.785 19.452271
58.790 19.238832
58.795 19.074486
58.800 19.411552
58.805 19.673794
58.810 19.939253
58.815 20.055929
58.820 20.310289
58.825 20.171482
58.830 19.641027
58.835 19.02618
58.840 18.687569
58.845 17.893253
58.850 17.386635
58.855 17.164539
58.860 16.971004
58.865 17.242064
58.870 17.038488
58.875 17.218477
58.880 17.413696
58.885 17.76383
58.890 18.091417
58.895 18.00083
58.900 17.469137
58.905 16.924452
58.910 16.383602
58.915 16.21344
58.920 15.769286
58.925 15.255982
58.930 15.450751
58.935 15.864476
58.940 16.024014
58.945 15.992565
58.950 15.957056
58.955 15.974596
58.960 16.458591
58.965 16.126282
58.970 16.085335
58.975 16.513075
58.980 16.573881
58.985 16.851942
58.990 16.794374
58.995 16.831425
59.000 16.865419
59.005 16.815907
59.010 16.630854
59.015 16.477757
59.020 16.100256
59.025 16.20937
59.030 16.008398
59.035 16.076561
59.040 16.574265
59.045 16.585209
59.050 16.943302
59.055 17.216789
59.060 16.850613
59.065 16.318514
59.070 16.019239
59.075 15.217592
59.080 15.122385
59.085 14.80363
59.090 14.747385
59.095 15.249931
59.100 16.158587
59.105 16.281073
59.110 16.234093
59.115 16.354612
59.120 16.037577
59.125 15.60762
59.130 15.105392
59.135 14.986447
59.140 15.45765
59.145 15.782519
59.150 15.957958
59.155 16.384119
59.160 16.764725
59.165 16.810757
59.170 15.97222
59.175 15.508773
59.180 15.450097
59.185 15.561777
59.190 15.212644
59.195 15.138689
59.200 15.211743
59.205 15.040001
59.210 14.917421
59.215 14.182165
59.220 14.224674
59.225 14.849479
59.230 14.671547
59.235 14.615901
59.240 15.061286
59.245 15.223552
59.250 15.288682
59.255 14.983752
59.260 14.418645
59.265 14.515774
59.270 14.653039
59.275 14.397639
59.280 14.397132
59.285 14.547145
59.290 14.855993
59.295 15.351287
59.300 15.504238
59.305 15.855671
59.310 15.848483
59.315 15.729405
59.320 15.503137
59.325 14.946289
59.330 14.819212
59.335 14.875648
59.340 14.312634
59.345 14.339978
59.350 14.083607
59.355 13.953538
59.360 13.882831
59.365 13.37781
59.370 13.310693
59.375 13.403871
59.380 13.554771
59.385 14.326323
59.390 15.435007
59.395 15.42524
59.400 15.739957
59.405 15.104113
59.410 15.140684
59.415 14.904193
59.420 13.88946
59.425 13.585451
59.430 14.369612
59.435 14.197273
59.440 14.801639
59.445 15.207897
59.450 15.334111
59.455 15.625625
59.460 15.184928
59.465 15.302815
59.470 15.84321
59.475 15.28212
59.480 14.707947
59.485 14.678878
59.490 14.854999
59.495 15.297782
59.500 14.239942
59.505 13.738198
59.510 14.528069
59.515 14.954408
59.520 15.030882
59.525 14.714171
59.530 13.886148
59.535 14.275789
59.540 14.306275
59.545 13.648352
59.550 13.518321
59.555 13.563811
59.560 13.678694
59.565 14.27387
59.570 13.865918
59.575 14.063043
59.580 14.545603
59.585 14.920629
59.590 15.054512
59.595 15.227892
59.600 15.343278
59.605 15.514314
59.610 15.57951
59.615 15.37057
59.620 14.639088
59.625 14.548311
59.630 14.475633
59.635 14.234687
59.640 14.054227
59.645 14.066305
59.650 14.311589
59.655 14.058496
59.660 14.003485
59.665 13.51473
59.670 13.642551
59.675 13.672509
59.680 13.089833
59.685 12.755194
59.690 13.327204
59.695 13.430882
59.700 13.938138
59.705 13.830591
59.710 14.072879
59.715 14.420417
59.720 14.528873
59.725 14.408632
59.730 14.178675
59.735 13.930903
59.740 14.160639
59.745 13.996525
59.750 14.167284
59.755 14.436697
59.760 14.558235
59.765 14.904508
59.770 15.012394
59.775 15.210191
59.780 14.91895
59.785 14.702785
59.790 14.680829
59.795 14.379879
59.800 14.087253
59.805 13.786241
59.810 13.62209
59.815 14.162759
59.820 13.915897
59.825 13.539402
59.830 13.269197
59.835 13.077447
59.840 13.784682
59.845 13.762457
59.850 13.723326
59.855 13.97219
59.860 14.700009
59.865 15.824719
59.870 16.781879
59.875 16.420984
59.880 16.000954
59.885 15.784549
59.890 15.995307
59.895 15.560842
59.900 14.897224
59.905 14.253833
59.910 14.164979
59.915 14.157738
59.920 14.423576
59.925 14.660204
59.930 15.053711
59.935 14.848509
59.940 14.882774
59.945 14.800381
59.950 15.234262
59.955 15.18423
59.960 14.630676
59.965 14.44727
59.970 14.458792
59.975 14.365034
59.980 14.012747
59.985 13.962807
59.990 14.060461
59.995 14.021058
60.000 13.7266
60.005 13.554502
60.010 13.468472
60.015 13.899572
60.020 13.881371
60.025 13.620635
60.030 13.851293
60.035 13.917055
60.040 14.331806
60.045 15.115792
60.050 14.649765
60.055 14.341754
60.060 13.867673
60.065 13.883475
60.070 14.108438
60.075 14.011007
60.080 13.527155
60.085 13.976816
60.090 14.137846
60.095 13.950756
60.100 13.112044
60.105 12.842354
60.110 12.772609
60.115 12.886616
60.120 12.971124
60.125 13.481777
60.130 14.413873
60.135 15.653479
60.140 16.19166
60.145 15.857947
60.150 15.47942
60.155 15.264556
60.160 14.604799
60.165 14.754547
60.170 13.888003
60.175 13.601116
60.180 14.039119
60.185 14.05707
60.190 13.930101
60.195 14.133095
60.200 13.522503
60.205 13.638465
60.210 13.649614
60.215 13.468795
60.220 13.620202
60.225 13.710515
60.230 13.545453
60.235 13.42279
60.240 13.495801
60.245 13.341692
60.250 13.024949
60.255 13.125506
60.260 13.002471
60.265 13.115166
60.270 13.493395
60.275 13.00811
60.280 12.841764
60.285 13.423659
60.290 13.19596
60.295 13.540001
60.300 13.841517
60.305 13.962573
60.310 14.257701
60.315 14.781867
60.320 14.740508
60.325 14.985726
60.330 14.584493
60.335 14.512704
60.340 14.626829
60.345 14.807409
60.350 14.030718
60.355 13.842164
60.360 13.539669
60.365 13.608988
60.370 13.580871
60.375 13.549071
60.380 13.445802
60.385 13.743567
60.390 13.70742
60.395 14.119718
60.400 14.58379
60.405 14.493063
60.410 14.245229
60.415 14.596558
60.420 14.306973
60.425 14.272755
60.430 14.406162
60.435 13.961526
60.440 13.992867
60.445 13.487541
60.450 13.118015
60.455 13.133335
60.460 13.054757
60.465 13.066741
60.470 13.346176
60.475 13.391156
60.480 14.002326
60.485 14.139346
60.490 14.392852
60.495 14.322223
60.500 14.118557
60.505 13.66715
60.510 13.363834
60.515 13.296905
60.520 13.385824
60.525 13.265909
60.530 12.938407
60.535 13.064749
60.540 13.597908
60.545 14.174235
60.550 14.148963
60.555 14.037108
60.560 14.393505
60.565 14.862302
60.570 14.522431
60.575 14.063148
60.580 13.445617
60.585 13.230854
60.590 12.946309
60.595 12.901743
60.600 12.892255
60.605 12.887809
60.610 12.98681
60.615 13.58018
60.620 14.130084
60.625 14.865251
60.630 14.661159
60.635 14.269908
60.640 14.856864
60.645 15.265364
60.650 14.78807
60.655 14.381807
60.660 14.186127
60.665 14.490845
60.670 14.464811
60.675 13.790868
60.680 13.944487
60.685 14.400743
60.690 14.541144
60.695 14.725482
60.700 14.959653
60.705 15.049365
60.710 15.515883
60.715 15.498824
60.720 15.464948
60.725 15.648626
60.730 15.438005
60.735 15.169307
60.740 14.865922
60.745 14.559831
60.750 14.241129
60.755 13.941837
60.760 13.866408
60.765 13.687681
60.770 13.855019
60.775 14.140068
60.780 13.93208
60.785 13.746007
60.790 13.342815
60.795 13.485276
60.800 13.272063
60.805 12.869128
60.810 13.171368
60.815 13.672992
60.820 13.569154
60.825 13.884723
60.830 13.688199
60.835 13.995467
60.840 13.951932
60.845 13.936892
60.850 14.197623
60.855 14.822691
60.860 14.892348
60.865 14.749604
60.870 14.830409
60.875 14.894003
60.880 14.635376
60.885 13.996796
60.890 13.316573
60.895 13.324827
60.900 13.950062
60.905 14.052414
60.910 14.046851
60.915 14.207508
60.920 14.725402
60.925 14.936707
60.930 15.119283
60.935 15.110851
60.940 15.000635
60.945 15.079931
60.950 14.68934
60.955 14.610304
60.960 14.844116
60.965 14.136657
60.970 13.547211
60.975 13.612801
60.980 13.719432
60.985 13.604189
60.990 13.860528
60.995 13.967329
61.000 14.275036
61.005 14.396373
61.010 14.193378
61.015 14.004907
61.020 14.095393
61.025 14.023201
61.030 14.23436
61.035 14.084739
61.040 14.2138
61.045 14.429549
61.050 14.908066
61.055 14.79756
61.060 14.545732
61.065 14.312475
61.070 14.430994
61.075 14.236403
61.080 14.466947
61.085 14.092204
61.090 14.511558
61.095 14.567345
61.100 14.315359
61.105 14.279645
61.110 14.059089
61.115 13.885241
61.120 13.75608
61.125 13.31601
61.130 13.036105
61.135 12.875844
61.140 13.184171
61.145 13.740445
61.150 13.53682
61.155 13.651666
61.160 13.596774
61.165 13.942697
61.170 14.053494
61.175 14.035887
61.180 13.770854
61.185 13.827965
61.190 14.154701
61.195 14.868175
61.200 15.112525
61.205 15.527814
61.210 15.566116
61.215 15.995148
61.220 16.077496
61.225 15.895416
61.230 15.026879
61.235 14.639605
61.240 14.41186
61.245 14.33824
61.250 13.598389
61.255 13.794479
61.260 14.032515
61.265 14.835725
61.270 15.077727
61.275 15.151347
61.280 15.295772
61.285 15.91169
61.290 15.562805
61.295 15.591131
61.300 14.887681
61.305 14.588525
61.310 14.344066
61.315 13.988552
61.320 13.661839
61.325 13.567887
61.330 13.177958
61.335 12.969115
61.340 13.163491
61.345 12.844361
61.350 12.701947
61.355 12.759686
61.360 12.906518
61.365 12.9845
61.370 13.221354
61.375 13.226949
61.380 13.767979
61.385 13.914686
61.390 14.008693
61.395 14.198708
61.400 14.546218
61.405 14.826268
61.410 14.819428
61.415 14.262279
61.420 14.289241
61.425 14.183082
61.430 14.212668
61.435 14.25645
61.440 14.742528
61.445 15.393038
61.450 15.527285
61.455 15.933943
61.460 16.466747
61.465 16.126547
61.470 15.488379
61.475 14.813452
61.480 14.616845
61.485 14.720912
61.490 13.598943
61.495 13.236165
61.500 13.701166
61.505 14.25408
61.510 14.212162
61.515 14.207459
61.520 14.476268
61.525 15.085481
61.530 14.933267
61.535 14.728504
61.540 14.524172
61.545 14.940916
61.550 14.7392
61.555 15.013608
61.560 15.1961
61.565 15.290159
61.570 15.344763
61.575 15.965074
61.580 15.735564
61.585 16.211317
61.590 15.946441
61.595 16.005705
61.600 16.242226
61.605 16.373184
61.610 16.043097
61.615 15.888446
61.620 16.214529
61.625 16.425222
61.630 16.271927
61.635 16.198135
61.640 16.121172
61.645 16.318266
61.650 16.350777
61.655 15.68341
61.660 15.887959
61.665 15.91871
61.670 15.887954
61.675 15.539495
61.680 15.496163
61.685 15.721351
61.690 15.98698
61.695 15.884912
61.700 15.526827
61.705 15.227527
61.710 15.084359
61.715 14.503085
61.720 14.265238
61.725 13.719228
61.730 13.676094
61.735 13.795377
61.740 13.653251
61.745 13.679803
61.750 13.989859
61.755 14.326082
61.760 14.326908
61.765 14.23134
61.770 14.494918
61.775 15.072194
61.780 14.964964
61.785 14.464806
61.790 14.403652
61.795 14.154669
61.800 13.893724
61.805 13.720573
61.810 13.843699
61.815 14.076596
61.820 14.464056
61.825 14.652807
61.830 15.288256
61.835 15.711588
61.840 15.304558
61.845 15.154497
61.850 15.120689
61.855 14.665167
61.860 14.545034
61.865 14.664495
61.870 14.903378
61.875 15.123164
61.880 15.420377
61.885 15.605451
61.890 15.730592
61.895 15.74492
61.900 15.254347
61.905 15.187074
61.910 15.281054
61.915 15.250405
61.920 15.317274
61.925 15.500548
61.930 15.55397
61.935 15.719305
61.940 15.428587
61.945 14.866983
61.950 14.440506
61.955 14.826832
61.960 15.163634
61.965 15.067114
61.970 15.125443
61.975 15.364263
61.980 15.739802
61.985 15.750144
61.990 15.11059
61.995 14.63613
62.000 14.542096
62.005 14.588161
62.010 14.064779
62.015 13.891427
62.020 13.571459
62.025 13.560746
62.030 13.633917
62.035 13.50888
62.040 12.970344
62.045 13.324541
62.050 13.378421
62.055 13.503312
62.060 13.359943
62.065 13.374912
62.070 13.478251
62.075 14.066816
62.080 14.358438
62.085 14.835449
62.090 15.232918
62.095 15.090887
62.100 14.783791
62.105 14.208258
62.110 14.296394
62.115 14.347654
62.120 14.618186
62.125 14.990686
62.130 15.425373
62.135 16.086056
62.140 17.001547
62.145 17.039398
62.150 16.948275
62.155 16.345165
62.160 15.803529
62.165 15.83815
62.170 15.893022
62.175 15.612313
62.180 15.614663
62.185 15.338088
62.190 15.385364
62.195 15.352527
62.200 15.469702
62.205 14.946236
62.210 14.732954
62.215 14.6634
62.220 14.575206
62.225 14.456306
62.230 14.307256
62.235 13.472703
62.240 13.051726
62.245 12.546283
62.250 12.352311
62.255 12.564755
62.260 12.886037
62.265 13.122727
62.270 14.094953
62.275 14.726091
62.280 15.391551
62.285 15.580362
62.290 15.763628
62.295 15.734426
62.300 15.461398
62.305 14.66468
62.310 14.380369
62.315 13.955126
62.320 13.796461
62.325 13.767943
62.330 13.852883
62.335 14.553146
62.340 15.390617
62.345 15.78995
62.350 15.862028
62.355 15.565028
62.360 15.479745
62.365 15.771668
62.370 15.442806
62.375 15.476465
62.380 15.163035
62.385 14.869431
62.390 15.162677
62.395 15.331603
62.400 15.255975
62.405 15.255885
62.410 14.716927
62.415 14.845238
62.420 15.59411
62.425 15.918095
62.430 15.612305
62.435 15.379128
62.440 15.000339
62.445 15.065742
62.450 15.553919
62.455 15.664015
62.460 15.68624
62.465 15.594705
62.470 15.745628
62.475 16.201754
62.480 16.037083
62.485 15.61724
62.490 15.381896
62.495 15.123095
62.500 14.956186
62.505 14.69171
62.510 14.403094
62.515 13.916002
62.520 13.55423
62.525 13.339085
62.530 13.189268
62.535 13.479376
62.540 13.411704
62.545 13.906886
62.550 14.212488
62.555 14.46415
62.560 14.436841
62.565 13.983218
62.570 13.531195
62.575 13.036057
62.580 12.500354
62.585 12.312585
62.590 11.958997
62.595 11.995818
62.600 12.423355
62.605 12.479985
62.610 13.452274
62.615 13.875444
62.620 14.043417
62.625 14.346653
62.630 14.85847
62.635 15.126566
62.640 15.438253
62.645 14.806574
62.650 15.042204
62.655 15.726002
62.660 16.189533
62.665 16.61463
62.670 16.635977
62.675 16.444403
62.680 16.492834
62.685 15.986303
62.690 15.864015
62.695 15.500664
62.700 14.919755
62.705 14.869786
62.710 15.349526
62.715 16.055185
62.720 16.558828
62.725 16.710356
62.730 17.171633
62.735 17.597336
62.740 17.49316
62.745 17.701424
62.750 17.476284
62.755 16.909296
62.760 16.165758
62.765 15.607523
62.770 15.638762
62.775 15.597722
62.780 15.327832
62.785 15.163531
62.790 15.098986
62.795 14.951495
62.800 14.975948
62.805 14.680655
62.810 14.360702
62.815 13.59443
62.820 13.374394
62.825 13.735423
62.830 14.060496
62.835 14.375357
62.840 14.627366
62.845 15.304052
62.850 16.109486
62.855 16.180407
62.860 16.371872
62.865 16.639162
62.870 16.493118
62.875 16.509518
62.880 16.106211
62.885 15.828903
62.890 16.004215
62.895 15.892791
62.900 15.901727
62.905 15.566144
62.910 15.113667
62.915 15.188867
62.920 15.377424
62.925 15.701261
62.930 15.873785
62.935 15.708511
62.940 15.584277
62.945 16.108953
62.950 16.571186
62.955 16.349981
62.960 15.927102
62.965 15.367151
62.970 15.218223
62.975 15.176232
62.980 15.015296
62.985 14.679288
62.990 14.793097
62.995 14.918035
63.000 15.626398
63.005 15.941169
63.010 15.832596
63.015 15.561832
63.020 15.695785
63.025 15.179119
63.030 14.741166
63.035 14.102595
63.040 13.688366
63.045 13.887511
63.050 13.860125
63.055 14.005471
63.060 14.398486
63.065 14.618003
63.070 15.032048
63.075 15.278278
63.080 15.19304
63.085 14.434039
63.090 13.96168
63.095 13.715614
63.100 14.089521
63.105 14.408123
63.110 15.014342
63.115 15.737736
63.120 16.379805
63.125 17.324894
63.130 17.704901
63.135 17.794127
63.140 17.520128
63.145 16.898212
63.150 16.336531
63.155 16.139069
63.160 15.527873
63.165 15.120047
63.170 14.897873
63.175 14.682561
63.180 15.117532
63.185 15.270545
63.190 15.217832
63.195 15.031138
63.200 15.088356
63.205 15.307012
63.210 15.279982
63.215 14.909665
63.220 15.01752
63.225 15.852985
63.230 16.589378
63.235 16.803677
63.240 16.444576
63.245 16.370214
63.250 16.032719
63.255 15.882103
63.260 15.331467
63.265 15.304935
63.270 15.478884
63.275 15.7602
63.280 16.104202
63.285 16.222239
63.290 16.185066
63.295 15.925373
63.300 15.308222
63.305 14.947186
63.310 15.055806
63.315 14.674735
63.320 14.883967
63.325 14.810503
63.330 14.906016
63.335 15.229574
63.340 15.52471
63.345 15.268813
63.350 15.670366
63.355 16.131229
63.360 16.375584
63.365 16.271986
63.370 16.133133
63.375 16.042662
63.380 16.365667
63.385 16.434902
63.390 16.182516
63.395 15.972903
63.400 16.201456
63.405 16.154961
63.410 15.890713
63.415 15.984695
63.420 16.046976
63.425 16.063276
63.430 16.433119
63.435 16.455444
63.440 16.474003
63.445 16.39723
63.450 16.304201
63.455 16.159506
63.460 15.902005
63.465 15.678484
63.470 15.571772
63.475 15.32432
63.480 14.911144
63.485 14.187428
63.490 13.858996
63.495 13.887679
63.500 13.970138
63.505 13.868459
63.510 13.969438
63.515 14.441756
63.520 14.684179
63.525 14.63221
63.530 14.698265
63.535 14.22058
63.540 14.403508
63.545 14.827552
63.550 15.00524
63.555 14.87072
63.560 15.501382
63.565 16.014349
63.570 16.645006
63.575 16.667252
63.580 16.330273
63.585 16.678833
63.590 17.230299
63.595 17.604883
63.600 17.384451
63.605 17.228563
63.610 17.278538
63.615 17.465515
63.620 16.865152
63.625 16.871521
63.630 16.490808
63.635 16.684269
63.640 16.667219
63.645 16.78171
63.650 16.66464
63.655 16.933838
63.660 17.410172
63.665 17.533558
63.670 17.617802
63.675 17.43923
63.680 17.356073
63.685 17.43152
63.690 17.197235
63.695 16.626459
63.700 16.007404
63.705 15.782939
63.710 16.909836
63.715 17.438608
63.720 17.926767
63.725 18.100767
63.730 18.203831
63.735 18.503485
63.740 18.527815
63.745 17.918011
63.750 17.440374
63.755 17.299631
63.760 17.358599
63.765 17.598387
63.770 17.741196
63.775 17.842682
63.780 18.007931
63.785 17.967648
63.790 17.477222
63.795 17.201813
63.800 17.054573
63.805 16.802307
63.810 16.907415
63.815 17.066275
63.820 17.132021
63.825 17.324385
63.830 17.630108
63.835 18.110243
63.840 18.983618
63.845 19.482397
63.850 20.124287
63.855 20.046658
63.860 20.462275
63.865 20.646679
63.870 20.61371
63.875 20.244951
63.880 19.558338
63.885 18.675837
63.890 19.477135
63.895 19.79323
63.900 19.810049
63.905 19.87015
63.910 19.352551
63.915 19.14327
63.920 19.032206
63.925 18.733215
63.930 18.482389
63.935 18.583191
63.940 18.601852
63.945 19.768633
63.950 21.133772
63.955 21.752703
63.960 22.413229
63.965 22.690054
63.970 22.875416
63.975 22.987509
63.980 22.84693
63.985 22.867195
63.990 23.306065
63.995 23.961466
64.000 24.685593
64.005 24.798376
64.010 25.152952
64.015 25.304338
64.020 24.990982
64.025 25.078482
64.030 24.724846
64.035 24.626373
64.040 24.523384
64.045 25.174261
64.050 25.940777
64.055 25.95105
64.060 24.957533
64.065 24.82686
64.070 25.637388
64.075 26.249332
64.080 25.863472
64.085 25.283278
64.090 25.66283
64.095 26.107628
64.100 26.003086
64.105 25.192162
64.110 24.944038
64.115 26.00153
64.120 27.478706
64.125 27.579176
64.130 27.589491
64.135 27.739117
64.140 28.14002
64.145 27.747416
64.150 26.665874
64.155 26.159996
64.160 26.48303
64.165 27.171467
64.170 27.80858
64.175 28.297152
64.180 28.803244
64.185 28.758524
64.190 28.290573
64.195 27.711319
64.200 27.627924
64.205 26.786325
64.210 26.243549
64.215 25.895899
64.220 25.907898
64.225 25.977726
64.230 26.341469
64.235 26.168354
64.240 26.485115
64.245 26.576216
64.250 26.824533
64.255 27.518059
64.260 28.633354
64.265 28.840477
64.270 28.930481
64.275 28.724384
64.280 27.880377
64.285 27.13344
64.290 26.512407
64.295 25.630463
64.300 25.156351
64.305 24.556381
64.310 24.177273
64.315 24.809635
64.320 25.717241
64.325 25.226557
64.330 25.126404
64.335 25.047056
64.340 24.936823
64.345 25.45229
64.350 25.703348
64.355 24.950142
64.360 25.033735
64.365 24.730719
64.370 25.060062
64.375 25.142374
64.380 24.639622
64.385 24.154274
64.390 24.301497
64.395 24.06258
64.400 23.771118
64.405 23.741405
64.410 23.489326
64.415 23.1192
64.420 23.219185
64.425 22.835175
64.430 22.846304
64.435 23.077639
64.440 22.993162
64.445 22.874727
64.450 23.346897
64.455 23.331141
64.460 23.082958
64.465 22.369242
64.470 21.826426
64.475 21.337137
64.480 21.297564
64.485 20.564219
64.490 19.794273
64.495 20.365389
64.500 21.286518
64.505 21.842644
64.510 21.545012
64.515 21.338264
64.520 21.580456
64.525 21.624849
64.530 20.995169
64.535 20.272326
64.540 20.184343
64.545 20.890081
64.550 20.87221
64.555 20.77569
64.560 21.190765
64.565 21.885788
64.570 21.78998
64.575 21.296799
64.580 20.702465
64.585 20.065672
64.590 20.307581
64.595 19.961134
64.600 19.331863
64.605 19.413153
64.610 19.042915
64.615 19.349901
64.620 20.154222
64.625 19.530125
64.630 20.095476
64.635 20.598074
64.640 20.709698
64.645 20.70026
64.650 20.519611
64.655 20.380585
64.660 20.727831
64.665 20.833553
64.670 20.398424
64.675 19.872335
64.680 19.972235
64.685 19.847891
64.690 19.245495
64.695 19.139471
64.700 18.487648
64.705 18.831646
64.710 19.745081
64.715 19.624737
64.720 19.938347
64.725 20.266098
64.730 19.897575
64.735 19.567963
64.740 18.735992
64.745 17.991219
64.750 18.272409
64.755 17.90254
64.760 17.537264
64.765 17.509983
64.770 18.031948
64.775 18.81485
64.780 18.732103
64.785 18.764853
64.790 19.002211
64.795 19.799479
64.800 20.267481
64.805 20.379684
64.810 20.803942
64.815 21.714977
64.820 21.749569
64.825 21.944695
64.830 21.582787
64.835 21.454422
64.840 21.102982
64.845 20.736546
64.850 20.077925
64.855 20.11351
64.860 20.149576
64.865 20.597567
64.870 20.374895
64.875 20.436346
64.880 20.61455
64.885 20.811998
64.890 20.840027
64.895 21.078384
64.900 20.688046
64.905 20.562393
64.910 20.535816
64.915 20.354263
64.920 20.709335
64.925 21.112768
64.930 20.738939
64.935 21.092222
64.940 21.823151
64.945 21.888231
64.950 21.26088
64.955 21.407259
64.960 21.472923
64.965 21.550325
64.970 21.488043
64.975 21.24164
64.980 21.450048
64.985 22.676788
64.990 22.607906
64.995 22.347797
65.000 22.646629
65.005 22.634317
65.010 22.008352
65.015 21.525064
65.020 21.91098
65.025 21.765568
65.030 21.582541
65.035 21.541628
65.040 21.721052
65.045 22.083672
65.050 22.183727
65.055 21.111948
65.060 21.156418
65.065 21.639027
65.070 21.834208
65.075 21.583344
65.080 21.636036
65.085 21.934935
65.090 22.71619
65.095 23.116711
65.100 22.751368
65.105 22.9265
65.110 23.353739
65.115 23.878555
65.120 23.515106
65.125 22.995939
65.130 22.914736
65.135 22.280687
65.140 21.734161
65.145 21.721628
65.150 21.618855
65.155 21.44515
65.160 21.200689
65.165 21.073568
65.170 21.759706
65.175 21.769222
65.180 20.847015
65.185 20.10895
65.190 20.150511
65.195 19.944756
65.200 19.255604
65.205 19.097431
65.210 19.019432
65.215 19.78166
65.220 19.965687
65.225 19.543974
65.230 19.404505
65.235 19.672333
65.240 19.933098
65.245 20.315725
65.250 20.436018
65.255 20.283342
65.260 20.849213
65.265 21.245234
65.270 20.990671
65.275 20.483799
65.280 20.043329
65.285 19.519619
65.290 19.820751
65.295 19.805965
65.300 19.886173
65.305 19.798901
65.310 19.618633
65.315 19.556997
65.320 19.797844
65.325 19.466368
65.330 18.574114
65.335 17.509333
65.340 17.707279
65.345 18.44824
65.350 18.517397
65.355 18.36367
65.360 18.481646
65.365 18.670261
65.370 19.227995
65.375 18.690039
65.380 18.032612
65.385 18.395842
65.390 18.68615
65.395 19.182747
65.400 19.570324
65.405 19.308973
65.410 19.595034
65.415 19.385414
65.420 18.973892
65.425 18.617683
65.430 18.073126
65.435 17.8885
65.440 18.219412
65.445 18.924946
65.450 19.00938
65.455 18.886509
65.460 18.753986
65.465 18.855017
65.470 19.314169
65.475 19.24617
65.480 19.39319
65.485 19.717493
65.490 20.068501
65.495 20.085211
65.500 19.808201
65.505 19.539137
65.510 19.894352
65.515 19.50396
65.520 19.132744
65.525 18.733799
65.530 19.077883
65.535 19.230433
65.540 18.945684
65.545 19.050999
65.550 19.12006
65.555 19.456242
65.560 20.387724
65.565 20.000996
65.570 20.29047
65.575 20.502832
65.580 20.420118
65.585 20.669806
65.590 21.166847
65.595 20.9132
65.600 21.481709
65.605 21.788038
65.610 22.455038
65.615 22.755619
65.620 23.188917
65.625 22.867979
65.630 23.041386
65.635 22.99991
65.640 23.452085
65.645 23.454967
65.650 23.677164
65.655 22.675972
65.660 22.954584
65.665 23.31501
65.670 23.500875
65.675 23.212086
65.680 23.897524
65.685 23.978727
65.690 24.342253
65.695 24.200075
65.700 24.640345
65.705 25.141447
65.710 25.171671
65.715 25.001621
65.720 25.420935
65.725 26.371557
65.730 26.959776
65.735 26.981281
65.740 26.963614
65.745 27.051996
65.750 27.10268
65.755 27.45887
65.760 27.371706
65.765 26.966169
65.770 27.180527
65.775 27.484028
65.780 27.813763
65.785 28.185295
65.790 28.417522
65.795 27.955833
65.800 28.480471
65.805 28.604992
65.810 28.257025
65.815 28.489594
65.820 28.804861
65.825 28.579058
65.830 28.785791
65.835 29.057096
65.840 29.077532
65.845 29.560118
65.850 29.362755
65.855 28.286877
65.860 28.392342
65.865 28.453382
65.870 27.921543
65.875 27.942783
65.880 28.156252
65.885 28.325182
65.890 29.080784
65.895 29.050257
65.900 29.673637
65.905 29.381783
65.910 29.288549
65.915 28.78804
65.920 29.094629
65.925 29.427286
65.930 29.403828
65.935 29.440914
65.940 29.556969
65.945 29.714403
65.950 29.934256
65.955 30.009775
65.960 30.313875
65.965 30.865667
65.970 30.691292
65.975 31.006477
65.980 31.044216
65.985 31.620159
65.990 31.395657
65.995 31.693584
66.000 31.932085
66.005 31.969606
66.010 32.214138
66.015 32.027668
66.020 31.45927
66.025 31.097223
66.030 30.442257
66.035 30.045019
66.040 29.763668
66.045 29.499388
66.050 29.828682
66.055 30.154455
66.060 30.121075
66.065 30.181099
66.070 30.918829
66.075 31.383783
66.080 31.270126
66.085 30.507427
66.090 30.507742
66.095 29.91736
66.100 29.544281
66.105 28.577023
66.110 27.957834
66.115 27.551607
66.120 28.401268
66.125 28.774393
66.130 29.488005
66.135 29.935488
66.140 30.369116
66.145 30.311327
66.150 29.977915
66.155 29.403105
66.160 28.520649
66.165 28.398855
66.170 27.974678
66.175 27.495043
66.180 27.370626
66.185 27.235662
66.190 26.995108
66.195 27.400311
66.200 26.024084
66.205 25.005066
66.210 24.85351
66.215 24.636154
66.220 24.531721
66.225 24.408674
66.230 24.009398
66.235 24.133377
66.240 23.758007
66.245 23.587067
66.250 24.548851
66.255 24.428102
66.260 23.830856
66.265 23.431007
66.270 23.958595
66.275 24.054922
66.280 23.836597
66.285 22.979416
66.290 23.090374
66.295 23.343637
66.300 23.967751
66.305 23.91942
66.310 24.147633
66.315 24.062845
66.320 23.881599
66.325 24.153616
66.330 23.896891
66.335 23.635607
66.340 23.666639
66.345 23.676579
66.350 23.987606
66.355 23.831678
66.360 23.172771
66.365 22.763996
66.370 22.05666
66.375 21.083124
66.380 20.490547
66.385 19.775635
66.390 19.658827
66.395 19.970434
66.400 20.249731
66.405 20.651939
66.410 20.478889
66.415 20.451361
66.420 20.836409
66.425 20.277634
66.430 19.758972
66.435 19.458548
66.440 19.001331
66.445 19.114202
66.450 19.121592
66.455 18.749956
66.460 18.838032
66.465 18.874874
66.470 18.647478
66.475 18.644091
66.480 19.264889
66.485 19.043776
66.490 19.37921
66.495 18.960049
66.500 18.992819
66.505 18.829041
66.510 18.724009
66.515 18.176523
66.520 17.869221
66.525 17.731007
66.530 17.859396
66.535 17.147638
66.540 17.339167
66.545 16.963306
66.550 16.762533
66.555 16.203911
66.560 16.469866
66.565 16.604918
66.570 16.475529
66.575 16.284502
66.580 16.387621
66.585 15.771094
66.590 15.677094
66.595 15.157758
66.600 14.636016
66.605 14.892319
66.610 14.569291
66.615 14.444803
66.620 14.693218
66.625 15.042627
66.630 15.335828
66.635 15.748424
66.640 16.248142
66.645 16.518774
66.650 16.685913
66.655 17.296616
66.660 17.247852
66.665 17.256483
66.670 17.199013
66.675 16.704636
66.680 16.507309
66.685 16.053284
66.690 16.020706
66.695 16.01704
66.700 15.98332
66.705 15.951801
66.710 15.824609
66.715 16.056002
66.720 16.804224
66.725 16.526268
66.730 16.807232
66.735 16.713104
66.740 16.965748
66.745 17.567009
66.750 17.906296
66.755 17.799267
66.760 17.69154
66.765 17.587927
66.770 17.371805
66.775 17.349255
66.780 16.9114
66.785 16.657312
66.790 16.378267
66.795 16.410828
66.800 16.068781
66.805 15.905724
66.810 15.550731
66.815 15.241605
66.820 15.13186
66.825 15.441582
66.830 16.003794
66.835 16.056698
66.840 16.886417
66.845 16.734169
66.850 16.487444
66.855 16.045887
66.860 15.170528
66.865 14.500094
66.870 14.350474
66.875 14.146321
66.880 14.352428
66.885 14.786027
66.890 14.885929
66.895 14.875712
66.900 15.316507
66.905 15.455919
66.910 15.350738
66.915 15.831071
66.920 15.984286
66.925 16.460594
66.930 16.753315
66.935 16.833879
66.940 16.89332
66.945 16.554399
66.950 15.858154
66.955 15.229406
66.960 14.910001
66.965 15.034229
66.970 14.584714
66.975 14.854957
66.980 15.268091
66.985 15.690009
66.990 16.091192
66.995 16.280949
67.000 16.569246
67.005 16.690866
67.010 16.184875
67.015 15.912006
67.020 15.992735
67.025 15.548328
67.030 15.543258
67.035 15.459684
67.040 15.829199
67.045 16.158127
67.050 16.162325
67.055 16.401016
67.060 16.333004
67.065 16.351645
67.070 15.97895
67.075 15.534123
67.080 15.359458
67.085 15.202545
67.090 15.171556
67.095 15.403215
67.100 15.346336
67.105 15.815891
67.110 16.091993
67.115 16.506245
67.120 17.046871
67.125 16.742371
67.130 16.796221
67.135 16.820719
67.140 16.313789
67.145 16.537245
67.150 16.474451
67.155 16.263552
67.160 16.939491
67.165 17.125294
67.170 17.295719
67.175 17.514645
67.180 17.203001
67.185 16.926668
67.190 16.52174
67.195 16.693411
67.200 16.762312
67.205 16.336897
67.210 16.368542
67.215 16.210558
67.220 16.545967
67.225 16.882643
67.230 15.9078
67.235 16.034571
67.240 15.780277
67.245 15.704275
67.250 15.743694
67.255 15.33237
67.260 15.037701
67.265 15.572216
67.270 15.248164
67.275 15.565016
67.280 15.458241
67.285 15.299699
67.290 15.29557
67.295 15.277273
67.300 14.938899
67.305 14.981238
67.310 15.199365
67.315 15.891613
67.320 15.56322
67.325 15.603106
67.330 15.637465
67.335 15.514807
67.340 15.266926
67.345 14.700994
67.350 14.640374
67.355 15.223451
67.360 15.6525
67.365 16.090408
67.370 16.188368
67.375 16.71945
67.380 17.475363
67.385 17.101917
67.390 16.620657
67.395 15.942167
67.400 15.822284
67.405 15.820326
67.410 15.59965
67.415 14.942319
67.420 15.050137
67.425 15.214768
67.430 15.880578
67.435 16.225073
67.440 16.577219
67.445 16.31217
67.450 16.401745
67.455 16.036154
67.460 15.898122
67.465 15.703351
67.470 15.933937
67.475 15.992571
67.480 16.767153
67.485 17.177189
67.490 17.52705
67.495 17.869076
67.500 17.532415
67.505 17.240765
67.510 17.459486
67.515 17.303938
67.520 16.642044
67.525 17.085993
67.530 17.019991
67.535 16.785576
67.540 16.446535
67.545 15.997134
67.550 15.880838
67.555 15.813905
67.560 15.022648
67.565 15.054869
67.570 15.700568
67.575 15.308436
67.580 15.453737
67.585 15.344504
67.590 16.050495
67.595 15.789968
67.600 15.438045
67.605 14.942461
67.610 14.888729
67.615 15.03314
67.620 15.274875
67.625 15.142303
67.630 15.68727
67.635 15.469044
67.640 15.802208
67.645 16.170404
67.650 15.651764
67.655 15.95769
67.660 15.709445
67.665 15.697605
67.670 15.597698
67.675 15.550967
67.680 15.244238
67.685 15.278552
67.690 14.730104
67.695 15.022399
67.700 15.317883
67.705 15.619839
67.710 15.766987
67.715 15.989713
67.720 16.275579
67.725 16.051868
67.730 16.294065
67.735 16.065729
67.740 15.730957
67.745 15.436086
67.750 15.243183
67.755 14.745066
67.760 15.328249
67.765 15.52009
67.770 16.343021
67.775 16.455456
67.780 16.088062
67.785 16.241644
67.790 16.16017
67.795 15.542734
67.800 14.998411
67.805 14.565803
67.810 14.721814
67.815 14.641286
67.820 14.69442
67.825 15.089242
67.830 15.486195
67.835 15.738441
67.840 15.627436
67.845 16.085592
67.850 16.664925
67.855 16.63485
67.860 16.339693
67.865 15.311741
67.870 14.556704
67.875 14.928892
67.880 14.763668
67.885 14.912856
67.890 15.281233
67.895 15.744902
67.900 16.617718
67.905 16.940413
67.910 16.847282
67.915 16.383249
67.920 15.87604
67.925 15.821106
67.930 15.790099
67.935 16.204576
67.940 16.424868
67.945 15.842133
67.950 16.101881
67.955 15.889193
67.960 15.670521
67.965 15.571693
67.970 15.321865
67.975 15.83912
67.980 16.218035
67.985 15.901846
67.990 15.850299
67.995 15.590642
68.000 15.355065
68.005 15.285574
68.010 14.943668
68.015 15.009706
68.020 15.364244
68.025 15.821457
68.030 16.458994
68.035 16.584143
68.040 16.085934
68.045 16.1786
68.050 16.428976
68.055 16.71081
68.060 16.495054
68.065 16.22263
68.070 16.024405
68.075 16.127501
68.080 16.328865
68.085 16.585052
68.090 16.490623
68.095 16.219196
68.100 16.075138
68.105 16.811834
68.110 16.771151
68.115 16.399212
68.120 15.9697
68.125 16.341242
68.130 16.673441
68.135 16.853067
68.140 16.356466
68.145 16.326241
68.150 15.884924
68.155 15.417836
68.160 15.478082
68.165 15.688826
68.170 16.157793
68.175 16.393152
68.180 16.583334
68.185 16.879715
68.190 16.554678
68.195 15.93914
68.200 15.858001
68.205 15.379288
68.210 15.565723
68.215 16.275286
68.220 16.055473
68.225 16.262062
68.230 16.000208
68.235 15.616665
68.240 15.641938
68.245 14.929236
68.250 14.328145
68.255 14.703962
68.260 15.145927
68.265 15.551302
68.270 15.936478
68.275 15.876908
68.280 16.243557
68.285 16.494053
68.290 16.51631
68.295 16.636881
68.300 16.560984
68.305 16.096956
68.310 15.712328
68.315 15.40666
68.320 14.98705
68.325 14.994061
68.330 14.809044
68.335 15.167706
68.340 15.965051
68.345 16.468054
68.350 17.020065
68.355 17.532024
68.360 17.751167
68.365 17.963552
68.370 17.64377
68.375 17.162403
68.380 17.082876
68.385 17.082026
68.390 16.831398
68.395 16.842587
68.400 16.506672
68.405 16.664076
68.410 16.703772
68.415 16.77725
68.420 16.723608
68.425 16.859806
68.430 16.734505
68.435 16.519148
68.440 16.069036
68.445 16.425032
68.450 16.476656
68.455 16.180365
68.460 15.960542
68.465 15.880462
68.470 16.155684
68.475 16.539324
68.480 16.257776
68.485 16.481434
68.490 16.403778
68.495 16.913048
68.500 16.833191
68.505 17.188242
68.510 16.934982
68.515 16.984905
68.520 17.087492
68.525 17.086016
68.530 17.542021
68.535 17.949684
68.540 17.902557
68.545 17.666857
68.550 17.386608
68.555 17.578144
68.560 17.759832
68.565 17.460384
68.570 16.966026
68.575 16.305115
68.580 16.396749
68.585 16.874697
68.590 17.077929
68.595 17.145491
68.600 17.396112
68.605 18.236074
68.610 18.847696
68.615 18.676765
68.620 18.569168
68.625 18.628794
68.630 18.813929
68.635 18.269806
68.640 18.070179
68.645 18.091293
68.650 18.286526
68.655 18.270046
68.660 18.202549
68.665 17.929815
68.670 17.730753
68.675 17.569735
68.680 18.094301
68.685 18.138502
68.690 18.539631
68.695 18.98387
68.700 19.603836
68.705 20.105642
68.710 20.048065
68.715 19.991859
68.720 20.743101
68.725 20.537888
68.730 20.32395
68.735 20.220007
68.740 20.05443
68.745 20.391827
68.750 20.43906
68.755 19.899611
68.760 19.838474
68.765 20.347836
68.770 20.866045
68.775 21.572556
68.780 21.311834
68.785 21.214054
68.790 21.079723
68.795 21.743839
68.800 21.475531
68.805 21.451515
68.810 21.406782
68.815 21.582266
68.820 21.864843
68.825 21.949621
68.830 21.098562
68.835 20.960083
68.840 20.649937
68.845 21.061087
68.850 21.022743
68.855 21.504545
68.860 21.883192
68.865 22.060501
68.870 22.564528
68.875 22.566557
68.880 22.212412
68.885 22.378117
68.890 22.306282
68.895 22.356722
68.900 22.315716
68.905 22.49641
68.910 22.650602
68.915 22.998636
68.920 22.764875
68.925 23.075136
68.930 23.035835
68.935 23.301874
68.940 23.147715
68.945 23.164692
68.950 23.380569
68.955 23.708387
68.960 22.656174
68.965 22.85025
68.970 22.817547
68.975 23.285391
68.980 23.581165
68.985 23.58404
68.990 23.769646
68.995 24.132824
69.000 23.848436
69.005 24.180965
69.010 23.949568
69.015 23.978922
69.020 24.535
69.025 24.824087
69.030 24.865501
69.035 25.35223
69.040 26.326584
69.045 27.49148
69.050 27.643911
69.055 26.6551
69.060 26.885752
69.065 27.869541
69.070 28.133942
69.075 28.021843
69.080 27.765585
69.085 28.200323
69.090 28.420065
69.095 28.163786
69.100 28.790274
69.105 28.546156
69.110 28.029976
69.115 27.127991
69.120 27.130613
69.125 27.94857
69.130 28.391273
69.135 27.996462
69.140 28.624556
69.145 28.258863
69.150 28.661203
69.155 29.16279
69.160 28.224607
69.165 27.572578
69.170 27.34202
69.175 26.908928
69.180 27.984865
69.185 28.384041
69.190 28.489578
69.195 28.651285
69.200 28.484203
69.205 28.067308
69.210 27.892252
69.215 26.677423
69.220 26.127943
69.225 26.158667
69.230 26.644594
69.235 26.720959
69.240 26.672295
69.245 26.725285
69.250 26.508879
69.255 25.921387
69.260 25.689198
69.265 25.614101
69.270 25.6488
69.275 26.005098
69.280 26.045483
69.285 26.299194
69.290 27.186693
69.295 27.449192
69.300 27.753944
69.305 27.540871
69.310 27.515162
69.315 26.786762
69.320 26.613253
69.325 25.819225
69.330 25.150305
69.335 24.287342
69.340 24.726292
69.345 24.349808
69.350 25.60976
69.355 26.097803
69.360 25.9781
69.365 26.261652
69.370 26.485556
69.375 26.292999
69.380 25.909418
69.385 24.886766
69.390 24.814564
69.395 24.705362
69.400 24.704588
69.405 24.489603
69.410 24.616013
69.415 25.137358
69.420 24.976465
69.425 24.659817
69.430 24.697123
69.435 24.758118
69.440 24.195101
69.445 23.702633
69.450 23.816174
69.455 23.353846
69.460 23.180162
69.465 22.853678
69.470 22.402485
69.475 22.106781
69.480 22.015034
69.485 22.155489
69.490 22.230936
69.495 22.032578
69.500 22.171333
69.505 22.598049
69.510 22.842764
69.515 22.57283
69.520 21.662785
69.525 21.344767
69.530 21.056377
69.535 21.054365
69.540 20.808607
69.545 20.477144
69.550 20.084721
69.555 19.810474
69.560 20.052345
69.565 19.369125
69.570 19.255486
69.575 19.463066
69.580 19.327614
69.585 19.7992
69.590 20.363924
69.595 20.003025
69.600 20.071424
69.605 19.929169
69.610 19.935635
69.615 20.262718
69.620 19.706564
69.625 18.555355
69.630 19.030092
69.635 18.838001
69.640 18.260845
69.645 18.646091
69.650 18.954706
69.655 19.669203
69.660 20.26495
69.665 20.198339
69.670 20.089651
69.675 20.260798
69.680 19.934397
69.685 19.19838
69.690 18.220724
69.695 17.798681
69.700 17.827988
69.705 18.009624
69.710 17.75952
69.715 17.276535
69.720 17.480799
69.725 18.146799
69.730 18.347805
69.735 18.396992
69.740 18.517071
69.745 18.166416
69.750 18.236994
69.755 18.028112
69.760 17.774698
69.765 17.858154
69.770 18.07654
69.775 18.156406
69.780 18.915106
69.785 19.553915
69.790 19.140614
69.795 19.057941
69.800 18.785595
69.805 18.353102
69.810 18.582495
69.815 17.859932
69.820 17.418978
69.825 17.663504
69.830 17.91415
69.835 17.683718
69.840 16.902832
69.845 17.064501
69.850 17.479624
69.855 17.757948
69.860 18.298759
69.865 17.866682
69.870 18.200586
69.875 18.439331
69.880 17.520491
69.885 17.560497
69.890 17.102694
69.895 16.141087
69.900 15.756537
69.905 14.936024
69.910 14.611001
69.915 14.925348
69.920 14.576652
69.925 14.501742
69.930 14.549077
69.935 14.66096
69.940 14.997714
69.945 15.195255
69.950 14.615914
69.955 14.860091
69.960 14.852405
69.965 15.142992
69.970 15.209922
69.975 15.031463
69.980 15.2532
69.985 15.118391
69.990 14.991599
69.995 14.91335
70.000 14.796921
70.005 15.357795
70.010 15.32034
70.015 15.4153
70.020 15.453461
70.025 15.554073
70.030 16.086298
70.035 16.390659
70.040 16.11282
70.045 16.347187
70.050 16.194139
70.055 15.894453
70.060 15.28031
70.065 14.733088
70.070 14.238133
70.075 13.738594
70.080 13.601905
70.085 13.77491
70.090 14.421077
70.095 14.736947
70.100 14.694201
70.105 14.786928
70.110 15.119651
70.115 15.67381
70.120 15.721303
70.125 15.540586
70.130 16.128614
70.135 16.278913
70.140 16.43265
70.145 17.104406
70.150 16.348043
70.155 16.390654
70.160 16.136473
70.165 15.186645
70.170 15.115025
70.175 15.077003
70.180 14.732737
70.185 14.918311
70.190 15.62453
70.195 15.877589
70.200 16.186417
70.205 15.746729
70.210 15.48902
70.215 15.176422
70.220 15.377218
70.225 14.568741
70.230 14.747954
70.235 15.06613
70.240 15.633641
70.245 16.467291
70.250 17.032732
70.255 16.7694
70.260 17.076761
70.265 17.017714
70.270 17.421579
70.275 17.020399
70.280 16.306778
70.285 16.110889
70.290 16.178953
70.295 15.985626
70.300 15.502084
70.305 15.250871
70.310 15.542229
70.315 15.915247
70.320 16.199368
70.325 15.798746
70.330 15.841503
70.335 15.984504
70.340 15.378533
70.345 15.447801
70.350 15.542143
70.355 15.346117
70.360 15.606733
70.365 15.505859
70.370 16.006178
70.375 16.531773
70.380 15.913539
70.385 15.307683
70.390 15.347735
70.395 15.408813
70.400 15.616896
70.405 15.711654
70.410 15.898697
70.415 16.006989
70.420 16.058847
70.425 16.499287
70.430 16.688503
70.435 16.176958
70.440 15.573049
70.445 15.102002
70.450 15.479013
70.455 15.338942
70.460 14.525017
70.465 14.291361
70.470 14.895711
70.475 15.792411
70.480 15.883178
70.485 15.988819
70.490 15.9348
70.495 16.247967
70.500 16.944191
70.505 16.994389
70.510 17.10709
70.515 17.457321
70.520 17.663464
70.525 18.210838
70.530 18.238741
70.535 17.901608
70.540 17.415182
70.545 16.92939
70.550 16.650446
70.555 16.304739
70.560 15.960588
70.565 15.340577
70.570 14.340785
70.575 14.387206
70.580 14.214974
70.585 14.286117
70.590 14.191013
70.595 13.828985
70.600 14.62263
70.605 15.292466
70.610 15.626292
70.615 16.050732
70.620 16.114256
70.625 16.616795
70.630 16.819763
70.635 16.739616
70.640 16.400995
70.645 15.777224
70.650 15.577332
70.655 15.451823
70.660 14.961948
70.665 14.886893
70.670 14.854377
70.675 14.934168
70.680 15.179628
70.685 15.228882
70.690 15.531443
70.695 15.811726
70.700 15.786566
70.705 15.972723
70.710 15.789522
70.715 15.595475
70.720 14.644482
70.725 14.861596
70.730 14.538293
70.735 14.094315
70.740 13.399726
70.745 13.357642
70.750 13.569085
70.755 13.921383
70.760 13.368999
70.765 13.51776
70.770 13.86799
70.775 14.358523
70.780 14.384727
70.785 14.10528
70.790 14.364606
70.795 14.569273
70.800 14.290415
70.805 13.785377
70.810 13.57773
70.815 14.039099
70.820 14.551993
70.825 14.97548
70.830 15.347065
70.835 16.11801
70.840 16.426073
70.845 16.391752
70.850 15.667684
70.855 15.231982
70.860 14.07272
70.865 13.934343
70.870 13.397105
70.875 13.780385
70.880 13.811441
70.885 14.129726
70.890 14.353921
70.895 14.687174
70.900 14.731756
70.905 14.696088
70.910 14.262341
70.915 14.139067
70.920 14.029145
70.925 14.087798
70.930 14.135048
70.935 14.1737
70.940 14.313497
70.945 15.014946
70.950 15.600281
70.955 16.285267
70.960 16.385052
70.965 16.401115
70.970 16.411917
70.975 16.202412
70.980 15.670655
70.985 15.530723
70.990 14.991479
70.995 14.942695
71.000 14.888116
71.005 15.128269
71.010 15.005417
71.015 14.68069
71.020 14.988609
71.025 14.808033
71.030 14.889583
71.035 15.30655
71.040 15.493292
71.045 15.987485
71.050 16.170769
71.055 15.852301
71.060 15.834367
71.065 15.362744
71.070 15.476158
71.075 15.35962
71.080 15.080483
71.085 15.395205
71.090 15.727137
71.095 15.964887
71.100 15.685747
71.105 15.479367
71.110 15.314257
71.115 15.663233
71.120 15.154586
71.125 15.022257
71.130 15.3149
71.135 15.618299
71.140 15.38032
71.145 15.642794
71.150 15.769023
71.155 15.849476
71.160 15.726454
71.165 15.445886
71.170 15.970077
71.175 16.154072
71.180 15.389234
71.185 15.3734
71.190 15.784132
71.195 15.524189
71.200 15.470783
71.205 15.540551
71.210 15.952946
71.215 16.317223
71.220 15.702793
71.225 15.446174
71.230 15.955055
71.235 15.706514
71.240 15.530682
71.245 15.507082
71.250 15.858238
71.255 15.742177
71.260 15.413923
71.265 15.155536
71.270 15.178811
71.275 14.676813
71.280 14.173487
71.285 14.272267
71.290 14.652257
71.295 14.7044
71.300 14.38857
71.305 13.967028
71.310 14.157396
71.315 14.172372
71.320 13.837808
71.325 13.814605
71.330 13.797329
71.335 14.30911
71.340 14.560178
71.345 14.592922
71.350 14.746386
71.355 14.805132
71.360 15.183041
71.365 15.570501
71.370 15.538478
71.375 15.610368
71.380 16.041922
71.385 15.805444
71.390 15.387079
71.395 14.818447
71.400 14.767973
71.405 14.951062
71.410 14.818365
71.415 15.109155
71.420 14.700418
71.425 15.097312
71.430 15.327186
71.435 15.155097
71.440 15.202839
71.445 14.708842
71.450 13.839887
71.455 14.108465
71.460 13.869519
71.465 14.058509
71.470 14.130058
71.475 14.034414
71.480 14.346156
71.485 14.753348
71.490 14.959889
71.495 14.835477
71.500 14.316724
71.505 14.507237
71.510 14.366014
71.515 14.618231
71.520 14.857358
71.525 14.620467
71.530 14.526754
71.535 15.029026
71.540 14.73788
71.545 15.188584
71.550 14.928097
71.555 15.165145
71.560 15.375832
71.565 15.465077
71.570 15.042048
71.575 15.03375
71.580 14.377881
71.585 14.267193
71.590 14.229541
71.595 14.413
71.600 14.811326
71.605 15.066513
71.610 15.243426
71.615 15.52478
71.620 15.646662
71.625 15.595745
71.630 15.881817
71.635 15.534961
71.640 15.506387
71.645 15.705886
71.650 15.481154
71.655 15.14751
71.660 15.032536
71.665 15.067804
71.670 14.953665
71.675 14.345971
71.680 14.746323
71.685 15.221607
71.690 15.539345
71.695 15.264396
71.700 15.28538
71.705 15.694479
71.710 15.508008
71.715 15.048985
71.720 14.890621
71.725 15.132281
71.730 15.24499
71.735 15.53188
71.740 16.429073
71.745 16.372232
71.750 16.739075
71.755 16.839117
71.760 16.794847
71.765 16.246237
71.770 15.906187
71.775 15.783218
71.780 16.36026
71.785 16.52951
71.790 16.114578
71.795 15.852439
71.800 16.379059
71.805 16.263008
71.810 16.124245
71.815 15.924853
71.820 15.918698
71.825 16.627592
71.830 16.630564
71.835 16.063293
71.840 15.910114
71.845 15.457079
71.850 14.942807
71.855 14.941319
71.860 14.310863
71.865 14.373399
71.870 14.588113
71.875 15.023039
71.880 15.249496
71.885 15.420227
71.890 15.062023
71.895 15.372978
71.900 15.61465
71.905 15.6923
71.910 15.648281
71.915 15.86421
71.920 16.526678
71.925 16.173061
71.930 15.99832
71.935 15.982132
71.940 15.715686
71.945 14.937181
71.950 14.518267
71.955 14.315222
71.960 14.757437
71.965 14.817842
71.970 14.42975
71.975 14.970718
71.980 15.570277
71.985 15.539277
71.990 14.987104
71.995 15.326728
72.000 15.40649
72.005 15.363872
72.010 15.01729
72.015 14.763293
72.020 14.793283
72.025 15.282025
72.030 14.809692
72.035 15.080515
72.040 15.051662
72.045 15.317464
72.050 14.921412
72.055 14.394088
72.060 13.906087
72.065 13.859076
72.070 14.032499
72.075 14.233471
72.080 13.526019
72.085 14.318845
72.090 14.96823
72.095 15.559951
72.100 16.03343
72.105 16.038965
72.110 15.902561
72.115 16.702147
72.120 16.455706
72.125 16.432663
72.130 16.138414
72.135 15.703768
72.140 15.407143
72.145 15.503939
72.150 15.468159
72.155 15.384851
72.160 15.088387
72.165 15.143008
72.170 14.74642
72.175 14.796444
72.180 14.488382
72.185 14.171182
72.190 14.094136
72.195 13.804403
72.200 13.483729
72.205 13.999804
72.210 14.092576
72.215 13.929795
72.220 13.706857
72.225 13.616516
72.230 13.868775
72.235 14.148133
72.240 14.091105
72.245 14.31297
72.250 14.383273
72.255 14.809253
72.260 14.623231
72.265 14.717996
72.270 14.798025
72.275 14.690832
72.280 14.796312
72.285 14.83644
72.290 15.243688
72.295 15.187216
72.300 14.619104
72.305 14.590003
72.310 14.851829
72.315 14.969763
72.320 15.022523
72.325 14.88221
72.330 15.26111
72.335 15.330804
72.340 15.045498
72.345 14.691851
72.350 14.641287
72.355 14.657943
72.360 14.956045
72.365 15.419171
72.370 15.830203
72.375 16.149149
72.380 16.555857
72.385 16.250622
72.390 15.747001
72.395 15.239985
72.400 14.741817
72.405 14.549974
72.410 14.552842
72.415 14.296566
72.420 14.436711
72.425 14.289947
72.430 14.191415
72.435 14.275902
72.440 14.256544
72.445 14.087801
72.450 14.187077
72.455 14.520849
72.460 14.772595
72.465 14.951916
72.470 14.892096
72.475 14.866046
72.480 14.784945
72.485 14.176522
72.490 13.556095
72.495 13.416986
72.500 13.353736
72.505 13.970311
72.510 14.072632
72.515 13.966075
72.520 14.648212
72.525 14.775956
72.530 15.161727
72.535 15.297594
72.540 15.247694
72.545 15.562056
72.550 15.983463
72.555 16.394857
72.560 16.704336
72.565 16.502464
72.570 16.289392
72.575 16.09071
72.580 15.970334
72.585 16.021935
72.590 15.882354
72.595 15.926617
72.600 15.798309
72.605 16.055687
72.610 16.042459
72.615 15.610596
72.620 14.845309
72.625 14.748269
72.630 14.321728
72.635 13.65872
72.640 13.700655
72.645 13.355522
72.650 13.035876
72.655 13.009338
72.660 12.929398
72.665 13.259516
72.670 12.939628
72.675 12.486706
72.680 12.756159
72.685 12.818172
72.690 13.452798
72.695 13.42156
72.700 13.810894
72.705 14.364163
72.710 14.433143
72.715 14.358574
72.720 14.370026
72.725 14.543647
72.730 14.580862
72.735 14.384208
72.740 14.312204
72.745 14.457519
72.750 14.45872
72.755 14.188909
72.760 14.305354
72.765 14.490653
72.770 14.701964
72.775 14.684803
72.780 14.552412
72.785 14.46679
72.790 13.972688
72.795 13.039115
72.800 12.654832
72.805 12.348049
72.810 12.136413
72.815 12.307748
72.820 12.453419
72.825 13.467136
72.830 13.67235
72.835 14.139188
72.840 14.359039
72.845 14.70708
72.850 14.651675
72.855 14.635149
72.860 14.053655
72.865 14.628783
72.870 14.573621
72.875 15.192627
72.880 15.431458
72.885 15.543052
72.890 15.468245
72.895 15.507142
72.900 15.041051
72.905 14.583045
72.910 13.896559
72.915 13.663387
72.920 13.5573
72.925 13.449809
72.930 13.345249
72.935 12.933272
72.940 13.132527
72.945 12.729209
72.950 12.587928
72.955 12.728649
72.960 12.678949
72.965 12.748621
72.970 13.564391
72.975 13.771085
72.980 14.197564
72.985 14.362484
72.990 14.314574
72.995 14.646885
73.000 14.558285
