!@!!GADDS PLOTSO FILE: Chi integration type
!@!!Title/SampleName: map-71
!@!!Comment: ?
!@!!User: Bruker Instrument Administrator
!@!!Site: University of Illinois Chicago
!@!!Frame: map-71_01_000.gfrm
!@!!Wavelengths    1.54184   1.54056   1.54439
!@!!Frame angles: 2Theta: 63.000 Omega: 50.000 Phi: 0.000 Chi: 90.000
!@!!Integration range: 2Theta: 53.000 to 73.000  Gamma: -105.000 to -75.000
!@!!Integration method: bin normalized
!@!N
!@!SS
!@!M
!@!L 0.0 0.0 0.0 0.0
!@!XDegrees
!@!YCounts
53.000 8.180983
53.005 7.991458
53.010 8.196696
53.015 8.469382
53.020 8.801259
53.025 9.188196
53.030 9.404103
53.035 9.46457
53.040 9.46148
53.045 9.618313
53.050 10.167977
53.055 9.830634
53.060 10.06368
53.065 9.985976
53.070 10.173362
53.075 10.233607
53.080 10.013364
53.085 10.18744
53.090 10.342186
53.095 10.334097
53.100 10.908223
53.105 11.322037
53.110 11.650501
53.115 11.948918
53.120 11.849159
53.125 11.353568
53.130 10.664531
53.135 10.067175
53.140 9.961932
53.145 9.646797
53.150 8.650285
53.155 8.578359
53.160 8.995791
53.165 9.425585
53.170 9.459472
53.175 9.226413
53.180 9.209012
53.185 9.316442
53.190 9.013698
53.195 9.347482
53.200 9.258335
53.205 8.868074
53.210 9.079129
53.215 8.953475
53.220 8.899032
53.225 9.216728
53.230 9.207067
53.235 9.591988
53.240 10.199121
53.245 10.382293
53.250 10.881866
53.255 10.830427
53.260 10.506004
53.265 10.146379
53.270 9.991549
53.275 9.592708
53.280 9.335474
53.285 9.257537
53.290 9.619923
53.295 9.867274
53.300 9.619984
53.305 9.547254
53.310 9.35802
53.315 9.245188
53.320 9.206239
53.325 9.109974
53.330 9.040398
53.335 9.281052
53.340 9.502299
53.345 9.868309
53.350 9.830237
53.355 9.506393
53.360 9.368433
53.365 9.332662
53.370 9.209363
53.375 9.151281
53.380 8.687012
53.385 8.756041
53.390 8.884381
53.395 8.815804
53.400 9.223377
53.405 9.30465
53.410 9.651318
53.415 10.191164
53.420 10.503947
53.425 10.748887
53.430 11.003615
53.435 10.872712
53.440 10.631372
53.445 10.098792
53.450 10.073664
53.455 9.819956
53.460 9.404905
53.465 9.059169
53.470 9.125535
53.475 9.574876
53.480 9.655952
53.485 9.467657
53.490 9.545352
53.495 10.011963
53.500 10.706626
53.505 10.543623
53.510 10.803974
53.515 11.560476
53.520 11.966834
53.525 11.965723
53.530 11.456721
53.535 10.857616
53.540 10.486596
53.545 10.045582
53.550 9.463868
53.555 9.251695
53.560 9.15358
53.565 9.005528
53.570 8.936028
53.575 9.56447
53.580 9.687211
53.585 9.895101
53.590 10.00616
53.595 10.149554
53.600 10.418823
53.605 10.019359
53.610 9.572871
53.615 9.400267
53.620 9.42688
53.625 9.244784
53.630 9.755863
53.635 10.062758
53.640 10.412792
53.645 10.361499
53.650 10.42791
53.655 10.507562
53.660 10.908914
53.665 10.60147
53.670 10.329913
53.675 10.760637
53.680 10.762876
53.685 10.675918
53.690 10.687538
53.695 10.338202
53.700 10.675779
53.705 11.047171
53.710 10.710161
53.715 10.95964
53.720 10.780285
53.725 10.755257
53.730 10.703485
53.735 10.494123
53.740 10.119576
53.745 10.374262
53.750 10.57878
53.755 10.721271
53.760 10.78418
53.765 11.158593
53.770 11.202013
53.775 10.780154
53.780 10.377145
53.785 10.445833
53.790 10.406985
53.795 10.21093
53.800 9.870004
53.805 10.208277
53.810 10.69806
53.815 10.830961
53.820 10.651722
53.825 11.154157
53.830 11.140156
53.835 11.608725
53.840 11.72821
53.845 11.633909
53.850 11.247217
53.855 11.246497
53.860 11.420177
53.865 11.262731
53.870 10.55262
53.875 10.586724
53.880 10.805979
53.885 10.989416
53.890 10.867146
53.895 10.721885
53.900 10.858927
53.905 10.914058
53.910 10.756727
53.915 11.155522
53.920 11.201703
53.925 10.912461
53.930 11.092428
53.935 11.4105
53.940 11.846812
53.945 12.294061
53.950 11.900821
53.955 12.052572
53.960 12.24011
53.965 12.027367
53.970 11.791114
53.975 11.443521
53.980 10.973389
53.985 11.047397
53.990 11.160604
53.995 11.128115
54.000 10.842016
54.005 10.556429
54.010 10.555717
54.015 10.521985
54.020 10.503561
54.025 10.380093
54.030 10.384732
54.035 10.633119
54.040 10.587836
54.045 10.72991
54.050 11.002932
54.055 11.506989
54.060 11.89098
54.065 11.792336
54.070 11.799715
54.075 11.466777
54.080 11.303003
54.085 10.90799
54.090 10.15073
54.095 10.337109
54.100 10.826903
54.105 10.944741
54.110 11.545634
54.115 11.63807
54.120 11.70375
54.125 11.565632
54.130 11.790778
54.135 12.159003
54.140 12.444654
54.145 12.30578
54.150 11.995277
54.155 12.062919
54.160 11.945514
54.165 11.033766
54.170 10.644865
54.175 10.412278
54.180 10.353426
54.185 10.382141
54.190 10.666519
54.195 11.013927
54.200 11.381738
54.205 11.652656
54.210 12.119763
54.215 11.951731
54.220 12.050674
54.225 11.919928
54.230 11.825558
54.235 11.915852
54.240 11.382845
54.245 11.466063
54.250 11.14172
54.255 10.971622
54.260 10.773555
54.265 10.838491
54.270 10.766637
54.275 10.409595
54.280 10.563454
54.285 10.897916
54.290 11.054039
54.295 10.959003
54.300 10.955315
54.305 11.371136
54.310 11.255715
54.315 10.695333
54.320 10.557868
54.325 10.744928
54.330 10.527919
54.335 9.707618
54.340 10.082208
54.345 10.537192
54.350 10.958193
54.355 10.704662
54.360 10.991607
54.365 11.23284
54.370 11.622224
54.375 11.398509
54.380 11.669092
54.385 11.352782
54.390 11.45609
54.395 11.465961
54.400 11.521173
54.405 11.168476
54.410 10.679823
54.415 10.305462
54.420 10.532699
54.425 10.748821
54.430 10.624804
54.435 10.629786
54.440 10.809975
54.445 11.111084
54.450 11.225299
54.455 11.326281
54.460 11.187329
54.465 11.445195
54.470 11.75511
54.475 11.590184
54.480 11.881064
54.485 11.898424
54.490 11.63963
54.495 11.720304
54.500 11.677849
54.505 11.622994
54.510 11.249424
54.515 10.925001
54.520 10.941895
54.525 10.96115
54.530 10.709531
54.535 10.599186
54.540 10.660824
54.545 10.467146
54.550 10.098533
54.555 9.85947
54.560 9.577974
54.565 9.505118
54.570 9.44367
54.575 9.963003
54.580 10.54411
54.585 11.12198
54.590 11.228211
54.595 11.498436
54.600 11.452473
54.605 11.695391
54.610 10.814258
54.615 10.774764
54.620 10.939703
54.625 11.030303
54.630 10.990709
54.635 10.765192
54.640 10.534234
54.645 10.802797
54.650 10.482495
54.655 10.695238
54.660 11.065122
54.665 11.409076
54.670 11.68267
54.675 11.750019
54.680 11.954192
54.685 12.17027
54.690 11.773607
54.695 11.082518
54.700 10.815262
54.705 10.518834
54.710 11.002682
54.715 10.748308
54.720 10.569628
54.725 10.886311
54.730 11.19754
54.735 11.271158
54.740 11.052225
54.745 11.157151
54.750 11.351955
54.755 11.483096
54.760 11.353282
54.765 11.467899
54.770 11.949885
54.775 12.207989
54.780 11.909916
54.785 12.285561
54.790 12.459211
54.795 12.767342
54.800 12.412521
54.805 12.232667
54.810 12.357883
54.815 12.280103
54.820 12.119559
54.825 11.96436
54.830 11.641191
54.835 11.937432
54.840 11.87544
54.845 11.485981
54.850 11.644585
54.855 11.977494
54.860 11.755862
54.865 11.736106
54.870 11.768562
54.875 11.681499
54.880 12.415068
54.885 11.975549
54.890 11.468759
54.895 11.974304
54.900 11.918999
54.905 11.674809
54.910 11.832954
54.915 11.326397
54.920 11.506172
54.925 11.447639
54.930 11.101179
54.935 11.509904
54.940 11.499713
54.945 11.207015
54.950 11.097416
54.955 10.956504
54.960 11.46605
54.965 11.360845
54.970 10.939694
54.975 10.65339
54.980 10.833261
54.985 11.578752
54.990 11.5887
54.995 11.313097
55.000 11.432774
55.005 11.634677
55.010 11.678305
55.015 12.042809
55.020 11.530922
55.025 11.281672
55.030 11.272249
55.035 11.33841
55.040 11.596665
55.045 11.585343
55.050 11.011477
55.055 11.238688
55.060 11.803597
55.065 12.039469
55.070 12.114746
55.075 12.091888
55.080 12.319141
55.085 12.264114
55.090 12.348464
55.095 12.481134
55.100 12.114776
55.105 11.854653
55.110 11.904406
55.115 12.346401
55.120 12.711111
55.125 12.671098
55.130 12.41543
55.135 12.771804
55.140 12.563759
55.145 12.278341
55.150 11.502892
55.155 11.257923
55.160 11.263122
55.165 10.759172
55.170 10.790979
55.175 10.985458
55.180 11.470072
55.185 11.669927
55.190 11.614667
55.195 11.563733
55.200 11.725692
55.205 11.248527
55.210 10.996628
55.215 11.011161
55.220 10.831948
55.225 10.589997
55.230 10.360401
55.235 10.175434
55.240 10.240792
55.245 10.818795
55.250 10.201884
55.255 10.197921
55.260 10.234793
55.265 11.122004
55.270 11.832165
55.275 11.801473
55.280 11.836058
55.285 12.674488
55.290 12.994044
55.295 12.938381
55.300 12.638978
55.305 12.492632
55.310 12.565787
55.315 11.961535
55.320 11.425816
55.325 11.438959
55.330 11.810978
55.335 11.73136
55.340 11.863786
55.345 11.50113
55.350 11.803125
55.355 12.009011
55.360 12.24869
55.365 11.442521
55.370 11.435163
55.375 11.534595
55.380 11.636645
55.385 11.57954
55.390 11.235128
55.395 11.134149
55.400 11.354149
55.405 11.188858
55.410 11.270458
55.415 11.479947
55.420 11.594506
55.425 11.670602
55.430 11.512907
55.435 11.577244
55.440 11.307098
55.445 11.06594
55.450 10.928173
55.455 10.757141
55.460 10.744541
55.465 11.327254
55.470 11.615718
55.475 12.016942
55.480 12.320137
55.485 12.362287
55.490 13.014033
55.495 13.312314
55.500 13.339083
55.505 13.537808
55.510 13.469993
55.515 13.787894
55.520 13.848112
55.525 13.359883
55.530 13.145998
55.535 13.011643
55.540 13.205731
55.545 12.984722
55.550 12.654525
55.555 12.340321
55.560 12.575288
55.565 12.728251
55.570 12.626008
55.575 12.707124
55.580 12.92784
55.585 13.256133
55.590 13.464561
55.595 13.625451
55.600 13.050747
55.605 12.656822
55.610 12.537832
55.615 12.052875
55.620 11.893419
55.625 11.726746
55.630 12.008569
55.635 12.282382
55.640 12.070892
55.645 12.005164
55.650 12.055738
55.655 12.596996
55.660 12.886057
55.665 12.411892
55.670 12.366473
55.675 12.155065
55.680 12.078183
55.685 12.252204
55.690 11.521864
55.695 11.25574
55.700 11.6499
55.705 11.587182
55.710 11.492828
55.715 11.624496
55.720 11.819172
55.725 11.727225
55.730 11.294025
55.735 10.553331
55.740 10.520267
55.745 10.416345
55.750 10.171955
55.755 10.104662
55.760 10.478535
55.765 10.895666
55.770 11.931088
55.775 12.325725
55.780 12.642395
55.785 12.165343
55.790 11.702823
55.795 11.608688
55.800 11.415998
55.805 11.084826
55.810 11.924743
55.815 12.183752
55.820 12.676817
55.825 13.171528
55.830 13.702533
55.835 13.729339
55.840 13.278152
55.845 13.169431
55.850 13.172366
55.855 13.215564
55.860 12.775277
55.865 12.422405
55.870 12.485643
55.875 12.570843
55.880 12.468378
55.885 12.798018
55.890 13.091781
55.895 13.168445
55.900 12.943287
55.905 12.599105
55.910 12.850603
55.915 12.72354
55.920 12.979239
55.925 12.959267
55.930 12.914508
55.935 13.273933
55.940 13.51647
55.945 13.474686
55.950 13.47186
55.955 13.029295
55.960 13.295362
55.965 13.506049
55.970 13.689165
55.975 13.593469
55.980 13.013791
55.985 12.70128
55.990 12.418553
55.995 11.531958
56.000 11.413435
56.005 10.972868
56.010 11.113374
56.015 11.347278
56.020 11.205658
56.025 11.162981
56.030 11.956214
56.035 12.367443
56.040 12.430526
56.045 12.554604
56.050 12.312654
56.055 12.393828
56.060 12.480234
56.065 12.093319
56.070 12.211339
56.075 11.982685
56.080 12.238914
56.085 12.655951
56.090 12.888627
56.095 12.853138
56.100 12.783936
56.105 12.877426
56.110 13.132029
56.115 12.502424
56.120 11.74768
56.125 12.048883
56.130 12.432446
56.135 12.422502
56.140 12.813347
56.145 12.3382
56.150 12.405162
56.155 12.952335
56.160 12.16285
56.165 11.910299
56.170 11.973508
56.175 11.197505
56.180 11.377191
56.185 11.402266
56.190 11.519769
56.195 12.056065
56.200 12.255461
56.205 12.504899
56.210 12.948339
56.215 14.087687
56.220 14.794558
56.225 15.214268
56.230 15.321182
56.235 15.282037
56.240 15.092922
56.245 15.148352
56.250 14.214333
56.255 13.741679
56.260 13.154114
56.265 13.004498
56.270 13.189154
56.275 13.572791
56.280 13.664509
56.285 14.314921
56.290 14.598352
56.295 14.647432
56.300 14.388731
56.305 13.863118
56.310 13.776203
56.315 13.834856
56.320 13.488119
56.325 13.382563
56.330 12.889488
56.335 13.284898
56.340 13.712947
56.345 13.624022
56.350 13.522709
56.355 13.450091
56.360 13.865389
56.365 14.184585
56.370 14.008251
56.375 13.765051
56.380 13.586299
56.385 13.278016
56.390 13.112627
56.395 12.556594
56.400 12.567945
56.405 12.936195
56.410 12.637321
56.415 12.37114
56.420 12.918947
56.425 12.792161
56.430 13.142382
56.435 13.080617
56.440 12.895826
56.445 13.398887
56.450 13.672467
56.455 13.267507
56.460 13.376423
56.465 13.192572
56.470 12.767371
56.475 12.48819
56.480 12.363249
56.485 12.279709
56.490 12.390628
56.495 12.362464
56.500 12.072743
56.505 11.746351
56.510 11.888454
56.515 11.994025
56.520 11.799712
56.525 11.540088
56.530 11.769304
56.535 12.033671
56.540 12.65566
56.545 12.331773
56.550 12.370622
56.555 12.748091
56.560 12.605635
56.565 12.530454
56.570 12.693053
56.575 12.651476
56.580 12.656287
56.585 12.374534
56.590 12.339128
56.595 12.598119
56.600 13.055598
56.605 13.70404
56.610 13.766392
56.615 13.934426
56.620 13.895672
56.625 13.581369
56.630 13.471289
56.635 13.168407
56.640 12.163949
56.645 11.702939
56.650 11.907022
56.655 12.131672
56.660 12.448459
56.665 12.246649
56.670 11.662952
56.675 12.418437
56.680 12.811956
56.685 12.504077
56.690 12.496534
56.695 13.029484
56.700 12.880671
56.705 12.959584
56.710 12.549256
56.715 12.661786
56.720 12.814063
56.725 12.193849
56.730 12.005725
56.735 12.986128
56.740 12.922236
56.745 12.527063
56.750 13.04388
56.755 13.168481
56.760 13.571339
56.765 13.15558
56.770 13.11418
56.775 13.728328
56.780 13.977166
56.785 13.785294
56.790 14.141932
56.795 14.14467
56.800 14.389522
56.805 13.987442
56.810 13.956257
56.815 13.928436
56.820 13.679098
56.825 13.236935
56.830 13.012534
56.835 13.074254
56.840 13.492303
56.845 13.858225
56.850 14.101151
56.855 14.024967
56.860 13.976741
56.865 13.937877
56.870 13.396214
56.875 13.204234
56.880 13.363385
56.885 13.600891
56.890 13.386605
56.895 13.453464
56.900 13.489198
56.905 13.623083
56.910 13.812913
56.915 14.250488
56.920 13.799078
56.925 14.238804
56.930 14.429643
56.935 14.777881
56.940 14.951045
56.945 13.852803
56.950 13.110619
56.955 13.440594
56.960 13.997364
56.965 13.527196
56.970 13.353992
56.975 13.179605
56.980 13.113729
56.985 13.100602
56.990 12.628422
56.995 12.548987
57.000 13.227661
57.005 13.028832
57.010 13.218946
57.015 13.586205
57.020 13.810258
57.025 13.897631
57.030 13.784283
57.035 13.876773
57.040 14.046357
57.045 13.656744
57.050 13.663192
57.055 13.880735
57.060 13.56504
57.065 13.565947
57.070 13.532275
57.075 13.968137
57.080 14.514215
57.085 14.112096
57.090 14.134647
57.095 14.605196
57.100 14.562688
57.105 14.45486
57.110 14.214871
57.115 14.440432
57.120 15.058501
57.125 15.243235
57.130 15.36376
57.135 15.099876
57.140 15.05359
57.145 14.747832
57.150 14.282809
57.155 13.425982
57.160 12.499135
57.165 11.799589
57.170 11.591813
57.175 11.585762
57.180 11.886504
57.185 12.013019
57.190 12.499905
57.195 12.887658
57.200 13.594867
57.205 13.75173
57.210 13.972181
57.215 14.328382
57.220 14.476954
57.225 14.304874
57.230 14.588219
57.235 14.184701
57.240 14.359691
57.245 14.808982
57.250 15.022381
57.255 15.554135
57.260 15.370564
57.265 15.221828
57.270 15.673841
57.275 15.661564
57.280 15.257805
57.285 15.083931
57.290 14.363514
57.295 14.561472
57.300 14.529238
57.305 14.441307
57.310 13.808446
57.315 13.614226
57.320 13.49473
57.325 13.72223
57.330 13.975986
57.335 13.963838
57.340 13.817706
57.345 14.208968
57.350 13.834877
57.355 13.906728
57.360 14.310029
57.365 14.025627
57.370 13.950553
57.375 14.841897
57.380 15.272157
57.385 15.593614
57.390 15.705796
57.395 15.309852
57.400 15.435912
57.405 15.250905
57.410 14.726093
57.415 14.216653
57.420 14.404637
57.425 14.55246
57.430 14.621238
57.435 14.775067
57.440 14.993674
57.445 14.974843
57.450 14.969656
57.455 14.702851
57.460 14.679461
57.465 14.404965
57.470 14.068021
57.475 14.381079
57.480 15.12049
57.485 15.262933
57.490 14.987891
57.495 14.928871
57.500 15.083176
57.505 14.725644
57.510 14.375057
57.515 13.818042
57.520 13.745047
57.525 14.09275
57.530 14.135316
57.535 14.404662
57.540 14.984935
57.545 14.517331
57.550 14.125944
57.555 14.87611
57.560 14.890662
57.565 14.770956
57.570 14.684855
57.575 14.296867
57.580 14.536119
57.585 14.998837
57.590 14.051156
57.595 14.492496
57.600 15.033026
57.605 14.950141
57.610 14.814037
57.615 14.434716
57.620 14.666176
57.625 15.412678
57.630 15.731126
57.635 15.806464
57.640 16.08197
57.645 16.669333
57.650 16.903273
57.655 16.195398
57.660 16.229641
57.665 15.865988
57.670 15.539551
57.675 15.964558
57.680 16.011501
57.685 16.400101
57.690 16.526764
57.695 15.875316
57.700 16.707003
57.705 16.588806
57.710 16.010836
57.715 16.05518
57.720 15.99169
57.725 16.274508
57.730 16.578403
57.735 15.06127
57.740 15.07193
57.745 14.592914
57.750 14.714004
57.755 14.725431
57.760 14.532828
57.765 15.059975
57.770 15.818079
57.775 16.463945
57.780 16.835649
57.785 16.717892
57.790 16.588182
57.795 16.37994
57.800 15.390385
57.805 14.899888
57.810 14.619672
57.815 14.597939
57.820 14.828694
57.825 14.957184
57.830 15.129249
57.835 15.381429
57.840 15.602311
57.845 15.412775
57.850 15.061295
57.855 14.755235
57.860 15.28454
57.865 15.500666
57.870 15.980966
57.875 15.974607
57.880 16.370281
57.885 16.995356
57.890 17.601662
57.895 17.125782
57.900 17.172092
57.905 16.85825
57.910 16.892412
57.915 17.014708
57.920 16.972862
57.925 16.795259
57.930 16.405268
57.935 15.76931
57.940 16.018381
57.945 16.082287
57.950 16.268465
57.955 15.959068
57.960 15.674045
57.965 16.239452
57.970 16.832541
57.975 16.830191
57.980 16.613699
57.985 16.323748
57.990 16.176041
57.995 16.474068
58.000 16.200239
58.005 15.618849
58.010 15.77223
58.015 15.662902
58.020 15.231502
58.025 15.587992
58.030 15.905031
58.035 16.301062
58.040 16.57992
58.045 16.205519
58.050 16.679802
58.055 17.200045
58.060 17.109905
58.065 16.567682
58.070 16.10821
58.075 15.732985
58.080 15.605639
58.085 14.997663
58.090 14.755904
58.095 14.535055
58.100 14.469763
58.105 15.282593
58.110 16.316334
58.115 16.776604
58.120 17.611895
58.125 18.099041
58.130 18.428841
58.135 18.862263
58.140 18.436367
58.145 17.956514
58.150 17.947502
58.155 17.704777
58.160 17.769089
58.165 17.919668
58.170 18.095385
58.175 18.319286
58.180 17.75481
58.185 17.902199
58.190 17.649818
58.195 17.299603
58.200 16.61846
58.205 15.771755
58.210 15.532032
58.215 15.906738
58.220 16.303644
58.225 17.191322
58.230 17.370951
58.235 17.643026
58.240 17.784304
58.245 18.16581
58.250 18.665199
58.255 17.741333
58.260 16.884752
58.265 16.980417
58.270 17.063087
58.275 17.913559
58.280 18.115517
58.285 18.151108
58.290 18.554136
58.295 19.22081
58.300 19.091412
58.305 19.431396
58.310 19.568001
58.315 19.838091
58.320 19.878351
58.325 20.217688
58.330 20.771481
58.335 21.52013
58.340 21.644825
58.345 21.126862
58.350 20.929096
58.355 20.891493
58.360 20.849939
58.365 20.486124
58.370 20.118469
58.375 19.963642
58.380 20.019497
58.385 20.50761
58.390 20.882225
58.395 21.395607
58.400 21.986401
58.405 22.509214
58.410 23.172768
58.415 23.845387
58.420 24.883129
58.425 25.05879
58.430 25.199089
58.435 25.393362
58.440 26.295057
58.445 26.632734
58.450 26.843086
58.455 26.517014
58.460 27.287836
58.465 27.728968
58.470 27.900015
58.475 27.792952
58.480 28.16741
58.485 28.49505
58.490 29.794071
58.495 29.93338
58.500 29.87381
58.505 29.874884
58.510 29.055473
58.515 29.108027
58.520 29.28861
58.525 28.842146
58.530 29.342535
58.535 30.371479
58.540 30.88615
58.545 31.992537
58.550 32.424423
58.555 32.840576
58.560 33.837452
58.565 33.763676
58.570 33.505131
58.575 34.046577
58.580 34.27573
58.585 34.153908
58.590 33.942127
58.595 33.424309
58.600 33.992119
58.605 33.94099
58.610 33.88105
58.615 34.71772
58.620 34.881016
58.625 35.060307
58.630 35.641178
58.635 35.585052
58.640 35.402149
58.645 34.423359
58.650 33.490791
58.655 33.626354
58.660 33.560654
58.665 33.037273
58.670 32.292244
58.675 32.394138
58.680 32.687908
58.685 32.764313
58.690 32.443718
58.695 32.709816
58.700 32.374054
58.705 32.89959
58.710 32.972057
58.715 32.565655
58.720 32.362034
58.725 31.605053
58.730 30.47813
58.735 30.298395
58.740 29.832401
58.745 29.519316
58.750 29.271845
58.755 28.863131
58.760 28.400517
58.765 27.595675
58.770 27.096354
58.775 26.793621
58.780 26.775587
58.785 26.642376
58.790 26.142912
58.795 26.628548
58.800 27.169436
58.805 27.046492
58.810 26.8619
58.815 26.371441
58.820 26.941225
58.825 27.233738
58.830 26.736126
58.835 26.018805
58.840 25.397783
58.845 24.809856
58.850 24.341616
58.855 23.278849
58.860 22.95484
58.865 23.367647
58.870 23.385113
58.875 23.576517
58.880 23.36961
58.885 23.687811
58.890 23.670048
58.895 22.963749
58.900 22.033546
58.905 21.431887
58.910 21.674854
58.915 21.70262
58.920 20.927679
58.925 21.104216
58.930 21.420286
58.935 21.567949
58.940 21.567444
58.945 21.001675
58.950 20.954472
58.955 21.008818
58.960 20.821428
58.965 21.021618
58.970 20.781404
58.975 20.316504
58.980 19.899681
58.985 20.080513
58.990 20.305277
58.995 20.503016
59.000 20.240734
59.005 20.714066
59.010 21.084431
59.015 21.059753
59.020 20.724089
59.025 21.057798
59.030 20.630348
59.035 20.121223
59.040 19.236654
59.045 18.989603
59.050 18.863325
59.055 18.689186
59.060 17.541224
59.065 17.410791
59.070 17.448162
59.075 17.785494
59.080 18.312618
59.085 18.127367
59.090 18.07222
59.095 18.030169
59.100 18.113529
59.105 18.511503
59.110 18.261198
59.115 17.592022
59.120 17.521051
59.125 17.924013
59.130 18.591091
59.135 18.52367
59.140 18.533352
59.145 18.384619
59.150 18.284861
59.155 18.326057
59.160 18.011068
59.165 17.761007
59.170 17.176956
59.175 16.938152
59.180 16.903849
59.185 16.848211
59.190 16.670826
59.195 16.410919
59.200 16.272804
59.205 16.455914
59.210 16.385994
59.215 16.570642
59.220 16.883707
59.225 17.164164
59.230 17.436625
59.235 18.036634
59.240 18.24748
59.245 18.324085
59.250 17.55307
59.255 17.104435
59.260 16.673071
59.265 16.686344
59.270 16.431061
59.275 16.300232
59.280 16.086151
59.285 16.643045
59.290 16.515568
59.295 16.630379
59.300 16.643047
59.305 16.096733
59.310 16.023006
59.315 15.804583
59.320 15.743368
59.325 16.135092
59.330 15.801602
59.335 15.041708
59.340 14.848409
59.345 15.242008
59.350 15.553345
59.355 15.402748
59.360 15.402346
59.365 15.537368
59.370 16.206032
59.375 16.506945
59.380 15.883472
59.385 16.115564
59.390 16.051741
59.395 15.745901
59.400 15.953052
59.405 15.616579
59.410 15.45985
59.415 15.80258
59.420 15.648354
59.425 16.104456
59.430 16.530807
59.435 15.870646
59.440 15.740947
59.445 15.705458
59.450 15.697028
59.455 15.910827
59.460 16.520945
59.465 16.377968
59.470 16.588213
59.475 16.922436
59.480 17.280542
59.485 17.271751
59.490 16.653339
59.495 16.284546
59.500 16.362364
59.505 16.011982
59.510 15.599366
59.515 15.602539
59.520 15.466841
59.525 15.377731
59.530 14.537945
59.535 14.091421
59.540 14.347349
59.545 14.709712
59.550 14.18921
59.555 14.323826
59.560 14.515393
59.565 15.072164
59.570 15.392184
59.575 15.884684
59.580 15.72177
59.585 15.727544
59.590 15.632781
59.595 15.353364
59.600 14.953125
59.605 14.886397
59.610 14.533664
59.615 14.807485
59.620 14.62031
59.625 14.822558
59.630 14.806159
59.635 14.687531
59.640 14.425939
59.645 14.707119
59.650 14.979352
59.655 15.53966
59.660 15.455034
59.665 16.011148
59.670 16.446201
59.675 16.815325
59.680 16.713524
59.685 16.927956
59.690 16.927383
59.695 17.129265
59.700 17.842329
59.705 17.814713
59.710 17.401302
59.715 17.45665
59.720 16.645638
59.725 16.545856
59.730 16.943483
59.735 16.926918
59.740 17.01346
59.745 16.891258
59.750 16.515242
59.755 16.625324
59.760 16.638311
59.765 15.998242
59.770 15.359432
59.775 15.908466
59.780 16.752146
59.785 17.341925
59.790 17.950581
59.795 17.958286
59.800 18.407654
59.805 18.505644
59.810 18.076782
59.815 17.988729
59.820 17.242352
59.825 16.729025
59.830 16.343376
59.835 15.860612
59.840 15.163258
59.845 15.1697
59.850 14.815617
59.855 15.194025
59.860 15.497005
59.865 15.482735
59.870 15.696568
59.875 15.443749
59.880 14.920172
59.885 15.019231
59.890 15.107074
59.895 14.776249
59.900 14.71412
59.905 14.555202
59.910 14.78662
59.915 15.106809
59.920 14.702542
59.925 14.420353
59.930 14.431917
59.935 14.63491
59.940 14.466495
59.945 14.920617
59.950 14.668502
59.955 15.04775
59.960 15.131031
59.965 15.219398
59.970 14.799036
59.975 14.387693
59.980 13.856939
59.985 13.264032
59.990 12.814082
59.995 12.650839
60.000 12.804289
60.005 13.136964
60.010 13.748136
60.015 14.559815
60.020 15.299495
60.025 15.757315
60.030 16.049709
60.035 16.18335
60.040 16.061661
60.045 16.190554
60.050 16.270098
60.055 16.092318
60.060 15.932101
60.065 16.175648
60.070 16.486034
60.075 16.765491
60.080 16.089937
60.085 16.079571
60.090 16.349009
60.095 15.887023
60.100 15.463125
60.105 14.956799
60.110 14.747752
60.115 14.540312
60.120 14.291286
60.125 13.907503
60.130 14.209022
60.135 14.182696
60.140 13.864919
60.145 14.008419
60.150 14.163556
60.155 14.408667
60.160 14.74744
60.165 15.191012
60.170 15.224826
60.175 15.53348
60.180 15.230476
60.185 15.771719
60.190 16.186878
60.195 15.785159
60.200 15.479305
60.205 15.61175
60.210 15.798658
60.215 16.139076
60.220 15.956227
60.225 15.635844
60.230 16.270632
60.235 16.516634
60.240 16.516243
60.245 16.351046
60.250 16.715862
60.255 16.813747
60.260 16.724928
60.265 16.419746
60.270 15.979681
60.275 16.111389
60.280 16.649942
60.285 16.789608
60.290 16.337238
60.295 15.666333
60.300 15.712884
60.305 15.792566
60.310 16.06082
60.315 15.872533
60.320 15.295692
60.325 15.187553
60.330 15.610071
60.335 15.701047
60.340 15.804718
60.345 15.250746
60.350 15.042739
60.355 15.169846
60.360 15.571468
60.365 15.471811
60.370 15.536555
60.375 15.708692
60.380 15.809364
60.385 15.900239
60.390 16.106197
60.395 16.575125
60.400 16.452944
60.405 16.074909
60.410 16.086273
60.415 16.686399
60.420 16.910547
60.425 16.978233
60.430 16.910137
60.435 16.725214
60.440 17.155569
60.445 17.035521
60.450 16.116808
60.455 15.732925
60.460 15.603862
60.465 15.457447
60.470 16.092548
60.475 16.339756
60.480 16.985899
60.485 17.278927
60.490 17.255949
60.495 16.878742
60.500 17.472466
60.505 17.529739
60.510 17.522278
60.515 17.438869
60.520 17.239717
60.525 17.540628
60.530 17.869064
60.535 17.509958
60.540 16.896141
60.545 16.042624
60.550 15.609283
60.555 15.860923
60.560 15.351049
60.565 15.6558
60.570 15.058077
60.575 15.189491
60.580 15.046075
60.585 15.267456
60.590 15.344055
60.595 15.740642
60.600 15.524588
60.605 16.15024
60.610 16.000973
60.615 16.028522
60.620 15.47201
60.625 15.231701
60.630 15.044471
60.635 14.911877
60.640 14.285436
60.645 14.449073
60.650 14.69504
60.655 15.136362
60.660 15.384369
60.665 15.69143
60.670 15.955269
60.675 16.703129
60.680 16.870558
60.685 17.211477
60.690 17.369995
60.695 17.730011
60.700 17.520815
60.705 17.085463
60.710 17.138727
60.715 16.778727
60.720 16.246082
60.725 15.702832
60.730 15.495545
60.735 15.318457
60.740 15.540318
60.745 14.779285
60.750 15.542331
60.755 16.000973
60.760 16.221262
60.765 16.704191
60.770 17.29735
60.775 17.006311
60.780 17.933361
60.785 17.732962
60.790 17.570539
60.795 17.282177
60.800 16.356665
60.805 16.099913
60.810 16.418493
60.815 16.153316
60.820 16.216463
60.825 16.369308
60.830 17.011824
60.835 17.226368
60.840 17.184839
60.845 17.587692
60.850 17.866377
60.855 17.599598
60.860 17.47591
60.865 17.193249
60.870 17.313156
60.875 16.902573
60.880 16.350174
60.885 15.733628
60.890 15.480658
60.895 15.463452
60.900 15.063132
60.905 15.277306
60.910 15.577089
60.915 15.087605
60.920 15.147137
60.925 15.476052
60.930 15.63375
60.935 16.062529
60.940 15.542889
60.945 15.749517
60.950 16.609661
60.955 17.416943
60.960 17.712603
60.965 17.412739
60.970 17.814623
60.975 18.467838
60.980 18.547777
60.985 18.043724
60.990 17.315222
60.995 17.027819
61.000 17.614206
61.005 17.139845
61.010 16.36005
61.015 15.971872
61.020 16.030809
61.025 16.330111
61.030 16.091045
61.035 15.688852
61.040 15.396673
61.045 15.210443
61.050 15.140712
61.055 14.761702
61.060 14.330868
61.065 14.190603
61.070 13.924895
61.075 14.203236
61.080 14.404389
61.085 14.534426
61.090 15.173692
61.095 15.62751
61.100 16.035597
61.105 16.19751
61.110 16.409832
61.115 16.877672
61.120 16.596441
61.125 16.091719
61.130 15.82496
61.135 15.722462
61.140 15.720473
61.145 15.54185
61.150 15.014336
61.155 15.358378
61.160 15.862008
61.165 16.509779
61.170 16.287819
61.175 15.962675
61.180 15.654459
61.185 15.750051
61.190 15.458681
61.195 15.095012
61.200 14.57222
61.205 15.231034
61.210 16.047506
61.215 16.744764
61.220 17.405245
61.225 17.684179
61.230 17.848755
61.235 17.385334
61.240 17.081814
61.245 17.042034
61.250 16.926617
61.255 16.80975
61.260 17.382978
61.265 18.277187
61.270 18.670179
61.275 18.905258
61.280 18.918814
61.285 18.831491
61.290 18.729429
61.295 18.20356
61.300 17.207682
61.305 17.254713
61.310 17.112751
61.315 16.214714
61.320 16.007469
61.325 15.846635
61.330 15.982273
61.335 15.629875
61.340 15.117803
61.345 14.900031
61.350 15.654248
61.355 15.59486
61.360 15.346372
61.365 15.154305
61.370 15.529001
61.375 15.377729
61.380 15.273846
61.385 14.868771
61.390 14.995141
61.395 14.998561
61.400 15.138059
61.405 15.967074
61.410 16.87011
61.415 16.608747
61.420 16.36586
61.425 16.191786
61.430 16.262774
61.435 16.778261
61.440 16.632961
61.445 16.129242
61.450 16.257383
61.455 16.787245
61.460 17.262239
61.465 17.250042
61.470 16.928316
61.475 17.385195
61.480 17.273766
61.485 17.574532
61.490 17.532898
61.495 17.551271
61.500 17.901476
61.505 17.616573
61.510 17.203012
61.515 17.210743
61.520 16.815935
61.525 16.581673
61.530 16.332987
61.535 16.600424
61.540 16.267237
61.545 15.960874
61.550 16.126778
61.555 16.108709
61.560 16.215467
61.565 15.815981
61.570 15.098476
61.575 15.237278
61.580 15.501472
61.585 15.193539
61.590 15.106626
61.595 15.171434
61.600 15.728871
61.605 16.157513
61.610 16.443132
61.615 15.91504
61.620 16.04348
61.625 16.600044
61.630 16.353662
61.635 15.989406
61.640 16.091835
61.645 15.835358
61.650 16.167288
61.655 16.424253
61.660 16.15871
61.665 16.112066
61.670 16.275251
61.675 16.218439
61.680 16.292648
61.685 16.271475
61.690 16.028158
61.695 15.944906
61.700 15.898355
61.705 15.826982
61.710 15.962354
61.715 16.495169
61.720 16.104734
61.725 16.202328
61.730 16.284414
61.735 16.626633
61.740 16.86673
61.745 16.586229
61.750 15.847628
61.755 15.933848
61.760 15.502811
61.765 14.946537
61.770 14.839588
61.775 14.341515
61.780 14.085754
61.785 14.71246
61.790 15.588037
61.795 16.478531
61.800 17.093573
61.805 17.514027
61.810 18.2806
61.815 18.692884
61.820 18.706257
61.825 18.346672
61.830 17.457293
61.835 17.193439
61.840 17.122137
61.845 16.562761
61.850 16.125292
61.855 16.327507
61.860 16.715368
61.865 17.316771
61.870 17.581463
61.875 17.871176
61.880 18.606598
61.885 18.866133
61.890 18.434105
61.895 18.062695
61.900 18.26391
61.905 18.140257
61.910 17.761232
61.915 16.954294
61.920 16.220419
61.925 16.188728
61.930 16.047575
61.935 16.239489
61.940 16.385578
61.945 16.051247
61.950 16.083965
61.955 16.276728
61.960 16.10714
61.965 16.133209
61.970 16.058569
61.975 16.231548
61.980 16.351938
61.985 16.590267
61.990 16.834623
61.995 17.058126
62.000 16.917847
62.005 16.646795
62.010 16.606184
62.015 16.828638
62.020 17.312983
62.025 17.72613
62.030 17.162369
62.035 17.209454
62.040 17.622824
62.045 17.963232
62.050 17.913506
62.055 17.517479
62.060 16.887211
62.065 17.491091
62.070 16.790371
62.075 16.015112
62.080 15.344034
62.085 15.209785
62.090 15.206507
62.095 15.416688
62.100 15.484275
62.105 15.631516
62.110 16.383547
62.115 16.650099
62.120 16.16651
62.125 16.390993
62.130 16.668442
62.135 16.60836
62.140 17.226196
62.145 16.774574
62.150 17.16836
62.155 17.932705
62.160 17.647659
62.165 17.872259
62.170 18.493858
62.175 18.689022
62.180 18.425152
62.185 18.45606
62.190 18.067905
62.195 17.827524
62.200 17.579247
62.205 17.106722
62.210 17.027571
62.215 17.209188
62.220 16.884077
62.225 17.230886
62.230 17.179588
62.235 16.50066
62.240 16.45569
62.245 16.451151
62.250 16.358768
62.255 16.314819
62.260 16.136953
62.265 16.104525
62.270 16.70652
62.275 16.842358
62.280 16.734379
62.285 16.71176
62.290 16.73633
62.295 16.859966
62.300 17.728951
62.305 17.738531
62.310 17.235191
62.315 16.68433
62.320 16.647524
62.325 17.112785
62.330 17.441055
62.335 16.677738
62.340 16.365747
62.345 17.09597
62.350 17.491718
62.355 17.545309
62.360 17.5131
62.365 17.433727
62.370 17.696409
62.375 17.723379
62.380 16.815672
62.385 16.939379
62.390 16.832352
62.395 16.735258
62.400 16.87837
62.405 16.978888
62.410 17.365915
62.415 17.402502
62.420 16.919823
62.425 16.55777
62.430 15.644946
62.435 14.723701
62.440 14.87358
62.445 15.407366
62.450 16.225075
62.455 16.758362
62.460 17.004593
62.465 18.159271
62.470 18.698906
62.475 18.329641
62.480 18.141199
62.485 17.08074
62.490 17.077896
62.495 17.634516
62.500 17.412062
62.505 17.389795
62.510 17.358837
62.515 17.11524
62.520 17.693129
62.525 17.086773
62.530 16.656992
62.535 16.238018
62.540 15.934494
62.545 15.898278
62.550 15.41733
62.555 15.507583
62.560 15.614643
62.565 15.578446
62.570 16.567886
62.575 16.973806
62.580 16.842327
62.585 17.061827
62.590 16.356266
62.595 16.290392
62.600 16.371943
62.605 15.357944
62.610 14.746093
62.615 14.649585
62.620 15.092446
62.625 15.738708
62.630 16.2906
62.635 16.247349
62.640 16.470961
62.645 16.748531
62.650 16.945103
62.655 16.871
62.660 16.545162
62.665 15.521405
62.670 15.36431
62.675 15.729819
62.680 15.811995
62.685 15.63041
62.690 15.755805
62.695 16.088537
62.700 16.650108
62.705 16.793686
62.710 16.765949
62.715 17.1933
62.720 17.494722
62.725 17.966671
62.730 18.638269
62.735 18.771793
62.740 18.427677
62.745 18.643042
62.750 19.001108
62.755 18.892637
62.760 18.144157
62.765 17.53422
62.770 17.597582
62.775 18.182333
62.780 17.793545
62.785 17.303301
62.790 17.887304
62.795 17.867109
62.800 17.50013
62.805 17.279816
62.810 17.086205
62.815 16.855782
62.820 16.933958
62.825 16.172472
62.830 16.281147
62.835 16.475641
62.840 16.381771
62.845 15.962516
62.850 16.351223
62.855 16.208141
62.860 16.497658
62.865 16.842127
62.870 17.164425
62.875 17.498451
62.880 18.060713
62.885 17.943169
62.890 18.05327
62.895 18.223938
62.900 18.598429
62.905 18.638866
62.910 18.566305
62.915 18.363022
62.920 18.576122
62.925 18.12192
62.930 17.499256
62.935 16.725292
62.940 16.236015
62.945 16.41292
62.950 16.769903
62.955 16.799391
62.960 17.086231
62.965 17.210545
62.970 17.483101
62.975 17.766195
62.980 17.575338
62.985 17.044849
62.990 16.923576
62.995 16.70311
63.000 16.941549
63.005 16.885723
63.010 17.093958
63.015 17.145164
63.020 16.828983
63.025 16.66309
63.030 17.073147
63.035 17.262651
63.040 17.482889
63.045 16.687424
63.050 16.309008
63.055 16.603403
63.060 17.024996
63.065 17.269854
63.070 17.328613
63.075 17.329519
63.080 17.477142
63.085 17.433287
63.090 17.190674
63.095 16.418343
63.100 15.632934
63.105 15.55693
63.110 15.568124
63.115 15.47947
63.120 15.626087
63.125 15.812835
63.130 16.811508
63.135 17.508068
63.140 17.571728
63.145 17.892174
63.150 18.70994
63.155 18.67441
63.160 18.788525
63.165 18.335892
63.170 17.898766
63.175 17.303888
63.180 16.593691
63.185 16.284918
63.190 16.042805
63.195 15.54361
63.200 15.219763
63.205 14.966326
63.210 15.228774
63.215 15.338806
63.220 15.35232
63.225 15.447743
63.230 15.864684
63.235 16.341463
63.240 16.894733
63.245 17.214411
63.250 17.841625
63.255 18.259645
63.260 18.655331
63.265 18.750847
63.270 18.243427
63.275 18.123396
63.280 17.912918
63.285 17.662785
63.290 17.546736
63.295 17.683374
63.300 18.004353
63.305 18.653313
63.310 18.59696
63.315 18.180275
63.320 18.194384
63.325 18.284086
63.330 18.17934
63.335 17.727304
63.340 17.476095
63.345 17.695444
63.350 18.298601
63.355 18.130486
63.360 18.20446
63.365 18.398304
63.370 18.813622
63.375 18.98554
63.380 18.554476
63.385 18.303379
63.390 18.371155
63.395 17.709049
63.400 17.151123
63.405 16.495398
63.410 16.526478
63.415 17.249487
63.420 17.488598
63.425 17.814968
63.430 18.294441
63.435 18.567171
63.440 18.951347
63.445 19.106739
63.450 18.870798
63.455 18.899897
63.460 19.574642
63.465 19.772638
63.470 20.027403
63.475 19.959465
63.480 19.830959
63.485 19.788206
63.490 19.523321
63.495 18.763329
63.500 17.930689
63.505 17.841297
63.510 17.829504
63.515 17.834768
63.520 17.539864
63.525 17.796654
63.530 17.887892
63.535 18.639898
63.540 19.051683
63.545 18.634729
63.550 18.538551
63.555 18.889029
63.560 18.837841
63.565 18.783316
63.570 18.489307
63.575 18.548296
63.580 18.855474
63.585 18.885159
63.590 18.450239
63.595 17.787022
63.600 17.919813
63.605 17.810781
63.610 17.186033
63.615 16.552504
63.620 16.608845
63.625 17.455088
63.630 17.847027
63.635 17.792892
63.640 17.748932
63.645 18.474268
63.650 19.056458
63.655 19.414146
63.660 19.163544
63.665 19.227024
63.670 19.863039
63.675 20.054256
63.680 20.225664
63.685 20.472374
63.690 19.919678
63.695 19.791061
63.700 19.328699
63.705 18.068768
63.710 17.55748
63.715 17.121737
63.720 16.862257
63.725 17.198988
63.730 17.567381
63.735 18.342773
63.740 19.512987
63.745 19.976749
63.750 19.9485
63.755 20.062273
63.760 20.36376
63.765 20.485647
63.770 20.15258
63.775 19.640947
63.780 19.474031
63.785 19.794327
63.790 19.916388
63.795 19.109974
63.800 18.880825
63.805 19.212763
63.810 19.431597
63.815 19.498411
63.820 19.024323
63.825 18.914606
63.830 19.468895
63.835 19.691666
63.840 19.454275
63.845 19.099802
63.850 19.158209
63.855 20.009058
63.860 20.706245
63.865 20.987846
63.870 20.97226
63.875 21.72625
63.880 22.039347
63.885 21.675467
63.890 21.314482
63.895 20.587637
63.900 20.640718
63.905 20.850393
63.910 21.091213
63.915 21.683945
63.920 22.122372
63.925 21.806957
63.930 21.853498
63.935 21.508797
63.940 21.270733
63.945 20.525288
63.950 20.493622
63.955 21.293848
63.960 22.346939
63.965 22.79538
63.970 23.191658
63.975 23.59716
63.980 24.514452
63.985 24.756172
63.990 24.356596
63.995 24.19919
64.000 24.563454
64.005 24.704119
64.010 25.115339
64.015 25.48871
64.020 26.037565
64.025 26.725809
64.030 26.948078
64.035 27.388744
64.040 28.002134
64.045 28.851614
64.050 28.934959
64.055 28.953911
64.060 28.366768
64.065 28.302309
64.070 28.724398
64.075 28.78726
64.080 28.638426
64.085 28.956617
64.090 29.080994
64.095 29.881636
64.100 29.797256
64.105 29.834751
64.110 30.15942
64.115 30.535946
64.120 31.091085
64.125 31.832479
64.130 32.16486
64.135 33.245155
64.140 32.750351
64.145 32.12812
64.150 31.448748
64.155 31.635269
64.160 31.946756
64.165 32.244526
64.170 32.014175
64.175 32.945976
64.180 34.160904
64.185 35.450481
64.190 35.343742
64.195 35.443153
64.200 35.227268
64.205 35.716602
64.210 36.252136
64.215 35.852798
64.220 35.768806
64.225 36.678295
64.230 36.812222
64.235 37.602554
64.240 38.284954
64.245 37.808849
64.250 37.980297
64.255 38.788155
64.260 40.068314
64.265 40.552185
64.270 39.949615
64.275 39.697876
64.280 40.10743
64.285 40.541718
64.290 40.177612
64.295 39.3302
64.300 39.969238
64.305 40.594185
64.310 40.308273
64.315 39.935997
64.320 40.044075
64.325 39.74128
64.330 40.5336
64.335 40.883007
64.340 41.248783
64.345 42.133247
64.350 42.531567
64.355 42.396538
64.360 42.754284
64.365 42.035187
64.370 41.881638
64.375 41.313789
64.380 41.375324
64.385 41.91877
64.390 42.112789
64.395 42.968109
64.400 43.447788
64.405 44.182327
64.410 44.675728
64.415 44.820839
64.420 44.561974
64.425 44.216297
64.430 43.322823
64.435 43.309196
64.440 43.074825
64.445 43.182438
64.450 42.399048
64.455 41.985413
64.460 41.956547
64.465 40.900322
64.470 40.47126
64.475 39.267578
64.480 38.618542
64.485 38.315701
64.490 38.163746
64.495 37.825077
64.500 37.590847
64.505 37.283691
64.510 37.250011
64.515 36.389591
64.520 36.677116
64.525 36.549747
64.530 36.338516
64.535 36.070854
64.540 35.035576
64.545 33.886086
64.550 33.201641
64.555 32.527813
64.560 32.510307
64.565 32.603882
64.570 31.803461
64.575 31.68915
64.580 32.13068
64.585 32.384739
64.590 31.753538
64.595 31.591784
64.600 30.739843
64.605 30.700798
64.610 31.10466
64.615 31.034441
64.620 30.959444
64.625 30.494812
64.630 30.008327
64.635 30.215464
64.640 29.911539
64.645 28.8097
64.650 28.596869
64.655 27.999815
64.660 27.930058
64.665 27.670324
64.670 27.335306
64.675 27.419184
64.680 27.269016
64.685 26.185205
64.690 26.274309
64.695 25.987715
64.700 25.458012
64.705 24.737423
64.710 24.173279
64.715 24.249077
64.720 24.483286
64.725 23.854887
64.730 23.835258
64.735 24.173592
64.740 24.091093
64.745 23.269432
64.750 22.934519
64.755 22.885149
64.760 23.034916
64.765 22.912727
64.770 22.989199
64.775 23.590271
64.780 23.77903
64.785 24.039869
64.790 24.211012
64.795 24.409138
64.800 23.959753
64.805 23.124519
64.810 22.646885
64.815 22.852825
64.820 23.050417
64.825 23.165251
64.830 22.814493
64.835 23.018314
64.840 24.12841
64.845 24.516094
64.850 25.043287
64.855 24.643179
64.860 24.358747
64.865 24.68121
64.870 24.358616
64.875 23.697306
64.880 22.975145
64.885 22.136276
64.890 22.079533
64.895 22.192097
64.900 22.380152
64.905 22.638502
64.910 22.279139
64.915 22.375738
64.920 22.384186
64.925 22.590338
64.930 22.006317
64.935 22.307505
64.940 22.611506
64.945 23.322441
64.950 23.181032
64.955 23.079624
64.960 23.06221
64.965 23.720879
64.970 24.048292
64.975 24.259249
64.980 24.200308
64.985 24.853321
64.990 25.072023
64.995 25.440023
65.000 25.595434
65.005 25.060764
65.010 24.630968
65.015 24.218613
65.020 24.835196
65.025 25.082119
65.030 25.516727
65.035 25.443048
65.040 25.175415
65.045 26.047724
65.050 26.850864
65.055 27.046263
65.060 27.387131
65.065 26.767096
65.070 26.483768
65.075 27.212708
65.080 27.099108
65.085 26.739878
65.090 26.441526
65.095 26.062475
65.100 26.338509
65.105 26.833147
65.110 27.033121
65.115 27.12191
65.120 27.218113
65.125 27.453491
65.130 28.064009
65.135 28.262993
65.140 28.128786
65.145 27.757376
65.150 27.201704
65.155 27.585976
65.160 27.868608
65.165 28.114902
65.170 28.617861
65.175 29.130342
65.180 29.606617
65.185 29.632608
65.190 29.553362
65.195 30.253147
65.200 30.177473
65.205 29.004568
65.210 28.769802
65.215 28.551979
65.220 29.241529
65.225 28.747057
65.230 27.935059
65.235 27.898134
65.240 29.035145
65.245 29.46912
65.250 29.860594
65.255 30.53051
65.260 31.147455
65.265 31.697535
65.270 32.287411
65.275 32.028156
65.280 31.305988
65.285 30.618721
65.290 30.065102
65.295 30.076199
65.300 30.026155
65.305 30.10693
65.310 30.368439
65.315 30.844816
65.320 30.63048
65.325 30.516743
65.330 30.170925
65.335 29.91144
65.340 29.572411
65.345 29.484245
65.350 29.588369
65.355 30.201111
65.360 30.565548
65.365 31.289711
65.370 32.254463
65.375 32.727852
65.380 32.217377
65.385 32.059956
65.390 31.81476
65.395 31.02282
65.400 30.307295
65.405 29.289936
65.410 28.911232
65.415 29.95764
65.420 30.68433
65.425 30.676916
65.430 31.003279
65.435 31.432974
65.440 31.780733
65.445 31.720325
65.450 31.488123
65.455 31.320873
65.460 31.231489
65.465 30.81621
65.470 30.697033
65.475 30.338518
65.480 30.773521
65.485 30.940826
65.490 31.591633
65.495 32.582096
65.500 33.261803
65.505 33.158928
65.510 33.748196
65.515 34.23053
65.520 33.967545
65.525 33.519783
65.530 33.298401
65.535 33.503201
65.540 33.926373
65.545 33.017189
65.550 32.076401
65.555 32.325592
65.560 32.472248
65.565 32.364273
65.570 32.470352
65.575 33.043411
65.580 34.303383
65.585 34.698776
65.590 34.982071
65.595 35.487053
65.600 35.937782
65.605 36.151485
65.610 36.11425
65.615 35.751652
65.620 36.344337
65.625 36.336273
65.630 37.056187
65.635 37.060608
65.640 36.298431
65.645 36.277264
65.650 36.480247
65.655 36.594704
65.660 37.04324
65.665 36.738159
65.670 36.896072
65.675 37.167667
65.680 37.530312
65.685 37.488667
65.690 37.071957
65.695 36.744549
65.700 35.794388
65.705 36.103642
65.710 37.449875
65.715 37.786312
65.720 37.252579
65.725 37.243008
65.730 37.1395
65.735 37.424221
65.740 36.928154
65.745 35.946632
65.750 35.532814
65.755 36.327053
65.760 36.909065
65.765 36.9216
65.770 37.406498
65.775 37.470867
65.780 37.77879
65.785 37.959175
65.790 37.680565
65.795 37.570385
65.800 37.066059
65.805 36.617443
65.810 36.07217
65.815 36.030121
65.820 36.040279
65.825 36.55069
65.830 36.922447
65.835 37.357445
65.840 37.653866
65.845 37.865421
65.850 38.280952
65.855 38.224033
65.860 37.347694
65.865 37.264111
65.870 37.275509
65.875 37.394337
65.880 37.255947
65.885 36.869007
65.890 37.125736
65.895 37.037212
65.900 35.825306
65.905 35.42664
65.910 35.024109
65.915 34.515549
65.920 33.698349
65.925 33.165699
65.930 32.703533
65.935 32.243656
65.940 32.200722
65.945 31.671432
65.950 31.412931
65.955 31.626232
65.960 31.559374
65.965 32.583572
65.970 33.414452
65.975 33.926437
65.980 34.860817
65.985 34.862106
65.990 34.050842
65.995 33.426128
66.000 32.720997
66.005 31.515312
66.010 30.304838
66.015 29.661846
66.020 30.204233
66.025 30.398848
66.030 30.380531
66.035 31.078497
66.040 31.502287
66.045 31.239697
66.050 30.86871
66.055 30.182985
66.060 29.822216
66.065 29.433142
66.070 28.43997
66.075 27.920145
66.080 28.062723
66.085 28.396349
66.090 28.388704
66.095 27.758457
66.100 27.398079
66.105 27.957529
66.110 27.957834
66.115 27.330826
66.120 26.642622
66.125 26.185793
66.130 26.779657
66.135 26.081038
66.140 25.488674
66.145 25.722942
66.150 25.753479
66.155 25.618753
66.160 25.628878
66.165 25.6579
66.170 26.025135
66.175 25.639301
66.180 25.447147
66.185 25.320709
66.190 25.319391
66.195 25.141665
66.200 24.532364
66.205 24.527485
66.210 24.645134
66.215 24.225918
66.220 24.523844
66.225 24.671762
66.230 24.74173
66.235 24.615383
66.240 24.407812
66.245 24.275324
66.250 24.081253
66.255 23.90414
66.260 24.04225
66.265 23.942566
66.270 23.281925
66.275 22.891499
66.280 22.936661
66.285 23.331839
66.290 23.141172
66.295 22.858139
66.300 23.346241
66.305 24.313627
66.310 25.220064
66.315 24.956615
66.320 24.513678
66.325 24.411156
66.330 24.085684
66.335 23.780418
66.340 23.643661
66.345 22.773634
66.350 23.109772
66.355 23.310991
66.360 23.904699
66.365 24.599857
66.370 24.877459
66.375 24.210514
66.380 23.928211
66.385 23.862806
66.390 23.878117
66.395 22.953762
66.400 22.026745
66.405 21.621
66.410 22.565586
66.415 22.45072
66.420 22.388758
66.425 22.746454
66.430 23.007013
66.435 22.724348
66.440 22.519699
66.445 21.532871
66.450 22.475046
66.455 22.085831
66.460 21.504993
66.465 21.796535
66.470 22.75111
66.475 22.7614
66.480 22.261072
66.485 21.239971
66.490 21.598679
66.495 21.41811
66.500 20.889406
66.505 20.236523
66.510 20.435152
66.515 20.833612
66.520 20.736088
66.525 20.241058
66.530 20.180342
66.535 20.62624
66.540 20.574759
66.545 20.703342
66.550 21.14138
66.555 20.974627
66.560 20.987183
66.565 20.992491
66.570 20.645891
66.575 20.439497
66.580 19.737383
66.585 19.092016
66.590 19.344669
66.595 19.152906
66.600 19.098101
66.605 19.208195
66.610 19.268698
66.615 19.054861
66.620 19.243507
66.625 19.253271
66.630 19.59037
66.635 19.75259
66.640 19.436298
66.645 19.680475
66.650 19.84363
66.655 19.874475
66.660 20.058186
66.665 20.169155
66.670 20.310127
66.675 20.345316
66.680 20.742575
66.685 20.583439
66.690 19.611357
66.695 18.842592
66.700 18.464766
66.705 18.344889
66.710 18.061127
66.715 17.306097
66.720 17.489853
66.725 17.73354
66.730 17.727396
66.735 17.9172
66.740 17.772909
66.745 17.845921
66.750 18.571501
66.755 19.023733
66.760 19.989151
66.765 20.845873
66.770 20.708637
66.775 20.591776
66.780 21.06427
66.785 20.760447
66.790 20.792347
66.795 20.442457
66.800 19.765795
66.805 20.159378
66.810 19.986095
66.815 19.27947
66.820 18.804111
66.825 18.600227
66.830 18.866039
66.835 18.978294
66.840 18.822264
66.845 18.779406
66.850 18.474411
66.855 18.253342
66.860 17.615795
66.865 17.231155
66.870 17.420483
66.875 17.139719
66.880 17.293709
66.885 17.449966
66.890 17.701494
66.895 18.239588
66.900 19.154165
66.905 19.415955
66.910 20.118711
66.915 20.519234
66.920 20.45561
66.925 20.129097
66.930 19.771635
66.935 18.586733
66.940 17.840736
66.945 17.101364
66.950 17.223082
66.955 17.808212
66.960 18.440281
66.965 18.597597
66.970 18.997652
66.975 19.583633
66.980 19.929462
66.985 19.766891
66.990 19.733423
66.995 19.582333
67.000 19.435793
67.005 19.140598
67.010 18.214432
67.015 18.04261
67.020 18.231781
67.025 17.896433
67.030 18.041292
67.035 18.248661
67.040 18.528385
67.045 19.166643
67.050 19.102417
67.055 18.866064
67.060 18.919477
67.065 18.562511
67.070 18.509117
67.075 18.090815
67.080 18.302876
67.085 18.488251
67.090 18.635382
67.095 18.457216
67.100 18.418179
67.105 18.030149
67.110 18.272444
67.115 18.101023
67.120 18.185818
67.125 17.81311
67.130 17.99983
67.135 18.879292
67.140 19.376684
67.145 19.555887
67.150 20.158421
67.155 20.26572
67.160 20.390774
67.165 20.529423
67.170 19.637135
67.175 19.534607
67.180 19.226845
67.185 18.264952
67.190 18.463642
67.195 18.833326
67.200 19.003197
67.205 19.492044
67.210 19.817005
67.215 20.175505
67.220 20.253597
67.225 20.084332
67.230 19.814133
67.235 19.734884
67.240 18.93199
67.245 18.332645
67.250 18.247036
67.255 18.336258
67.260 18.565622
67.265 18.35269
67.270 18.335602
67.275 19.318798
67.280 19.480572
67.285 19.309935
67.290 19.164736
67.295 18.631586
67.300 18.564049
67.305 18.469936
67.310 17.924862
67.315 18.37779
67.320 19.231033
67.325 19.639418
67.330 19.801422
67.335 20.070597
67.340 20.227289
67.345 20.597797
67.350 19.976297
67.355 18.962791
67.360 19.03475
67.365 19.008728
67.370 18.801605
67.375 18.578857
67.380 18.507729
67.385 18.992577
67.390 18.774645
67.395 18.935532
67.400 19.112967
67.405 19.297024
67.410 19.691069
67.415 19.650791
67.420 19.41785
67.425 19.734909
67.430 19.503563
67.435 19.254898
67.440 19.025576
67.445 18.492821
67.450 17.607294
67.455 17.710787
67.460 17.590824
67.465 17.669239
67.470 17.920031
67.475 18.005003
67.480 18.771338
67.485 19.954071
67.490 20.369537
67.495 21.039167
67.500 21.049232
67.505 20.82233
67.510 21.058826
67.515 20.729063
67.520 20.947376
67.525 20.733097
67.530 20.331589
67.535 20.213625
67.540 20.205053
67.545 20.280077
67.550 19.981186
67.555 19.358479
67.560 19.278561
67.565 19.207603
67.570 19.137875
67.575 18.867722
67.580 18.507986
67.585 18.395573
67.590 18.188826
67.595 18.364737
67.600 18.591509
67.605 19.304363
67.610 19.647709
67.615 19.808985
67.620 19.864096
67.625 20.23097
67.630 20.613455
67.635 20.390722
67.640 20.134909
67.645 19.970259
67.650 20.106133
67.655 20.2169
67.660 19.508448
67.665 19.292807
67.670 19.183977
67.675 19.233522
67.680 19.3731
67.685 19.488213
67.690 19.997223
67.695 20.334761
67.700 19.613531
67.705 19.889997
67.710 19.492634
67.715 19.555054
67.720 19.481407
67.725 18.896172
67.730 18.925728
67.735 19.175594
67.740 18.548086
67.745 18.644243
67.750 18.505733
67.755 18.366518
67.760 18.782894
67.765 19.376278
67.770 19.824156
67.775 20.267204
67.780 20.531223
67.785 20.996595
67.790 20.854929
67.795 20.36702
67.800 19.95116
67.805 20.013523
67.810 19.798134
67.815 19.48274
67.820 19.570456
67.825 20.01454
67.830 20.272045
67.835 19.949705
67.840 19.571169
67.845 19.694427
67.850 19.208397
67.855 19.07588
67.860 19.024855
67.865 18.538361
67.870 18.316963
67.875 18.616951
67.880 18.494434
67.885 18.504536
67.890 17.982903
67.895 17.858322
67.900 17.665068
67.905 17.092081
67.910 16.89819
67.915 17.209505
67.920 17.815609
67.925 18.356777
67.930 18.791277
67.935 19.517818
67.940 20.288637
67.945 20.242094
67.950 20.173979
67.955 20.178959
67.960 20.025623
67.965 19.655693
67.970 19.685503
67.975 19.909552
67.980 20.319323
67.985 20.132778
67.990 19.995522
67.995 19.476896
68.000 19.316233
68.005 18.875706
68.010 19.414043
68.015 19.513222
68.020 19.601181
68.025 19.629072
68.030 19.164608
68.035 19.0534
68.040 18.986599
68.045 17.70034
68.050 17.401728
68.055 16.824472
68.060 16.528513
68.065 17.463654
68.070 18.139772
68.075 17.824108
68.080 17.797977
68.085 17.949497
68.090 18.248312
68.095 18.768906
68.100 18.7493
68.105 18.828266
68.110 19.481812
68.115 19.789137
68.120 19.991003
68.125 20.262791
68.130 20.304186
68.135 20.315403
68.140 19.618406
68.145 19.435925
68.150 19.402224
68.155 19.439573
68.160 18.954395
68.165 18.298006
68.170 18.324556
68.175 19.046394
68.180 19.219208
68.185 19.744627
68.190 19.660234
68.195 20.375425
68.200 20.955315
68.205 20.954258
68.210 20.622149
68.215 20.292112
68.220 20.124603
68.225 19.889397
68.230 19.591749
68.235 19.230265
68.240 19.515251
68.245 20.542461
68.250 21.784477
68.255 22.079584
68.260 22.205065
68.265 22.236237
68.270 22.31456
68.275 21.631613
68.280 21.244238
68.285 20.342669
68.290 20.160622
68.295 20.024038
68.300 19.956511
68.305 19.822224
68.310 20.647631
68.315 20.640696
68.320 20.831188
68.325 20.648422
68.330 20.558636
68.335 21.115931
68.340 21.791729
68.345 21.369431
68.350 21.410416
68.355 21.272003
68.360 21.225641
68.365 21.677191
68.370 21.567484
68.375 21.56353
68.380 21.841566
68.385 21.638786
68.390 21.940145
68.395 22.478691
68.400 22.595442
68.405 22.543159
68.410 22.495506
68.415 22.501926
68.420 22.533854
68.425 22.778563
68.430 23.469076
68.435 23.540327
68.440 23.720297
68.445 23.561357
68.450 23.490999
68.455 24.041998
68.460 24.157246
68.465 24.172068
68.470 24.299051
68.475 24.043137
68.480 24.740099
68.485 26.031672
68.490 26.390265
68.495 26.821239
68.500 26.847145
68.505 26.967388
68.510 27.29497
68.515 26.793283
68.520 26.494543
68.525 27.210073
68.530 27.099049
68.535 26.660505
68.540 26.525301
68.545 26.545252
68.550 26.582644
68.555 26.198292
68.560 26.051819
68.565 26.196848
68.570 27.110928
68.575 27.860239
68.580 28.154888
68.585 28.727806
68.590 29.338221
68.595 28.435415
68.600 28.540688
68.605 28.672796
68.610 28.444921
68.615 28.571621
68.620 28.156605
68.625 27.690859
68.630 28.343447
68.635 28.398964
68.640 28.637167
68.645 29.098497
68.650 28.322577
68.655 28.718388
68.660 28.947901
68.665 29.555157
68.670 29.654938
68.675 29.707413
68.680 29.474104
68.685 30.162767
68.690 30.448368
68.695 30.40123
68.700 29.215094
68.705 28.549015
68.710 28.571281
68.715 29.169449
68.720 30.054129
68.725 30.468973
68.730 31.292038
68.735 31.383663
68.740 31.588575
68.745 31.748228
68.750 31.513653
68.755 30.332516
68.760 29.155333
68.765 28.89118
68.770 29.639967
68.775 29.56727
68.780 28.974405
68.785 28.950573
68.790 29.851288
68.795 30.241503
68.800 30.523462
68.805 30.637278
68.810 31.372252
68.815 32.135681
68.820 32.472351
68.825 32.483105
68.830 34.029671
68.835 34.049686
68.840 33.822178
68.845 33.452511
68.850 33.728409
68.855 34.328773
68.860 34.762535
68.865 34.442646
68.870 34.904602
68.875 35.690811
68.880 35.497154
68.885 35.520081
68.890 35.333607
68.895 35.184715
68.900 35.288815
68.905 36.151695
68.910 35.761044
68.915 35.533424
68.920 35.697437
68.925 35.420803
68.930 35.30851
68.935 34.247955
68.940 33.379612
68.945 33.892628
68.950 33.770134
68.955 33.29549
68.960 33.819397
68.965 34.359978
68.970 34.552788
68.975 34.511578
68.980 34.501244
68.985 34.810574
68.990 35.12188
68.995 34.648254
69.000 34.598446
69.005 35.071529
69.010 34.886871
69.015 34.926849
69.020 34.985619
69.025 34.435299
69.030 34.180981
69.035 33.880318
69.040 33.470478
69.045 33.896774
69.050 33.06583
69.055 32.696075
69.060 32.452354
69.065 32.251156
69.070 31.3179
69.075 30.678785
69.080 30.162966
69.085 30.893259
69.090 31.135765
69.095 31.057211
69.100 31.5387
69.105 31.675472
69.110 32.267818
69.115 32.390327
69.120 32.157417
69.125 32.393833
69.130 32.946712
69.135 32.450867
69.140 32.16111
69.145 31.588268
69.150 31.497972
69.155 30.754097
69.160 30.632061
69.165 30.061178
69.170 30.055067
69.175 30.875816
69.180 31.054419
69.185 30.971388
69.190 30.759922
69.195 30.302805
69.200 30.224266
69.205 30.462784
69.210 29.635128
69.215 29.356735
69.220 28.831123
69.225 28.596155
69.230 28.682062
69.235 28.418226
69.240 28.25918
69.245 28.729645
69.250 29.128666
69.255 29.508963
69.260 29.957609
69.265 29.888685
69.270 29.807867
69.275 29.583055
69.280 28.600864
69.285 27.936985
69.290 27.574234
69.295 26.52836
69.300 26.354927
69.305 25.699259
69.310 24.978106
69.315 24.79985
69.320 25.110413
69.325 25.210272
69.330 25.797125
69.335 26.02142
69.340 26.41519
69.345 27.258781
69.350 27.831669
69.355 27.243422
69.360 27.447512
69.365 27.206833
69.370 26.705589
69.375 26.909534
69.380 26.174141
69.385 25.197239
69.390 25.284613
69.395 25.62698
69.400 25.696606
69.405 25.556875
69.410 24.713079
69.415 24.521675
69.420 25.361532
69.425 25.880379
69.430 25.078194
69.435 25.030994
69.440 24.842497
69.445 25.518093
69.450 25.329622
69.455 24.330437
69.460 23.194487
69.465 23.316944
69.470 23.556631
69.475 24.072701
69.480 23.798231
69.485 23.025404
69.490 23.518974
69.495 24.01405
69.500 23.684792
69.505 23.343048
69.510 23.326597
69.515 23.943075
69.520 24.653835
69.525 24.107611
69.530 23.972887
69.535 24.090927
69.540 23.823282
69.545 23.114651
69.550 22.318844
69.555 22.397493
69.560 22.415106
69.565 22.154242
69.570 21.637823
69.575 22.089777
69.580 22.886223
69.585 23.165239
69.590 22.643921
69.595 22.120369
69.600 22.094025
69.605 22.445797
69.610 21.839289
69.615 21.470459
69.620 20.81468
69.625 20.411863
69.630 20.698217
69.635 20.679623
69.640 20.10729
69.645 19.990877
69.650 20.015814
69.655 20.912052
69.660 21.305811
69.665 20.540718
69.670 20.751232
69.675 20.874176
69.680 20.424994
69.685 19.965155
69.690 19.921789
69.695 20.642765
69.700 21.077574
69.705 20.750101
69.710 21.532314
69.715 21.627983
69.720 21.393627
69.725 20.601776
69.730 20.120426
69.735 20.204899
69.740 20.229809
69.745 20.108912
69.750 19.949026
69.755 20.134174
69.760 20.496964
69.765 20.594868
69.770 20.486706
69.775 20.001556
69.780 19.578028
69.785 20.208162
69.790 19.72485
69.795 19.31937
69.800 19.00448
69.805 19.415724
69.810 19.9466
69.815 20.421232
69.820 20.358213
69.825 21.007301
69.830 21.549204
69.835 22.501423
69.840 22.250664
69.845 21.975813
69.850 21.467657
69.855 21.473925
69.860 21.250219
69.865 21.17662
69.870 20.605532
69.875 20.88608
69.880 21.206755
69.885 21.797239
69.890 22.038748
69.895 21.251106
69.900 20.598616
69.905 20.725721
69.910 20.477512
69.915 19.945093
69.920 19.197699
69.925 19.197117
69.930 19.645933
69.935 19.106415
69.940 18.634912
69.945 18.047031
69.950 18.193459
69.955 18.727343
69.960 18.458878
69.965 18.858526
69.970 19.215252
69.975 19.386837
69.980 19.813681
69.985 19.591604
69.990 20.160069
69.995 20.388428
70.000 20.433901
70.005 20.398314
70.010 20.667007
70.015 20.766396
70.020 20.452274
70.025 19.602219
70.030 19.408825
70.035 19.663824
70.040 19.750841
70.045 19.458368
70.050 19.508148
70.055 19.590178
70.060 19.561701
70.065 19.571686
70.070 19.341984
70.075 19.241199
70.080 19.052652
70.085 19.150963
70.090 19.201338
70.095 18.907274
70.100 19.209106
70.105 19.065683
70.110 18.968124
70.115 19.147184
70.120 19.099976
70.125 19.283289
70.130 19.446659
70.135 19.321299
70.140 19.700884
70.145 20.322645
70.150 19.896259
70.155 19.46426
70.160 19.276289
70.165 19.517832
70.170 19.995651
70.175 19.835304
70.180 19.481234
70.185 19.622206
70.190 19.626226
70.195 19.454987
70.200 18.951509
70.205 18.230944
70.210 18.205681
70.215 18.211895
70.220 18.789186
70.225 18.886154
70.230 18.582355
70.235 18.250818
70.240 18.12743
70.245 18.08079
70.250 18.204395
70.255 17.977791
70.260 18.050131
70.265 18.535038
70.270 18.478821
70.275 18.671904
70.280 18.809084
70.285 19.202091
70.290 19.117271
70.295 19.170061
70.300 19.366331
70.305 20.222816
70.310 20.52281
70.315 20.375633
70.320 19.994844
70.325 19.883007
70.330 19.5271
70.335 19.10062
70.340 18.321669
70.345 18.485422
70.350 18.078905
70.355 18.055813
70.360 18.481668
70.365 18.625643
70.370 18.727842
70.375 18.523008
70.380 18.097254
70.385 18.948322
70.390 18.971621
70.395 18.664337
70.400 19.053772
70.405 19.1077
70.410 19.561056
70.415 19.909698
70.420 19.76157
70.425 19.853157
70.430 20.378317
70.435 20.327517
70.440 20.279272
70.445 19.739052
70.450 19.648693
70.455 19.318157
70.460 18.7756
70.465 18.654398
70.470 18.842484
70.475 18.56982
70.480 17.951485
70.485 17.673557
70.490 17.777143
70.495 17.844355
70.500 18.120413
70.505 17.986361
70.510 18.425503
70.515 19.225929
70.520 19.263929
70.525 19.460001
70.530 19.017355
70.535 18.972664
70.540 18.973837
70.545 18.398336
70.550 17.728003
70.555 17.733822
70.560 18.156761
70.565 18.486288
70.570 18.126801
70.575 18.074406
70.580 18.710438
70.585 18.942621
70.590 18.426422
70.595 18.37932
70.600 18.194342
70.605 18.309305
70.610 18.326706
70.615 17.721333
70.620 17.766609
70.625 17.366695
70.630 17.562361
70.635 17.341234
70.640 17.509874
70.645 17.682285
70.650 18.04945
70.655 18.102951
70.660 18.461666
70.665 17.92989
70.670 17.66361
70.675 17.743769
70.680 18.22105
70.685 18.519817
70.690 19.306843
70.695 19.286396
70.700 19.585052
70.705 20.003302
70.710 19.297998
70.715 19.319668
70.720 18.996424
70.725 18.630877
70.730 18.806429
70.735 18.745106
70.740 18.753941
70.745 18.27672
70.750 18.491037
70.755 19.009722
70.760 18.732641
70.765 18.389967
70.770 18.254803
70.775 18.710567
70.780 19.329283
70.785 18.407255
70.790 17.559526
70.795 17.070511
70.800 17.069515
70.805 17.544132
70.810 17.497219
70.815 17.328773
70.820 17.9758
70.825 18.265116
70.830 19.099642
70.835 19.065023
70.840 18.559519
70.845 18.146183
70.850 18.24478
70.855 17.913197
70.860 17.892397
70.865 18.011549
70.870 18.703085
70.875 18.748413
70.880 19.56171
70.885 19.745668
70.890 19.937235
70.895 19.776316
70.900 19.462044
70.905 18.804743
70.910 18.394739
70.915 17.743301
70.920 17.667908
70.925 17.620586
70.930 17.754812
70.935 17.155357
70.940 17.222687
70.945 16.978153
70.950 16.502815
70.955 16.785933
70.960 16.950087
70.965 17.655758
70.970 18.523624
70.975 18.895203
70.980 19.226143
70.985 19.094809
70.990 18.446138
70.995 17.575754
71.000 16.636873
71.005 15.905739
71.010 16.426023
71.015 16.552538
71.020 16.820976
71.025 17.083689
71.030 16.856703
71.035 17.829748
71.040 17.953522
71.045 17.074171
71.050 17.419605
71.055 17.699936
71.060 18.169144
71.065 18.81476
71.070 18.259399
71.075 18.159092
71.080 18.219414
71.085 17.865038
71.090 17.676081
71.095 17.655359
71.100 17.299471
71.105 17.507599
71.110 17.383324
71.115 17.330908
71.120 17.868792
71.125 17.579479
71.130 17.46242
71.135 17.780285
71.140 17.966398
71.145 18.830095
71.150 18.684826
71.155 18.209021
71.160 17.750959
71.165 18.227732
71.170 18.208822
71.175 17.725962
71.180 17.106098
71.185 17.3573
71.190 17.366936
71.195 18.146452
71.200 17.960009
71.205 18.151354
71.210 18.407701
71.215 18.813093
71.220 18.584002
71.225 18.548777
71.230 17.83773
71.235 17.500086
71.240 17.043653
71.245 17.030237
71.250 16.692026
71.255 16.42947
71.260 16.835791
71.265 17.078781
71.270 17.273821
71.275 17.475243
71.280 17.142504
71.285 17.762051
71.290 17.573553
71.295 17.424927
71.300 17.506235
71.305 17.372618
71.310 17.849211
71.315 18.132114
71.320 18.235783
71.325 18.728819
71.330 18.90102
71.335 19.119278
71.340 19.226288
71.345 19.046827
71.350 18.829992
71.355 18.496967
71.360 18.328615
71.365 18.563696
71.370 18.250795
71.375 18.316956
71.380 17.753117
71.385 17.388702
71.390 16.980452
71.395 16.501251
71.400 16.074347
71.405 16.21151
71.410 16.166611
71.415 16.449476
71.420 17.070036
71.425 17.949966
71.430 18.76663
71.435 19.138939
71.440 19.201553
71.445 19.537128
71.450 19.766306
71.455 19.42247
71.460 19.152773
71.465 18.57255
71.470 17.898743
71.475 17.832945
71.480 17.890783
71.485 17.696432
71.490 17.350437
71.495 17.325617
71.500 17.110733
71.505 17.189384
71.510 17.13184
71.515 17.281286
71.520 17.908516
71.525 18.233713
71.530 17.907673
71.535 18.664364
71.540 18.899761
71.545 18.28627
71.550 17.986233
71.555 17.54715
71.560 17.66592
71.565 17.930132
71.570 17.313202
71.575 16.793839
71.580 16.966978
71.585 16.835892
71.590 17.412998
71.595 17.311737
71.600 17.435621
71.605 17.263195
71.610 18.309319
71.615 18.557106
71.620 18.6481
71.625 17.988503
71.630 17.445745
71.635 17.286089
71.640 17.562172
71.645 16.919024
71.650 17.307907
71.655 17.41663
71.660 17.852713
71.665 18.16976
71.670 17.8899
71.675 17.673117
71.680 17.13069
71.685 17.169346
71.690 17.146002
71.695 17.017693
71.700 17.590006
71.705 18.345932
71.710 18.531813
71.715 18.206356
71.720 17.928215
71.725 17.847784
71.730 17.554752
71.735 16.481277
71.740 16.226315
71.745 16.346497
71.750 17.009886
71.755 17.065702
71.760 17.318371
71.765 17.666348
71.770 17.669531
71.775 17.754448
71.780 17.70573
71.785 17.59296
71.790 17.43005
71.795 17.39736
71.800 17.451702
71.805 17.622267
71.810 17.586596
71.815 16.971992
71.820 17.238094
71.825 17.078321
71.830 17.057249
71.835 16.977762
71.840 17.289087
71.845 17.510559
71.850 17.797956
71.855 17.504759
71.860 17.503298
71.865 17.394497
71.870 17.38018
71.875 17.319473
71.880 17.372774
71.885 17.489292
71.890 17.43214
71.895 17.517681
71.900 17.662628
71.905 17.880087
71.910 17.766624
71.915 17.798843
71.920 17.726021
71.925 18.103823
71.930 18.303078
71.935 18.509027
71.940 18.889149
71.945 19.592472
71.950 19.43988
71.955 19.116331
71.960 18.867245
71.965 18.919704
71.970 18.857271
71.975 18.649433
71.980 18.397997
71.985 18.622814
71.990 18.984655
71.995 18.736675
72.000 18.496664
72.005 18.514338
72.010 17.767471
72.015 17.577509
72.020 17.282885
72.025 17.269663
72.030 17.484684
72.035 17.146931
72.040 17.141138
72.045 18.254368
72.050 18.658754
72.055 18.67721
72.060 18.240934
72.065 17.859823
72.070 17.750553
72.075 17.473688
72.080 16.645033
72.085 17.171339
72.090 17.675554
72.095 18.136089
72.100 18.723534
72.105 19.214907
72.110 19.16873
72.115 18.83185
72.120 18.513943
72.125 18.547335
72.130 18.251566
72.135 17.914652
72.140 17.810101
72.145 17.288694
72.150 16.475916
72.155 15.715034
72.160 15.769948
72.165 15.700149
72.170 15.740723
72.175 15.635288
72.180 15.978398
72.185 16.670111
72.190 16.984411
72.195 17.353588
72.200 17.946568
72.205 17.897587
72.210 18.382177
72.215 18.544796
72.220 18.617828
72.225 18.616407
72.230 17.800564
72.235 17.762587
72.240 18.274862
72.245 18.208172
72.250 18.750834
72.255 18.232292
72.260 18.144327
72.265 18.773441
72.270 18.414209
72.275 18.085793
72.280 17.952265
72.285 17.508232
72.290 17.875463
72.295 17.624912
72.300 17.484528
72.305 17.468477
72.310 17.270739
72.315 16.601967
72.320 16.344936
72.325 16.17976
72.330 16.602428
72.335 16.757399
72.340 16.833458
72.345 17.076395
72.350 17.60174
72.355 17.601456
72.360 17.659317
72.365 17.40391
72.370 17.466524
72.375 17.684488
72.380 17.971077
72.385 18.595009
72.390 18.92062
72.395 19.015934
72.400 18.78825
72.405 18.036997
72.410 17.687828
72.415 17.367107
72.420 16.877949
72.425 16.493132
72.430 16.637678
72.435 16.581989
72.440 16.441366
72.445 15.845048
72.450 15.976693
72.455 15.74311
72.460 15.652494
72.465 15.362787
72.470 15.518999
72.475 15.75379
72.480 16.113293
72.485 15.831003
72.490 15.783463
72.495 15.696364
72.500 15.901849
72.505 16.039782
72.510 16.724243
72.515 17.025934
72.520 17.914522
72.525 18.338833
72.530 18.026749
72.535 18.43816
72.540 18.441698
72.545 18.273445
72.550 18.765749
72.555 18.891842
72.560 18.647705
72.565 18.606905
72.570 18.300112
72.575 18.759607
72.580 18.570009
72.585 18.329653
72.590 18.742414
72.595 19.553244
72.600 19.573282
72.605 19.480679
72.610 19.183111
72.615 19.147945
72.620 18.309275
72.625 17.447731
72.630 17.065933
72.635 16.638615
72.640 16.340967
72.645 15.836587
72.650 15.730189
72.655 15.679246
72.660 15.900496
72.665 16.166933
72.670 16.257708
72.675 16.170065
72.680 16.072403
72.685 16.050522
72.690 16.455956
72.695 15.96834
72.700 15.850903
72.705 15.576168
72.710 15.833019
72.715 16.191526
72.720 16.503365
72.725 16.472094
72.730 17.095312
72.735 16.980396
72.740 17.381941
72.745 17.459654
72.750 17.089273
72.755 16.736954
72.760 16.762827
72.765 16.634943
72.770 16.573885
72.775 16.054268
72.780 15.888197
72.785 16.444519
72.790 15.987748
72.795 15.72703
72.800 15.612019
72.805 15.926702
72.810 16.131363
72.815 16.246889
72.820 15.852117
72.825 16.460194
72.830 16.854933
72.835 17.685509
72.840 17.779785
72.845 17.389502
72.850 17.542461
72.855 17.690739
72.860 17.951422
72.865 17.315611
72.870 16.401747
72.875 16.773382
72.880 17.05088
72.885 16.71258
72.890 15.895525
72.895 15.809092
72.900 16.60457
72.905 16.711372
72.910 16.553865
72.915 16.447271
72.920 16.772058
72.925 18.086037
72.930 17.910517
72.935 17.450554
72.940 17.932842
72.945 18.229584
72.950 18.432058
72.955 18.245228
72.960 17.256649
72.965 17.109823
72.970 16.825449
72.975 16.673374
72.980 17.164631
72.985 17.264538
72.990 17.788322
72.995 18.509878
73.000 18.691914
