!@!!GADDS PLOTSO FILE: Chi integration type
!@!!Title/SampleName: map-10d
!@!!Comment: ?
!@!!User: Bruker Instrument Administrator
!@!!Site: University of Illinois Chicago
!@!!Frame: map-10d_01_000.gfrm
!@!!Wavelengths    1.54184   1.54056   1.54439
!@!!Frame angles: 2Theta: 63.000 Omega: 50.000 Phi: 0.000 Chi: 90.000
!@!!Integration range: 2Theta: 53.000 to 73.000  Gamma: -105.000 to -75.000
!@!!Integration method: bin normalized
!@!N
!@!SS
!@!M
!@!L 0.0 0.0 0.0 0.0
!@!XDegrees
!@!YCounts
53.000 9.787187
53.005 9.786292
53.010 9.716912
53.015 9.277276
53.020 8.918647
53.025 8.647261
53.030 8.755701
53.035 8.597911
53.040 8.010591
53.045 8.120219
53.050 8.161682
53.055 7.934516
53.060 7.78461
53.065 7.429485
53.070 7.464284
53.075 7.916572
53.080 7.993608
53.085 8.526437
53.090 8.845029
53.095 8.920513
53.100 9.478694
53.105 9.681586
53.110 9.507798
53.115 9.008955
53.120 8.914692
53.125 8.880754
53.130 9.092052
53.135 8.708407
53.140 8.964507
53.145 9.224792
53.150 9.23914
53.155 8.754137
53.160 8.513853
53.165 8.131866
53.170 8.071926
53.175 7.87288
53.180 8.287398
53.185 9.002814
53.190 9.096025
53.195 8.950985
53.200 9.277685
53.205 9.770164
53.210 9.723904
53.215 9.00658
53.220 8.743818
53.225 9.707503
53.230 9.566853
53.235 9.001168
53.240 8.578623
53.245 8.684907
53.250 8.865481
53.255 8.571985
53.260 8.353594
53.265 8.503652
53.270 8.545128
53.275 8.867574
53.280 9.112062
53.285 9.244551
53.290 9.187011
53.295 9.360237
53.300 9.479939
53.305 9.589691
53.310 9.618252
53.315 9.392628
53.320 9.374835
53.325 9.36144
53.330 9.050003
53.335 9.203988
53.340 9.23631
53.345 8.872025
53.350 9.111039
53.355 8.910148
53.360 9.03535
53.365 9.38386
53.370 9.711726
53.375 9.94416
53.380 10.227361
53.385 10.271173
53.390 10.428929
53.395 9.973303
53.400 9.818569
53.405 9.455805
53.410 9.253659
53.415 9.221171
53.420 8.58773
53.425 8.596938
53.430 8.696867
53.435 8.491701
53.440 8.319324
53.445 8.365911
53.450 8.437286
53.455 9.274466
53.460 9.384312
53.465 9.362657
53.470 9.225174
53.475 8.97142
53.480 8.619561
53.485 8.349556
53.490 7.857219
53.495 7.815077
53.500 7.824609
53.505 7.921731
53.510 8.288702
53.515 8.81673
53.520 8.574658
53.525 8.666314
53.530 8.469217
53.535 8.693862
53.540 9.453795
53.545 9.467494
53.550 9.603186
53.555 9.519935
53.560 9.12201
53.565 8.996059
53.570 8.881807
53.575 8.882904
53.580 8.422329
53.585 7.875679
53.590 8.220173
53.595 8.357435
53.600 8.272997
53.605 7.859638
53.610 7.591787
53.615 8.273341
53.620 8.747179
53.625 9.158853
53.630 9.72269
53.635 10.123809
53.640 10.351587
53.645 10.232092
53.650 10.177097
53.655 9.945109
53.660 9.782389
53.665 9.680753
53.670 9.415731
53.675 9.111135
53.680 9.077583
53.685 9.08003
53.690 9.334996
53.695 9.388266
53.700 9.500702
53.705 9.626646
53.710 10.024733
53.715 10.349535
53.720 10.761518
53.725 11.063285
53.730 11.112201
53.735 10.941478
53.740 10.94148
53.745 10.844305
53.750 10.559025
53.755 9.686986
53.760 9.505193
53.765 9.932443
53.770 10.394035
53.775 10.422213
53.780 10.085981
53.785 10.455061
53.790 10.653451
53.795 10.690749
53.800 10.857826
53.805 10.558125
53.810 10.533288
53.815 10.81354
53.820 10.826994
53.825 11.166631
53.830 11.079099
53.835 10.74377
53.840 11.05446
53.845 10.913416
53.850 10.605835
53.855 10.602431
53.860 10.384746
53.865 10.241571
53.870 9.977428
53.875 9.751434
53.880 9.869374
53.885 9.574786
53.890 9.14121
53.895 8.822612
53.900 8.744218
53.905 8.945351
53.910 9.010881
53.915 8.91466
53.920 9.259466
53.925 9.49814
53.930 9.541819
53.935 9.404139
53.940 9.357203
53.945 9.309679
53.950 9.244977
53.955 9.126508
53.960 9.149812
53.965 9.709964
53.970 9.718922
53.975 9.657469
53.980 9.759528
53.985 9.92952
53.990 10.326963
53.995 10.949225
54.000 10.976615
54.005 11.347308
54.010 11.597545
54.015 11.308531
54.020 11.096459
54.025 10.67412
54.030 10.365582
54.035 10.124929
54.040 9.655194
54.045 9.37144
54.050 9.294872
54.055 9.251197
54.060 9.488632
54.065 9.785995
54.070 10.041338
54.075 10.287654
54.080 10.93933
54.085 11.006004
54.090 10.959582
54.095 10.750679
54.100 10.51633
54.105 10.676533
54.110 11.115005
54.115 11.181566
54.120 11.232025
54.125 11.247134
54.130 11.200201
54.135 11.230405
54.140 10.763712
54.145 10.433675
54.150 10.59787
54.155 10.924614
54.160 10.903569
54.165 10.880145
54.170 10.793226
54.175 10.698063
54.180 10.863902
54.185 10.986349
54.190 10.857547
54.195 10.999168
54.200 11.021406
54.205 11.403305
54.210 11.700017
54.215 11.395788
54.220 11.252025
54.225 11.053529
54.230 10.866739
54.235 10.860201
54.240 10.037682
54.245 10.249607
54.250 10.263462
54.255 10.295272
54.260 10.522422
54.265 10.140291
54.270 9.943368
54.275 10.297748
54.280 10.077338
54.285 10.078821
54.290 10.133923
54.295 10.340986
54.300 11.087457
54.305 11.76824
54.310 11.482287
54.315 11.657795
54.320 11.508811
54.325 11.390221
54.330 11.146121
54.335 10.833271
54.340 10.815992
54.345 11.203987
54.350 11.070158
54.355 10.966513
54.360 10.930908
54.365 10.661014
54.370 10.162814
54.375 9.660347
54.380 9.313215
54.385 9.153256
54.390 9.417529
54.395 9.323514
54.400 9.840063
54.405 10.348925
54.410 10.480378
54.415 10.554417
54.420 10.633997
54.425 10.529441
54.430 10.987596
54.435 10.819112
54.440 10.595322
54.445 10.681781
54.450 10.414003
54.455 10.659295
54.460 10.605815
54.465 10.493534
54.470 10.332161
54.475 10.391555
54.480 10.606226
54.485 11.028986
54.490 10.762672
54.495 10.66538
54.500 10.470738
54.505 10.156301
54.510 10.043302
54.515 10.197531
54.520 10.221879
54.525 10.58223
54.530 11.153597
54.535 11.207567
54.540 11.189945
54.545 10.879268
54.550 10.57574
54.555 10.177531
54.560 9.970835
54.565 9.828979
54.570 9.985637
54.575 10.467815
54.580 10.227849
54.585 10.507927
54.590 11.053367
54.595 10.66647
54.600 10.190388
54.605 10.11355
54.610 10.410698
54.615 10.686024
54.620 10.778966
54.625 10.90783
54.630 11.153144
54.635 11.386607
54.640 11.439805
54.645 11.413824
54.650 11.432079
54.655 11.480726
54.660 11.459468
54.665 11.678966
54.670 11.588107
54.675 11.686584
54.680 12.136558
54.685 12.127328
54.690 12.111972
54.695 12.093985
54.700 12.094736
54.705 12.302568
54.710 12.193282
54.715 11.788479
54.720 11.629533
54.725 12.069518
54.730 12.114814
54.735 12.382694
54.740 12.46691
54.745 12.668534
54.750 13.096706
54.755 13.278543
54.760 12.851592
54.765 12.676962
54.770 12.524814
54.775 12.570559
54.780 12.509122
54.785 12.048131
54.790 11.600926
54.795 11.727824
54.800 11.417513
54.805 11.232224
54.810 10.816037
54.815 10.408648
54.820 10.296051
54.825 10.13754
54.830 10.146999
54.835 10.77598
54.840 11.360424
54.845 11.358402
54.850 11.684315
54.855 11.622624
54.860 11.694444
54.865 11.060288
54.870 10.591349
54.875 10.455734
54.880 10.660672
54.885 10.543301
54.890 10.471856
54.895 10.694563
54.900 10.930778
54.905 10.642129
54.910 10.704295
54.915 11.150649
54.920 11.485429
54.925 11.745625
54.930 12.090215
54.935 12.682507
54.940 13.052803
54.945 12.763638
54.950 12.953226
54.955 12.852291
54.960 12.84769
54.965 12.415419
54.970 11.8891
54.975 11.582387
54.980 11.313606
54.985 10.77411
54.990 11.302753
54.995 11.356277
55.000 11.630729
55.005 11.489567
55.010 11.593315
55.015 11.528059
55.020 11.688337
55.025 11.199081
55.030 11.06939
55.035 11.180959
55.040 11.356551
55.045 11.555696
55.050 11.589283
55.055 11.697939
55.060 12.258906
55.065 12.489324
55.070 12.528052
55.075 12.789233
55.080 12.700576
55.085 12.938229
55.090 12.612395
55.095 12.223104
55.100 12.041226
55.105 12.04709
55.110 11.8019
55.115 11.617773
55.120 12.145802
55.125 12.273659
55.130 12.147237
55.135 11.957331
55.140 11.581992
55.145 11.82079
55.150 11.944521
55.155 11.425961
55.160 11.286677
55.165 11.51279
55.170 12.264648
55.175 12.634152
55.180 12.250078
55.185 12.414979
55.190 12.230875
55.195 12.133701
55.200 11.878091
55.205 11.382096
55.210 11.011844
55.215 11.207904
55.220 11.237452
55.225 11.430873
55.230 11.518994
55.235 11.409304
55.240 11.770941
55.245 12.320783
55.250 12.126899
55.255 12.134621
55.260 12.29798
55.265 12.033596
55.270 11.914001
55.275 11.529539
55.280 11.477051
55.285 11.6628
55.290 11.66216
55.295 11.586262
55.300 12.010213
55.305 12.327921
55.310 12.400927
55.315 12.173232
55.320 12.151578
55.325 12.209782
55.330 11.570408
55.335 11.64033
55.340 11.667075
55.345 11.78964
55.350 11.811809
55.355 11.710128
55.360 12.112939
55.365 12.134672
55.370 11.457639
55.375 10.959124
55.380 10.891537
55.385 10.982415
55.390 10.592395
55.395 10.254925
55.400 10.69987
55.405 11.446622
55.410 11.729424
55.415 11.807011
55.420 11.581078
55.425 11.678862
55.430 11.83424
55.435 11.582454
55.440 11.140491
55.445 10.914062
55.450 10.525182
55.455 10.254859
55.460 10.108916
55.465 10.043509
55.470 9.945549
55.475 9.99562
55.480 10.152614
55.485 10.411765
55.490 10.80862
55.495 10.823203
55.500 10.802652
55.505 11.290917
55.510 11.838835
55.515 11.980826
55.520 12.033208
55.525 12.161569
55.530 12.8524
55.535 13.273592
55.540 13.151031
55.545 12.662066
55.550 12.53822
55.555 12.824129
55.560 12.737775
55.565 12.232745
55.570 12.099006
55.575 12.539719
55.580 12.587579
55.585 12.491339
55.590 12.578763
55.595 13.047136
55.600 13.117138
55.605 12.81256
55.610 12.450115
55.615 12.587473
55.620 12.557271
55.625 11.960113
55.630 11.783387
55.635 11.719028
55.640 11.20863
55.645 10.831293
55.650 11.084257
55.655 11.372181
55.660 11.727018
55.665 11.778926
55.670 11.662346
55.675 12.045799
55.680 12.064746
55.685 12.12256
55.690 11.9241
55.695 12.074857
55.700 12.178075
55.705 12.593575
55.710 12.614099
55.715 12.949142
55.720 12.745565
55.725 12.393612
55.730 11.901718
55.735 11.242324
55.740 11.292686
55.745 11.032393
55.750 11.087682
55.755 10.927271
55.760 10.849621
55.765 10.494744
55.770 10.445317
55.775 10.478894
55.780 10.658448
55.785 10.991898
55.790 11.56254
55.795 11.764588
55.800 12.07284
55.805 12.693367
55.810 13.41804
55.815 13.459148
55.820 13.269151
55.825 13.612174
55.830 13.931822
55.835 14.616574
55.840 14.27077
55.845 14.182081
55.850 14.32695
55.855 13.926725
55.860 13.353724
55.865 13.327635
55.870 12.799359
55.875 13.018998
55.880 12.033039
55.885 11.796463
55.890 12.0178
55.895 12.424421
55.900 12.724106
55.905 12.963002
55.910 13.019882
55.915 13.706359
55.920 14.08138
55.925 13.675047
55.930 13.276051
55.935 12.925637
55.940 12.491904
55.945 13.155863
55.950 12.824748
55.955 12.43141
55.960 12.734512
55.965 12.913098
55.970 12.932117
55.975 12.908821
55.980 12.572673
55.985 12.635493
55.990 12.737979
55.995 13.241941
56.000 13.263481
56.005 13.808898
56.010 14.077645
56.015 14.237728
56.020 14.763566
56.025 14.479894
56.030 13.868833
56.035 13.9601
56.040 13.813558
56.045 13.666
56.050 13.324496
56.055 12.594154
56.060 12.79734
56.065 13.117839
56.070 12.794965
56.075 12.335979
56.080 12.623899
56.085 12.811244
56.090 12.918427
56.095 13.111576
56.100 12.68604
56.105 12.517772
56.110 12.750796
56.115 12.292926
56.120 12.07406
56.125 11.990435
56.130 12.006504
56.135 12.526393
56.140 12.866739
56.145 12.892704
56.150 12.491416
56.155 12.837008
56.160 13.49917
56.165 13.69423
56.170 13.870971
56.175 13.493312
56.180 13.734631
56.185 14.120459
56.190 13.755912
56.195 12.912253
56.200 12.647554
56.205 12.607388
56.210 13.069446
56.215 12.579311
56.220 12.710433
56.225 13.037355
56.230 13.482924
56.235 13.783911
56.240 14.087718
56.245 13.938581
56.250 14.56708
56.255 14.523747
56.260 14.445045
56.265 14.009432
56.270 13.720802
56.275 13.767758
56.280 13.707295
56.285 13.629818
56.290 13.561739
56.295 13.282884
56.300 13.367375
56.305 13.221073
56.310 13.055253
56.315 13.582422
56.320 14.267282
56.325 14.383129
56.330 14.873916
56.335 15.191845
56.340 15.241347
56.345 14.803909
56.350 13.836143
56.355 13.280397
56.360 12.919289
56.365 12.566072
56.370 12.514748
56.375 12.50716
56.380 12.610022
56.385 13.158598
56.390 13.407766
56.395 13.237538
56.400 13.21269
56.405 13.058092
56.410 12.443298
56.415 12.266281
56.420 12.35535
56.425 11.691635
56.430 11.92015
56.435 11.655837
56.440 12.198637
56.445 13.192065
56.450 13.441175
56.455 13.093946
56.460 13.054749
56.465 13.246252
56.470 13.514691
56.475 13.490916
56.480 13.379701
56.485 14.04355
56.490 15.190311
56.495 15.587966
56.500 15.897206
56.505 15.797863
56.510 15.593553
56.515 15.627608
56.520 15.681868
56.525 15.105112
56.530 14.820734
56.535 14.777189
56.540 14.826756
56.545 14.951374
56.550 14.658683
56.555 14.027084
56.560 14.756918
56.565 14.65507
56.570 14.912618
56.575 15.209488
56.580 15.066952
56.585 15.064837
56.590 15.178594
56.595 15.067868
56.600 14.889449
56.605 14.086462
56.610 13.656584
56.615 13.304913
56.620 13.327271
56.625 13.167547
56.630 13.07608
56.635 13.31084
56.640 13.433029
56.645 13.57576
56.650 13.580986
56.655 13.265641
56.660 13.097132
56.665 13.294977
56.670 13.392195
56.675 13.46595
56.680 13.070375
56.685 13.548245
56.690 13.890608
56.695 13.826028
56.700 13.866134
56.705 14.265615
56.710 14.648213
56.715 14.773003
56.720 14.627547
56.725 14.763235
56.730 15.030031
56.735 14.827701
56.740 14.423882
56.745 14.666145
56.750 14.849183
56.755 14.707109
56.760 14.744395
56.765 14.393354
56.770 14.268369
56.775 14.688095
56.780 14.043565
56.785 13.81411
56.790 13.493785
56.795 13.001101
56.800 12.637941
56.805 12.533567
56.810 12.540442
56.815 12.668424
56.820 12.928535
56.825 13.012402
56.830 13.031529
56.835 13.600926
56.840 13.525318
56.845 13.623513
56.850 13.559516
56.855 13.617563
56.860 13.851728
56.865 14.267514
56.870 14.653332
56.875 14.367413
56.880 14.208978
56.885 14.440994
56.890 14.503613
56.895 15.004005
56.900 14.376197
56.905 14.11488
56.910 14.566177
56.915 14.49249
56.920 14.151875
56.925 13.938663
56.930 13.281623
56.935 13.606194
56.940 13.917052
56.945 14.214271
56.950 14.158754
56.955 14.227637
56.960 14.202192
56.965 14.410634
56.970 14.159333
56.975 13.73214
56.980 13.546288
56.985 13.884126
56.990 13.959372
56.995 13.832197
57.000 13.688443
57.005 13.854383
57.010 13.778911
57.015 13.999207
57.020 13.50137
57.025 13.549318
57.030 13.877574
57.035 14.149954
57.040 14.516164
57.045 14.505751
57.050 14.228328
57.055 14.525547
57.060 14.520419
57.065 14.256612
57.070 14.236302
57.075 14.247959
57.080 14.174153
57.085 13.98721
57.090 14.129796
57.095 13.992579
57.100 14.151386
57.105 14.123125
57.110 13.839514
57.115 14.139472
57.120 14.650414
57.125 14.408015
57.130 14.677073
57.135 14.446168
57.140 14.643292
57.145 14.887617
57.150 14.717336
57.155 14.902724
57.160 15.143948
57.165 15.282666
57.170 15.392613
57.175 14.89821
57.180 14.965786
57.185 15.137065
57.190 14.883077
57.195 14.942107
57.200 14.929048
57.205 15.139253
57.210 15.013326
57.215 15.063562
57.220 14.479757
57.225 14.629836
57.230 14.564366
57.235 14.772249
57.240 14.834388
57.245 15.228692
57.250 15.098586
57.255 15.201206
57.260 14.911633
57.265 14.404097
57.270 13.889794
57.275 13.368942
57.280 12.950286
57.285 12.489849
57.290 12.543461
57.295 12.997175
57.300 13.216814
57.305 13.24514
57.310 13.603717
57.315 14.317807
57.320 14.856107
57.325 14.776744
57.330 14.316856
57.335 14.233575
57.340 14.297906
57.345 13.917017
57.350 13.233607
57.355 13.523169
57.360 13.840838
57.365 13.925083
57.370 13.936298
57.375 14.128627
57.380 14.521374
57.385 14.753679
57.390 13.893741
57.395 13.810939
57.400 14.198068
57.405 14.170096
57.410 14.032744
57.415 13.870533
57.420 13.432649
57.425 13.414943
57.430 13.315491
57.435 13.400352
57.440 13.660817
57.445 13.489083
57.450 13.798799
57.455 14.098002
57.460 14.828321
57.465 14.917202
57.470 15.058045
57.475 15.037368
57.480 15.091477
57.485 15.174652
57.490 15.581055
57.495 14.718431
57.500 14.416533
57.505 13.960663
57.510 13.767539
57.515 13.786976
57.520 13.195929
57.525 13.146697
57.530 14.012881
57.535 14.125113
57.540 14.30596
57.545 14.785766
57.550 14.906362
57.555 15.423387
57.560 15.93336
57.565 15.737676
57.570 15.696338
57.575 15.693353
57.580 15.314995
57.585 15.208408
57.590 14.767459
57.595 14.079022
57.600 14.100059
57.605 14.334548
57.610 14.342086
57.615 14.481413
57.620 14.776245
57.625 15.413524
57.630 15.427938
57.635 15.396984
57.640 15.298999
57.645 15.488709
57.650 15.340768
57.655 14.800893
57.660 14.306349
57.665 14.567761
57.670 14.501221
57.675 14.345849
57.680 14.092185
57.685 13.999036
57.690 14.528247
57.695 15.232448
57.700 15.037537
57.705 14.896703
57.710 15.330452
57.715 15.769196
57.720 16.094498
57.725 15.976892
57.730 15.376611
57.735 15.391183
57.740 15.169995
57.745 14.841267
57.750 14.311798
57.755 14.535997
57.760 14.613376
57.765 15.18314
57.770 15.336092
57.775 15.20083
57.780 15.117479
57.785 15.724316
57.790 15.332659
57.795 15.494494
57.800 15.84114
57.805 16.357233
57.810 16.770187
57.815 17.284725
57.820 17.655476
57.825 17.656174
57.830 16.774071
57.835 15.647418
57.840 14.892569
57.845 14.484428
57.850 14.22395
57.855 13.260254
57.860 13.396053
57.865 13.708672
57.870 14.101945
57.875 14.753332
57.880 14.929754
57.885 14.974978
57.890 15.048374
57.895 14.810341
57.900 14.866713
57.905 15.36443
57.910 15.155769
57.915 14.86749
57.920 14.901303
57.925 15.154406
57.930 14.811583
57.935 14.524177
57.940 14.030241
57.945 14.157581
57.950 14.440314
57.955 14.364664
57.960 14.617655
57.965 15.151929
57.970 15.330014
57.975 15.638005
57.980 16.060381
57.985 16.127907
57.990 15.834719
57.995 15.656761
58.000 15.488008
58.005 15.195498
58.010 14.63992
58.015 14.456413
58.020 14.926978
58.025 15.083162
58.030 15.200768
58.035 15.320635
58.040 15.471408
58.045 15.300616
58.050 14.687336
58.055 14.214856
58.060 14.331523
58.065 13.992735
58.070 13.785061
58.075 14.400928
58.080 14.804467
58.085 14.327455
58.090 14.01518
58.095 13.383342
58.100 13.881249
58.105 14.200781
58.110 14.062731
58.115 14.170596
58.120 14.209332
58.125 14.235976
58.130 14.763229
58.135 14.44048
58.140 13.852247
58.145 13.764412
58.150 13.88693
58.155 14.430803
58.160 14.471201
58.165 14.375821
58.170 14.812061
58.175 15.034736
58.180 14.456185
58.185 14.695264
58.190 14.648563
58.195 15.052208
58.200 15.38461
58.205 15.136154
58.210 15.177862
58.215 15.442663
58.220 15.489652
58.225 15.664818
58.230 15.755563
58.235 15.922707
58.240 15.724253
58.245 15.268621
58.250 14.504915
58.255 14.342828
58.260 14.12432
58.265 13.919189
58.270 14.062737
58.275 14.170375
58.280 14.702702
58.285 15.748026
58.290 16.174585
58.295 16.53528
58.300 16.09671
58.305 15.939871
58.310 16.111338
58.315 16.131386
58.320 15.854067
58.325 15.627522
58.330 15.730142
58.335 15.955543
58.340 15.560703
58.345 15.761866
58.350 15.891123
58.355 15.574589
58.360 15.029314
58.365 15.170621
58.370 15.210114
58.375 15.128907
58.380 14.945208
58.385 14.746701
58.390 15.156819
58.395 15.684486
58.400 15.560284
58.405 15.625287
58.410 15.769949
58.415 15.896865
58.420 16.224167
58.425 15.74744
58.430 15.739497
58.435 15.833055
58.440 15.823195
58.445 16.038189
58.450 15.91611
58.455 15.590675
58.460 16.143892
58.465 15.892208
58.470 15.959026
58.475 16.24148
58.480 16.609526
58.485 16.894144
58.490 17.185802
58.495 16.500965
58.500 16.277651
58.505 15.94076
58.510 15.72021
58.515 15.269444
58.520 14.686838
58.525 14.472017
58.530 14.768133
58.535 14.4157
58.540 13.772076
58.545 13.961675
58.550 14.103425
58.555 14.458929
58.560 14.501342
58.565 14.795525
58.570 15.118259
58.575 15.839531
58.580 15.504902
58.585 15.341852
58.590 15.498606
58.595 15.698435
58.600 15.476413
58.605 15.196507
58.610 15.023801
58.615 15.468323
58.620 15.798272
58.625 15.587155
58.630 15.592821
58.635 15.826991
58.640 16.328743
58.645 16.38595
58.650 16.122894
58.655 15.818463
58.660 15.046466
58.665 14.722002
58.670 14.464581
58.675 14.477403
58.680 14.309873
58.685 14.307256
58.690 14.622972
58.695 15.604933
58.700 15.944952
58.705 15.982307
58.710 15.359091
58.715 15.131496
58.720 15.513289
58.725 15.565024
58.730 15.076914
58.735 14.308996
58.740 14.526361
58.745 15.083817
58.750 15.204265
58.755 14.523669
58.760 14.55799
58.765 14.979925
58.770 15.460173
58.775 15.662535
58.780 15.14772
58.785 14.904623
58.790 15.386533
58.795 15.276406
58.800 15.477223
58.805 15.665907
58.810 15.960464
58.815 16.6693
58.820 17.027546
58.825 16.730349
58.830 16.686989
58.835 16.10795
58.840 15.435314
58.845 14.911913
58.850 14.367319
58.855 13.995453
58.860 13.864653
58.865 14.048799
58.870 14.692614
58.875 15.490882
58.880 15.820075
58.885 15.958155
58.890 16.05467
58.895 16.364614
58.900 16.386856
58.905 16.187819
58.910 16.03236
58.915 15.913947
58.920 16.266283
58.925 15.997587
58.930 16.128241
58.935 16.282516
58.940 16.268072
58.945 15.951846
58.950 15.854962
58.955 15.24199
58.960 15.349102
58.965 15.168283
58.970 14.729599
58.975 14.583806
58.980 14.540022
58.985 14.769514
58.990 16.124166
58.995 16.408995
59.000 16.071243
59.005 15.860046
59.010 16.127941
59.015 16.270308
59.020 16.373163
59.025 15.989017
59.030 16.145693
59.035 16.509451
59.040 17.0627
59.045 17.325689
59.050 17.307476
59.055 16.972158
59.060 16.826382
59.065 17.450081
59.070 17.329508
59.075 16.988907
59.080 16.596338
59.085 16.784166
59.090 16.839241
59.095 16.452911
59.100 15.501722
59.105 15.803485
59.110 15.717315
59.115 15.489533
59.120 15.539959
59.125 15.692784
59.130 15.525232
59.135 15.482142
59.140 15.456249
59.145 15.254448
59.150 16.031721
59.155 16.261072
59.160 16.527241
59.165 17.119864
59.170 17.722477
59.175 17.978451
59.180 18.324694
59.185 17.920118
59.190 17.777149
59.195 17.329206
59.200 17.296017
59.205 17.056353
59.210 17.124554
59.215 17.299461
59.220 17.115911
59.225 17.177307
59.230 17.509123
59.235 17.721954
59.240 17.792479
59.245 17.574997
59.250 17.16713
59.255 16.519438
59.260 16.045874
59.265 16.378458
59.270 16.158236
59.275 15.882697
59.280 16.09992
59.285 16.55534
59.290 17.147566
59.295 17.918459
59.300 18.021057
59.305 17.828888
59.310 17.78512
59.315 17.293991
59.320 17.246643
59.325 17.655638
59.330 17.355398
59.335 17.101505
59.340 17.598663
59.345 17.623762
59.350 17.353065
59.355 17.691711
59.360 17.451263
59.365 17.298002
59.370 17.40243
59.375 17.241072
59.380 17.229227
59.385 17.332403
59.390 17.461668
59.395 17.617785
59.400 17.493309
59.405 17.224697
59.410 16.678913
59.415 16.877851
59.420 17.358353
59.425 16.893347
59.430 16.902506
59.435 16.710405
59.440 16.660643
59.445 17.304495
59.450 17.269325
59.455 17.339005
59.460 17.13051
59.465 17.019356
59.470 17.149639
59.475 17.273293
59.480 17.021923
59.485 16.95118
59.490 16.87318
59.495 17.189087
59.500 17.255579
59.505 17.387499
59.510 18.106701
59.515 18.478548
59.520 18.620115
59.525 18.632776
59.530 18.543779
59.535 18.356802
59.540 18.231146
59.545 18.022959
59.550 18.274311
59.555 18.540823
59.560 18.367435
59.565 18.076836
59.570 17.944513
59.575 17.444338
59.580 17.077505
59.585 16.584339
59.590 16.613937
59.595 17.330063
59.600 17.727886
59.605 18.701754
59.610 19.231897
59.615 19.657892
59.620 19.805927
59.625 19.443029
59.630 18.766102
59.635 18.520086
59.640 17.640303
59.645 17.568321
59.650 17.818243
59.655 17.917015
59.660 17.721663
59.665 17.530991
59.670 17.871805
59.675 18.27557
59.680 18.042397
59.685 17.788744
59.690 17.866449
59.695 18.605705
59.700 19.260939
59.705 19.583494
59.710 19.702532
59.715 19.835104
59.720 19.721909
59.725 19.329086
59.730 19.141464
59.735 19.625669
59.740 19.506166
59.745 19.738049
59.750 19.635977
59.755 19.875217
59.760 20.613676
59.765 20.909634
59.770 20.399038
59.775 20.553459
59.780 20.311888
59.785 20.469343
59.790 20.184303
59.795 20.115147
59.800 19.898146
59.805 20.099619
59.810 20.078636
59.815 20.063013
59.820 19.87285
59.825 19.692419
59.830 19.406359
59.835 19.578953
59.840 19.415258
59.845 19.076956
59.850 19.48872
59.855 19.719372
59.860 19.731623
59.865 19.392744
59.870 19.101919
59.875 19.217262
59.880 19.71484
59.885 19.396614
59.890 19.487392
59.895 19.548855
59.900 19.341637
59.905 19.923428
59.910 19.577177
59.915 19.74181
59.920 20.005659
59.925 20.569584
59.930 21.277536
59.935 21.710348
59.940 21.254738
59.945 21.799437
59.950 21.376585
59.955 21.075466
59.960 20.93638
59.965 20.573177
59.970 20.784929
59.975 20.817574
59.980 20.511526
59.985 20.546362
59.990 20.789557
59.995 20.43161
60.000 20.625057
60.005 20.705442
60.010 20.761904
60.015 20.328493
60.020 20.601437
60.025 20.745752
60.030 21.436533
60.035 21.316547
60.040 21.248402
60.045 21.502918
60.050 22.648716
60.055 22.861177
60.060 22.683613
60.065 22.441648
60.070 22.706364
60.075 22.503532
60.080 22.482382
60.085 22.547432
60.090 22.330748
60.095 23.054903
60.100 23.020084
60.105 23.076366
60.110 22.886845
60.115 22.517826
60.120 22.487528
60.125 21.823097
60.130 20.821552
60.135 20.759024
60.140 20.68256
60.145 20.979912
60.150 21.365112
60.155 21.820217
60.160 22.187021
60.165 22.791952
60.170 22.693806
60.175 22.983736
60.180 23.028849
60.185 22.756994
60.190 21.83674
60.195 21.912567
60.200 21.529579
60.205 21.552973
60.210 21.777393
60.215 21.852766
60.220 21.542288
60.225 21.324778
60.230 20.626154
60.235 20.460789
60.240 20.014673
60.245 19.766901
60.250 19.363361
60.255 20.107697
60.260 20.641872
60.265 21.110123
60.270 21.059195
60.275 20.940584
60.280 20.681036
60.285 20.955463
60.290 20.688749
60.295 20.315706
60.300 20.221972
60.305 21.117905
60.310 21.597641
60.315 21.26272
60.320 20.975037
60.325 20.959711
60.330 21.321066
60.335 21.460909
60.340 20.859022
60.345 20.603508
60.350 21.507029
60.355 21.582079
60.360 21.36125
60.365 21.304571
60.370 22.223358
60.375 22.406113
60.380 22.733809
60.385 23.136868
60.390 23.370831
60.395 23.729359
60.400 23.485132
60.405 23.310541
60.410 23.229389
60.415 22.742271
60.420 22.097109
60.425 22.450232
60.430 22.765942
60.435 22.744879
60.440 22.093737
60.445 22.412079
60.450 22.527809
60.455 22.326309
60.460 22.015263
60.465 22.164133
60.470 21.711557
60.475 21.981359
60.480 21.585745
60.485 21.164499
60.490 20.993509
60.495 20.709856
60.500 20.16856
60.505 21.195557
60.510 20.692957
60.515 20.726347
60.520 20.777706
60.525 20.828951
60.530 20.78647
60.535 20.639811
60.540 20.045351
60.545 19.878389
60.550 19.82122
60.555 19.735083
60.560 19.554182
60.565 19.654095
60.570 20.024761
60.575 19.569916
60.580 19.567841
60.585 19.350372
60.590 19.540506
60.595 19.845406
60.600 20.523701
60.605 20.65111
60.610 21.0725
60.615 21.50198
60.620 22.10578
60.625 22.191425
60.630 21.641045
60.635 20.129307
60.640 19.175312
60.645 18.961416
60.650 19.107821
60.655 18.675604
60.660 18.229937
60.665 18.069479
60.670 18.541086
60.675 19.609592
60.680 19.351648
60.685 18.381617
60.690 18.904123
60.695 19.349539
60.700 19.384148
60.705 18.945406
60.710 18.146824
60.715 18.39772
60.720 18.826569
60.725 18.684454
60.730 18.559553
60.735 18.918833
60.740 19.424337
60.745 19.627523
60.750 19.699402
60.755 19.708082
60.760 19.288191
60.765 19.337849
60.770 19.482513
60.775 19.399269
60.780 19.211288
60.785 19.173809
60.790 19.262672
60.795 19.447727
60.800 19.577324
60.805 19.469927
60.810 19.528183
60.815 19.631775
60.820 19.258738
60.825 19.359295
60.830 19.479845
60.835 19.476261
60.840 19.423386
60.845 19.43672
60.850 19.624199
60.855 19.988138
60.860 19.495123
60.865 19.22089
60.870 18.934898
60.875 18.902521
60.880 18.431601
60.885 17.856392
60.890 17.459959
60.895 17.410753
60.900 17.115892
60.905 17.124142
60.910 16.941101
60.915 17.283195
60.920 17.50156
60.925 17.969297
60.930 18.550526
60.935 19.1091
60.940 18.949162
60.945 19.074976
60.950 18.969894
60.955 19.166616
60.960 18.873775
60.965 18.574667
60.970 18.124451
60.975 18.240469
60.980 18.323622
60.985 17.667442
60.990 17.42337
60.995 17.220455
61.000 16.976738
61.005 16.796888
61.010 16.618336
61.015 16.62252
61.020 16.784985
61.025 16.735497
61.030 16.897678
61.035 17.066832
61.040 16.873743
61.045 16.915705
61.050 16.791813
61.055 17.166903
61.060 17.203875
61.065 17.119492
61.070 16.831339
61.075 17.172064
61.080 17.863272
61.085 17.771963
61.090 18.048126
61.095 18.541468
61.100 18.434231
61.105 18.834822
61.110 18.127527
61.115 17.447422
61.120 17.47913
61.125 17.169786
61.130 16.196613
61.135 16.245064
61.140 16.588606
61.145 17.183687
61.150 16.992954
61.155 17.136261
61.160 17.425041
61.165 17.527632
61.170 17.271713
61.175 16.644644
61.180 16.553955
61.185 17.256416
61.190 17.295218
61.195 17.332533
61.200 17.230656
61.205 17.419661
61.210 18.176682
61.215 18.174822
61.220 17.792217
61.225 17.680046
61.230 16.798285
61.235 17.351768
61.240 17.334703
61.245 17.270334
61.250 17.088413
61.255 17.220951
61.260 17.039469
61.265 17.798613
61.270 17.898649
61.275 17.583902
61.280 17.368334
61.285 17.253963
61.290 17.545839
61.295 17.658987
61.300 17.453878
61.305 17.578442
61.310 17.825676
61.315 18.477455
61.320 18.784885
61.325 18.556978
61.330 18.505152
61.335 17.88343
61.340 17.516279
61.345 17.305201
61.350 17.280371
61.355 17.516788
61.360 17.187189
61.365 17.598701
61.370 18.149162
61.375 18.753931
61.380 19.237276
61.385 18.44203
61.390 18.22291
61.395 17.85594
61.400 17.164528
61.405 16.871159
61.410 16.569895
61.415 16.354324
61.420 17.001699
61.425 17.03266
61.430 17.81801
61.435 18.25032
61.440 18.536524
61.445 18.393295
61.450 18.680611
61.455 18.505781
61.460 18.226068
61.465 18.009224
61.470 17.711956
61.475 17.56514
61.480 17.014889
61.485 16.541348
61.490 16.319202
61.495 16.570984
61.500 16.27375
61.505 16.506918
61.510 16.9111
61.515 17.44804
61.520 17.262613
61.525 17.414188
61.530 17.758997
61.535 18.266001
61.540 17.68269
61.545 17.586664
61.550 18.070484
61.555 19.013771
61.560 19.118719
61.565 18.508278
61.570 18.498919
61.575 19.559608
61.580 19.652618
61.585 18.449142
61.590 17.408886
61.595 17.02496
61.600 17.067846
61.605 16.810961
61.610 16.038109
61.615 15.898187
61.620 17.019257
61.625 17.593342
61.630 17.991482
61.635 18.522005
61.640 18.463339
61.645 18.651365
61.650 18.188002
61.655 17.706102
61.660 17.338509
61.665 16.821688
61.670 16.743158
61.675 16.805021
61.680 16.636436
61.685 16.960657
61.690 16.998281
61.695 17.28838
61.700 17.719765
61.705 17.723925
61.710 17.719717
61.715 18.306944
61.720 18.228167
61.725 18.065775
61.730 18.325851
61.735 18.57666
61.740 18.515888
61.745 18.457474
61.750 17.493118
61.755 17.599253
61.760 18.175192
61.765 17.668736
61.770 17.070538
61.775 17.157047
61.780 16.889393
61.785 17.018543
61.790 17.156736
61.795 17.481573
61.800 17.871853
61.805 17.761267
61.810 17.877211
61.815 18.370136
61.820 18.984343
61.825 19.03677
61.830 18.674726
61.835 18.630009
61.840 18.739607
61.845 18.286388
61.850 18.261492
61.855 18.207628
61.860 17.414352
61.865 16.976107
61.870 17.193993
61.875 17.237597
61.880 17.567263
61.885 17.528101
61.890 18.054377
61.895 18.682211
61.900 18.430771
61.905 17.848072
61.910 17.883436
61.915 17.783796
61.920 17.818546
61.925 17.583332
61.930 17.256935
61.935 17.806032
61.940 18.202129
61.945 18.493052
61.950 18.754221
61.955 18.834122
61.960 18.358879
61.965 18.232971
61.970 18.050678
61.975 18.029535
61.980 17.984825
61.985 17.77701
61.990 17.662376
61.995 17.718891
62.000 17.83662
62.005 17.628786
62.010 17.942007
62.015 17.996109
62.020 17.651018
62.025 17.749472
62.030 17.565817
62.035 17.377579
62.040 17.885313
62.045 17.734802
62.050 17.816578
62.055 18.218359
62.060 18.156799
62.065 18.859108
62.070 18.850288
62.075 18.737885
62.080 18.511431
62.085 17.87145
62.090 17.830278
62.095 17.752293
62.100 17.245531
62.105 17.727026
62.110 18.231407
62.115 18.146383
62.120 18.430689
62.125 18.01453
62.130 18.021753
62.135 18.399475
62.140 17.936256
62.145 17.252998
62.150 17.254786
62.155 17.537615
62.160 17.797564
62.165 18.003464
62.170 18.7241
62.175 19.109552
62.180 19.44912
62.185 19.705536
62.190 19.967196
62.195 20.354195
62.200 19.804163
62.205 18.711432
62.210 18.290108
62.215 17.936331
62.220 17.378798
62.225 16.361767
62.230 16.395241
62.235 17.108643
62.240 17.472851
62.245 17.683735
62.250 17.446251
62.255 18.400726
62.260 19.521427
62.265 19.424824
62.270 19.140406
62.275 18.926777
62.280 18.767153
62.285 19.193117
62.290 18.917349
62.295 18.455652
62.300 18.007412
62.305 17.832386
62.310 18.182648
62.315 18.190449
62.320 18.370882
62.325 17.930126
62.330 17.83049
62.335 17.591995
62.340 17.809713
62.345 17.925484
62.350 18.069654
62.355 17.592342
62.360 17.68297
62.365 17.514679
62.370 17.790892
62.375 17.190001
62.380 16.542284
62.385 16.250824
62.390 15.937405
62.395 16.494555
62.400 16.734751
62.405 16.982817
62.410 17.192636
62.415 17.51897
62.420 17.687788
62.425 17.90897
62.430 17.757608
62.435 17.661848
62.440 17.431284
62.445 17.844223
62.450 18.353264
62.455 18.417002
62.460 18.719187
62.465 18.904783
62.470 19.288975
62.475 19.617271
62.480 20.186222
62.485 20.53998
62.490 20.829004
62.495 19.911196
62.500 19.426817
62.505 18.78093
62.510 18.40036
62.515 17.041887
62.520 16.11202
62.525 16.10977
62.530 15.925022
62.535 15.445741
62.540 15.666782
62.545 15.287429
62.550 15.369241
62.555 15.591879
62.560 15.794404
62.565 16.598705
62.570 16.722832
62.575 17.322935
62.580 17.612976
62.585 18.063076
62.590 17.861029
62.595 17.825691
62.600 17.678398
62.605 17.597113
62.610 17.166346
62.615 16.765854
62.620 16.871134
62.625 17.417679
62.630 17.226587
62.635 17.102722
62.640 17.077925
62.645 16.866716
62.650 17.535648
62.655 17.288218
62.660 16.775902
62.665 16.686235
62.670 17.398455
62.675 17.627531
62.680 17.970652
62.685 17.885099
62.690 18.12122
62.695 18.299
62.700 18.550867
62.705 18.011145
62.710 18.644123
62.715 19.012497
62.720 19.058199
62.725 18.47715
62.730 18.772923
62.735 18.66629
62.740 18.672201
62.745 18.109261
62.750 18.140593
62.755 18.14362
62.760 18.160067
62.765 18.065874
62.770 17.898815
62.775 18.227093
62.780 18.395302
62.785 18.053505
62.790 18.069389
62.795 18.711395
62.800 19.045494
62.805 19.338383
62.810 19.107893
62.815 19.03293
62.820 19.168484
62.825 19.479961
62.830 19.130329
62.835 18.171375
62.840 17.836502
62.845 18.331614
62.850 18.122395
62.855 18.257093
62.860 18.161085
62.865 18.110613
62.870 18.517601
62.875 18.383015
62.880 17.554741
62.885 17.364153
62.890 16.855366
62.895 16.76239
62.900 17.167377
62.905 16.783792
62.910 17.296097
62.915 17.620903
62.920 17.847416
62.925 17.69146
62.930 17.348263
62.935 17.269913
62.940 17.877367
62.945 17.622513
62.950 17.558226
62.955 17.515562
62.960 18.041662
62.965 18.485161
62.970 19.329744
62.975 19.408039
62.980 19.590815
62.985 19.357336
62.990 19.091427
62.995 18.727961
63.000 18.29936
63.005 18.045059
63.010 17.801662
63.015 17.573612
63.020 17.930851
63.025 18.477425
63.030 18.72415
63.035 18.574636
63.040 18.085936
63.045 18.037729
63.050 18.433683
63.055 18.299589
63.060 18.115589
63.065 18.783087
63.070 18.950315
63.075 18.709322
63.080 18.507359
63.085 18.374849
63.090 18.77334
63.095 18.428349
63.100 17.896502
63.105 17.99411
63.110 18.116264
63.115 18.249584
63.120 18.050409
63.125 18.074463
63.130 18.635931
63.135 18.486052
63.140 18.683752
63.145 18.799217
63.150 18.638016
63.155 18.56354
63.160 18.346487
63.165 18.673584
63.170 19.220728
63.175 18.935843
63.180 18.817156
63.185 18.740652
63.190 18.960573
63.195 18.614668
63.200 17.866888
63.205 17.192238
63.210 17.391836
63.215 17.559643
63.220 17.49732
63.225 17.403025
63.230 17.731457
63.235 17.968283
63.240 17.970417
63.245 17.45689
63.250 16.96977
63.255 17.690575
63.260 18.1754
63.265 18.329765
63.270 18.277811
63.275 18.367758
63.280 18.845713
63.285 19.421673
63.290 19.266457
63.295 18.670353
63.300 18.227291
63.305 18.263344
63.310 18.826157
63.315 18.95245
63.320 18.906557
63.325 19.348686
63.330 19.796164
63.335 19.807011
63.340 19.425631
63.345 18.895891
63.350 18.865494
63.355 18.965702
63.360 18.600702
63.365 18.406843
63.370 18.553127
63.375 18.891691
63.380 19.421068
63.385 18.956093
63.390 18.258911
63.395 17.977022
63.400 17.777634
63.405 17.875677
63.410 17.963518
63.415 17.414085
63.420 18.565166
63.425 19.534767
63.430 19.563902
63.435 19.575369
63.440 18.977226
63.445 18.986414
63.450 19.197151
63.455 18.134333
63.460 17.403259
63.465 17.756742
63.470 18.172215
63.475 18.676313
63.480 18.345707
63.485 18.424353
63.490 18.982796
63.495 19.517569
63.500 19.522003
63.505 19.303846
63.510 19.515429
63.515 19.744026
63.520 19.162895
63.525 19.139875
63.530 19.097975
63.535 18.892702
63.540 18.723717
63.545 18.182308
63.550 18.252024
63.555 18.664286
63.560 18.18787
63.565 18.340694
63.570 18.440542
63.575 18.160271
63.580 18.330648
63.585 18.385042
63.590 18.359295
63.595 18.045462
63.600 17.482101
63.605 17.296827
63.610 17.57148
63.615 17.950632
63.620 18.087008
63.625 17.947037
63.630 17.329575
63.635 17.28269
63.640 17.251051
63.645 17.432159
63.650 17.345989
63.655 17.086807
63.660 17.39395
63.665 18.071623
63.670 18.467178
63.675 18.840038
63.680 18.89856
63.685 18.284939
63.690 18.145401
63.695 18.202984
63.700 17.85598
63.705 17.685116
63.710 17.534399
63.715 17.639414
63.720 17.533455
63.725 17.375017
63.730 17.457821
63.735 18.141397
63.740 18.083315
63.745 18.197702
63.750 17.937935
63.755 18.432413
63.760 18.355593
63.765 18.564442
63.770 18.394539
63.775 18.027342
63.780 17.30319
63.785 17.053438
63.790 17.522285
63.795 17.644775
63.800 17.277025
63.805 17.274187
63.810 18.080545
63.815 18.580841
63.820 19.024412
63.825 18.851851
63.830 19.083544
63.835 18.995792
63.840 19.009007
63.845 18.584894
63.850 18.622915
63.855 18.695627
63.860 18.656704
63.865 18.561634
63.870 18.216457
63.875 18.176807
63.880 18.187658
63.885 18.679018
63.890 18.618023
63.895 18.541796
63.900 18.695595
63.905 18.946259
63.910 19.570313
63.915 19.281967
63.920 18.758743
63.925 18.516479
63.930 18.337461
63.935 18.310675
63.940 18.507711
63.945 18.128019
63.950 18.301702
63.955 19.032721
63.960 19.375713
63.965 19.484892
63.970 19.765684
63.975 19.253717
63.980 18.480274
63.985 18.874565
63.990 18.311462
63.995 18.303183
64.000 18.642763
64.005 18.881573
64.010 19.306049
64.015 20.175123
64.020 20.093348
64.025 20.055742
64.030 19.801128
64.035 19.911016
64.040 19.817932
64.045 20.203079
64.050 19.93268
64.055 19.544067
64.060 19.686451
64.065 19.943863
64.070 19.910086
64.075 19.819548
64.080 19.40741
64.085 19.331448
64.090 19.414732
64.095 19.223391
64.100 18.977058
64.105 18.48711
64.110 18.18037
64.115 18.307322
64.120 18.724367
64.125 18.301165
64.130 18.800919
64.135 18.778032
64.140 18.868073
64.145 19.341154
64.150 18.909437
64.155 18.18836
64.160 18.278521
64.165 17.80633
64.170 18.384329
64.175 18.687172
64.180 18.340874
64.185 18.864458
64.190 19.204155
64.195 19.438602
64.200 19.190578
64.205 18.657919
64.210 18.862854
64.215 18.737564
64.220 18.387074
64.225 18.255766
64.230 18.437346
64.235 18.879747
64.240 18.791107
64.245 18.253742
64.250 18.325415
64.255 18.388477
64.260 18.252895
64.265 18.284809
64.270 17.94289
64.275 17.444855
64.280 17.427073
64.285 17.853662
64.290 17.786026
64.295 17.76322
64.300 17.676041
64.305 17.577335
64.310 18.326416
64.315 18.508841
64.320 18.844086
64.325 18.975597
64.330 19.069122
64.335 19.238678
64.340 19.517326
64.345 19.531034
64.350 19.566782
64.355 19.367186
64.360 20.017481
64.365 19.717352
64.370 19.10483
64.375 19.021521
64.380 19.379099
64.385 19.719765
64.390 19.717211
64.395 19.440786
64.400 19.62731
64.405 19.426575
64.410 19.364483
64.415 18.968414
64.420 18.989483
64.425 19.077576
64.430 19.116024
64.435 19.878855
64.440 20.676874
64.445 20.810009
64.450 21.287998
64.455 21.831236
64.460 21.598705
64.465 21.990757
64.470 21.68644
64.475 21.467903
64.480 21.099333
64.485 20.590746
64.490 20.482607
64.495 20.538649
64.500 19.796453
64.505 20.581932
64.510 20.777834
64.515 20.63369
64.520 19.969114
64.525 19.308857
64.530 19.191774
64.535 18.95639
64.540 18.521252
64.545 18.378052
64.550 19.22653
64.555 20.206575
64.560 20.533312
64.565 20.68775
64.570 20.557131
64.575 20.264681
64.580 20.55242
64.585 20.037411
64.590 19.389372
64.595 18.768141
64.600 19.139694
64.605 19.286615
64.610 19.294794
64.615 19.436764
64.620 19.696203
64.625 19.614399
64.630 20.199703
64.635 20.119038
64.640 20.314577
64.645 20.407429
64.650 20.308586
64.655 20.276676
64.660 20.135214
64.665 20.019352
64.670 20.158463
64.675 19.97641
64.680 20.111349
64.685 20.183998
64.690 19.901598
64.695 19.742466
64.700 20.077742
64.705 20.200466
64.710 20.545856
64.715 20.175327
64.720 19.981211
64.725 20.729176
64.730 21.179438
64.735 21.244642
64.740 21.206202
64.745 20.958834
64.750 20.390135
64.755 20.218136
64.760 19.385616
64.765 19.101021
64.770 18.82481
64.775 18.647861
64.780 19.209608
64.785 19.763632
64.790 19.690117
64.795 19.933208
64.800 19.769726
64.805 19.735712
64.810 20.197605
64.815 19.814314
64.820 19.932926
64.825 20.53458
64.830 21.099518
64.835 21.601555
64.840 21.635799
64.845 21.404531
64.850 21.712442
64.855 22.021698
64.860 22.019657
64.865 22.290781
64.870 22.107105
64.875 21.68861
64.880 21.337944
64.885 21.00507
64.890 21.060831
64.895 21.093248
64.900 20.683201
64.905 20.876925
64.910 21.274574
64.915 22.084352
64.920 22.889626
64.925 22.412605
64.930 22.062637
64.935 21.986422
64.940 21.917377
64.945 21.748016
64.950 21.87014
64.955 22.325453
64.960 22.922604
64.965 23.33679
64.970 23.540356
64.975 24.175503
64.980 24.835218
64.985 24.959257
64.990 25.022139
64.995 24.977968
65.000 25.246481
65.005 25.197277
65.010 24.565676
65.015 24.436777
65.020 24.492626
65.025 24.555742
65.030 24.555923
65.035 24.45664
65.040 24.897329
65.045 25.53371
65.050 26.04376
65.055 25.558924
65.060 24.899521
65.065 24.944759
65.070 25.08235
65.075 24.874205
65.080 24.563047
65.085 24.114796
65.090 23.984655
65.095 24.640972
65.100 25.352844
65.105 25.604546
65.110 26.28265
65.115 26.580767
65.120 26.778564
65.125 26.357603
65.130 26.921835
65.135 26.298916
65.140 25.476538
65.145 24.900831
65.150 24.742983
65.155 24.316015
65.160 24.774357
65.165 24.420353
65.170 24.495285
65.175 24.517977
65.180 24.609409
65.185 25.034161
65.190 25.350292
65.195 25.762516
65.200 25.28545
65.205 24.683517
65.210 24.622858
65.215 24.057638
65.220 24.031992
65.225 23.966846
65.230 23.159918
65.235 22.787203
65.240 23.652451
65.245 24.398727
65.250 24.702929
65.255 24.358486
65.260 24.379957
65.265 24.545641
65.270 24.234581
65.275 23.36784
65.280 22.701704
65.285 22.75992
65.290 22.891796
65.295 23.112421
65.300 23.177633
65.305 23.589756
65.310 23.850752
65.315 23.864685
65.320 23.295704
65.325 23.94482
65.330 24.537413
65.335 24.548897
65.340 24.489534
65.345 24.517408
65.350 24.648224
65.355 24.84304
65.360 24.114119
65.365 23.39031
65.370 23.563076
65.375 23.801411
65.380 24.046192
65.385 24.497898
65.390 24.575569
65.395 24.946177
65.400 25.07725
65.405 25.106955
65.410 25.225277
65.415 25.51388
65.420 25.511349
65.425 25.397812
65.430 25.247049
65.435 25.411198
65.440 26.053782
65.445 26.045319
65.450 25.865793
65.455 25.326635
65.460 24.687048
65.465 24.766125
65.470 24.472103
65.475 23.393843
65.480 23.503143
65.485 23.893906
65.490 24.438354
65.495 25.644066
65.500 26.034601
65.505 26.548754
65.510 27.241402
65.515 27.143023
65.520 26.809746
65.525 26.87068
65.530 26.57498
65.535 26.677835
65.540 27.397697
65.545 27.718643
65.550 27.48177
65.555 27.900263
65.560 28.341734
65.565 28.319595
65.570 27.990074
65.575 27.686686
65.580 28.716885
65.585 29.547499
65.590 30.087942
65.595 30.419657
65.600 31.171104
65.605 31.201469
65.610 31.313128
65.615 30.689241
65.620 31.063925
65.625 31.49888
65.630 31.816423
65.635 31.018673
65.640 31.059889
65.645 31.094196
65.650 31.233896
65.655 30.713661
65.660 30.126383
65.665 29.944624
65.670 30.806742
65.675 31.532349
65.680 31.834148
65.685 32.303104
65.690 32.739201
65.695 33.575737
65.700 34.25787
65.705 34.367683
65.710 34.153294
65.715 34.216591
65.720 34.600315
65.725 34.649075
65.730 35.170094
65.735 35.234123
65.740 35.544189
65.745 35.729465
65.750 36.697681
65.755 36.910912
65.760 36.797657
65.765 36.993374
65.770 36.795689
65.775 36.793991
65.780 37.462559
65.785 37.879025
65.790 37.346569
65.795 36.422962
65.800 35.22591
65.805 35.568409
65.810 35.470119
65.815 34.817841
65.820 34.234974
65.825 34.947914
65.830 36.218399
65.835 36.275604
65.840 36.029358
65.845 36.194679
65.850 36.319626
65.855 36.6432
65.860 36.772743
65.865 37.389111
65.870 37.503754
65.875 37.520473
65.880 37.702972
65.885 37.730286
65.890 37.681145
65.895 38.337109
65.900 38.130894
65.905 38.557407
65.910 38.44754
65.915 38.644878
65.920 39.425053
65.925 39.933296
65.930 39.051079
65.935 39.470058
65.940 38.939697
65.945 38.75819
65.950 38.349827
65.955 38.235729
65.960 38.463856
65.965 38.602634
65.970 38.291565
65.975 38.124599
65.980 38.741291
65.985 39.068924
65.990 39.082161
65.995 39.117977
66.000 39.425125
66.005 39.532829
66.010 40.587364
66.015 40.593102
66.020 40.230526
66.025 39.272949
66.030 38.540314
66.035 38.443832
66.040 37.74926
66.045 36.899982
66.050 37.033707
66.055 37.045204
66.060 37.319691
66.065 38.405148
66.070 38.466034
66.075 39.441639
66.080 40.240379
66.085 40.039017
66.090 39.990486
66.095 39.739204
66.100 38.87603
66.105 39.096203
66.110 38.5853
66.115 37.974247
66.120 37.589005
66.125 37.498695
66.130 37.813435
66.135 37.847969
66.140 37.528084
66.145 38.068584
66.150 38.033726
66.155 38.527462
66.160 38.570992
66.165 38.247875
66.170 37.516167
66.175 36.90308
66.180 36.459274
66.185 36.313049
66.190 35.595123
66.195 34.541634
66.200 34.377052
66.205 34.729752
66.210 34.766113
66.215 34.951149
66.220 34.903759
66.225 35.327976
66.230 35.609043
66.235 35.380066
66.240 35.071178
66.245 35.203091
66.250 34.289711
66.255 34.39249
66.260 34.329994
66.265 34.522915
66.270 34.574852
66.275 33.568665
66.280 33.146294
66.285 34.038548
66.290 33.555935
66.295 33.175274
66.300 32.902576
66.305 32.327682
66.310 32.437054
66.315 32.368557
66.320 32.03381
66.325 32.241066
66.330 31.774441
66.335 31.466255
66.340 32.346069
66.345 32.121479
66.350 31.670572
66.355 31.324053
66.360 31.145519
66.365 31.362654
66.370 31.071768
66.375 30.828377
66.380 31.7948
66.385 31.030685
66.390 29.974833
66.395 29.952341
66.400 30.652903
66.405 31.166945
66.410 30.477505
66.415 29.78442
66.420 30.673109
66.425 31.822826
66.430 31.880743
66.435 30.908312
66.440 29.949005
66.445 28.313175
66.450 27.546045
66.455 27.619179
66.460 27.459063
66.465 27.209177
66.470 27.063051
66.475 27.610872
66.480 28.809168
66.485 28.658232
66.490 27.81168
66.495 27.663664
66.500 27.833351
66.505 28.283745
66.510 28.763
66.515 29.095297
66.520 29.313604
66.525 29.454012
66.530 29.17609
66.535 28.993265
66.540 28.968121
66.545 27.852669
66.550 27.730795
66.555 28.032013
66.560 27.768494
66.565 27.609293
66.570 27.929514
66.575 27.192314
66.580 26.899454
66.585 26.89699
66.590 26.465246
66.595 27.008926
66.600 27.212286
66.605 26.716417
66.610 27.391796
66.615 27.66588
66.620 27.436649
66.625 27.052223
66.630 26.313906
66.635 26.040197
66.640 25.239803
66.645 24.534433
66.650 24.352407
66.655 24.197495
66.660 24.374002
66.665 24.534357
66.670 24.64105
66.675 25.09144
66.680 25.032537
66.685 24.469046
66.690 24.435427
66.695 24.599766
66.700 23.950361
66.705 24.250677
66.710 25.048252
66.715 25.258013
66.720 25.803101
66.725 25.613811
66.730 25.423515
66.735 25.668306
66.740 25.235258
66.745 24.420113
66.750 24.238434
66.755 24.513393
66.760 24.908916
66.765 24.851904
66.770 24.833275
66.775 24.748541
66.780 24.781481
66.785 24.942102
66.790 23.786455
66.795 23.228058
66.800 23.579311
66.805 23.598446
66.810 23.623095
66.815 23.521502
66.820 23.386829
66.825 24.349964
66.830 24.048464
66.835 23.205704
66.840 22.970507
66.845 23.433441
66.850 24.359116
66.855 24.820726
66.860 24.430475
66.865 25.085093
66.870 25.492767
66.875 25.078726
66.880 24.605577
66.885 23.782465
66.890 23.478703
66.895 23.483561
66.900 23.161829
66.905 22.952118
66.910 23.144855
66.915 23.442389
66.920 23.39975
66.925 23.519768
66.930 23.556211
66.935 23.623533
66.940 24.243134
66.945 24.074743
66.950 24.012417
66.955 24.073198
66.960 23.861609
66.965 24.006168
66.970 24.198824
66.975 24.640015
66.980 24.411999
66.985 24.073963
66.990 23.834341
66.995 23.956127
67.000 23.826527
67.005 23.634932
67.010 23.580996
67.015 24.25312
67.020 24.42379
67.025 25.319956
67.030 25.310545
67.035 25.523945
67.040 25.910555
67.045 25.808599
67.050 26.342236
67.055 26.490456
67.060 25.972795
67.065 25.539015
67.070 24.98962
67.075 24.527647
67.080 24.110449
67.085 23.301931
67.090 23.190083
67.095 23.320145
67.100 23.146467
67.105 23.190128
67.110 23.244244
67.115 22.883503
67.120 23.174068
67.125 23.240471
67.130 23.081467
67.135 23.476185
67.140 23.331291
67.145 23.19817
67.150 23.291197
67.155 22.777239
67.160 22.329359
67.165 22.936661
67.170 23.339535
67.175 23.769188
67.180 23.821911
67.185 23.704285
67.190 24.514353
67.195 24.479
67.200 23.654058
67.205 23.233965
67.210 22.696861
67.215 22.992739
67.220 23.258251
67.225 22.203478
67.230 22.026937
67.235 22.614515
67.240 22.545444
67.245 21.864637
67.250 21.180195
67.255 21.081205
67.260 21.437437
67.265 21.9027
67.270 22.081463
67.275 22.490255
67.280 22.987358
67.285 23.07062
67.290 23.546597
67.295 23.625507
67.300 22.673513
67.305 22.345808
67.310 21.745457
67.315 22.35743
67.320 22.465061
67.325 22.066055
67.330 22.608677
67.335 23.502523
67.340 23.491812
67.345 24.403378
67.350 23.709465
67.355 23.601151
67.360 23.405415
67.365 23.204466
67.370 23.055046
67.375 22.753056
67.380 22.326641
67.385 23.102295
67.390 23.651499
67.395 23.159018
67.400 22.75573
67.405 22.286591
67.410 21.814926
67.415 21.387005
67.420 20.175993
67.425 20.000418
67.430 20.47373
67.435 20.97748
67.440 21.231968
67.445 22.019447
67.450 23.051861
67.455 23.442776
67.460 23.471062
67.465 23.163244
67.470 23.291594
67.475 23.323645
67.480 23.069431
67.485 22.599981
67.490 22.603968
67.495 22.511398
67.500 22.312502
67.505 22.180819
67.510 21.934595
67.515 21.392042
67.520 21.162067
67.525 20.701193
67.530 20.071564
67.535 20.19363
67.540 20.510397
67.545 20.845428
67.550 21.223137
67.555 21.78396
67.560 22.372417
67.565 22.885637
67.570 23.348036
67.575 23.48336
67.580 24.088562
67.585 23.708347
67.590 23.775871
67.595 23.54306
67.600 23.559561
67.605 22.701511
67.610 22.235559
67.615 21.818506
67.620 21.734972
67.625 21.192337
67.630 21.24728
67.635 20.987181
67.640 21.329453
67.645 21.130751
67.650 21.025387
67.655 20.844437
67.660 21.32906
67.665 21.222494
67.670 21.519861
67.675 21.655582
67.680 21.460018
67.685 21.563263
67.690 21.999735
67.695 21.498917
67.700 21.642626
67.705 21.622692
67.710 21.268402
67.715 21.586393
67.720 21.402645
67.725 20.838943
67.730 20.768641
67.735 20.833019
67.740 21.231197
67.745 21.346596
67.750 21.364113
67.755 21.134119
67.760 20.968987
67.765 20.825769
67.770 20.259315
67.775 19.884722
67.780 20.421936
67.785 20.552626
67.790 21.191116
67.795 21.462925
67.800 22.08461
67.805 22.336334
67.810 21.992441
67.815 21.479059
67.820 22.011808
67.825 22.124182
67.830 21.967529
67.835 21.720768
67.840 21.924582
67.845 22.146378
67.850 22.341898
67.855 21.973471
67.860 22.383303
67.865 22.142694
67.870 22.154518
67.875 22.15004
67.880 22.283253
67.885 22.186539
67.890 21.815943
67.895 21.352926
67.900 21.828497
67.905 21.221796
67.910 21.050343
67.915 20.794024
67.920 20.637035
67.925 20.576042
67.930 20.421583
67.935 20.661495
67.940 21.305916
67.945 21.67292
67.950 21.442514
67.955 21.420673
67.960 21.965776
67.965 21.741837
67.970 21.826162
67.975 21.941036
67.980 22.2724
67.985 22.526121
67.990 22.301298
67.995 21.829891
68.000 22.009876
68.005 21.506363
68.010 21.422543
68.015 20.784151
68.020 20.723398
68.025 20.610136
68.030 20.72798
68.035 20.859787
68.040 20.77726
68.045 20.922174
68.050 21.677425
68.055 21.616068
68.060 21.977293
68.065 21.857105
68.070 21.674623
68.075 21.363958
68.080 21.015451
68.085 20.600826
68.090 21.145483
68.095 21.787292
68.100 22.0016
68.105 22.424032
68.110 22.210024
68.115 21.521355
68.120 21.201721
68.125 20.839098
68.130 20.804111
68.135 20.588869
68.140 21.334816
68.145 22.338072
68.150 23.48369
68.155 23.769655
68.160 23.916718
68.165 23.837139
68.170 23.608555
68.175 22.830507
68.180 22.360785
68.185 22.087797
68.190 22.035301
68.195 21.352953
68.200 20.878633
68.205 20.960176
68.210 21.229965
68.215 21.43807
68.220 21.316244
68.225 21.477074
68.230 21.422178
68.235 21.42346
68.240 21.346447
68.245 21.295431
68.250 21.008015
68.255 20.813681
68.260 20.650589
68.265 21.040405
68.270 20.788061
68.275 20.803244
68.280 20.055166
68.285 20.186432
68.290 20.144905
68.295 20.130655
68.300 20.2495
68.305 20.837404
68.310 21.260349
68.315 21.524429
68.320 21.253239
68.325 21.015444
68.330 20.99188
68.335 20.780354
68.340 20.325144
68.345 20.238697
68.350 20.415733
68.355 20.918705
68.360 21.42819
68.365 21.354031
68.370 21.650331
68.375 21.496296
68.380 21.445681
68.385 21.506697
68.390 21.32136
68.395 21.382507
68.400 21.635147
68.405 21.245934
68.410 21.503881
68.415 21.881174
68.420 21.706369
68.425 22.548317
68.430 22.771544
68.435 23.458847
68.440 23.54961
68.445 23.473312
68.450 23.650978
68.455 24.372236
68.460 23.303261
68.465 22.949259
68.470 22.731802
68.475 22.788427
68.480 22.421967
68.485 22.311514
68.490 22.298698
68.495 22.353518
68.500 21.965975
68.505 21.987795
68.510 22.743652
68.515 22.86566
68.520 22.559839
68.525 21.945616
68.530 22.426571
68.535 22.680296
68.540 22.608545
68.545 22.440187
68.550 22.410662
68.555 22.07778
68.560 22.47669
68.565 22.524506
68.570 22.201418
68.575 21.888807
68.580 21.454014
68.585 21.8801
68.590 22.050547
68.595 21.936512
68.600 21.593592
68.605 21.762329
68.610 22.164345
68.615 22.483961
68.620 22.529242
68.625 22.607513
68.630 22.810518
68.635 22.928766
68.640 22.37944
68.645 21.916769
68.650 21.802338
68.655 21.215088
68.660 21.221966
68.665 20.990284
68.670 21.273394
68.675 22.080202
68.680 22.149563
68.685 22.297302
68.690 22.606012
68.695 22.736927
68.700 22.714989
68.705 22.486952
68.710 23.25771
68.715 23.829067
68.720 23.816177
68.725 24.087032
68.730 24.574631
68.735 25.224031
68.740 25.207075
68.745 24.444122
68.750 24.444958
68.755 23.993488
68.760 23.379389
68.765 22.744621
68.770 22.650379
68.775 22.893196
68.780 22.226191
68.785 21.405605
68.790 21.632139
68.795 22.287634
68.800 22.202896
68.805 21.670198
68.810 21.58182
68.815 22.210985
68.820 22.549582
68.825 22.458727
68.830 22.407396
68.835 22.83135
68.840 23.30777
68.845 23.552847
68.850 23.523888
68.855 23.881531
68.860 24.552078
68.865 24.413509
68.870 24.734064
68.875 24.613432
68.880 24.70927
68.885 25.067368
68.890 25.03767
68.895 24.964226
68.900 25.229137
68.905 25.03203
68.910 24.972771
68.915 25.410656
68.920 25.669567
68.925 25.257872
68.930 25.331867
68.935 25.485083
68.940 25.404865
68.945 25.58886
68.950 24.497078
68.955 24.535284
68.960 24.530891
68.965 24.551861
68.970 24.751743
68.975 24.425287
68.980 24.548494
68.985 24.687881
68.990 24.828964
68.995 24.678446
69.000 24.5518
69.005 24.225098
69.010 23.712025
69.015 23.380327
69.020 23.500811
69.025 23.538792
69.030 22.955946
69.035 22.757933
69.040 22.724436
69.045 23.703123
69.050 24.380264
69.055 24.650953
69.060 24.69277
69.065 25.175138
69.070 25.522081
69.075 26.265793
69.080 26.282
69.085 26.151226
69.090 26.391479
69.095 27.07552
69.100 27.998991
69.105 27.945681
69.110 27.900843
69.115 27.698786
69.120 27.850208
69.125 27.590286
69.130 27.037106
69.135 26.448124
69.140 26.133625
69.145 25.70175
69.150 25.015692
69.155 24.83231
69.160 24.366974
69.165 24.204288
69.170 24.681116
69.175 25.07238
69.180 25.88113
69.185 26.495579
69.190 27.234507
69.195 28.145815
69.200 28.046591
69.205 28.40222
69.210 28.916759
69.215 29.268799
69.220 28.937418
69.225 28.298603
69.230 27.812082
69.235 27.429897
69.240 26.678596
69.245 26.056847
69.250 25.403107
69.255 25.899712
69.260 25.505709
69.265 25.788305
69.270 26.110466
69.275 26.454767
69.280 27.716703
69.285 28.526543
69.290 28.86212
69.295 29.121223
69.300 29.077581
69.305 29.674515
69.310 29.809828
69.315 29.260138
69.320 29.515585
69.325 29.001413
69.330 28.975687
69.335 29.061523
69.340 28.136934
69.345 27.941881
69.350 28.575697
69.355 28.519714
69.360 29.073689
69.365 28.667868
69.370 28.440041
69.375 28.764811
69.380 28.35178
69.385 27.162323
69.390 26.57826
69.395 25.868933
69.400 26.421032
69.405 27.061798
69.410 28.029037
69.415 28.696978
69.420 29.195127
69.425 29.700151
69.430 30.906992
69.435 30.85375
69.440 30.355444
69.445 29.214012
69.450 29.153032
69.455 29.119528
69.460 28.630388
69.465 28.185127
69.470 28.412493
69.475 28.953072
69.480 29.409451
69.485 29.453964
69.490 29.648827
69.495 30.219505
69.500 30.52066
69.505 30.336676
69.510 30.139944
69.515 29.994713
69.520 29.08736
69.525 28.462793
69.530 28.23893
69.535 28.089691
69.540 28.312897
69.545 28.888983
69.550 29.198492
69.555 29.545673
69.560 30.607756
69.565 30.74946
69.570 30.946226
69.575 30.799742
69.580 29.987762
69.585 29.752733
69.590 29.858114
69.595 29.111788
69.600 29.237648
69.605 29.471199
69.610 29.259041
69.615 29.196728
69.620 29.916731
69.625 30.024326
69.630 29.658045
69.635 29.582813
69.640 29.691568
69.645 29.763634
69.650 29.759724
69.655 29.335133
69.660 30.107756
69.665 30.5518
69.670 30.383711
69.675 30.298521
69.680 30.696951
69.685 31.189051
69.690 31.740818
69.695 31.382452
69.700 31.36404
69.705 31.091595
69.710 29.919661
69.715 29.678259
69.720 29.520571
69.725 29.870354
69.730 29.328281
69.735 29.006702
69.740 28.599047
69.745 28.735533
69.750 28.229214
69.755 27.685404
69.760 26.603651
69.765 26.444403
69.770 26.591003
69.775 26.875107
69.780 27.182154
69.785 26.597309
69.790 26.636818
69.795 26.745964
69.800 27.305494
69.805 27.58079
69.810 27.057117
69.815 27.052017
69.820 27.32905
69.825 26.984514
69.830 26.875858
69.835 26.254446
69.840 26.020214
69.845 25.38002
69.850 24.563643
69.855 24.55525
69.860 24.907902
69.865 24.541925
69.870 24.62747
69.875 24.599768
69.880 25.871229
69.885 26.885504
69.890 27.152191
69.895 26.248249
69.900 25.826839
69.905 25.85523
69.910 25.920147
69.915 25.232687
69.920 24.813335
69.925 24.480455
69.930 25.013222
69.935 25.74888
69.940 25.528694
69.945 25.102148
69.950 25.808308
69.955 25.938148
69.960 25.696783
69.965 25.00246
69.970 24.16478
69.975 23.772396
69.980 23.822048
69.985 23.151243
69.990 22.761389
69.995 22.040688
70.000 21.684387
70.005 21.880772
70.010 22.451763
70.015 22.853819
70.020 22.888342
70.025 23.252264
70.030 23.642502
70.035 23.458485
70.040 23.395655
70.045 22.692568
70.050 21.985071
70.055 21.514854
70.060 21.01162
70.065 20.736006
70.070 21.552538
70.075 21.131561
70.080 21.260324
70.085 21.396095
70.090 21.704321
70.095 22.052099
70.100 21.397581
70.105 21.167694
70.110 21.613657
70.115 22.452204
70.120 22.367834
70.125 22.272076
70.130 21.961628
70.135 23.000858
70.140 23.691813
70.145 23.780861
70.150 22.634789
70.155 22.509094
70.160 22.733133
70.165 23.398808
70.170 23.087954
70.175 22.082706
70.180 22.152891
70.185 22.295496
70.190 22.65901
70.195 22.648754
70.200 21.862061
70.205 22.297392
70.210 21.953453
70.215 21.053644
70.220 21.183092
70.225 20.592739
70.230 20.558586
70.235 20.663219
70.240 19.718172
70.245 19.644955
70.250 19.919958
70.255 20.01285
70.260 19.86095
70.265 19.798197
70.270 19.750248
70.275 19.743641
70.280 20.235518
70.285 20.236492
70.290 20.23032
70.295 21.125084
70.300 21.057741
70.305 21.482725
70.310 21.987713
70.315 22.688456
70.320 22.734814
70.325 22.126398
70.330 21.493927
70.335 21.463444
70.340 20.992243
70.345 20.579357
70.350 20.242554
70.355 20.457035
70.360 20.694567
70.365 20.910765
70.370 21.122953
70.375 21.281223
70.380 21.494663
70.385 21.524641
70.390 21.127115
70.395 21.378241
70.400 20.969105
70.405 21.270056
70.410 21.28178
70.415 20.451756
70.420 20.326387
70.425 20.557995
70.430 20.164282
70.435 19.858303
70.440 19.150537
70.445 18.200045
70.450 18.255142
70.455 17.895021
70.460 17.592018
70.465 17.973927
70.470 18.358343
70.475 18.981018
70.480 20.336489
70.485 20.417358
70.490 20.497597
70.495 20.522514
70.500 20.808693
70.505 20.74337
70.510 20.936562
70.515 21.232485
70.520 21.651249
70.525 21.761518
70.530 21.632296
70.535 21.918108
70.540 21.915281
70.545 21.084644
70.550 20.809326
70.555 20.826117
70.560 20.994501
70.565 20.978956
70.570 20.978903
70.575 20.611979
70.580 20.100615
70.585 19.990942
70.590 20.012814
70.595 19.987619
70.600 19.537807
70.605 19.497663
70.610 19.897573
70.615 20.500483
70.620 20.584324
70.625 21.107916
70.630 21.47707
70.635 21.588089
70.640 21.766342
70.645 21.2253
70.650 20.928846
70.655 20.469255
70.660 20.079079
70.665 19.834049
70.670 19.533852
70.675 19.359566
70.680 20.462715
70.685 21.090462
70.690 21.179913
70.695 21.993
70.700 21.844368
70.705 21.94549
70.710 21.513357
70.715 21.046381
70.720 20.561567
70.725 20.568981
70.730 20.422525
70.735 20.471073
70.740 20.192974
70.745 20.180326
70.750 20.146181
70.755 20.212822
70.760 20.06229
70.765 19.43284
70.770 19.661524
70.775 19.610916
70.780 19.631968
70.785 19.079054
70.790 18.987766
70.795 18.954351
70.800 19.914492
70.805 19.878036
70.810 19.884809
70.815 20.034113
70.820 20.803394
70.825 21.097523
70.830 20.736776
70.835 20.072699
70.840 20.603834
70.845 21.108418
70.850 21.372162
70.855 20.802462
70.860 20.97439
70.865 21.208536
70.870 21.374475
70.875 21.188711
70.880 21.252773
70.885 21.151531
70.890 21.32325
70.895 20.773754
70.900 20.529539
70.905 20.155518
70.910 19.809624
70.915 19.737553
70.920 19.245356
70.925 19.1758
70.930 18.847509
70.935 19.261402
70.940 19.944822
70.945 19.714939
70.950 19.170473
70.955 19.237894
70.960 18.935526
70.965 19.133444
70.970 18.640219
70.975 18.355429
70.980 18.75934
70.985 19.420971
70.990 19.737585
70.995 19.147024
71.000 18.320435
71.005 18.08745
71.010 17.862875
71.015 17.71052
71.020 17.40975
71.025 18.374292
71.030 19.483957
71.035 20.223448
71.040 20.736151
71.045 20.998537
71.050 21.0858
71.055 20.377781
71.060 19.426218
71.065 19.047007
71.070 18.621935
71.075 18.39192
71.080 19.010023
71.085 19.147413
71.090 19.403585
71.095 19.502239
71.100 19.553583
71.105 19.537437
71.110 19.423859
71.115 18.545971
71.120 18.355829
71.125 18.184504
71.130 18.003553
71.135 18.428463
71.140 19.017914
71.145 19.277388
71.150 19.497515
71.155 19.876684
71.160 20.176603
71.165 20.203297
71.170 20.325081
71.175 19.593239
71.180 19.479351
71.185 19.626867
71.190 19.939196
71.195 19.98933
71.200 20.010853
71.205 20.102367
71.210 20.242702
71.215 19.989243
71.220 19.60116
71.225 19.308622
71.230 19.409666
71.235 18.943508
71.240 18.697224
71.245 18.966188
71.250 19.079271
71.255 19.083878
71.260 18.875134
71.265 19.148766
71.270 19.379498
71.275 19.46056
71.280 19.589218
71.285 20.034391
71.290 20.282619
71.295 20.591635
71.300 20.150709
71.305 20.13748
71.310 19.87513
71.315 19.323166
71.320 18.885193
71.325 18.303555
71.330 18.068941
71.335 17.861759
71.340 17.770594
71.345 18.424232
71.350 19.005505
71.355 19.37438
71.360 19.343781
71.365 19.486713
71.370 19.808628
71.375 19.813086
71.380 19.469194
71.385 19.362551
71.390 19.043634
71.395 19.183744
71.400 19.19825
71.405 19.570276
71.410 19.809196
71.415 19.814882
71.420 19.493551
71.425 19.570017
71.430 19.725811
71.435 19.634447
71.440 19.478392
71.445 19.247253
71.450 18.746878
71.455 18.636885
71.460 19.10622
71.465 19.070986
71.470 19.33411
71.475 18.889183
71.480 19.106838
71.485 19.85895
71.490 19.474424
71.495 19.250715
71.500 18.829029
71.505 17.962694
71.510 17.957539
71.515 17.319454
71.520 16.757198
71.525 17.173721
71.530 17.632988
71.535 18.012915
71.540 18.352613
71.545 19.133596
71.550 19.840656
71.555 20.370859
71.560 19.979151
71.565 19.514645
71.570 20.008133
71.575 19.840616
71.580 19.498232
71.585 19.430422
71.590 19.172331
71.595 19.260492
71.600 19.375887
71.605 19.481497
71.610 19.569185
71.615 19.449253
71.620 18.975492
71.625 19.096781
71.630 19.359898
71.635 19.251797
71.640 18.738922
71.645 19.057398
71.650 19.199627
71.655 18.907425
71.660 18.933352
71.665 18.601091
71.670 18.106478
71.675 18.420706
71.680 18.350552
71.685 18.54921
71.690 19.069218
71.695 19.339705
71.700 19.557123
71.705 19.787823
71.710 19.729769
71.715 19.893291
71.720 20.252596
71.725 19.844376
71.730 19.497391
71.735 19.212675
71.740 18.766653
71.745 18.41062
71.750 17.94874
71.755 17.863304
71.760 18.147989
71.765 18.953955
71.770 19.172403
71.775 19.219086
71.780 18.950474
71.785 19.084702
71.790 19.459703
71.795 19.557304
71.800 19.485533
71.805 19.512108
71.810 19.438625
71.815 19.377815
71.820 18.926357
71.825 17.915264
71.830 17.50872
71.835 17.044909
71.840 17.111942
71.845 17.443148
71.850 18.073942
71.855 18.338923
71.860 18.151455
71.865 18.285109
71.870 18.167658
71.875 18.218056
71.880 17.932756
71.885 17.399971
71.890 17.698959
71.895 18.320826
71.900 18.116447
71.905 18.640434
71.910 18.214819
71.915 17.939314
71.920 17.99721
71.925 18.116226
71.930 17.921698
71.935 17.85524
71.940 17.620029
71.945 18.24988
71.950 19.143824
71.955 19.265366
71.960 19.109627
71.965 19.18136
71.970 19.148031
71.975 19.329994
71.980 18.897919
71.985 18.869093
71.990 19.109032
71.995 19.514906
72.000 19.806217
72.005 19.556034
72.010 19.75231
72.015 19.622784
72.020 19.299562
72.025 19.476772
72.030 18.882721
72.035 18.997713
72.040 19.43067
72.045 19.864754
72.050 19.839888
72.055 19.399029
72.060 19.052143
72.065 19.427649
72.070 19.325497
72.075 19.058649
72.080 18.866228
72.085 19.204996
72.090 19.212748
72.095 18.828209
72.100 18.591993
72.105 18.537157
72.110 18.77058
72.115 19.250896
72.120 19.187893
72.125 19.377754
72.130 19.407972
72.135 19.476593
72.140 19.575689
72.145 18.997202
72.150 19.146107
72.155 19.965014
72.160 20.661333
72.165 20.963865
72.170 20.359379
72.175 20.279554
72.180 19.617413
72.185 18.769053
72.190 18.535984
72.195 18.326725
72.200 18.356482
72.205 18.851561
72.210 18.600941
72.215 19.048563
72.220 18.85265
72.225 18.641603
72.230 18.291632
72.235 18.731764
72.240 19.393789
72.245 19.495977
72.250 19.827906
72.255 19.820398
72.260 19.9736
72.265 19.778337
72.270 19.000891
72.275 18.390209
72.280 18.255276
72.285 17.60037
72.290 17.428465
72.295 18.053022
72.300 18.785933
72.305 18.96101
72.310 19.541338
72.315 20.608076
72.320 21.466871
72.325 20.869606
72.330 20.325279
72.335 19.956032
72.340 20.045208
72.345 19.473352
72.350 18.626972
72.355 18.029022
72.360 18.187834
72.365 18.366899
72.370 18.119022
72.375 17.954882
72.380 18.162403
72.385 18.45779
72.390 18.614359
72.395 18.629524
72.400 18.54903
72.405 18.898258
72.410 19.324913
72.415 19.326645
72.420 19.674414
72.425 19.514124
72.430 19.41214
72.435 19.684099
72.440 19.258377
72.445 18.940535
72.450 19.285295
72.455 19.251511
72.460 19.366417
72.465 19.050041
72.470 19.327242
72.475 19.660721
72.480 19.633667
72.485 19.769377
72.490 19.869108
72.495 19.797651
72.500 19.620413
72.505 19.380985
72.510 18.968006
72.515 18.548492
72.520 18.109755
72.525 17.478073
72.530 17.574757
72.535 17.728924
72.540 18.225727
72.545 18.182362
72.550 17.865999
72.555 18.020554
72.560 18.59667
72.565 18.827097
72.570 18.263203
72.575 17.649216
72.580 18.530016
72.585 19.218987
72.590 19.526644
72.595 18.815439
72.600 18.843906
72.605 19.286184
72.610 19.370813
72.615 19.039865
72.620 18.354694
72.625 18.247492
72.630 17.943308
72.635 18.366213
72.640 18.118055
72.645 17.852201
72.650 17.420441
72.655 17.487173
72.660 17.168615
72.665 17.241558
72.670 17.084097
72.675 17.295559
72.680 17.208796
72.685 17.521036
72.690 17.382084
72.695 17.683155
72.700 17.899916
72.705 17.707714
72.710 17.99786
72.715 17.560644
72.720 17.151863
72.725 17.418941
72.730 17.376268
72.735 17.129213
72.740 17.418268
72.745 17.466513
72.750 17.916336
72.755 17.811487
72.760 17.644262
72.765 17.807152
72.770 17.579044
72.775 17.516901
72.780 17.340031
72.785 17.777664
72.790 18.658556
72.795 19.211487
72.800 18.832611
72.805 18.586704
72.810 18.374004
72.815 18.258327
72.820 17.972116
72.825 17.316023
72.830 17.038971
72.835 16.804956
72.840 17.183651
72.845 17.255087
72.850 17.029764
72.855 16.608416
72.860 17.072876
72.865 17.510489
72.870 17.767462
72.875 17.351555
72.880 17.408926
72.885 17.754673
72.890 17.87649
72.895 17.044727
72.900 17.009073
72.905 17.698296
72.910 17.600622
72.915 17.434788
72.920 17.904776
72.925 17.518246
72.930 17.801243
72.935 17.37356
72.940 17.162786
72.945 17.457621
72.950 17.24728
72.955 17.365246
72.960 18.358519
72.965 18.423349
72.970 18.449392
72.975 18.905205
72.980 18.729862
72.985 18.837488
72.990 18.488129
72.995 18.494034
73.000 18.515806
