!@!!GADDS PLOTSO FILE: Chi integration type
!@!!Title/SampleName: map-108
!@!!Comment: ?
!@!!User: Bruker Instrument Administrator
!@!!Site: University of Illinois Chicago
!@!!Frame: map-108_01_000.gfrm
!@!!Wavelengths    1.54184   1.54056   1.54439
!@!!Frame angles: 2Theta: 63.000 Omega: 50.000 Phi: 0.000 Chi: 90.000
!@!!Integration range: 2Theta: 53.000 to 73.000  Gamma: -105.000 to -75.000
!@!!Integration method: bin normalized
!@!N
!@!SS
!@!M
!@!L 0.0 0.0 0.0 0.0
!@!XDegrees
!@!YCounts
53.000 8.52187
53.005 8.32578
53.010 8.522912
53.015 8.28697
53.020 8.533546
53.025 9.123583
53.030 9.079189
53.035 9.334515
53.040 9.445283
53.045 9.281397
53.050 9.427494
53.055 8.747052
53.060 8.360306
53.065 8.054268
53.070 7.595378
53.075 7.594502
53.080 7.67157
53.085 8.040774
53.090 8.320536
53.095 8.449575
53.100 8.847988
53.105 9.325325
53.110 9.791757
53.115 9.898192
53.120 9.647961
53.125 9.39233
53.130 9.038355
53.135 8.838389
53.140 8.586712
53.145 7.79132
53.150 7.710025
53.155 7.742336
53.160 8.192164
53.165 8.31322
53.170 8.251413
53.175 8.577275
53.180 8.951575
53.185 9.249032
53.190 9.248551
53.195 9.087721
53.200 9.352686
53.205 9.446798
53.210 9.391258
53.215 9.770334
53.220 10.287073
53.225 10.312693
53.230 10.463777
53.235 10.495365
53.240 10.586634
53.245 10.360007
53.250 9.711216
53.255 9.465656
53.260 9.642696
53.265 9.409986
53.270 9.292681
53.275 9.636985
53.280 9.706393
53.285 9.430796
53.290 9.201733
53.295 9.284685
53.300 9.482734
53.305 9.380812
53.310 9.299453
53.315 9.276769
53.320 8.927108
53.325 8.814722
53.330 8.531798
53.335 8.974351
53.340 8.511039
53.345 8.341969
53.350 8.701197
53.355 9.371418
53.360 9.769551
53.365 10.113406
53.370 10.254763
53.375 10.3001
53.380 10.133542
53.385 9.614657
53.390 9.552917
53.395 9.527235
53.400 9.136622
53.405 9.391149
53.410 9.653434
53.415 9.788962
53.420 9.579352
53.425 9.592819
53.430 9.696595
53.435 9.417475
53.440 9.300449
53.445 9.340214
53.450 9.967544
53.455 10.762929
53.460 10.375316
53.465 10.302125
53.470 10.473924
53.475 10.744111
53.480 10.627205
53.485 10.893172
53.490 10.605573
53.495 10.786158
53.500 10.542396
53.505 10.410463
53.510 10.116979
53.515 9.840574
53.520 9.492392
53.525 9.626786
53.530 9.527139
53.535 9.97491
53.540 10.256846
53.545 10.082231
53.550 10.317974
53.555 10.156019
53.560 10.171928
53.565 10.466646
53.570 9.981135
53.575 9.926643
53.580 9.971447
53.585 9.421646
53.590 9.521462
53.595 9.477525
53.600 8.975771
53.605 8.859784
53.610 8.287576
53.615 8.411838
53.620 8.429454
53.625 8.535897
53.630 8.556731
53.635 8.761292
53.640 8.824661
53.645 9.550319
53.650 10.054944
53.655 10.208327
53.660 10.31576
53.665 10.276733
53.670 10.280853
53.675 10.357828
53.680 9.917375
53.685 9.804335
53.690 9.573846
53.695 9.291438
53.700 9.601181
53.705 9.70009
53.710 9.757409
53.715 9.661918
53.720 9.354544
53.725 9.605589
53.730 10.180983
53.735 10.255459
53.740 10.403462
53.745 10.233036
53.750 10.401192
53.755 10.359628
53.760 10.331621
53.765 9.678839
53.770 9.387075
53.775 9.435478
53.780 9.812484
53.785 9.62524
53.790 9.92387
53.795 9.888008
53.800 10.120857
53.805 10.357347
53.810 10.009863
53.815 9.798446
53.820 9.855792
53.825 10.045157
53.830 10.08751
53.835 10.293765
53.840 10.147159
53.845 10.289926
53.850 10.195422
53.855 10.070539
53.860 9.603008
53.865 9.758684
53.870 9.721954
53.875 9.859454
53.880 10.259047
53.885 10.484982
53.890 11.148017
53.895 11.184982
53.900 10.487469
53.905 10.089005
53.910 10.109463
53.915 9.905158
53.920 9.785912
53.925 9.512664
53.930 9.578835
53.935 10.056179
53.940 10.642727
53.945 10.603988
53.950 10.351424
53.955 10.763278
53.960 11.114615
53.965 11.360774
53.970 11.094624
53.975 10.791533
53.980 11.188381
53.985 11.688733
53.990 11.310587
53.995 11.44437
54.000 11.209424
54.005 11.619982
54.010 11.667315
54.015 11.314793
54.020 10.777939
54.025 10.882162
54.030 10.695099
54.035 11.098948
54.040 11.059689
54.045 10.887619
54.050 11.108734
54.055 11.071656
54.060 11.236064
54.065 11.314418
54.070 10.578301
54.075 10.771338
54.080 10.910527
54.085 11.021693
54.090 10.732333
54.095 10.217624
54.100 10.278378
54.105 10.561504
54.110 10.291548
54.115 10.54944
54.120 10.68249
54.125 11.0166
54.130 11.041183
54.135 11.27449
54.140 10.843496
54.145 10.567383
54.150 9.988508
54.155 10.109226
54.160 10.501448
54.165 10.70308
54.170 10.39438
54.175 10.594443
54.180 10.448481
54.185 10.1574
54.190 9.819452
54.195 9.239264
54.200 9.33788
54.205 9.562441
54.210 9.804128
54.215 9.815826
54.220 9.990869
54.225 10.079139
54.230 9.992728
54.235 9.574142
54.240 9.529493
54.245 9.632992
54.250 10.270389
54.255 10.36454
54.260 10.118625
54.265 10.287356
54.270 10.689763
54.275 10.54418
54.280 10.362579
54.285 10.501342
54.290 11.031281
54.295 10.93904
54.300 10.479584
54.305 10.371841
54.310 10.248806
54.315 10.104061
54.320 9.885243
54.325 9.774614
54.330 9.959726
54.335 10.545858
54.340 11.179364
54.345 11.650504
54.350 11.780516
54.355 12.024053
54.360 11.786388
54.365 11.637757
54.370 10.889136
54.375 10.378254
54.380 10.417695
54.385 9.81866
54.390 9.365088
54.395 9.553026
54.400 9.982443
54.405 10.393478
54.410 10.236198
54.415 10.300619
54.420 10.668102
54.425 11.17485
54.430 11.216434
54.435 11.240816
54.440 11.366441
54.445 11.141806
54.450 11.188228
54.455 11.284843
54.460 11.293361
54.465 11.027802
54.470 10.818686
54.475 10.543274
54.480 10.612096
54.485 10.495029
54.490 10.565922
54.495 10.449441
54.500 10.861421
54.505 11.237534
54.510 12.251455
54.515 12.630255
54.520 12.800808
54.525 12.895178
54.530 12.930904
54.535 12.784022
54.540 12.065948
54.545 11.473119
54.550 11.355849
54.555 10.97907
54.560 10.906895
54.565 10.682652
54.570 10.678595
54.575 10.692394
54.580 10.407103
54.585 10.396586
54.590 10.385832
54.595 10.005101
54.600 10.102637
54.605 10.515477
54.610 11.252861
54.615 11.686695
54.620 11.675946
54.625 11.482549
54.630 11.686452
54.635 11.957135
54.640 11.606017
54.645 10.966044
54.650 10.567204
54.655 10.865601
54.660 11.281466
54.665 10.984025
54.670 10.08086
54.675 9.548554
54.680 9.76126
54.685 10.061621
54.690 10.027966
54.695 10.245732
54.700 10.544631
54.705 11.319746
54.710 12.097546
54.715 12.043309
54.720 11.939532
54.725 11.627108
54.730 11.709994
54.735 12.049028
54.740 12.105483
54.745 11.631905
54.750 11.619891
54.755 11.736406
54.760 11.573077
54.765 11.68459
54.770 11.70849
54.775 11.413333
54.780 11.58756
54.785 11.003431
54.790 10.917492
54.795 10.971172
54.800 10.67405
54.805 10.348126
54.810 10.477847
54.815 10.459995
54.820 11.18807
54.825 11.429997
54.830 11.223135
54.835 11.064321
54.840 11.132176
54.845 11.019385
54.850 11.068616
54.855 10.798446
54.860 10.795614
54.865 10.681496
54.870 10.631128
54.875 11.159081
54.880 11.414323
54.885 11.051294
54.890 10.812128
54.895 11.132998
54.900 11.497747
54.905 11.431252
54.910 10.971832
54.915 11.304026
54.920 11.614223
54.925 11.670131
54.930 11.607691
54.935 11.608277
54.940 11.592495
54.945 11.432959
54.950 11.468523
54.955 11.691712
54.960 11.839805
54.965 11.643594
54.970 11.585883
54.975 11.817196
54.980 11.765908
54.985 11.571938
54.990 11.254761
54.995 11.573511
55.000 12.029725
55.005 12.683501
55.010 12.656275
55.015 13.250134
55.020 13.28567
55.025 13.194639
55.030 12.370196
55.035 11.625771
55.040 11.471671
55.045 11.200727
55.050 10.873275
55.055 10.842504
55.060 10.645439
55.065 11.247151
55.070 11.736216
55.075 11.613243
55.080 11.570778
55.085 11.514655
55.090 11.991044
55.095 12.594019
55.100 12.23527
55.105 11.774405
55.110 11.855033
55.115 11.956215
55.120 12.196272
55.125 12.205273
55.130 12.104622
55.135 12.224543
55.140 12.078607
55.145 12.016968
55.150 11.955979
55.155 11.510188
55.160 11.362993
55.165 11.46166
55.170 12.181619
55.175 12.821461
55.180 13.06676
55.185 13.387774
55.190 13.50526
55.195 12.979565
55.200 12.258965
55.205 11.600006
55.210 11.069553
55.215 10.930567
55.220 10.858599
55.225 10.520236
55.230 10.93351
55.235 11.385273
55.240 11.222136
55.245 11.195236
55.250 11.07157
55.255 11.243324
55.260 11.652922
55.265 11.339629
55.270 11.440539
55.275 11.814254
55.280 11.807168
55.285 11.480187
55.290 11.321333
55.295 11.208094
55.300 11.527738
55.305 11.450528
55.310 11.324376
55.315 11.283427
55.320 11.537798
55.325 12.040374
55.330 12.178182
55.335 11.951133
55.340 11.654652
55.345 11.652495
55.350 11.796883
55.355 11.353402
55.360 10.755387
55.365 10.688857
55.370 10.356934
55.375 10.450809
55.380 10.878215
55.385 10.831228
55.390 10.631669
55.395 11.190439
55.400 11.42579
55.405 11.510923
55.410 11.476904
55.415 11.033974
55.420 10.965441
55.425 11.66471
55.430 11.648486
55.435 11.996318
55.440 12.18527
55.445 11.989354
55.450 12.279462
55.455 12.64635
55.460 12.138436
55.465 11.888252
55.470 11.70368
55.475 12.106121
55.480 12.528139
55.485 13.05074
55.490 13.705232
55.495 13.539413
55.500 12.976575
55.505 13.101097
55.510 13.161554
55.515 12.860648
55.520 11.83857
55.525 11.032148
55.530 11.097005
55.535 11.376079
55.540 11.473797
55.545 11.227293
55.550 11.323975
55.555 12.155751
55.560 12.699011
55.565 13.217267
55.570 13.02829
55.575 12.573011
55.580 13.038024
55.585 12.855269
55.590 12.116772
55.595 11.366514
55.600 10.911075
55.605 10.647273
55.610 10.385099
55.615 10.041599
55.620 9.980839
55.625 10.155918
55.630 10.384954
55.635 10.273332
55.640 10.449153
55.645 10.95889
55.650 11.182613
55.655 11.33968
55.660 11.390159
55.665 11.349975
55.670 11.819452
55.675 12.020203
55.680 11.5136
55.685 11.10867
55.690 11.131839
55.695 11.104792
55.700 11.671595
55.705 11.253434
55.710 11.193304
55.715 11.407248
55.720 12.068362
55.725 12.061039
55.730 12.165001
55.735 11.95406
55.740 12.590878
55.745 12.66808
55.750 12.731744
55.755 12.912994
55.760 13.213412
55.765 13.772396
55.770 13.274069
55.775 12.737016
55.780 12.624263
55.785 12.753358
55.790 12.185019
55.795 12.229901
55.800 11.814379
55.805 11.787668
55.810 12.115691
55.815 12.416009
55.820 12.156041
55.825 11.937709
55.830 11.399183
55.835 11.847104
55.840 12.356472
55.845 12.05503
55.850 12.202314
55.855 12.328709
55.860 12.373547
55.865 12.487118
55.870 12.056189
55.875 11.524369
55.880 11.380713
55.885 11.092961
55.890 10.845823
55.895 11.33835
55.900 11.572372
55.905 11.693339
55.910 11.869957
55.915 12.535976
55.920 12.963088
55.925 13.396211
55.930 13.304729
55.935 13.228452
55.940 13.238734
55.945 12.903335
55.950 12.311358
55.955 11.640954
55.960 11.271259
55.965 10.895391
55.970 10.81452
55.975 10.645028
55.980 10.839224
55.985 10.910749
55.990 11.223624
55.995 11.50919
56.000 11.958567
56.005 12.337313
56.010 12.851896
56.015 13.29078
56.020 13.65411
56.025 13.612821
56.030 13.077054
56.035 13.045165
56.040 12.737783
56.045 12.18217
56.050 11.746481
56.055 11.633193
56.060 11.383235
56.065 11.443994
56.070 10.791437
56.075 10.921427
56.080 11.267432
56.085 11.187844
56.090 11.768981
56.095 12.378365
56.100 12.420467
56.105 12.793618
56.110 12.627131
56.115 12.383589
56.120 11.700649
56.125 10.872147
56.130 10.722963
56.135 10.861732
56.140 11.035666
56.145 11.65169
56.150 12.216425
56.155 12.820427
56.160 12.819231
56.165 12.805247
56.170 12.489338
56.175 12.225479
56.180 11.668219
56.185 11.739506
56.190 11.654237
56.195 11.741252
56.200 12.259563
56.205 12.190714
56.210 12.432254
56.215 12.853889
56.220 12.681692
56.225 12.808706
56.230 13.672072
56.235 13.895881
56.240 14.092074
56.245 14.049426
56.250 13.692167
56.255 14.429359
56.260 14.521347
56.265 13.479684
56.270 12.647799
56.275 12.543821
56.280 11.914176
56.285 11.332799
56.290 11.039948
56.295 11.4251
56.300 11.306698
56.305 11.942222
56.310 12.188557
56.315 12.73257
56.320 13.464103
56.325 12.642804
56.330 12.42778
56.335 12.840823
56.340 12.91221
56.345 12.832785
56.350 11.883783
56.355 11.711428
56.360 11.833188
56.365 11.730909
56.370 11.288214
56.375 11.14921
56.380 11.101997
56.385 11.57918
56.390 11.176455
56.395 11.121067
56.400 11.070335
56.405 11.001331
56.410 10.929132
56.415 11.647499
56.420 12.224919
56.425 12.855518
56.430 13.477179
56.435 13.938019
56.440 14.217942
56.445 14.419881
56.450 14.309731
56.455 14.460917
56.460 14.170716
56.465 13.833894
56.470 13.809376
56.475 13.865009
56.480 14.037468
56.485 13.940772
56.490 14.337104
56.495 14.282317
56.500 14.118056
56.505 13.969151
56.510 13.711581
56.515 13.987464
56.520 14.166522
56.525 13.863442
56.530 14.230212
56.535 14.122218
56.540 14.17435
56.545 13.793127
56.550 13.05616
56.555 12.710325
56.560 12.297944
56.565 11.873234
56.570 11.651078
56.575 11.307558
56.580 11.879164
56.585 11.921318
56.590 12.164282
56.595 13.23827
56.600 13.707911
56.605 13.836345
56.610 14.118484
56.615 14.371782
56.620 14.828451
56.625 14.719944
56.630 13.701067
56.635 13.283158
56.640 13.823394
56.645 14.00869
56.650 13.427118
56.655 12.331091
56.660 12.543966
56.665 13.271687
56.670 13.023733
56.675 12.151227
56.680 11.958991
56.685 12.697666
56.690 13.242366
56.695 12.377145
56.700 12.463508
56.705 13.228101
56.710 13.962325
56.715 13.503017
56.720 12.842502
56.725 13.267819
56.730 13.940263
56.735 13.598242
56.740 13.197951
56.745 12.775952
56.750 13.080673
56.755 13.599692
56.760 13.559643
56.765 13.243084
56.770 13.214077
56.775 13.249808
56.780 13.489122
56.785 13.524073
56.790 13.513575
56.795 12.991162
56.800 13.025431
56.805 13.581635
56.810 13.885729
56.815 13.806881
56.820 13.796438
56.825 13.76231
56.830 14.198491
56.835 13.668745
56.840 13.224114
56.845 12.66719
56.850 12.275763
56.855 11.898183
56.860 11.671092
56.865 11.882101
56.870 12.183642
56.875 12.213198
56.880 12.327214
56.885 12.551335
56.890 12.946346
56.895 13.580579
56.900 13.898869
56.905 14.25267
56.910 14.348146
56.915 14.641242
56.920 14.904939
56.925 14.678404
56.930 14.118372
56.935 14.137433
56.940 14.522407
56.945 15.091983
56.950 15.099875
56.955 15.060639
56.960 15.22765
56.965 15.814661
56.970 15.425205
56.975 14.714588
56.980 14.175746
56.985 14.491205
56.990 14.768653
56.995 14.500422
57.000 14.071343
57.005 13.464297
57.010 13.950919
57.015 14.25082
57.020 14.103179
57.025 13.814616
57.030 13.621319
57.035 13.8159
57.040 14.258336
57.045 13.844281
57.050 13.437209
57.055 13.445497
57.060 13.236911
57.065 13.502486
57.070 14.081523
57.075 14.319043
57.080 14.841169
57.085 14.633047
57.090 14.142882
57.095 14.53674
57.100 14.021598
57.105 13.335903
57.110 12.958754
57.115 12.931188
57.120 13.151784
57.125 13.26277
57.130 13.118075
57.135 13.5977
57.140 13.329762
57.145 13.157364
57.150 13.078208
57.155 12.951958
57.160 12.951067
57.165 12.837044
57.170 12.65276
57.175 12.971721
57.180 13.281656
57.185 13.211154
57.190 13.36524
57.195 13.690119
57.200 13.676412
57.205 13.46238
57.210 13.77722
57.215 13.506933
57.220 12.936721
57.225 13.259567
57.230 13.140306
57.235 13.564149
57.240 13.794599
57.245 13.711543
57.250 13.981554
57.255 14.518602
57.260 14.7719
57.265 14.875576
57.270 15.04953
57.275 14.870727
57.280 14.681312
57.285 14.921253
57.290 14.890587
57.295 14.563277
57.300 14.191607
57.305 14.511284
57.310 14.98879
57.315 15.195267
57.320 15.283922
57.325 15.208927
57.330 15.290194
57.335 15.434649
57.340 14.259101
57.345 13.949739
57.350 13.757314
57.355 13.949474
57.360 14.404459
57.365 14.111028
57.370 14.129148
57.375 14.492911
57.380 14.632368
57.385 14.62507
57.390 14.199602
57.395 14.040582
57.400 14.431977
57.405 14.525801
57.410 14.585402
57.415 14.333723
57.420 14.577852
57.425 14.174341
57.430 13.761132
57.435 13.336164
57.440 13.152639
57.445 13.425629
57.450 13.511058
57.455 12.923521
57.460 12.960581
57.465 13.164553
57.470 13.482909
57.475 13.854295
57.480 13.821848
57.485 14.253867
57.490 14.373355
57.495 14.791631
57.500 15.089244
57.505 15.116459
57.510 15.088996
57.515 14.922481
57.520 14.650355
57.525 14.94746
57.530 14.581733
57.535 14.324263
57.540 14.059284
57.545 13.446391
57.550 13.040312
57.555 13.679609
57.560 13.722265
57.565 13.863613
57.570 14.161893
57.575 14.628713
57.580 15.08845
57.585 14.915116
57.590 14.231388
57.595 13.990824
57.600 13.917021
57.605 13.919949
57.610 13.795701
57.615 13.550711
57.620 13.683651
57.625 13.612271
57.630 13.431073
57.635 13.132022
57.640 12.84391
57.645 12.982465
57.650 12.99745
57.655 13.053596
57.660 12.867062
57.665 13.203771
57.670 13.364025
57.675 13.298078
57.680 13.292386
57.685 13.406722
57.690 13.382564
57.695 14.278872
57.700 13.826204
57.705 14.298247
57.710 14.609619
57.715 14.654022
57.720 14.5748
57.725 14.749139
57.730 15.019876
57.735 15.324904
57.740 14.545674
57.745 14.295292
57.750 14.176877
57.755 14.190861
57.760 14.312235
57.765 13.89258
57.770 13.644704
57.775 13.461242
57.780 13.709876
57.785 13.824265
57.790 13.8571
57.795 13.406275
57.800 13.047722
57.805 13.344686
57.810 13.619679
57.815 14.007677
57.820 14.108216
57.825 13.869519
57.830 14.096798
57.835 14.769469
57.840 14.816602
57.845 14.380551
57.850 13.968568
57.855 14.064846
57.860 14.208917
57.865 14.174751
57.870 13.864661
57.875 13.977503
57.880 14.160481
57.885 13.651006
57.890 13.179885
57.895 13.486929
57.900 13.73181
57.905 13.940118
57.910 13.575427
57.915 13.708194
57.920 14.423349
57.925 14.878234
57.930 14.550783
57.935 14.28338
57.940 14.582232
57.945 15.293274
57.950 15.539354
57.955 15.729017
57.960 16.13591
57.965 16.070833
57.970 16.090204
57.975 15.681162
57.980 15.328697
57.985 15.101438
57.990 14.310897
57.995 13.952504
58.000 14.187631
58.005 14.387651
58.010 14.74534
58.015 14.923589
58.020 14.718291
58.025 14.661551
58.030 14.667624
58.035 14.292981
58.040 14.04542
58.045 13.698269
58.050 13.619068
58.055 13.805798
58.060 14.398671
58.065 14.535399
58.070 15.081906
58.075 15.259214
58.080 15.091647
58.085 15.050521
58.090 15.319993
58.095 14.991527
58.100 14.980682
58.105 14.828333
58.110 15.121718
58.115 15.879589
58.120 15.903132
58.125 15.637836
58.130 15.73753
58.135 15.584718
58.140 15.425046
58.145 15.287468
58.150 14.729821
58.155 14.434125
58.160 14.51762
58.165 14.437988
58.170 14.634233
58.175 14.874878
58.180 15.047812
58.185 15.193359
58.190 15.088894
58.195 14.920244
58.200 14.985904
58.205 14.514752
58.210 14.821782
58.215 14.648368
58.220 14.525833
58.225 15.21647
58.230 15.358376
58.235 15.610558
58.240 15.797313
58.245 15.009666
58.250 14.626181
58.255 14.581652
58.260 14.292914
58.265 14.342553
58.270 14.193514
58.275 13.935032
58.280 14.150011
58.285 14.832627
58.290 15.206059
58.295 14.7216
58.300 14.614494
58.305 14.727639
58.310 15.574095
58.315 15.472153
58.320 14.666274
58.325 14.910344
58.330 15.245872
58.335 15.248854
58.340 14.884177
58.345 14.025444
58.350 14.561621
58.355 15.261879
58.360 15.058207
58.365 15.045667
58.370 15.052528
58.375 15.162556
58.380 15.339312
58.385 14.992848
58.390 14.643508
58.395 14.535265
58.400 14.747052
58.405 14.786499
58.410 14.804418
58.415 14.398118
58.420 14.528557
58.425 14.406975
58.430 14.597122
58.435 14.804016
58.440 14.569472
58.445 14.616558
58.450 14.641395
58.455 14.960862
58.460 15.139358
58.465 14.431736
58.470 13.610197
58.475 14.224156
58.480 14.125586
58.485 13.968513
58.490 13.881242
58.495 13.937901
58.500 14.804484
58.505 15.247776
58.510 14.936549
58.515 15.262513
58.520 15.019815
58.525 15.05931
58.530 14.432607
58.535 13.88572
58.540 14.17836
58.545 14.331197
58.550 14.554612
58.555 15.015882
58.560 15.346233
58.565 16.264816
58.570 16.273584
58.575 15.866519
58.580 15.905964
58.585 16.105743
58.590 15.929552
58.595 15.407803
58.600 14.640079
58.605 14.79209
58.610 15.233114
58.615 14.869608
58.620 14.363365
58.625 14.425417
58.630 14.81426
58.635 14.74138
58.640 14.575786
58.645 14.330395
58.650 14.934221
58.655 14.815866
58.660 14.470987
58.665 14.212088
58.670 14.318241
58.675 14.579259
58.680 14.33894
58.685 13.994671
58.690 13.911801
58.695 14.187238
58.700 14.493032
58.705 15.038101
58.710 14.918484
58.715 14.807363
58.720 15.296952
58.725 15.105152
58.730 15.078132
58.735 15.348233
58.740 15.494025
58.745 15.799601
58.750 15.757312
58.755 15.973569
58.760 16.727257
58.765 16.988247
58.770 16.64798
58.775 16.426868
58.780 16.631653
58.785 16.238327
58.790 15.726267
58.795 15.635439
58.800 15.763699
58.805 15.896758
58.810 15.455278
58.815 15.313805
58.820 15.966048
58.825 15.996959
58.830 15.719914
58.835 15.328312
58.840 14.906636
58.845 15.358215
58.850 15.026545
58.855 14.906383
58.860 14.785207
58.865 14.823354
58.870 14.73018
58.875 14.779873
58.880 14.956911
58.885 15.195413
58.890 15.002602
58.895 15.124084
58.900 15.270297
58.905 14.862052
58.910 14.976689
58.915 14.934793
58.920 15.424047
58.925 15.825572
58.930 16.122087
58.935 15.823779
58.940 16.479794
58.945 16.346098
58.950 16.044317
58.955 15.782343
58.960 15.738504
58.965 16.172354
58.970 16.543079
58.975 16.712324
58.980 16.861549
58.985 16.75104
58.990 16.355011
58.995 16.241243
59.000 15.667383
59.005 15.193364
59.010 14.611802
59.015 14.732897
59.020 14.762666
59.025 14.987832
59.030 14.637273
59.035 14.529276
59.040 15.042203
59.045 14.731692
59.050 14.229695
59.055 13.98741
59.060 14.09722
59.065 14.612349
59.070 15.093126
59.075 15.776973
59.080 16.619209
59.085 17.103098
59.090 16.977829
59.095 16.325447
59.100 16.142038
59.105 15.950666
59.110 15.20169
59.115 15.174506
59.120 14.808494
59.125 14.964065
59.130 15.621228
59.135 15.658147
59.140 15.542506
59.145 16.096628
59.150 16.525122
59.155 17.113211
59.160 17.5756
59.165 17.566084
59.170 17.648039
59.175 18.150084
59.180 18.384001
59.185 17.786856
59.190 17.714571
59.195 17.242407
59.200 17.177296
59.205 16.811522
59.210 15.853997
59.215 15.430918
59.220 15.72457
59.225 15.896473
59.230 16.204428
59.235 16.038189
59.240 16.391241
59.245 17.179432
59.250 16.956221
59.255 16.437813
59.260 16.456198
59.265 16.844028
59.270 16.96384
59.275 16.744064
59.280 16.444839
59.285 16.128222
59.290 16.085161
59.295 15.869155
59.300 15.656449
59.305 15.138093
59.310 14.659794
59.315 14.429469
59.320 14.672191
59.325 15.329462
59.330 15.295629
59.335 15.220355
59.340 15.494304
59.345 15.372896
59.350 15.029451
59.355 15.144606
59.360 14.701351
59.365 14.727578
59.370 14.722545
59.375 15.342899
59.380 15.980529
59.385 15.906249
59.390 16.054794
59.395 16.590736
59.400 16.907316
59.405 17.078226
59.410 16.700159
59.415 16.832716
59.420 17.361576
59.425 17.31325
59.430 16.95941
59.435 16.774405
59.440 16.588682
59.445 17.02132
59.450 17.617357
59.455 17.709782
59.460 17.532785
59.465 17.544481
59.470 17.428211
59.475 16.885031
59.480 16.290937
59.485 15.790971
59.490 16.034004
59.495 16.581198
59.500 17.091076
59.505 17.417343
59.510 17.845779
59.515 18.231461
59.520 18.559517
59.525 18.035572
59.530 17.722267
59.535 17.859512
59.540 18.307266
59.545 18.480663
59.550 17.921412
59.555 17.368856
59.560 17.800282
59.565 17.705647
59.570 17.375608
59.575 16.877657
59.580 17.055054
59.585 17.341169
59.590 17.768938
59.595 18.29434
59.600 18.715725
59.605 18.116035
59.610 17.726068
59.615 17.905382
59.620 18.559145
59.625 18.491449
59.630 18.038279
59.635 17.912066
59.640 18.91284
59.645 19.479254
59.650 19.581354
59.655 19.5116
59.660 19.817575
59.665 20.618355
59.670 20.750017
59.675 21.07032
59.680 21.37322
59.685 21.336546
59.690 21.189486
59.695 21.044607
59.700 20.741699
59.705 20.438629
59.710 19.442404
59.715 19.473526
59.720 19.406898
59.725 19.901268
59.730 19.954571
59.735 20.090292
59.740 20.350689
59.745 20.478651
59.750 20.366161
59.755 20.7031
59.760 20.267357
59.765 20.807163
59.770 20.578836
59.775 21.1485
59.780 21.43095
59.785 21.283567
59.790 21.175074
59.795 21.199453
59.800 20.749218
59.805 20.642946
59.810 20.414013
59.815 20.314297
59.820 20.313591
59.825 20.010357
59.830 19.901506
59.835 19.844204
59.840 19.720179
59.845 19.273613
59.850 19.817265
59.855 20.277941
59.860 19.958488
59.865 19.602423
59.870 19.736906
59.875 19.821875
59.880 19.838406
59.885 19.479376
59.890 19.176714
59.895 19.661312
59.900 19.947836
59.905 19.650774
59.910 19.78381
59.915 20.706921
59.920 20.725695
59.925 20.577385
59.930 20.285433
59.935 20.594246
59.940 21.579409
59.945 22.048649
59.950 21.464577
59.955 21.408394
59.960 22.154379
59.965 22.993792
59.970 22.806862
59.975 22.243439
59.980 21.773348
59.985 21.623457
59.990 21.704638
59.995 20.87472
60.000 20.580107
60.005 20.641096
60.010 21.219715
60.015 21.835451
60.020 22.554329
60.025 22.3804
60.030 22.36261
60.035 22.257626
60.040 22.671486
60.045 22.799248
60.050 22.411579
60.055 21.747578
60.060 22.385521
60.065 23.039574
60.070 23.725483
60.075 23.792988
60.080 23.14246
60.085 23.555277
60.090 23.839687
60.095 23.709585
60.100 23.648119
60.105 23.062273
60.110 22.834789
60.115 22.688948
60.120 22.426161
60.125 21.933826
60.130 21.86698
60.135 21.802567
60.140 21.048178
60.145 20.358309
60.150 19.824589
60.155 19.640173
60.160 20.216896
60.165 20.055792
60.170 20.138628
60.175 20.358145
60.180 20.789833
60.185 20.999836
60.190 21.425056
60.195 21.291317
60.200 21.11639
60.205 21.00676
60.210 21.283689
60.215 21.735174
60.220 22.070463
60.225 21.797979
60.230 21.988287
60.235 22.487427
60.240 22.528032
60.245 22.292135
60.250 21.769957
60.255 21.734346
60.260 21.186588
60.265 21.295301
60.270 21.056898
60.275 20.703835
60.280 21.005461
60.285 21.24268
60.290 21.983686
60.295 22.299589
60.300 21.853121
60.305 21.579134
60.310 21.50547
60.315 21.386288
60.320 21.26619
60.325 21.341616
60.330 21.877699
60.335 22.071814
60.340 22.341675
60.345 22.783684
60.350 23.13249
60.355 23.065002
60.360 21.795465
60.365 21.426979
60.370 21.217104
60.375 21.171251
60.380 21.955759
60.385 21.928759
60.390 22.149548
60.395 23.322687
60.400 23.260967
60.405 24.112949
60.410 24.260393
60.415 23.435297
60.420 22.200359
60.425 21.264015
60.430 20.309929
60.435 19.724333
60.440 18.890739
60.445 18.87948
60.450 19.070904
60.455 20.023283
60.460 20.331341
60.465 21.045053
60.470 21.694698
60.475 22.241749
60.480 22.356298
60.485 21.83275
60.490 21.845949
60.495 22.118544
60.500 21.692427
60.505 21.590719
60.510 21.596704
60.515 21.767729
60.520 22.239653
60.525 22.521154
60.530 22.335978
60.535 22.708494
60.540 22.413528
60.545 21.825655
60.550 21.035006
60.555 21.180595
60.560 21.482147
60.565 21.445593
60.570 20.710127
60.575 20.836147
60.580 21.066864
60.585 20.898529
60.590 20.339914
60.595 20.099876
60.600 20.285917
60.605 20.308775
60.610 20.254692
60.615 19.994881
60.620 20.037951
60.625 20.057043
60.630 20.187117
60.635 19.848318
60.640 19.546122
60.645 19.081638
60.650 18.394796
60.655 18.773285
60.660 18.45232
60.665 17.930086
60.670 17.794249
60.675 17.710211
60.680 17.401323
60.685 17.764788
60.690 17.39374
60.695 17.624264
60.700 18.076298
60.705 18.299343
60.710 19.141142
60.715 19.913952
60.720 20.09432
60.725 19.965763
60.730 19.428759
60.735 18.990313
60.740 19.143251
60.745 18.543674
60.750 18.327282
60.755 18.706486
60.760 19.021881
60.765 19.244629
60.770 19.36915
60.775 19.267204
60.780 19.517136
60.785 19.126759
60.790 18.839794
60.795 18.683842
60.800 18.368004
60.805 17.990873
60.810 17.867575
60.815 17.84244
60.820 18.074173
60.825 17.702991
60.830 17.407225
60.835 17.417126
60.840 17.181349
60.845 17.164274
60.850 17.129576
60.855 17.29204
60.860 17.210747
60.865 17.251478
60.870 17.276728
60.875 17.402977
60.880 16.907465
60.885 16.399019
60.890 15.848125
60.895 16.618155
60.900 17.698757
60.905 17.65494
60.910 17.450285
60.915 17.552519
60.920 17.848902
60.925 18.059912
60.930 17.327177
60.935 15.799047
60.940 15.401347
60.945 15.180782
60.950 15.076704
60.955 14.867766
60.960 14.79248
60.965 14.994867
60.970 15.47479
60.975 15.812526
60.980 15.766216
60.985 16.294458
60.990 16.589897
60.995 16.158421
61.000 16.290503
61.005 16.289404
61.010 16.16275
61.015 16.624704
61.020 16.359459
61.025 16.635757
61.030 17.082657
61.035 16.984554
61.040 17.729595
61.045 18.524874
61.050 18.828503
61.055 19.267574
61.060 19.569242
61.065 19.504398
61.070 19.15806
61.075 18.596952
61.080 18.070822
61.085 17.761827
61.090 16.961178
61.095 16.79237
61.100 16.793295
61.105 17.136238
61.110 16.88859
61.115 16.87665
61.120 17.100094
61.125 17.18598
61.130 16.764179
61.135 16.565332
61.140 16.540695
61.145 16.874861
61.150 17.128748
61.155 16.894024
61.160 16.649836
61.165 16.9942
61.170 17.038473
61.175 16.736403
61.180 16.801683
61.185 16.816927
61.190 16.541527
61.195 16.297676
61.200 15.871553
61.205 16.63452
61.210 17.406687
61.215 17.684195
61.220 17.784706
61.225 18.239819
61.230 19.033623
61.235 19.355772
61.240 18.346447
61.245 17.982332
61.250 17.489529
61.255 17.422401
61.260 17.795364
61.265 17.865915
61.270 17.518084
61.275 17.760153
61.280 17.638744
61.285 17.608858
61.290 17.691494
61.295 17.216688
61.300 17.041412
61.305 17.114525
61.310 16.873243
61.315 17.22373
61.320 17.6779
61.325 17.524891
61.330 17.805019
61.335 18.21847
61.340 18.066734
61.345 17.912104
61.350 17.486109
61.355 16.885002
61.360 17.049807
61.365 16.57642
61.370 15.459596
61.375 15.185312
61.380 14.827024
61.385 15.61546
61.390 15.995663
61.395 15.689534
61.400 16.27029
61.405 16.988838
61.410 18.219124
61.415 19.174608
61.420 18.698298
61.425 18.812593
61.430 18.925652
61.435 19.145678
61.440 19.421499
61.445 19.058304
61.450 18.499489
61.455 18.533524
61.460 18.10932
61.465 17.49526
61.470 17.276443
61.475 17.37471
61.480 17.463558
61.485 18.223824
61.490 17.926134
61.495 18.000856
61.500 18.363173
61.505 18.058987
61.510 17.345203
61.515 16.9135
61.520 16.615883
61.525 16.768354
61.530 16.66783
61.535 16.815321
61.540 16.753988
61.545 17.775089
61.550 18.548771
61.555 18.953321
61.560 19.058445
61.565 19.203943
61.570 18.977087
61.575 18.874277
61.580 17.961903
61.585 17.489393
61.590 17.078955
61.595 17.239729
61.600 16.980978
61.605 16.77309
61.610 16.738705
61.615 17.111887
61.620 17.105335
61.625 16.69416
61.630 16.437014
61.635 16.940031
61.640 17.382055
61.645 17.180841
61.650 16.560144
61.655 16.249889
61.660 16.639084
61.665 16.969923
61.670 17.075132
61.675 16.321054
61.680 15.944444
61.685 16.062304
61.690 16.101109
61.695 16.326298
61.700 15.967823
61.705 15.927836
61.710 16.588316
61.715 17.064705
61.720 16.958473
61.725 17.157597
61.730 16.68877
61.735 17.092001
61.740 17.295467
61.745 17.196085
61.750 17.061127
61.755 17.298525
61.760 17.245333
61.765 17.313293
61.770 16.63945
61.775 16.685848
61.780 16.94916
61.785 17.501944
61.790 17.345139
61.795 17.22547
61.800 17.02084
61.805 17.272171
61.810 17.255102
61.815 17.178289
61.820 17.076239
61.825 17.665344
61.830 17.688747
61.835 17.833328
61.840 18.244709
61.845 18.152609
61.850 18.01993
61.855 18.280005
61.860 17.907949
61.865 18.076805
61.870 18.043312
61.875 18.136726
61.880 18.477448
61.885 18.632933
61.890 18.050835
61.895 18.247219
61.900 18.062235
61.905 18.289541
61.910 18.207478
61.915 17.995556
61.920 18.09041
61.925 18.411312
61.930 17.94916
61.935 17.587452
61.940 17.117868
61.945 16.593081
61.950 16.529024
61.955 16.232651
61.960 15.869953
61.965 16.129526
61.970 16.804888
61.975 17.458252
61.980 17.734276
61.985 17.705683
61.990 18.270266
61.995 18.511055
62.000 18.59268
62.005 18.202261
62.010 17.93247
62.015 18.04254
62.020 17.468765
62.025 17.002829
62.030 17.358053
62.035 17.361988
62.040 17.330139
62.045 17.179214
62.050 17.062653
62.055 17.917391
62.060 17.997156
62.065 17.288834
62.070 16.675791
62.075 16.641478
62.080 17.136932
62.085 16.969049
62.090 16.398054
62.095 16.347527
62.100 17.010513
62.105 18.207188
62.110 18.251665
62.115 17.860132
62.120 17.96908
62.125 18.597155
62.130 18.866678
62.135 18.870985
62.140 18.330244
62.145 17.957409
62.150 18.453527
62.155 18.756014
62.160 18.696533
62.165 18.908407
62.170 18.722977
62.175 19.48988
62.180 19.916328
62.185 19.601278
62.190 19.417036
62.195 19.388208
62.200 19.454878
62.205 19.00172
62.210 18.413504
62.215 18.218407
62.220 18.390032
62.225 18.141384
62.230 17.761801
62.235 17.450994
62.240 17.760241
62.245 17.497528
62.250 17.591198
62.255 18.040976
62.260 18.565834
62.265 18.523405
62.270 18.439236
62.275 18.550257
62.280 18.466131
62.285 17.820677
62.290 17.162632
62.295 16.831553
62.300 16.51318
62.305 16.56271
62.310 16.831892
62.315 17.021664
62.320 17.950436
62.325 17.820753
62.330 18.474993
62.335 18.9655
62.340 18.890974
62.345 18.810822
62.350 18.908409
62.355 18.518818
62.360 19.13966
62.365 18.798704
62.370 18.437557
62.375 18.259554
62.380 17.901072
62.385 18.246517
62.390 18.018402
62.395 17.437984
62.400 17.147762
62.405 17.645285
62.410 18.102753
62.415 17.888105
62.420 17.594904
62.425 17.605677
62.430 17.634943
62.435 17.735691
62.440 17.537601
62.445 17.565065
62.450 17.94466
62.455 18.310085
62.460 18.931963
62.465 19.388123
62.470 19.478638
62.475 19.849781
62.480 19.951403
62.485 19.385214
62.490 19.179127
62.495 19.267248
62.500 18.841913
62.505 18.282751
62.510 17.380522
62.515 16.953543
62.520 16.939232
62.525 16.327539
62.530 15.726577
62.535 15.727379
62.540 15.775501
62.545 15.993609
62.550 15.579207
62.555 15.290891
62.560 15.907627
62.565 16.243114
62.570 16.342945
62.575 16.572407
62.580 17.163017
62.585 17.459974
62.590 17.587049
62.595 17.120951
62.600 16.834259
62.605 16.840626
62.610 17.061188
62.615 16.904182
62.620 17.088509
62.625 17.053625
62.630 17.373072
62.635 17.504629
62.640 17.490669
62.645 16.850744
62.650 16.761585
62.655 16.725319
62.660 17.113537
62.665 17.065266
62.670 17.032125
62.675 16.57032
62.680 16.839193
62.685 16.740643
62.690 16.792965
62.695 16.404758
62.700 15.86071
62.705 15.786963
62.710 16.496056
62.715 16.849844
62.720 17.359472
62.725 16.994757
62.730 17.774298
62.735 18.882204
62.740 19.338575
62.745 19.088053
62.750 18.567045
62.755 18.5422
62.760 19.332813
62.765 18.612694
62.770 17.976454
62.775 17.634691
62.780 17.305149
62.785 17.700787
62.790 17.136829
62.795 16.433458
62.800 17.080412
62.805 16.992344
62.810 16.850399
62.815 17.071934
62.820 16.79096
62.825 16.819481
62.830 16.645006
62.835 16.050861
62.840 16.50416
62.845 16.94062
62.850 16.907795
62.855 17.02405
62.860 17.13093
62.865 17.301542
62.870 16.850403
62.875 16.264153
62.880 16.056774
62.885 16.651978
62.890 17.111898
62.895 17.082998
62.900 17.98237
62.905 18.641914
62.910 18.912535
62.915 19.084892
62.920 18.537558
62.925 18.010157
62.930 18.29751
62.935 17.481319
62.940 17.629469
62.945 17.516113
62.950 17.582846
62.955 18.034025
62.960 18.109486
62.965 18.044699
62.970 18.535576
62.975 18.570385
62.980 18.448704
62.985 18.328571
62.990 18.254393
62.995 18.177471
63.000 18.20722
63.005 18.40691
63.010 18.489183
63.015 19.105705
63.020 19.266626
63.025 18.941059
63.030 18.870033
63.035 18.847843
63.040 17.788429
63.045 16.991768
63.050 16.025717
63.055 15.820697
63.060 15.913232
63.065 16.152891
63.070 16.00738
63.075 16.668476
63.080 16.797773
63.085 16.862757
63.090 16.547445
63.095 16.303959
63.100 15.974668
63.105 16.360199
63.110 16.324896
63.115 16.61261
63.120 16.457142
63.125 16.810318
63.130 16.861765
63.135 16.898472
63.140 16.559408
63.145 16.771023
63.150 17.097433
63.155 17.849314
63.160 18.460205
63.165 18.775137
63.170 18.757648
63.175 18.781429
63.180 18.736567
63.185 18.582985
63.190 18.176565
63.195 17.433834
63.200 17.535412
63.205 17.42802
63.210 17.607906
63.215 17.712454
63.220 17.83847
63.225 17.519239
63.230 17.48678
63.235 17.486568
63.240 17.680992
63.245 17.470819
63.250 17.191353
63.255 17.232353
63.260 17.265266
63.265 17.203634
63.270 16.988983
63.275 17.132847
63.280 17.652958
63.285 18.247711
63.290 18.100264
63.295 18.839266
63.300 18.887167
63.305 18.952286
63.310 19.049862
63.315 18.725637
63.320 18.317352
63.325 18.770536
63.330 18.854496
63.335 18.133282
63.340 17.746738
63.345 17.344107
63.350 17.332874
63.355 17.661755
63.360 17.432804
63.365 16.924215
63.370 17.397921
63.375 17.418827
63.380 17.313509
63.385 16.43338
63.390 15.766058
63.395 15.973825
63.400 15.907027
63.405 16.179134
63.410 16.643457
63.415 17.051905
63.420 17.963125
63.425 18.486614
63.430 18.262796
63.435 18.268948
63.440 18.24159
63.445 18.027126
63.450 18.191277
63.455 18.224522
63.460 18.29882
63.465 18.451832
63.470 18.904676
63.475 18.767792
63.480 18.911779
63.485 19.45055
63.490 19.184338
63.495 18.760262
63.500 18.644535
63.505 18.624725
63.510 18.687361
63.515 18.913626
63.520 18.311907
63.525 18.491539
63.530 18.656422
63.535 18.806532
63.540 19.134722
63.545 19.192028
63.550 18.594233
63.555 18.418016
63.560 17.820965
63.565 17.723701
63.570 17.627569
63.575 17.28624
63.580 17.353558
63.585 17.455956
63.590 17.497147
63.595 17.975965
63.600 17.905972
63.605 17.425398
63.610 17.298855
63.615 16.919134
63.620 16.891485
63.625 16.863174
63.630 16.771786
63.635 16.954254
63.640 17.186346
63.645 17.00782
63.650 17.522717
63.655 17.692938
63.660 17.930182
63.665 17.706493
63.670 17.994057
63.675 18.531099
63.680 18.900425
63.685 18.943859
63.690 19.578636
63.695 19.476109
63.700 19.728603
63.705 19.422781
63.710 19.31349
63.715 18.915693
63.720 18.63538
63.725 17.868288
63.730 18.175066
63.735 18.297062
63.740 17.806124
63.745 17.451305
63.750 17.72258
63.755 17.63751
63.760 17.615498
63.765 17.700987
63.770 17.546654
63.775 17.557243
63.780 17.533087
63.785 17.32593
63.790 17.790552
63.795 17.873474
63.800 17.199663
63.805 17.509043
63.810 17.78685
63.815 17.753317
63.820 17.828714
63.825 17.477097
63.830 17.900181
63.835 18.392258
63.840 18.413296
63.845 18.969473
63.850 19.015871
63.855 19.117239
63.860 19.138056
63.865 19.579302
63.870 19.4561
63.875 19.242655
63.880 18.788157
63.885 19.264063
63.890 19.274796
63.895 19.891113
63.900 19.734177
63.905 19.632961
63.910 19.560356
63.915 19.294542
63.920 18.958717
63.925 18.487799
63.930 18.211086
63.935 17.703382
63.940 17.262749
63.945 16.739368
63.950 16.65736
63.955 16.886353
63.960 17.777117
63.965 18.278032
63.970 18.323137
63.975 18.724503
63.980 19.357834
63.985 19.556667
63.990 19.60494
63.995 19.186331
64.000 18.649584
64.005 19.03771
64.010 19.831453
64.015 21.042263
64.020 21.976088
64.025 22.236254
64.030 21.939962
64.035 21.621435
64.040 20.909126
64.045 20.427723
64.050 19.823334
64.055 18.55167
64.060 18.335197
64.065 18.15407
64.070 18.076708
64.075 18.476522
64.080 18.078054
64.085 17.469704
64.090 17.531828
64.095 17.806206
64.100 17.292927
64.105 17.311722
64.110 18.048548
64.115 18.265759
64.120 18.216478
64.125 18.906862
64.130 18.504721
64.135 19.032816
64.140 18.984991
64.145 18.537846
64.150 18.596153
64.155 18.935432
64.160 18.291903
64.165 18.200871
64.170 18.354387
64.175 18.280247
64.180 17.738581
64.185 17.395304
64.190 17.377781
64.195 17.874483
64.200 17.87088
64.205 17.557774
64.210 17.760056
64.215 17.871218
64.220 17.796982
64.225 17.616997
64.230 17.205746
64.235 17.96442
64.240 18.953337
64.245 18.704416
64.250 18.625216
64.255 19.114286
64.260 19.209829
64.265 19.128256
64.270 18.24802
64.275 17.505644
64.280 17.555817
64.285 17.947794
64.290 17.40214
64.295 17.956217
64.300 18.742962
64.305 18.953293
64.310 18.818558
64.315 18.877718
64.320 19.067774
64.325 19.212055
64.330 18.663763
64.335 18.07555
64.340 18.279154
64.345 18.88983
64.350 19.439489
64.355 19.641159
64.360 20.430098
64.365 20.344584
64.370 20.470423
64.375 20.26792
64.380 19.914791
64.385 19.191969
64.390 18.763611
64.395 18.010111
64.400 17.67749
64.405 17.473499
64.410 17.387461
64.415 17.449778
64.420 17.820322
64.425 17.804646
64.430 17.91515
64.435 18.330273
64.440 18.388805
64.445 18.25671
64.450 18.401209
64.455 18.464567
64.460 18.762571
64.465 18.968302
64.470 18.758577
64.475 18.984529
64.480 19.066666
64.485 18.785057
64.490 18.543968
64.495 18.502718
64.500 18.522366
64.505 18.402182
64.510 18.539307
64.515 18.538252
64.520 18.42485
64.525 18.269909
64.530 17.999828
64.535 18.699558
64.540 19.192636
64.545 19.351871
64.550 19.48559
64.555 19.686836
64.560 19.7635
64.565 19.939777
64.570 19.215397
64.575 19.695488
64.580 20.134665
64.585 20.803331
64.590 20.996433
64.595 21.297112
64.600 21.431429
64.605 21.241056
64.610 20.82909
64.615 20.476295
64.620 20.55036
64.625 20.450579
64.630 20.22646
64.635 19.685423
64.640 19.393869
64.645 18.845806
64.650 18.423059
64.655 17.821962
64.660 17.717064
64.665 17.377996
64.670 17.634623
64.675 18.400213
64.680 19.109228
64.685 19.500933
64.690 19.844339
64.695 19.838585
64.700 19.773827
64.705 19.519726
64.710 19.268711
64.715 18.83378
64.720 18.493418
64.725 18.208086
64.730 18.558374
64.735 19.345982
64.740 19.882097
64.745 19.970785
64.750 20.012316
64.755 20.083866
64.760 20.216848
64.765 19.967985
64.770 19.545385
64.775 19.649979
64.780 19.881315
64.785 20.206137
64.790 20.500288
64.795 20.471228
64.800 20.51572
64.805 20.74922
64.810 20.019592
64.815 20.03303
64.820 20.211634
64.825 20.394392
64.830 20.376402
64.835 21.084959
64.840 21.276995
64.845 22.602837
64.850 22.764383
64.855 22.718279
64.860 22.647572
64.865 22.704084
64.870 22.247072
64.875 22.026695
64.880 21.295851
64.885 20.778578
64.890 20.505295
64.895 20.583805
64.900 20.639545
64.905 20.771252
64.910 21.122564
64.915 21.212154
64.920 20.999111
64.925 21.120377
64.930 21.541307
64.935 21.466572
64.940 21.55965
64.945 21.523762
64.950 21.610714
64.955 21.901823
64.960 21.853651
64.965 21.124723
64.970 21.023533
64.975 21.370422
64.980 21.342146
64.985 21.358112
64.990 22.155403
64.995 22.253151
65.000 22.381493
65.005 22.937361
65.010 22.026873
65.015 21.987827
65.020 21.971586
65.025 21.237431
65.030 21.371269
65.035 21.01202
65.040 21.299694
65.045 21.901697
65.050 22.479412
65.055 22.669691
65.060 23.007959
65.065 23.285896
65.070 23.277727
65.075 22.520191
65.080 22.365122
65.085 21.745888
65.090 22.030302
65.095 21.850218
65.100 22.103418
65.105 22.914425
65.110 23.146038
65.115 23.314386
65.120 23.176189
65.125 23.31341
65.130 23.585342
65.135 23.903942
65.140 24.629694
65.145 24.56691
65.150 24.581161
65.155 24.89835
65.160 24.480759
65.165 23.921665
65.170 23.067806
65.175 21.788145
65.180 21.910919
65.185 21.52248
65.190 21.355421
65.195 21.194616
65.200 22.044754
65.205 22.861599
65.210 23.056429
65.215 22.834738
65.220 23.198978
65.225 22.814161
65.230 22.284153
65.235 22.020077
65.240 21.786163
65.245 21.997009
65.250 22.130678
65.255 21.637951
65.260 21.935736
65.265 22.540005
65.270 22.066824
65.275 22.380394
65.280 22.692682
65.285 22.875395
65.290 23.321009
65.295 23.419075
65.300 23.858828
65.305 23.302589
65.310 22.959469
65.315 23.140055
65.320 23.501097
65.325 23.690895
65.330 23.764954
65.335 23.107744
65.340 23.600491
65.345 23.902552
65.350 24.771755
65.355 24.333838
65.360 24.553663
65.365 24.813
65.370 25.592072
65.375 25.801826
65.380 25.702286
65.385 25.005781
65.390 25.110214
65.395 24.453178
65.400 24.364601
65.405 24.010126
65.410 23.892735
65.415 23.769022
65.420 23.818754
65.425 24.076483
65.430 24.787785
65.435 25.078304
65.440 25.472612
65.445 25.460854
65.450 25.460449
65.455 25.462908
65.460 25.653999
65.465 26.001698
65.470 26.075758
65.475 26.566116
65.480 27.397167
65.485 27.983721
65.490 28.438328
65.495 28.62038
65.500 28.752123
65.505 28.842243
65.510 28.243635
65.515 27.785028
65.520 27.401789
65.525 27.78676
65.530 27.885542
65.535 28.15295
65.540 27.941555
65.545 28.355844
65.550 28.641264
65.555 28.594786
65.560 28.10783
65.565 27.74164
65.570 27.469707
65.575 27.806854
65.580 28.89867
65.585 29.207626
65.590 29.340437
65.595 29.844255
65.600 30.335684
65.605 31.037956
65.610 31.145773
65.615 30.855333
65.620 30.956003
65.625 31.382772
65.630 31.244669
65.635 31.247772
65.640 31.357359
65.645 31.386089
65.650 31.346586
65.655 32.087391
65.660 32.37196
65.665 32.615322
65.670 31.850876
65.675 31.851149
65.680 32.504971
65.685 32.169281
65.690 31.471861
65.695 31.860035
65.700 32.488239
65.705 33.353977
65.710 33.356979
65.715 33.821053
65.720 34.827694
65.725 34.834118
65.730 34.318329
65.735 34.54306
65.740 34.478458
65.745 34.49976
65.750 33.870197
65.755 34.204609
65.760 34.381737
65.765 35.3573
65.770 35.26931
65.775 35.469448
65.780 36.024509
65.785 37.163128
65.790 36.903454
65.795 37.162361
65.800 36.597202
65.805 37.33955
65.810 36.989761
65.815 37.109173
65.820 36.265976
65.825 37.091972
65.830 37.334599
65.835 36.674122
65.840 36.781101
65.845 36.570469
65.850 36.025841
65.855 35.675259
65.860 35.481133
65.865 36.259296
65.870 36.57695
65.875 36.176163
65.880 36.825024
65.885 37.557518
65.890 38.046833
65.895 37.106487
65.900 36.639492
65.905 36.997971
65.910 37.406986
65.915 37.851635
65.920 37.011387
65.925 36.896992
65.930 37.746174
65.935 38.164162
65.940 38.292225
65.945 38.326298
65.950 38.118969
65.955 38.804905
65.960 39.11396
65.965 38.610489
65.970 38.484112
65.975 38.130516
65.980 39.533676
65.985 40.34977
65.990 40.171741
65.995 40.447559
66.000 40.079464
66.005 38.938068
66.010 38.275623
66.015 36.533306
66.020 36.160797
66.025 35.822731
66.030 35.133778
66.035 35.320858
66.040 35.567539
66.045 35.82095
66.050 36.136871
66.055 36.483887
66.060 37.601776
66.065 37.70826
66.070 37.897652
66.075 38.714542
66.080 38.899876
66.085 38.790627
66.090 39.061905
66.095 38.999989
66.100 38.708721
66.105 38.747246
66.110 38.283493
66.115 37.930248
66.120 37.610088
66.125 36.597164
66.130 36.163338
66.135 36.187492
66.140 36.693657
66.145 37.136276
66.150 37.614315
66.155 37.110603
66.160 36.488674
66.165 36.544079
66.170 36.73772
66.175 36.073002
66.180 35.515141
66.185 34.655251
66.190 34.707954
66.195 35.149014
66.200 34.996674
66.205 34.645008
66.210 34.332607
66.215 35.034256
66.220 35.174038
66.225 34.795212
66.230 34.785435
66.235 34.512394
66.240 34.769314
66.245 34.903728
66.250 34.501995
66.255 34.687901
66.260 35.037354
66.265 35.052212
66.270 34.945526
66.275 35.066666
66.280 34.686172
66.285 34.266384
66.290 33.971363
66.295 33.490871
66.300 32.839764
66.305 32.193798
66.310 30.906322
66.315 30.615883
66.320 31.433691
66.325 30.85309
66.330 30.487144
66.335 30.856895
66.340 30.587719
66.345 30.945967
66.350 30.655319
66.355 29.865665
66.360 29.728418
66.365 29.587568
66.370 29.547091
66.375 30.753302
66.380 31.095261
66.385 30.510389
66.390 30.340279
66.395 30.373186
66.400 30.209194
66.405 30.32518
66.410 30.105597
66.415 30.251148
66.420 31.201096
66.425 31.032639
66.430 30.916174
66.435 30.898289
66.440 30.054037
66.445 29.240252
66.450 28.190626
66.455 27.386202
66.460 27.282412
66.465 27.447447
66.470 27.77951
66.475 28.29221
66.480 28.674143
66.485 28.82202
66.490 28.503204
66.495 28.490549
66.500 28.988403
66.505 28.677574
66.510 27.95821
66.515 26.806213
66.520 27.038708
66.525 27.731569
66.530 27.755398
66.535 27.249329
66.540 27.423813
66.545 28.079496
66.550 28.819805
66.555 28.518408
66.560 28.154327
66.565 28.119133
66.570 28.320742
66.575 27.841911
66.580 27.504316
66.585 27.628355
66.590 27.687342
66.595 27.489557
66.600 28.006861
66.605 27.976461
66.610 28.470373
66.615 28.232756
66.620 28.451756
66.625 28.453491
66.630 27.959158
66.635 27.395428
66.640 27.07353
66.645 26.469505
66.650 26.168062
66.655 24.84235
66.660 24.771143
66.665 24.458103
66.670 24.410431
66.675 24.248465
66.680 24.165071
66.685 23.823643
66.690 24.722906
66.695 24.301453
66.700 24.92894
66.705 25.124882
66.710 24.792692
66.715 24.795448
66.720 24.575731
66.725 24.187468
66.730 24.234459
66.735 23.840319
66.740 23.619715
66.745 23.781322
66.750 24.336973
66.755 24.809275
66.760 24.358881
66.765 24.133295
66.770 24.047007
66.775 24.086739
66.780 24.081314
66.785 23.972029
66.790 24.091421
66.795 24.082911
66.800 24.058361
66.805 24.203032
66.810 24.016195
66.815 23.712164
66.820 23.308247
66.825 23.293201
66.830 23.675747
66.835 24.016148
66.840 24.386072
66.845 23.886745
66.850 24.237278
66.855 23.916307
66.860 23.575369
66.865 23.561932
66.870 23.111603
66.875 22.481077
66.880 22.481754
66.885 22.498306
66.890 22.490982
66.895 22.191071
66.900 22.29125
66.905 22.409977
66.910 22.304939
66.915 22.491463
66.920 22.544653
66.925 22.977978
66.930 22.955938
66.935 22.60928
66.940 23.473429
66.945 24.40012
66.950 24.284012
66.955 23.255844
66.960 22.791431
66.965 22.932941
66.970 22.673513
66.975 22.009756
66.980 21.722164
66.985 22.185349
66.990 23.04447
66.995 23.834957
67.000 23.516438
67.005 23.32011
67.010 23.082973
67.015 23.103844
67.020 23.230604
67.025 23.495905
67.030 23.832582
67.035 24.155947
67.040 24.381227
67.045 24.784975
67.050 24.526663
67.055 23.611176
67.060 22.737835
67.065 22.244703
67.070 21.931826
67.075 22.146875
67.080 22.128433
67.085 22.655142
67.090 23.008154
67.095 22.716328
67.100 22.58835
67.105 23.078951
67.110 23.00284
67.115 22.374626
67.120 22.24472
67.125 22.656063
67.130 22.836021
67.135 22.036625
67.140 21.643723
67.145 21.537039
67.150 21.146614
67.155 20.169727
67.160 20.452723
67.165 20.968294
67.170 21.704153
67.175 21.76424
67.180 21.564049
67.185 21.917492
67.190 22.255659
67.195 21.509081
67.200 20.951862
67.205 20.515772
67.210 20.802521
67.215 21.382414
67.220 21.295246
67.225 21.319872
67.230 21.678658
67.235 21.626451
67.240 21.493675
67.245 20.5497
67.250 20.225742
67.255 20.495941
67.260 20.502651
67.265 20.302923
67.270 20.400896
67.275 20.774818
67.280 20.79797
67.285 20.764484
67.290 20.541571
67.295 20.321825
67.300 20.197206
67.305 20.016918
67.310 20.124678
67.315 21.013226
67.320 20.615826
67.325 20.862156
67.330 21.207495
67.335 21.50555
67.340 22.084389
67.345 22.129873
67.350 22.486364
67.355 22.516487
67.360 22.25242
67.365 21.79241
67.370 22.028561
67.375 22.11655
67.380 22.253716
67.385 22.114889
67.390 21.90205
67.395 21.891489
67.400 22.130898
67.405 21.710844
67.410 21.541279
67.415 20.993917
67.420 20.43615
67.425 20.738632
67.430 21.011969
67.435 21.015213
67.440 20.723158
67.445 20.317949
67.450 20.439274
67.455 21.211426
67.460 21.439632
67.465 21.322416
67.470 20.883398
67.475 20.828165
67.480 20.6124
67.485 20.20779
67.490 20.217287
67.495 19.969498
67.500 20.250177
67.505 20.606688
67.510 20.639931
67.515 20.611208
67.520 20.916281
67.525 20.752893
67.530 21.144247
67.535 21.562866
67.540 21.543232
67.545 22.034853
67.550 21.952694
67.555 21.935244
67.560 21.602165
67.565 21.022985
67.570 21.014282
67.575 21.273199
67.580 21.390043
67.585 22.041697
67.590 22.411154
67.595 22.682178
67.600 22.451523
67.605 21.94677
67.610 21.96081
67.615 21.931782
67.620 21.430214
67.625 21.138599
67.630 21.433863
67.635 21.882957
67.640 21.861588
67.645 21.887346
67.650 22.111368
67.655 22.394615
67.660 22.197973
67.665 21.889336
67.670 22.197041
67.675 22.308786
67.680 22.671118
67.685 22.269672
67.690 21.449469
67.695 21.450722
67.700 21.777647
67.705 22.139959
67.710 22.16312
67.715 22.045868
67.720 22.888004
67.725 23.896044
67.730 24.181684
67.735 23.894037
67.740 22.938616
67.745 22.486242
67.750 22.224161
67.755 21.528471
67.760 20.837128
67.765 20.371727
67.770 20.575106
67.775 21.416685
67.780 21.546698
67.785 21.635714
67.790 21.89867
67.795 22.229279
67.800 22.672026
67.805 22.101126
67.810 21.350281
67.815 20.953144
67.820 20.492765
67.825 20.194521
67.830 20.472223
67.835 20.674665
67.840 20.55592
67.845 20.998795
67.850 21.343252
67.855 21.422392
67.860 21.459558
67.865 20.910492
67.870 20.947474
67.875 21.848454
67.880 21.711132
67.885 21.55858
67.890 21.59433
67.895 21.96422
67.900 22.61717
67.905 22.647087
67.910 22.36759
67.915 22.532776
67.920 22.813574
67.925 23.040548
67.930 22.704527
67.935 22.445442
67.940 22.099682
67.945 21.760668
67.950 21.43066
67.955 20.977058
67.960 20.873951
67.965 20.778753
67.970 20.552629
67.975 20.32873
67.980 20.627659
67.985 20.654089
67.990 20.555738
67.995 20.490208
68.000 20.46529
68.005 20.689817
68.010 21.494101
68.015 21.032953
68.020 21.738657
68.025 21.832247
68.030 21.711739
68.035 22.156992
68.040 22.496737
68.045 21.552555
68.050 21.512569
68.055 21.22891
68.060 21.56785
68.065 22.014587
68.070 21.196903
68.075 20.780903
68.080 21.510618
68.085 21.600618
68.090 21.219801
68.095 21.19013
68.100 20.796997
68.105 20.885283
68.110 21.018518
68.115 21.329697
68.120 21.566746
68.125 21.670031
68.130 21.863647
68.135 21.85751
68.140 21.930075
68.145 21.789251
68.150 21.787695
68.155 22.251417
68.160 21.799025
68.165 21.110857
68.170 21.162571
68.175 20.895132
68.180 20.204332
68.185 19.8312
68.190 19.706711
68.195 20.133001
68.200 20.68084
68.205 20.864479
68.210 21.635942
68.215 22.525906
68.220 22.80122
68.225 23.195965
68.230 23.698298
68.235 23.388155
68.240 23.204145
68.245 22.267653
68.250 21.503693
68.255 21.071217
68.260 20.714758
68.265 20.767822
68.270 20.821125
68.275 21.116575
68.280 21.257639
68.285 21.465801
68.290 21.021389
68.295 20.649641
68.300 21.000015
68.305 21.656658
68.310 21.452347
68.315 21.113607
68.320 21.041197
68.325 21.431284
68.330 21.154873
68.335 20.423716
68.340 19.663645
68.345 19.392782
68.350 20.257681
68.355 20.880802
68.360 21.287086
68.365 20.90918
68.370 21.102472
68.375 21.275579
68.380 21.070196
68.385 21.174839
68.390 20.963766
68.395 20.514416
68.400 20.716545
68.405 20.563234
68.410 20.726665
68.415 21.563133
68.420 21.0151
68.425 20.873571
68.430 21.31399
68.435 21.30784
68.440 21.361681
68.445 21.358196
68.450 20.922922
68.455 21.056015
68.460 21.088776
68.465 20.52442
68.470 20.179722
68.475 19.751747
68.480 19.567505
68.485 19.462826
68.490 19.393145
68.495 19.389645
68.500 19.169703
68.505 19.243816
68.510 19.148962
68.515 19.288395
68.520 18.971205
68.525 19.684217
68.530 20.106976
68.535 21.340553
68.540 22.308992
68.545 22.937185
68.550 23.261745
68.555 22.930891
68.560 22.082016
68.565 21.827888
68.570 21.183447
68.575 20.67359
68.580 19.582243
68.585 19.704191
68.590 20.551487
68.595 20.566023
68.600 21.015068
68.605 21.0194
68.610 21.456741
68.615 22.208637
68.620 21.849232
68.625 22.015675
68.630 22.468676
68.635 22.378716
68.640 22.819468
68.645 22.378281
68.650 22.477661
68.655 22.585712
68.660 21.79887
68.665 21.518152
68.670 21.419548
68.675 21.156668
68.680 21.237814
68.685 20.749659
68.690 20.619703
68.695 20.582838
68.700 20.231409
68.705 19.947447
68.710 19.979864
68.715 19.865835
68.720 19.953566
68.725 20.946815
68.730 21.440613
68.735 21.238386
68.740 21.479361
68.745 21.596178
68.750 21.657074
68.755 21.65349
68.760 20.913666
68.765 20.838486
68.770 21.167931
68.775 20.64925
68.780 20.936718
68.785 21.351151
68.790 21.46151
68.795 22.01321
68.800 22.278236
68.805 22.265291
68.810 22.428234
68.815 22.176378
68.820 22.183544
68.825 22.532045
68.830 22.393471
68.835 22.923706
68.840 23.519945
68.845 23.707155
68.850 23.857208
68.855 23.712372
68.860 23.127697
68.865 22.549028
68.870 22.491772
68.875 22.663631
68.880 23.34104
68.885 22.987917
68.890 22.857294
68.895 23.382576
68.900 23.92977
68.905 23.632696
68.910 22.926867
68.915 22.707314
68.920 22.715763
68.925 22.960436
68.930 22.77034
68.935 23.041061
68.940 23.598907
68.945 23.330221
68.950 23.313183
68.955 23.420172
68.960 23.3995
68.965 23.421614
68.970 23.388922
68.975 23.763109
68.980 24.269217
68.985 24.622177
68.990 24.690279
68.995 24.618063
69.000 24.301666
69.005 24.556442
69.010 24.097191
69.015 23.730358
69.020 23.422028
69.025 24.047253
69.030 24.426134
69.035 24.5313
69.040 23.759602
69.045 23.900278
69.050 24.15942
69.055 24.298449
69.060 24.379789
69.065 24.614317
69.070 24.362896
69.075 24.532917
69.080 24.308634
69.085 25.472773
69.090 26.159313
69.095 25.918808
69.100 25.900759
69.105 26.350193
69.110 26.940325
69.115 26.986366
69.120 26.26025
69.125 25.95558
69.130 25.829678
69.135 25.947798
69.140 26.175297
69.145 26.172167
69.150 26.594143
69.155 26.522058
69.160 26.214869
69.165 26.644295
69.170 26.228382
69.175 26.148365
69.180 26.056061
69.185 25.609032
69.190 26.000036
69.195 26.208855
69.200 25.946327
69.205 26.675713
69.210 27.221077
69.215 26.92808
69.220 26.920107
69.225 26.998274
69.230 26.905876
69.235 26.913084
69.240 25.917955
69.245 25.669136
69.250 26.486298
69.255 27.144583
69.260 27.400991
69.265 27.893564
69.270 28.428116
69.275 29.015678
69.280 29.28796
69.285 28.051435
69.290 27.486454
69.295 26.971107
69.300 26.467882
69.305 26.076551
69.310 25.947437
69.315 26.505186
69.320 27.012489
69.325 27.129555
69.330 27.421982
69.335 27.414597
69.340 27.536325
69.345 27.401091
69.350 26.588846
69.355 26.628567
69.360 26.634388
69.365 26.347454
69.370 27.105721
69.375 27.136084
69.380 26.536137
69.385 26.452322
69.390 27.058712
69.395 27.574804
69.400 28.176212
69.405 27.279421
69.410 27.466299
69.415 28.184202
69.420 28.288513
69.425 27.612122
69.430 27.227419
69.435 26.903753
69.440 27.178438
69.445 27.051504
69.450 28.021038
69.455 27.782991
69.460 27.599951
69.465 27.96541
69.470 28.550835
69.475 29.30217
69.480 28.890306
69.485 28.441021
69.490 28.680138
69.495 29.117146
69.500 29.190186
69.505 29.18294
69.510 29.389587
69.515 30.103327
69.520 30.908476
69.525 31.369719
69.530 31.369616
69.535 31.156893
69.540 30.680288
69.545 29.648626
69.550 29.175875
69.555 28.713943
69.560 28.587416
69.565 28.966984
69.570 29.414289
69.575 29.907112
69.580 29.858072
69.585 29.23488
69.590 28.806419
69.595 28.644207
69.600 28.399561
69.605 28.364359
69.610 28.457087
69.615 28.415257
69.620 28.632999
69.625 28.355701
69.630 28.217716
69.635 27.701227
69.640 27.588018
69.645 28.300119
69.650 29.172981
69.655 30.818665
69.660 31.225496
69.665 30.795694
69.670 31.211592
69.675 30.857519
69.680 30.396357
69.685 29.861696
69.690 28.858198
69.695 28.973295
69.700 29.820101
69.705 29.570938
69.710 29.922201
69.715 29.993877
69.720 29.553143
69.725 29.117544
69.730 29.276485
69.735 28.48576
69.740 28.150902
69.745 27.454504
69.750 27.555672
69.755 27.281956
69.760 26.708036
69.765 26.349863
69.770 26.548574
69.775 26.338398
69.780 26.042892
69.785 25.750607
69.790 26.100811
69.795 26.646034
69.800 26.795221
69.805 26.322742
69.810 26.495089
69.815 27.062864
69.820 27.274385
69.825 27.059116
69.830 26.399252
69.835 26.315689
69.840 26.504425
69.845 26.146511
69.850 25.589622
69.855 25.118164
69.860 25.203163
69.865 25.349176
69.870 25.065508
69.875 24.585083
69.880 24.88965
69.885 24.891027
69.890 25.227194
69.895 24.919495
69.900 25.457687
69.905 25.472696
69.910 26.253
69.915 25.936762
69.920 25.469282
69.925 25.335293
69.930 25.675707
69.935 24.999533
69.940 24.610146
69.945 24.166195
69.950 24.031395
69.955 23.412764
69.960 22.655355
69.965 21.96516
69.970 21.40546
69.975 21.773569
69.980 21.543091
69.985 21.718529
69.990 22.507687
69.995 22.78109
70.000 22.280287
70.005 22.466282
70.010 21.691807
70.015 21.337608
70.020 21.521324
70.025 21.449945
70.030 22.189302
70.035 23.083982
70.040 23.445486
70.045 23.89753
70.050 23.757813
70.055 23.648468
70.060 23.359871
70.065 22.539137
70.070 22.260641
70.075 22.05496
70.080 22.29842
70.085 22.786247
70.090 22.326237
70.095 22.238934
70.100 22.086864
70.105 21.3951
70.110 21.394411
70.115 21.532255
70.120 21.662142
70.125 21.889505
70.130 21.957474
70.135 21.64613
70.140 22.376503
70.145 22.411276
70.150 21.461582
70.155 21.73679
70.160 21.666878
70.165 21.398211
70.170 21.809317
70.175 21.482864
70.180 20.696905
70.185 20.872932
70.190 21.023041
70.195 21.306931
70.200 20.916655
70.205 20.662477
70.210 20.405003
70.215 21.019987
70.220 20.840837
70.225 20.165447
70.230 20.231323
70.235 21.098965
70.240 20.983139
70.245 20.804699
70.250 21.205912
70.255 21.472311
70.260 21.488045
70.265 21.680513
70.270 21.125057
70.275 21.316971
70.280 21.292141
70.285 21.100412
70.290 20.805807
70.295 20.3554
70.300 19.764624
70.305 20.00646
70.310 20.4575
70.315 21.132832
70.320 20.810923
70.325 20.637897
70.330 21.516937
70.335 21.894911
70.340 21.943609
70.345 22.135181
70.350 21.490858
70.355 21.669912
70.360 21.862425
70.365 21.349279
70.370 21.631935
70.375 21.745972
70.380 20.943558
70.385 21.108261
70.390 21.498281
70.395 21.339039
70.400 21.708773
70.405 21.124409
70.410 20.907598
70.415 20.539265
70.420 20.240532
70.425 19.348097
70.430 19.148884
70.435 18.810642
70.440 19.271795
70.445 19.291136
70.450 19.325584
70.455 19.364817
70.460 19.368244
70.465 19.333828
70.470 19.593121
70.475 19.422033
70.480 20.024853
70.485 20.195349
70.490 20.572977
70.495 20.956718
70.500 21.471684
70.505 21.677383
70.510 21.337963
70.515 20.94944
70.520 20.541859
70.525 20.214937
70.530 19.914715
70.535 19.155281
70.540 18.63563
70.545 18.621815
70.550 19.295816
70.555 19.764538
70.560 19.914967
70.565 20.295059
70.570 20.074026
70.575 20.45962
70.580 20.177454
70.585 18.99954
70.590 18.17827
70.595 18.123489
70.600 17.820425
70.605 17.436104
70.610 17.527233
70.615 18.144041
70.620 18.813852
70.625 18.948593
70.630 18.657104
70.635 18.726408
70.640 19.058565
70.645 18.58511
70.650 18.397829
70.655 18.76527
70.660 19.425797
70.665 19.467268
70.670 19.504293
70.675 19.204041
70.680 19.272924
70.685 19.699938
70.690 19.382124
70.695 19.364185
70.700 19.756485
70.705 19.656664
70.710 20.064224
70.715 20.425451
70.720 20.527447
70.725 20.263121
70.730 19.913525
70.735 19.717339
70.740 20.294474
70.745 19.575476
70.750 19.189442
70.755 19.450565
70.760 19.265299
70.765 18.87162
70.770 19.022781
70.775 18.892309
70.780 19.005461
70.785 18.564074
70.790 18.270897
70.795 18.981636
70.800 18.91769
70.805 18.459362
70.810 18.327164
70.815 18.346737
70.820 18.352711
70.825 18.489231
70.830 18.75671
70.835 19.232601
70.840 19.376106
70.845 19.592638
70.850 20.458624
70.855 20.435295
70.860 20.201115
70.865 20.056932
70.870 19.999392
70.875 20.074093
70.880 19.873566
70.885 19.487213
70.890 19.340832
70.895 19.522831
70.900 19.790236
70.905 19.730623
70.910 19.918791
70.915 19.851152
70.920 19.476513
70.925 19.195244
70.930 18.746367
70.935 18.811392
70.940 19.204769
70.945 18.959908
70.950 19.003309
70.955 19.438808
70.960 20.252842
70.965 20.207903
70.970 20.003382
70.975 19.236038
70.980 18.791815
70.985 18.887377
70.990 18.798965
70.995 17.996164
71.000 17.981115
71.005 17.78409
71.010 18.333559
71.015 18.675432
71.020 18.936287
71.025 18.494183
71.030 19.009563
71.035 19.464577
71.040 19.417032
71.045 19.468433
71.050 19.042812
71.055 18.910847
71.060 19.069017
71.065 18.880959
71.070 18.586451
71.075 18.873432
71.080 19.025476
71.085 19.4317
71.090 19.28689
71.095 18.689159
71.100 18.535454
71.105 18.111723
71.110 17.818838
71.115 17.739613
71.120 17.586216
71.125 18.194023
71.130 18.738142
71.135 19.050678
71.140 18.764776
71.145 17.947044
71.150 17.985123
71.155 17.98291
71.160 18.019865
71.165 18.356617
71.170 18.275814
71.175 19.074492
71.180 19.767883
71.185 19.717447
71.190 19.419939
71.195 19.166111
71.200 19.136751
71.205 19.064425
71.210 19.276312
71.215 18.942524
71.220 19.327818
71.225 19.620066
71.230 19.753542
71.235 20.072359
71.240 20.343439
71.245 20.291275
71.250 20.145027
71.255 19.469833
71.260 18.84889
71.265 19.079424
71.270 19.009251
71.275 18.439941
71.280 18.213934
71.285 18.30538
71.290 18.429054
71.295 18.526258
71.300 18.27334
71.305 17.771849
71.310 18.055014
71.315 17.983492
71.320 18.854303
71.325 19.395723
71.330 19.959904
71.335 19.815794
71.340 19.766895
71.345 20.109259
71.350 19.887703
71.355 19.14308
71.360 18.925577
71.365 18.256851
71.370 17.926167
71.375 18.156837
71.380 18.324118
71.385 18.343737
71.390 18.323526
71.395 18.162119
71.400 18.840643
71.405 19.601217
71.410 20.014683
71.415 20.098564
71.420 20.529888
71.425 20.06218
71.430 20.056293
71.435 19.858616
71.440 18.996986
71.445 18.614296
71.450 18.766306
71.455 18.971172
71.460 19.139246
71.465 18.871969
71.470 18.961716
71.475 19.053047
71.480 19.087038
71.485 19.181841
71.490 18.918028
71.495 19.224731
71.500 19.350231
71.505 19.184362
71.510 18.784655
71.515 18.13632
71.520 18.024059
71.525 18.136824
71.530 18.499432
71.535 18.903702
71.540 19.231621
71.545 19.261097
71.550 19.458353
71.555 19.558319
71.560 19.512733
71.565 18.696726
71.570 18.170853
71.575 18.378456
71.580 18.380091
71.585 17.861689
71.590 17.262327
71.595 17.16807
71.600 17.02627
71.605 16.80868
71.610 16.231243
71.615 16.275747
71.620 16.552967
71.625 16.979733
71.630 17.447086
71.635 17.967052
71.640 18.253225
71.645 18.535093
71.650 19.038939
71.655 19.099052
71.660 18.331217
71.665 18.042257
71.670 18.416595
71.675 19.122223
71.680 19.652058
71.685 19.262344
71.690 19.563314
71.695 20.141546
71.700 20.371202
71.705 20.509205
71.710 19.874601
71.715 19.619764
71.720 20.189117
71.725 19.838047
71.730 19.297192
71.735 18.639053
71.740 17.784548
71.745 18.126957
71.750 18.211086
71.755 17.876898
71.760 18.426001
71.765 19.276533
71.770 19.626972
71.775 19.073059
71.780 18.268749
71.785 17.932079
71.790 18.049662
71.795 17.908737
71.800 17.363922
71.805 17.611238
71.810 17.991257
71.815 18.897108
71.820 18.730549
71.825 17.911049
71.830 17.484016
71.835 17.738346
71.840 18.117132
71.845 18.687979
71.850 17.760361
71.855 17.723944
71.860 18.924204
71.865 19.321272
71.870 19.178423
71.875 18.988783
71.880 18.877657
71.885 19.228283
71.890 19.015158
71.895 18.349918
71.900 18.147913
71.905 18.546169
71.910 18.991581
71.915 19.421932
71.920 19.458052
71.925 19.450737
71.930 19.171776
71.935 18.902014
71.940 18.203117
71.945 17.409914
71.950 17.180519
71.955 17.398613
71.960 17.886793
71.965 18.412455
71.970 18.721458
71.975 18.923723
71.980 19.208107
71.985 19.61121
71.990 19.945997
71.995 20.177736
72.000 20.326492
72.005 20.390265
72.010 20.923252
72.015 20.607603
72.020 20.406315
72.025 20.483963
72.030 20.793276
72.035 20.325829
72.040 20.050846
72.045 19.49712
72.050 19.427486
72.055 19.655869
72.060 19.853884
72.065 19.458994
72.070 19.34938
72.075 19.008389
72.080 18.851513
72.085 18.864464
72.090 17.748461
72.095 16.761127
72.100 16.75585
72.105 16.946375
72.110 17.310356
72.115 17.583736
72.120 18.097061
72.125 18.359854
72.130 18.694551
72.135 18.535704
72.140 18.007353
72.145 17.543282
72.150 16.892073
72.155 16.744682
72.160 17.027185
72.165 17.146576
72.170 17.240923
72.175 17.950937
72.180 18.534018
72.185 18.833893
72.190 18.524187
72.195 18.855812
72.200 19.16147
72.205 19.329086
72.210 19.134501
72.215 18.703867
72.220 18.958878
72.225 19.00156
72.230 18.914028
72.235 19.245169
72.240 19.543018
72.245 19.62785
72.250 21.151011
72.255 21.541931
72.260 21.242418
72.265 20.612169
72.270 20.205505
72.275 19.800844
72.280 18.85721
72.285 16.996111
72.290 16.734024
72.295 16.840824
72.300 16.908596
72.305 16.349007
72.310 16.70603
72.315 17.211788
72.320 17.04797
72.325 17.393879
72.330 17.819073
72.335 18.247431
72.340 18.89818
72.345 18.892799
72.350 19.130821
72.355 19.444014
72.360 19.412128
72.365 19.381163
72.370 19.349312
72.375 19.342762
72.380 19.862942
72.385 19.351851
72.390 19.332672
72.395 18.323185
72.400 17.703457
72.405 17.032078
72.410 16.962523
72.415 16.524485
72.420 16.942375
72.425 16.635067
72.430 17.045902
72.435 17.310963
72.440 17.388048
72.445 17.444283
72.450 17.452665
72.455 17.379318
72.460 17.914429
72.465 18.327534
72.470 18.240273
72.475 18.850864
72.480 18.767059
72.485 18.722057
72.490 18.955076
72.495 18.683363
72.500 19.287663
72.505 19.531681
72.510 19.391399
72.515 19.488369
72.520 19.803806
72.525 20.606619
72.530 20.480745
72.535 20.23337
72.540 19.911804
72.545 19.231857
72.550 19.602993
72.555 19.424429
72.560 19.250034
72.565 19.523796
72.570 19.470314
72.575 19.47323
72.580 19.929218
72.585 20.335655
72.590 19.978544
72.595 19.737423
72.600 19.372204
72.605 19.835821
72.610 20.152906
72.615 19.818924
72.620 18.989601
72.625 18.911039
72.630 18.488678
72.635 18.164692
72.640 17.069963
72.645 16.880119
72.650 16.633968
72.655 16.411701
72.660 16.329159
72.665 16.384903
72.670 16.688999
72.675 17.434727
72.680 17.359058
72.685 17.770748
72.690 17.636343
72.695 17.886444
72.700 17.963007
72.705 17.913919
72.710 17.566505
72.715 17.746065
72.720 17.845024
72.725 18.26445
72.730 18.717062
72.735 18.362305
72.740 18.293926
72.745 18.68598
72.750 18.361691
72.755 18.280663
72.760 18.015614
72.765 17.842026
72.770 17.951986
72.775 17.777737
72.780 17.611832
72.785 17.611523
72.790 17.245924
72.795 17.051643
72.800 16.907648
72.805 16.758972
72.810 16.501274
72.815 16.595129
72.820 16.957382
72.825 17.085943
72.830 17.388241
72.835 17.659655
72.840 17.553738
72.845 17.330372
72.850 17.145937
72.855 17.156206
72.860 17.037327
72.865 16.915585
72.870 17.635075
72.875 17.873312
72.880 18.248873
72.885 17.847317
72.890 17.450159
72.895 17.879755
72.900 17.182758
72.905 16.854633
72.910 17.070831
72.915 16.637581
72.920 17.021263
72.925 16.863361
72.930 16.741798
72.935 16.680702
72.940 16.353659
72.945 16.968014
72.950 17.03023
72.955 17.193382
72.960 17.645327
72.965 17.598042
72.970 18.354799
72.975 18.532259
72.980 18.371103
72.985 18.505287
72.990 17.965158
72.995 17.42057
73.000 17.218521
