!@!!GADDS PLOTSO FILE: Chi integration type
!@!!Title/SampleName: map-125
!@!!Comment: ?
!@!!User: Bruker Instrument Administrator
!@!!Site: University of Illinois Chicago
!@!!Frame: map-125_01_000.gfrm
!@!!Wavelengths    1.54184   1.54056   1.54439
!@!!Frame angles: 2Theta: 63.000 Omega: 50.000 Phi: 0.000 Chi: 90.000
!@!!Integration range: 2Theta: 53.000 to 73.000  Gamma: -105.000 to -75.000
!@!!Integration method: bin normalized
!@!N
!@!SS
!@!M
!@!L 0.0 0.0 0.0 0.0
!@!XDegrees
!@!YCounts
53.000 4.208233
53.005 4.232529
53.010 4.311604
53.015 4.283938
53.020 4.305234
53.025 4.098608
53.030 4.02427
53.035 4.233927
53.040 4.444335
53.045 4.755282
53.050 4.947913
53.055 5.262434
53.060 5.143682
53.065 5.048191
53.070 5.446716
53.075 5.604713
53.080 5.546497
53.085 5.439312
53.090 5.063484
53.095 5.088696
53.100 5.064813
53.105 4.891112
53.110 4.961816
53.115 5.000375
53.120 5.02481
53.125 5.270343
53.130 5.488256
53.135 5.657648
53.140 5.570882
53.145 5.33516
53.150 5.357367
53.155 5.434421
53.160 5.118237
53.165 4.702847
53.170 4.746699
53.175 4.845874
53.180 5.001454
53.185 4.941487
53.190 4.759119
53.195 4.707416
53.200 4.380314
53.205 3.934508
53.210 3.817018
53.215 3.616868
53.220 3.707037
53.225 3.791662
53.230 4.028307
53.235 4.227022
53.240 4.34117
53.245 4.123418
53.250 4.267692
53.255 4.194592
53.260 4.345758
53.265 4.36628
53.270 4.757417
53.275 4.875061
53.280 4.865022
53.285 4.730978
53.290 4.840009
53.295 5.055685
53.300 5.096066
53.305 4.987761
53.310 4.992313
53.315 5.049432
53.320 4.926879
53.325 4.996222
53.330 5.061147
53.335 4.480755
53.340 4.403053
53.345 4.281487
53.350 4.421725
53.355 4.260912
53.360 4.079373
53.365 4.318739
53.370 4.562593
53.375 4.696276
53.380 4.842354
53.385 4.465362
53.390 4.392812
53.395 4.090201
53.400 3.838493
53.405 3.842395
53.410 4.041623
53.415 4.151376
53.420 4.317382
53.425 4.719607
53.430 4.790427
53.435 5.149871
53.440 4.937381
53.445 4.572161
53.450 4.869015
53.455 5.264843
53.460 5.073347
53.465 5.117701
53.470 5.089055
53.475 5.290792
53.480 5.443439
53.485 5.203979
53.490 4.85607
53.495 5.096757
53.500 4.968835
53.505 4.963668
53.510 4.971286
53.515 4.810872
53.520 4.904073
53.525 4.942815
53.530 4.820846
53.535 4.857603
53.540 4.829651
53.545 4.921889
53.550 4.931291
53.555 4.896596
53.560 4.858559
53.565 4.647684
53.570 4.554977
53.575 4.735864
53.580 4.559306
53.585 4.563208
53.590 4.664677
53.595 5.123235
53.600 5.371889
53.605 5.102833
53.610 5.008765
53.615 5.111429
53.620 5.070093
53.625 4.94665
53.630 4.763671
53.635 5.138484
53.640 5.359543
53.645 5.107603
53.650 5.071034
53.655 4.931168
53.660 4.693474
53.665 4.171416
53.670 3.941216
53.675 4.213497
53.680 4.755822
53.685 4.974254
53.690 4.905354
53.695 5.103714
53.700 5.355579
53.705 5.148751
53.710 4.705975
53.715 4.256043
53.720 4.4012
53.725 4.886304
53.730 4.826024
53.735 4.823544
53.740 5.203791
53.745 5.260076
53.750 5.260052
53.755 4.914568
53.760 4.513228
53.765 4.788612
53.770 4.850147
53.775 4.7348
53.780 4.872307
53.785 5.285944
53.790 5.559026
53.795 6.069443
53.800 5.949912
53.805 5.900811
53.810 6.015073
53.815 6.11019
53.820 5.977186
53.825 6.09296
53.830 5.801083
53.835 5.914642
53.840 6.1753
53.845 6.144367
53.850 5.946986
53.855 5.95111
53.860 5.658604
53.865 5.437862
53.870 4.919641
53.875 4.858169
53.880 4.89783
53.885 5.018445
53.890 5.014987
53.895 5.382567
53.900 5.416285
53.905 5.6082
53.910 5.437558
53.915 5.695806
53.920 5.54121
53.925 5.20169
53.930 4.984654
53.935 5.235482
53.940 5.447137
53.945 5.311013
53.950 5.10969
53.955 4.87879
53.960 5.008787
53.965 5.060144
53.970 4.945208
53.975 4.572868
53.980 4.88086
53.985 5.33742
53.990 5.45998
53.995 5.45267
54.000 5.346212
54.005 5.285267
54.010 5.337081
54.015 5.061996
54.020 5.029729
54.025 5.310565
54.030 5.51283
54.035 5.780779
54.040 6.101788
54.045 6.221409
54.050 6.252603
54.055 6.264675
54.060 6.191903
54.065 6.149322
54.070 6.098145
54.075 5.826735
54.080 6.057875
54.085 6.113523
54.090 6.197147
54.095 6.533798
54.100 6.690704
54.105 7.383048
54.110 7.638169
54.115 7.468308
54.120 7.242256
54.125 7.161258
54.130 6.706919
54.135 6.347458
54.140 6.021065
54.145 6.034658
54.150 6.280683
54.155 6.469112
54.160 6.498775
54.165 6.623706
54.170 6.548669
54.175 6.413741
54.180 6.072239
54.185 5.618518
54.190 5.565936
54.195 5.692161
54.200 5.929697
54.205 6.238373
54.210 6.095256
54.215 6.268935
54.220 6.700945
54.225 7.118221
54.230 6.974582
54.235 6.632744
54.240 6.392054
54.245 6.850634
54.250 6.801402
54.255 6.298171
54.260 5.817376
54.265 5.687603
54.270 6.274182
54.275 6.415102
54.280 6.283822
54.285 6.002887
54.290 6.037088
54.295 6.211501
54.300 6.09023
54.305 5.481196
54.310 5.315199
54.315 5.385163
54.320 5.717894
54.325 6.004782
54.330 5.81677
54.335 5.914067
54.340 5.963391
54.345 5.774474
54.350 5.799325
54.355 5.771532
54.360 5.857483
54.365 6.164743
54.370 6.387637
54.375 6.415542
54.380 6.641428
54.385 6.476712
54.390 6.191329
54.395 5.825477
54.400 5.708264
54.405 5.702294
54.410 5.767561
54.415 5.505307
54.420 5.508323
54.425 5.944398
54.430 5.850757
54.435 5.442059
54.440 5.456822
54.445 5.552665
54.450 5.770973
54.455 5.728196
54.460 5.349764
54.465 5.371838
54.470 5.638436
54.475 5.638567
54.480 5.84488
54.485 5.796946
54.490 5.732625
54.495 5.821598
54.500 5.753047
54.505 5.323728
54.510 4.949786
54.515 4.583061
54.520 4.912391
54.525 4.999984
54.530 5.319097
54.535 5.76792
54.540 5.98031
54.545 6.040191
54.550 6.174109
54.555 5.849154
54.560 5.76308
54.565 5.454436
54.570 5.499216
54.575 5.829897
54.580 5.680501
54.585 5.543892
54.590 5.82828
54.595 5.925899
54.600 5.84847
54.605 6.070632
54.610 6.359327
54.615 6.450673
54.620 6.117493
54.625 5.789294
54.630 5.617556
54.635 5.661322
54.640 5.312915
54.645 5.028175
54.650 5.149902
54.655 5.181024
54.660 5.564853
54.665 6.08007
54.670 6.202837
54.675 6.420815
54.680 6.792239
54.685 6.804751
54.690 6.957129
54.695 6.837928
54.700 6.504667
54.705 6.345094
54.710 6.202261
54.715 6.023919
54.720 5.945413
54.725 6.096009
54.730 6.184818
54.735 6.338766
54.740 6.250629
54.745 6.159017
54.750 6.147129
54.755 6.065559
54.760 5.730252
54.765 5.881969
54.770 5.976368
54.775 5.879898
54.780 5.902045
54.785 5.862514
54.790 5.958199
54.795 5.901527
54.800 5.643315
54.805 5.70976
54.810 5.897656
54.815 5.955288
54.820 6.032413
54.825 5.966057
54.830 6.190269
54.835 6.260313
54.840 6.228528
54.845 6.429657
54.850 6.643147
54.855 6.702221
54.860 6.845667
54.865 6.607408
54.870 6.358302
54.875 6.144912
54.880 5.88241
54.885 5.870045
54.890 5.786846
54.895 5.8445
54.900 5.6343
54.905 5.550756
54.910 5.618428
54.915 5.606917
54.920 5.645638
54.925 5.621722
54.930 5.412051
54.935 5.592333
54.940 5.902627
54.945 6.225173
54.950 6.357348
54.955 6.135818
54.960 6.278915
54.965 6.542772
54.970 6.38605
54.975 6.115879
54.980 5.726481
54.985 5.374633
54.990 5.543472
54.995 5.538025
55.000 5.401279
55.005 5.363229
55.010 5.759129
55.015 5.821118
55.020 5.95108
55.025 6.08022
55.030 5.951678
55.035 6.099412
55.040 5.921454
55.045 5.716454
55.050 5.757327
55.055 5.733541
55.060 5.97491
55.065 6.283138
55.070 6.406434
55.075 6.444367
55.080 6.580838
55.085 6.471
55.090 6.212903
55.095 5.754395
55.100 5.688394
55.105 5.59914
55.110 5.537176
55.115 5.154747
55.120 5.345446
55.125 5.24637
55.130 5.093781
55.135 5.211701
55.140 5.482853
55.145 5.607964
55.150 5.777804
55.155 5.828903
55.160 6.073903
55.165 5.986291
55.170 5.905675
55.175 5.530437
55.180 6.015083
55.185 6.329119
55.190 6.434034
55.195 6.795002
55.200 6.976297
55.205 7.212876
55.210 7.170997
55.215 7.354519
55.220 7.386711
55.225 7.179035
55.230 6.872381
55.235 6.495536
55.240 6.519562
55.245 6.45419
55.250 5.801382
55.255 5.613525
55.260 5.870315
55.265 6.303671
55.270 6.544328
55.275 6.3594
55.280 6.289595
55.285 6.197168
55.290 6.010146
55.295 6.029275
55.300 5.654083
55.305 5.582834
55.310 5.960084
55.315 6.130833
55.320 6.224267
55.325 6.324116
55.330 6.445563
55.335 6.632765
55.340 6.790211
55.345 6.567212
55.350 6.581933
55.355 6.938546
55.360 7.302777
55.365 7.463096
55.370 7.585959
55.375 7.654077
55.380 7.580737
55.385 7.549122
55.390 7.282305
55.395 6.765409
55.400 6.245493
55.405 6.055546
55.410 5.833116
55.415 5.9408
55.420 5.85657
55.425 5.549303
55.430 5.339082
55.435 5.385557
55.440 5.225319
55.445 5.082153
55.450 5.459768
55.455 5.62462
55.460 5.821636
55.465 6.040785
55.470 6.0739
55.475 6.169494
55.480 6.166244
55.485 5.849675
55.490 5.859132
55.495 5.894041
55.500 5.737406
55.505 5.860655
55.510 5.974191
55.515 6.114442
55.520 6.025769
55.525 5.871171
55.530 6.073515
55.535 6.307214
55.540 6.220913
55.545 6.215778
55.550 6.021195
55.555 5.78076
55.560 5.652722
55.565 5.686097
55.570 5.499371
55.575 5.585865
55.580 5.364167
55.585 5.624069
55.590 5.788367
55.595 5.710185
55.600 5.665985
55.605 5.930736
55.610 5.791007
55.615 5.788373
55.620 5.697041
55.625 5.76041
55.630 5.795305
55.635 5.626339
55.640 5.289997
55.645 5.15882
55.650 5.208519
55.655 5.120495
55.660 4.872207
55.665 4.982331
55.670 4.978421
55.675 5.099429
55.680 5.012684
55.685 5.014289
55.690 5.062596
55.695 5.003441
55.700 4.958943
55.705 5.2329
55.710 5.539227
55.715 5.794057
55.720 6.038045
55.725 6.141152
55.730 6.641183
55.735 6.864917
55.740 6.717022
55.745 6.68036
55.750 6.599233
55.755 6.510073
55.760 6.525312
55.765 6.179513
55.770 5.8842
55.775 5.794453
55.780 5.752506
55.785 5.762362
55.790 5.952581
55.795 5.972543
55.800 6.078549
55.805 6.267718
55.810 6.202803
55.815 6.338442
55.820 5.949156
55.825 5.749774
55.830 5.947996
55.835 6.291656
55.840 6.508105
55.845 6.132094
55.850 6.359369
55.855 6.843787
55.860 6.976261
55.865 6.979913
55.870 6.21766
55.875 6.118534
55.880 6.554836
55.885 6.557959
55.890 6.667361
55.895 6.855034
55.900 6.938658
55.905 7.417575
55.910 7.157323
55.915 6.984867
55.920 6.781399
55.925 6.943625
55.930 6.811218
55.935 6.48971
55.940 6.310086
55.945 6.904421
55.950 7.169101
55.955 7.369172
55.960 7.406648
55.965 7.45764
55.970 7.873781
55.975 7.96416
55.980 7.625329
55.985 7.52532
55.990 7.049361
55.995 6.476239
56.000 6.501055
56.005 6.473832
56.010 6.42168
56.015 6.641867
56.020 6.26617
56.025 6.427105
56.030 6.894948
56.035 6.871253
56.040 6.946971
56.045 6.948478
56.050 6.658391
56.055 6.705099
56.060 6.653848
56.065 6.245255
56.070 5.86864
56.075 5.779296
56.080 6.015147
56.085 6.307941
56.090 6.323986
56.095 6.310216
56.100 6.330865
56.105 6.888143
56.110 6.807206
56.115 6.649841
56.120 6.888988
56.125 7.031812
56.130 7.259642
56.135 7.301288
56.140 7.059151
56.145 7.092013
56.150 6.970374
56.155 6.556077
56.160 6.690906
56.165 6.382596
56.170 6.225023
56.175 5.996502
56.180 5.69264
56.185 5.389275
56.190 5.329486
56.195 5.243502
56.200 5.263666
56.205 5.342859
56.210 5.767622
56.215 6.633916
56.220 7.028598
56.225 6.966489
56.230 6.952505
56.235 7.028728
56.240 6.921042
56.245 6.749612
56.250 6.695849
56.255 6.852839
56.260 7.22042
56.265 7.272687
56.270 7.357797
56.275 7.534597
56.280 7.263342
56.285 7.213658
56.290 7.154233
56.295 7.301161
56.300 7.539021
56.305 7.956719
56.310 8.091525
56.315 7.995281
56.320 8.032986
56.325 7.811967
56.330 7.166172
56.335 6.62448
56.340 6.164917
56.345 6.583889
56.350 6.574748
56.355 6.189345
56.360 6.400164
56.365 7.19831
56.370 7.61259
56.375 7.318541
56.380 6.466637
56.385 6.271386
56.390 6.204867
56.395 6.305452
56.400 6.222726
56.405 6.244168
56.410 6.376957
56.415 6.525534
56.420 6.610846
56.425 6.669271
56.430 6.489637
56.435 6.346576
56.440 6.574596
56.445 6.782646
56.450 7.151758
56.455 7.226002
56.460 7.363032
56.465 7.106318
56.470 6.992886
56.475 6.878746
56.480 6.888998
56.485 6.741781
56.490 7.022605
56.495 6.890533
56.500 6.750304
56.505 6.442703
56.510 6.560563
56.515 6.798148
56.520 6.726451
56.525 6.419514
56.530 6.611177
56.535 7.032029
56.540 7.059816
56.545 6.754567
56.550 6.366678
56.555 6.0681
56.560 6.152182
56.565 5.951658
56.570 5.90215
56.575 5.789176
56.580 5.721612
56.585 6.133105
56.590 6.333707
56.595 6.129797
56.600 6.345427
56.605 6.268851
56.610 6.482484
56.615 6.715141
56.620 6.420503
56.625 6.613703
56.630 6.884943
56.635 6.782584
56.640 7.087551
56.645 7.436213
56.650 7.602813
56.655 7.776486
56.660 7.916367
56.665 7.888731
56.670 7.627859
56.675 7.424543
56.680 6.891007
56.685 6.594747
56.690 6.652192
56.695 6.509413
56.700 6.576482
56.705 6.727179
56.710 6.859651
56.715 7.134667
56.720 7.19662
56.725 7.512686
56.730 7.678951
56.735 8.188399
56.740 8.399828
56.745 8.352175
56.750 8.42076
56.755 8.535769
56.760 8.356337
56.765 8.112398
56.770 7.348234
56.775 7.136001
56.780 6.899729
56.785 6.672867
56.790 6.285872
56.795 5.960549
56.800 5.546801
56.805 5.371758
56.810 5.563533
56.815 6.0324
56.820 6.211027
56.825 6.576956
56.830 6.891726
56.835 7.24524
56.840 7.1815
56.845 6.905571
56.850 6.570667
56.855 6.443428
56.860 6.291428
56.865 6.091286
56.870 5.926567
56.875 6.010443
56.880 6.351493
56.885 6.396032
56.890 6.397343
56.895 6.642532
56.900 6.980419
56.905 7.602504
56.910 7.943023
56.915 7.870716
56.920 7.876821
56.925 7.855493
56.930 7.676627
56.935 7.785237
56.940 7.272865
56.945 6.82221
56.950 6.670714
56.955 6.441443
56.960 6.615593
56.965 6.595064
56.970 6.83536
56.975 6.889395
56.980 7.146859
56.985 7.276102
56.990 7.716557
56.995 7.625061
57.000 7.638737
57.005 7.34907
57.010 7.100851
57.015 6.865931
57.020 6.510375
57.025 5.937138
57.030 6.020909
57.035 5.857422
57.040 5.957797
57.045 6.658267
57.050 6.883072
57.055 7.233147
57.060 7.593361
57.065 7.834763
57.070 7.969918
57.075 7.936449
57.080 7.455359
57.085 7.570509
57.090 7.989401
57.095 7.959181
57.100 7.649253
57.105 7.580709
57.110 7.619421
57.115 8.039936
57.120 7.834423
57.125 7.537849
57.130 7.578363
57.135 7.570087
57.140 7.907744
57.145 7.775073
57.150 7.735914
57.155 7.969965
57.160 8.01447
57.165 7.970736
57.170 8.003942
57.175 7.742051
57.180 7.61008
57.185 7.475754
57.190 7.378258
57.195 7.03584
57.200 7.06569
57.205 7.28617
57.210 7.388485
57.215 7.966161
57.220 7.801338
57.225 7.382598
57.230 7.26605
57.235 7.130329
57.240 6.844269
57.245 6.459096
57.250 5.748258
57.255 5.835688
57.260 6.061687
57.265 6.049724
57.270 6.357068
57.275 6.816108
57.280 7.038812
57.285 7.374732
57.290 7.451154
57.295 7.757794
57.300 7.993509
57.305 7.841603
57.310 8.112074
57.315 8.378339
57.320 8.324239
57.325 8.081585
57.330 7.984577
57.335 8.052186
57.340 7.719305
57.345 7.367197
57.350 7.569832
57.355 7.971847
57.360 8.299212
57.365 8.25615
57.370 7.999899
57.375 7.953207
57.380 7.677485
57.385 7.39403
57.390 7.338764
57.395 7.504817
57.400 7.736575
57.405 7.847625
57.410 7.932511
57.415 7.908674
57.420 7.855628
57.425 7.922203
57.430 7.446157
57.435 7.221426
57.440 7.147682
57.445 7.22129
57.450 6.974074
57.455 6.908028
57.460 6.67879
57.465 6.887719
57.470 7.01209
57.475 6.821679
57.480 6.955367
57.485 7.122952
57.490 7.323517
57.495 7.687348
57.500 7.504411
57.505 7.486534
57.510 7.634825
57.515 7.731489
57.520 7.917781
57.525 7.439069
57.530 7.273977
57.535 7.476922
57.540 7.412014
57.545 7.594115
57.550 7.158449
57.555 7.163315
57.560 7.223373
57.565 7.118732
57.570 7.136291
57.575 6.824849
57.580 6.935765
57.585 7.472146
57.590 7.637664
57.595 7.614376
57.600 8.048032
57.605 8.292651
57.610 8.89855
57.615 8.66237
57.620 8.549448
57.625 9.160707
57.630 9.11185
57.635 8.683803
57.640 8.680383
57.645 8.308982
57.650 8.329607
57.655 8.066463
57.660 7.25667
57.665 7.765033
57.670 7.508894
57.675 7.110423
57.680 7.163536
57.685 7.221205
57.690 7.643116
57.695 7.672211
57.700 7.402533
57.705 7.73866
57.710 7.791403
57.715 7.835483
57.720 7.701588
57.725 7.538195
57.730 7.490545
57.735 7.382739
57.740 7.281523
57.745 7.672929
57.750 7.654571
57.755 7.390513
57.760 7.331529
57.765 7.698637
57.770 8.069561
57.775 8.281682
57.780 8.160278
57.785 8.363184
57.790 8.582991
57.795 8.524358
57.800 7.914427
57.805 7.371996
57.810 6.993536
57.815 7.034051
57.820 7.163936
57.825 7.225204
57.830 7.372554
57.835 8.125093
57.840 8.57138
57.845 8.708884
57.850 8.997289
57.855 9.067568
57.860 8.996994
57.865 9.50302
57.870 9.33773
57.875 9.333446
57.880 9.237067
57.885 9.096621
57.890 8.895672
57.895 8.569787
57.900 8.214625
57.905 7.909968
57.910 8.164661
57.915 8.552618
57.920 8.513317
57.925 8.736067
57.930 9.217336
57.935 9.014022
57.940 9.255578
57.945 9.424228
57.950 9.150694
57.955 8.870211
57.960 8.915149
57.965 8.793656
57.970 8.909616
57.975 8.699634
57.980 8.528208
57.985 8.534383
57.990 8.35232
57.995 8.183476
58.000 8.220833
58.005 8.562673
58.010 8.703878
58.015 8.705748
58.020 8.965674
58.025 9.095758
58.030 9.235922
58.035 9.14151
58.040 8.731356
58.045 8.396003
58.050 8.588065
58.055 9.007206
58.060 9.28864
58.065 9.499634
58.070 9.821218
58.075 9.89931
58.080 10.565666
58.085 10.263519
58.090 9.792936
58.095 9.368955
58.100 8.979115
58.105 9.170298
58.110 9.409696
58.115 9.081522
58.120 8.533701
58.125 8.684104
58.130 8.957884
58.135 8.823265
58.140 8.798529
58.145 8.835313
58.150 8.80852
58.155 9.142275
58.160 9.090224
58.165 9.009917
58.170 9.089245
58.175 8.536521
58.180 8.48279
58.185 8.80916
58.190 9.122275
58.195 9.454247
58.200 9.49993
58.205 9.255731
58.210 9.67142
58.215 9.462392
58.220 9.071849
58.225 8.685389
58.230 8.45678
58.235 8.60122
58.240 8.645888
58.245 8.527242
58.250 8.398462
58.255 8.964388
58.260 9.100941
58.265 9.045032
58.270 9.394485
58.275 9.535648
58.280 9.592025
58.285 9.503196
58.290 9.357464
58.295 9.062801
58.300 9.158129
58.305 9.210394
58.310 9.195366
58.315 9.14427
58.320 9.032504
58.325 9.164046
58.330 9.436015
58.335 9.315687
58.340 8.941377
58.345 8.804752
58.350 9.355379
58.355 9.818474
58.360 9.824775
58.365 9.628213
58.370 9.627817
58.375 9.65332
58.380 9.869091
58.385 9.579512
58.390 9.405812
58.395 9.321383
58.400 9.461821
58.405 9.172322
58.410 9.293745
58.415 9.070029
58.420 9.5675
58.425 9.664361
58.430 9.836204
58.435 9.908628
58.440 10.232697
58.445 10.398156
58.450 10.589596
58.455 10.945493
58.460 11.0051
58.465 10.746497
58.470 11.17973
58.475 11.447089
58.480 11.865565
58.485 11.998312
58.490 11.923491
58.495 12.468302
58.500 12.868755
58.505 13.123769
58.510 13.534587
58.515 13.476276
58.520 13.601641
58.525 13.722959
58.530 13.434722
58.535 13.436957
58.540 13.332153
58.545 12.938333
58.550 12.965735
58.555 12.802056
58.560 12.897535
58.565 12.986748
58.570 12.8778
58.575 12.841209
58.580 13.370097
58.585 13.785952
58.590 13.76489
58.595 13.643185
58.600 13.777155
58.605 13.83747
58.610 13.596789
58.615 13.342071
58.620 13.348174
58.625 13.886896
58.630 14.28757
58.635 14.372498
58.640 14.779549
58.645 14.982236
58.650 14.889983
58.655 14.555781
58.660 14.187001
58.665 14.28219
58.670 14.51007
58.675 14.224021
58.680 14.327559
58.685 14.494096
58.690 14.595693
58.695 14.826758
58.700 14.397986
58.705 14.188722
58.710 13.931777
58.715 13.866043
58.720 14.245373
58.725 14.812595
58.730 14.745034
58.735 14.75795
58.740 14.770287
58.745 14.89831
58.750 15.129134
58.755 14.698185
58.760 14.447527
58.765 13.997121
58.770 14.340179
58.775 14.570132
58.780 14.612103
58.785 14.045728
58.790 13.177313
58.795 12.74025
58.800 12.576611
58.805 12.092226
58.810 11.995414
58.815 12.006636
58.820 12.343515
58.825 12.796961
58.830 13.458721
58.835 14.030975
58.840 13.628108
58.845 13.541724
58.850 13.723672
58.855 13.564948
58.860 12.90075
58.865 11.739247
58.870 11.317286
58.875 11.634954
58.880 11.604523
58.885 11.309659
58.890 11.572864
58.895 11.975081
58.900 12.340215
58.905 12.790083
58.910 12.376095
58.915 12.088368
58.920 11.837584
58.925 11.549907
58.930 11.435592
58.935 11.24472
58.940 10.676723
58.945 10.697009
58.950 10.518229
58.955 10.057203
58.960 9.967498
58.965 9.822184
58.970 9.676896
58.975 9.870645
58.980 10.44845
58.985 10.421252
58.990 10.571022
58.995 10.07637
59.000 9.990686
59.005 9.957645
59.010 9.675754
59.015 9.136215
59.020 9.259945
59.025 9.460893
59.030 9.476959
59.035 9.731277
59.040 9.864749
59.045 9.838763
59.050 9.719223
59.055 9.528975
59.060 9.469319
59.065 9.848333
59.070 9.489903
59.075 8.876314
59.080 8.722334
59.085 8.90163
59.090 9.084301
59.095 8.853115
59.100 8.415497
59.105 8.351855
59.110 8.565338
59.115 8.414607
59.120 8.049479
59.125 7.860508
59.130 8.244075
59.135 8.881773
59.140 9.425037
59.145 9.538136
59.150 9.564417
59.155 9.952124
59.160 10.064507
59.165 9.653292
59.170 9.141172
59.175 8.635265
59.180 8.809999
59.185 8.730763
59.190 8.47063
59.195 8.330369
59.200 8.325387
59.205 8.348838
59.210 8.15319
59.215 7.582854
59.220 7.575415
59.225 7.311393
59.230 7.534057
59.235 7.389565
59.240 7.714513
59.245 8.514794
59.250 8.861032
59.255 8.972007
59.260 9.116758
59.265 9.507445
59.270 10.061877
59.275 9.946338
59.280 9.395015
59.285 9.085988
59.290 9.061802
59.295 9.250463
59.300 9.35797
59.305 9.283949
59.310 9.1563
59.315 9.507641
59.320 9.353848
59.325 9.143856
59.330 8.709475
59.335 8.37206
59.340 8.392968
59.345 8.600944
59.350 8.100403
59.355 8.172194
59.360 8.575661
59.365 8.421356
59.370 8.336233
59.375 8.132894
59.380 7.860604
59.385 8.133677
59.390 8.496385
59.395 8.685616
59.400 9.231342
59.405 9.075875
59.410 8.809
59.415 9.06374
59.420 9.174382
59.425 8.95153
59.430 8.477524
59.435 7.984982
59.440 7.976027
59.445 7.781273
59.450 7.467834
59.455 7.159616
59.460 7.283147
59.465 7.66913
59.470 7.744497
59.475 8.047981
59.480 8.112479
59.485 8.007978
59.490 8.554776
59.495 8.479745
59.500 8.179593
59.505 8.090421
59.510 8.040894
59.515 8.431516
59.520 8.892118
59.525 8.628224
59.530 8.470548
59.535 8.551377
59.540 8.404201
59.545 8.211305
59.550 8.292912
59.555 7.947906
59.560 7.857375
59.565 8.117876
59.570 8.16785
59.575 8.541945
59.580 8.809205
59.585 8.475103
59.590 8.521432
59.595 8.839461
59.600 8.450151
59.605 8.281836
59.610 8.583051
59.615 8.717123
59.620 8.686503
59.625 8.380492
59.630 8.049874
59.635 8.390967
59.640 8.618823
59.645 8.331927
59.650 7.905707
59.655 8.002816
59.660 8.468409
59.665 8.868682
59.670 8.950289
59.675 8.655812
59.680 8.424562
59.685 8.757765
59.690 9.025054
59.695 8.86184
59.700 8.506876
59.705 8.171383
59.710 8.791477
59.715 8.850155
59.720 8.672986
59.725 8.884771
59.730 9.182932
59.735 9.589678
59.740 9.52767
59.745 9.331951
59.750 9.346611
59.755 9.180784
59.760 8.811456
59.765 8.593121
59.770 8.229952
59.775 8.016188
59.780 7.560868
59.785 7.150229
59.790 7.232348
59.795 7.143679
59.800 7.248786
59.805 7.317933
59.810 7.7077
59.815 8.215474
59.820 8.641612
59.825 8.521374
59.830 8.433548
59.835 8.259275
59.840 8.304767
59.845 8.914793
59.850 8.533243
59.855 8.330938
59.860 8.382942
59.865 8.253909
59.870 8.22886
59.875 8.213802
59.880 7.894838
59.885 8.209704
59.890 8.445085
59.895 8.666531
59.900 8.421344
59.905 8.383769
59.910 8.547957
59.915 8.332378
59.920 8.221061
59.925 7.67947
59.930 7.543658
59.935 7.738962
59.940 7.668154
59.945 7.421005
59.950 7.673457
59.955 7.960444
59.960 8.780756
59.965 9.473408
59.970 9.608973
59.975 9.437966
59.980 9.488046
59.985 9.547703
59.990 9.562532
59.995 9.15765
60.000 8.51007
60.005 8.877783
60.010 9.20953
60.015 9.481322
60.020 9.23375
60.025 9.290049
60.030 8.892175
60.035 8.919946
60.040 8.600348
60.045 8.556374
60.050 8.595741
60.055 8.596199
60.060 8.488547
60.065 8.95722
60.070 8.835509
60.075 9.01622
60.080 8.80806
60.085 8.54298
60.090 8.454166
60.095 8.364153
60.100 8.30771
60.105 8.702123
60.110 8.549556
60.115 8.514645
60.120 8.351055
60.125 8.463361
60.130 8.558438
60.135 8.348142
60.140 7.951306
60.145 8.004887
60.150 8.145186
60.155 8.230067
60.160 8.206795
60.165 7.89495
60.170 8.406549
60.175 8.552309
60.180 8.21199
60.185 7.882997
60.190 7.973392
60.195 8.11249
60.200 8.176003
60.205 7.755251
60.210 7.813924
60.215 8.026112
60.220 8.226981
60.225 8.227957
60.230 8.279453
60.235 8.654888
60.240 8.646196
60.245 8.599038
60.250 8.53587
60.255 8.418318
60.260 8.500954
60.265 8.56549
60.270 8.567053
60.275 8.770366
60.280 8.74909
60.285 8.567446
60.290 8.51961
60.295 8.085165
60.300 7.800462
60.305 7.345356
60.310 6.890659
60.315 7.059431
60.320 7.473057
60.325 7.490735
60.330 7.750569
60.335 7.886488
60.340 8.379386
60.345 9.052974
60.350 9.481903
60.355 9.337682
60.360 9.31024
60.365 9.123565
60.370 9.214931
60.375 9.142281
60.380 8.628131
60.385 7.981653
60.390 7.785764
60.395 8.263295
60.400 8.1068
60.405 7.509109
60.410 7.403624
60.415 7.578776
60.420 8.168513
60.425 8.04659
60.430 7.662796
60.435 7.961068
60.440 8.159914
60.445 8.185999
60.450 8.382394
60.455 7.966305
60.460 8.300207
60.465 8.662616
60.470 8.607723
60.475 8.516543
60.480 8.268934
60.485 8.02872
60.490 8.463018
60.495 8.385113
60.500 8.024655
60.505 8.380108
60.510 9.173162
60.515 9.957132
60.520 10.075519
60.525 10.041928
60.530 10.046758
60.535 10.652239
60.540 10.243873
60.545 9.479917
60.550 8.788544
60.555 8.580645
60.560 8.418416
60.565 8.374804
60.570 8.037505
60.575 8.163999
60.580 8.288057
60.585 8.398471
60.590 8.096966
60.595 8.084453
60.600 7.900875
60.605 7.618576
60.610 7.606543
60.615 7.598834
60.620 7.58505
60.625 7.871779
60.630 8.08401
60.635 8.12032
60.640 8.238914
60.645 8.360834
60.650 8.300838
60.655 8.787739
60.660 9.06064
60.665 9.226643
60.670 9.240018
60.675 9.207879
60.680 9.01155
60.685 9.045444
60.690 8.6428
60.695 8.712631
60.700 8.707273
60.705 8.86492
60.710 8.893901
60.715 8.957858
60.720 9.002872
60.725 9.007745
60.730 8.953676
60.735 8.790298
60.740 8.705175
60.745 8.745811
60.750 9.21369
60.755 9.616397
60.760 9.92137
60.765 9.826023
60.770 9.799377
60.775 9.815301
60.780 9.725307
60.785 9.25682
60.790 9.094007
60.795 9.083616
60.800 8.986257
60.805 9.269703
60.810 9.809974
60.815 10.287287
60.820 10.206328
60.825 9.967046
60.830 9.796598
60.835 9.788481
60.840 9.456038
60.845 9.199863
60.850 8.87082
60.855 9.029017
60.860 9.165101
60.865 9.104989
60.870 9.138827
60.875 8.947398
60.880 8.799905
60.885 9.203773
60.890 9.420693
60.895 9.265655
60.900 9.033712
60.905 9.056687
60.910 9.248446
60.915 9.252419
60.920 9.034073
60.925 8.429124
60.930 8.517704
60.935 8.831629
60.940 9.121999
60.945 8.938263
60.950 8.820579
60.955 8.508885
60.960 8.565061
60.965 8.617619
60.970 8.50964
60.975 8.173965
60.980 8.20591
60.985 8.14267
60.990 8.304496
60.995 8.343439
61.000 8.09143
61.005 7.970079
61.010 8.042392
61.015 8.075009
61.020 8.014408
61.025 8.636036
61.030 8.364785
61.035 8.525959
61.040 8.671879
61.045 8.609547
61.050 9.086509
61.055 9.355648
61.060 9.051274
61.065 9.260204
61.070 9.232584
61.075 9.167472
61.080 9.129122
61.085 8.639809
61.090 8.303611
61.095 7.957949
61.100 8.057342
61.105 7.881954
61.110 8.022485
61.115 8.14624
61.120 8.152471
61.125 7.9802
61.130 8.054315
61.135 8.108736
61.140 8.156912
61.145 8.177588
61.150 8.301686
61.155 8.526172
61.160 9.291196
61.165 9.568297
61.170 9.276622
61.175 9.150023
61.180 9.116717
61.185 9.251309
61.190 9.463177
61.195 9.931888
61.200 10.193457
61.205 10.358524
61.210 10.761876
61.215 10.895018
61.220 10.40957
61.225 10.023444
61.230 9.115638
61.235 9.174973
61.240 9.201308
61.245 8.954803
61.250 8.901558
61.255 9.161201
61.260 8.987363
61.265 9.231202
61.270 8.989148
61.275 9.028309
61.280 8.921078
61.285 8.763003
61.290 8.652318
61.295 8.548463
61.300 8.506273
61.305 8.867073
61.310 9.11783
61.315 9.110256
61.320 9.119733
61.325 9.231969
61.330 9.168825
61.335 8.982604
61.340 8.668589
61.345 8.493391
61.350 8.854298
61.355 8.831808
61.360 8.800429
61.365 8.711513
61.370 8.364174
61.375 7.999876
61.380 8.250997
61.385 8.175038
61.390 8.272962
61.395 8.200485
61.400 8.392261
61.405 8.411104
61.410 8.991955
61.415 9.124649
61.420 8.88781
61.425 8.988799
61.430 9.097593
61.435 9.159435
61.440 9.536868
61.445 9.155403
61.450 8.848025
61.455 9.077565
61.460 8.936834
61.465 9.096682
61.470 8.959515
61.475 9.29916
61.480 9.322491
61.485 9.152206
61.490 8.667925
61.495 8.263133
61.500 8.463273
61.505 8.695441
61.510 8.248759
61.515 8.215575
61.520 8.574769
61.525 8.67354
61.530 8.746176
61.535 8.359529
61.540 8.140106
61.545 8.375928
61.550 9.187236
61.555 9.291183
61.560 9.389849
61.565 9.535302
61.570 9.527618
61.575 9.593223
61.580 9.171906
61.585 8.605236
61.590 8.1127
61.595 7.917196
61.600 8.103468
61.605 8.663608
61.610 8.737185
61.615 9.063233
61.620 9.184131
61.625 9.635202
61.630 9.884518
61.635 9.451383
61.640 8.811371
61.645 8.722834
61.650 8.716762
61.655 8.591951
61.660 8.771559
61.665 8.775767
61.670 9.258351
61.675 9.723461
61.680 9.927875
61.685 9.742811
61.690 9.765303
61.695 9.979085
61.700 9.995578
61.705 9.899445
61.710 9.357585
61.715 9.075838
61.720 8.708877
61.725 7.992079
61.730 7.475426
61.735 7.280635
61.740 7.218592
61.745 7.506176
61.750 8.090738
61.755 8.80534
61.760 9.226607
61.765 9.616432
61.770 9.800635
61.775 9.837501
61.780 10.0206
61.785 9.412405
61.790 9.14118
61.795 8.772717
61.800 8.558501
61.805 8.461782
61.810 8.262844
61.815 8.084334
61.820 7.863813
61.825 8.185853
61.830 8.770475
61.835 8.880833
61.840 8.956141
61.845 9.008337
61.850 9.098588
61.855 10.048661
61.860 9.622434
61.865 9.447863
61.870 9.289077
61.875 9.217179
61.880 9.179179
61.885 9.104667
61.890 8.66828
61.895 9.088171
61.900 9.631437
61.905 9.437245
61.910 9.310987
61.915 9.20855
61.920 9.215005
61.925 9.314124
61.930 8.939751
61.935 8.623149
61.940 9.018729
61.945 9.240084
61.950 9.360511
61.955 9.429477
61.960 9.410424
61.965 9.357433
61.970 9.38626
61.975 9.607959
61.980 9.784576
61.985 9.654445
61.990 9.557859
61.995 9.302579
62.000 9.475629
62.005 9.54444
62.010 9.275473
62.015 8.978875
62.020 8.97579
62.025 8.604456
62.030 8.750854
62.035 8.596545
62.040 8.030234
62.045 8.047878
62.050 8.182981
62.055 8.341848
62.060 8.446791
62.065 8.196901
62.070 8.387768
62.075 8.590756
62.080 8.419837
62.085 8.64988
62.090 8.542342
62.095 8.413333
62.100 8.316566
62.105 8.107196
62.110 8.187914
62.115 8.043365
62.120 8.418198
62.125 8.4726
62.130 8.657186
62.135 9.072304
62.140 9.148664
62.145 9.125209
62.150 9.663034
62.155 9.793835
62.160 10.067084
62.165 10.270994
62.170 10.602295
62.175 10.952852
62.180 10.847867
62.185 10.034846
62.190 9.017641
62.195 8.604789
62.200 8.377325
62.205 7.579793
62.210 7.270436
62.215 7.220031
62.220 7.612495
62.225 8.089445
62.230 8.205968
62.235 8.312484
62.240 8.251907
62.245 8.257011
62.250 8.349566
62.255 8.241061
62.260 8.336306
62.265 8.394906
62.270 8.678973
62.275 9.25827
62.280 9.501312
62.285 9.501821
62.290 9.581352
62.295 9.633955
62.300 10.318147
62.305 10.329764
62.310 9.802933
62.315 9.796282
62.320 9.93197
62.325 9.965432
62.330 9.683923
62.335 8.949245
62.340 8.768078
62.345 8.549493
62.350 8.407726
62.355 8.844315
62.360 8.84103
62.365 8.887934
62.370 9.142078
62.375 8.882197
62.380 8.956775
62.385 8.503123
62.390 8.10362
62.395 8.451365
62.400 8.908253
62.405 8.906731
62.410 9.172091
62.415 9.42883
62.420 9.659398
62.425 9.470662
62.430 9.260354
62.435 8.944011
62.440 9.201462
62.445 9.392345
62.450 9.515369
62.455 9.91465
62.460 10.592649
62.465 10.550091
62.470 10.663655
62.475 10.408197
62.480 10.39166
62.485 10.170525
62.490 9.821707
62.495 9.384005
62.500 9.055794
62.505 8.508853
62.510 8.568191
62.515 8.411215
62.520 8.506861
62.525 8.404589
62.530 8.502196
62.535 8.990442
62.540 9.17422
62.545 8.980188
62.550 8.778071
62.555 8.613905
62.560 8.43909
62.565 8.057961
62.570 8.099121
62.575 7.958296
62.580 7.491285
62.585 7.799799
62.590 7.967483
62.595 8.16464
62.600 8.457056
62.605 8.260482
62.610 8.414646
62.615 8.802268
62.620 8.465215
62.625 8.417064
62.630 8.47233
62.635 8.55733
62.640 8.88735
62.645 9.101665
62.650 9.029673
62.655 9.072525
62.660 9.063554
62.665 8.872736
62.670 8.687209
62.675 8.576041
62.680 8.17216
62.685 8.259771
62.690 8.880804
62.695 9.142411
62.700 9.228548
62.705 9.474206
62.710 10.154533
62.715 10.990019
62.720 11.126969
62.725 10.727639
62.730 10.631257
62.735 10.522964
62.740 10.082357
62.745 9.398174
62.750 9.169486
62.755 9.242328
62.760 9.03693
62.765 9.515233
62.770 9.756559
62.775 9.903028
62.780 10.021603
62.785 9.722094
62.790 9.452985
62.795 9.509111
62.800 8.922688
62.805 8.656711
62.810 8.243974
62.815 8.10545
62.820 8.357529
62.825 8.552122
62.830 8.313621
62.835 8.926782
62.840 9.0119
62.845 9.447456
62.850 9.608593
62.855 9.676821
62.860 9.963844
62.865 10.305195
62.870 10.17556
62.875 10.284134
62.880 9.992997
62.885 9.692801
62.890 9.649537
62.895 9.301233
62.900 9.397411
62.905 9.380719
62.910 9.188023
62.915 9.421948
62.920 9.232594
62.925 8.953284
62.930 9.08675
62.935 8.761115
62.940 8.795828
62.945 9.071215
62.950 9.11769
62.955 9.225025
62.960 9.143812
62.965 9.267292
62.970 9.805845
62.975 10.075675
62.980 10.163609
62.985 10.010665
62.990 10.231042
62.995 10.024691
63.000 9.487805
63.005 9.029189
63.010 8.661453
63.015 8.366425
63.020 8.490254
63.025 8.298881
63.030 8.538939
63.035 9.113147
63.040 9.417768
63.045 9.486475
63.050 10.083212
63.055 10.501619
63.060 10.485507
63.065 10.533059
63.070 10.296923
63.075 10.200572
63.080 9.773765
63.085 9.171053
63.090 8.680988
63.095 8.709999
63.100 8.566951
63.105 8.82603
63.110 8.747635
63.115 9.108932
63.120 9.440821
63.125 9.818878
63.130 10.312143
63.135 10.387633
63.140 10.259532
63.145 10.782065
63.150 10.844164
63.155 10.796841
63.160 10.844357
63.165 10.577149
63.170 10.83099
63.175 10.48376
63.180 10.268342
63.185 10.484443
63.190 10.081642
63.195 9.577389
63.200 9.28331
63.205 8.810841
63.210 9.278355
63.215 8.947141
63.220 8.803786
63.225 9.214346
63.230 9.778396
63.235 9.992895
63.240 10.16372
63.245 9.943262
63.250 10.162219
63.255 10.560122
63.260 10.8992
63.265 10.828726
63.270 11.033953
63.275 11.17423
63.280 11.174994
63.285 11.237631
63.290 10.954938
63.295 10.4367
63.300 10.420781
63.305 10.401736
63.310 10.516678
63.315 10.552576
63.320 10.238842
63.325 10.061558
63.330 10.301853
63.335 10.40405
63.340 10.257079
63.345 9.69063
63.350 9.273466
63.355 9.222441
63.360 9.351086
63.365 9.365086
63.370 9.213185
63.375 9.191928
63.380 9.566801
63.385 9.566271
63.390 9.819634
63.395 9.846872
63.400 9.639562
63.405 9.737382
63.410 9.816528
63.415 9.657943
63.420 10.261559
63.425 10.801816
63.430 10.729118
63.435 10.251547
63.440 10.016459
63.445 10.372548
63.450 10.737765
63.455 10.628177
63.460 10.312209
63.465 10.271443
63.470 10.615
63.475 10.95877
63.480 10.817141
63.485 10.419197
63.490 10.396275
63.495 10.115184
63.500 10.109934
63.505 10.129151
63.510 9.940493
63.515 9.673883
63.520 9.637224
63.525 9.28247
63.530 9.299017
63.535 9.399938
63.540 9.494077
63.545 9.604339
63.550 9.713194
63.555 9.995852
63.560 10.120844
63.565 10.166823
63.570 9.916575
63.575 9.794469
63.580 9.827384
63.585 9.898259
63.590 9.988646
63.595 9.943203
63.600 10.426694
63.605 10.890973
63.610 10.699361
63.615 10.707058
63.620 10.596072
63.625 10.441388
63.630 10.827756
63.635 10.735507
63.640 10.829191
63.645 10.975075
63.650 10.851758
63.655 10.71204
63.660 10.840529
63.665 10.638107
63.670 10.400755
63.675 10.249367
63.680 10.412599
63.685 10.393201
63.690 10.488638
63.695 10.473554
63.700 10.207412
63.705 9.885265
63.710 9.859615
63.715 10.050938
63.720 10.469983
63.725 10.597676
63.730 10.506742
63.735 10.308832
63.740 10.951758
63.745 10.973019
63.750 10.510139
63.755 10.121176
63.760 9.880851
63.765 9.788421
63.770 9.810663
63.775 9.231822
63.780 9.161365
63.785 9.785115
63.790 9.928298
63.795 10.068624
63.800 10.185987
63.805 10.437837
63.810 10.645051
63.815 10.390342
63.820 10.071828
63.825 10.424286
63.830 10.609633
63.835 11.104813
63.840 11.483359
63.845 11.478041
63.850 11.545055
63.855 11.198968
63.860 10.717434
63.865 11.195269
63.870 10.853154
63.875 10.697837
63.880 10.522892
63.885 10.5932
63.890 11.026939
63.895 10.975653
63.900 10.213061
63.905 10.25409
63.910 10.407567
63.915 10.882636
63.920 10.790433
63.925 10.871338
63.930 11.243574
63.935 11.599258
63.940 11.450675
63.945 11.391796
63.950 11.133163
63.955 11.441422
63.960 11.711728
63.965 11.840732
63.970 11.980299
63.975 12.071281
63.980 12.457841
63.985 13.027065
63.990 13.112062
63.995 13.259181
64.000 13.632342
64.005 13.849754
64.010 14.249449
64.015 14.358502
64.020 14.312178
64.025 14.298026
64.030 14.6252
64.035 14.41027
64.040 14.328979
64.045 14.213044
64.050 13.841646
64.055 13.849291
64.060 13.955316
64.065 14.026711
64.070 14.009744
64.075 13.757783
64.080 13.818457
64.085 14.191719
64.090 14.166963
64.095 13.750615
64.100 13.44451
64.105 13.93383
64.110 14.231483
64.115 14.270242
64.120 14.276408
64.125 14.613502
64.130 15.153234
64.135 15.279246
64.140 14.96249
64.145 14.959663
64.150 14.327894
64.155 13.658843
64.160 13.177588
64.165 13.563756
64.170 13.725506
64.175 13.742558
64.180 13.972033
64.185 14.826932
64.190 15.962972
64.195 16.377909
64.200 16.182407
64.205 16.303427
64.210 16.436428
64.215 16.718224
64.220 16.97706
64.225 16.57053
64.230 16.784849
64.235 16.25474
64.240 16.616802
64.245 16.759171
64.250 16.594324
64.255 16.940145
64.260 17.518875
64.265 17.781864
64.270 18.26721
64.275 18.14542
64.280 18.466228
64.285 19.105375
64.290 18.928923
64.295 18.529593
64.300 18.005898
64.305 18.571655
64.310 18.9797
64.315 19.887871
64.320 19.822996
64.325 19.990969
64.330 20.513405
64.335 21.299263
64.340 21.279802
64.345 21.050226
64.350 20.218645
64.355 20.570976
64.360 20.911388
64.365 21.416698
64.370 21.787737
64.375 21.832701
64.380 21.83835
64.385 21.875263
64.390 21.673342
64.395 22.473766
64.400 22.455648
64.405 22.752296
64.410 22.766804
64.415 22.824661
64.420 22.694063
64.425 23.058382
64.430 22.893381
64.435 23.201021
64.440 23.500059
64.445 23.777929
64.450 24.126383
64.455 24.443085
64.460 24.354832
64.465 23.879333
64.470 23.7391
64.475 23.07251
64.480 23.19487
64.485 23.213104
64.490 23.080122
64.495 22.492422
64.500 22.427584
64.505 22.292213
64.510 22.194447
64.515 21.465515
64.520 21.659307
64.525 21.574366
64.530 21.580812
64.535 21.029842
64.540 20.838617
64.545 20.572161
64.550 20.075487
64.555 19.578222
64.560 19.799292
64.565 19.761879
64.570 19.786741
64.575 19.251204
64.580 19.737526
64.585 20.057915
64.590 19.688595
64.595 19.552137
64.600 19.53758
64.605 19.455549
64.610 19.403051
64.615 18.919786
64.620 18.683416
64.625 19.02792
64.630 18.376965
64.635 18.048246
64.640 17.816557
64.645 17.466919
64.650 17.538136
64.655 17.558435
64.660 16.530462
64.665 16.220882
64.670 16.138138
64.675 15.750973
64.680 15.408504
64.685 14.782506
64.690 13.924939
64.695 14.627263
64.700 14.605368
64.705 14.329047
64.710 14.625494
64.715 15.255392
64.720 15.368315
64.725 15.59341
64.730 15.665856
64.735 15.948899
64.740 16.087673
64.745 16.040611
64.750 15.38305
64.755 15.504839
64.760 15.960204
64.765 15.819636
64.770 15.63476
64.775 15.274123
64.780 14.682301
64.785 14.295551
64.790 14.282273
64.795 13.90701
64.800 13.799582
64.805 13.530286
64.810 13.099104
64.815 13.189308
64.820 13.509109
64.825 13.539183
64.830 13.394201
64.835 12.827415
64.840 12.719397
64.845 12.939029
64.850 12.962415
64.855 12.864283
64.860 12.559064
64.865 12.434042
64.870 13.053219
64.875 13.415483
64.880 13.479069
64.885 13.163943
64.890 13.493183
64.895 13.620009
64.900 13.422529
64.905 13.561465
64.910 13.333485
64.915 13.651152
64.920 13.959939
64.925 13.733175
64.930 13.857521
64.935 14.435971
64.940 14.279737
64.945 13.95238
64.950 13.534149
64.955 13.360425
64.960 13.324242
64.965 13.551132
64.970 13.158643
64.975 12.810544
64.980 12.743937
64.985 13.258428
64.990 13.124268
64.995 12.990251
65.000 12.939684
65.005 12.866472
65.010 13.242422
65.015 13.567406
65.020 13.23603
65.025 13.177077
65.030 13.026361
65.035 13.239444
65.040 13.735421
65.045 13.976096
65.050 13.955994
65.055 14.597318
65.060 15.2424
65.065 15.82826
65.070 16.178375
65.075 16.060431
65.080 16.015192
65.085 16.467712
65.090 16.58042
65.095 16.674641
65.100 16.067768
65.105 16.239725
65.110 16.715637
65.115 17.200081
65.120 17.346245
65.125 17.572725
65.130 17.41687
65.135 17.988506
65.140 17.295078
65.145 17.526133
65.150 17.570097
65.155 17.313198
65.160 16.973951
65.165 16.9081
65.170 17.265377
65.175 17.901243
65.180 17.21162
65.185 17.228674
65.190 17.630362
65.195 18.166548
65.200 18.955971
65.205 18.894491
65.210 18.827585
65.215 19.405617
65.220 19.513937
65.225 19.561357
65.230 19.006077
65.235 18.353724
65.240 18.153599
65.245 17.812918
65.250 17.24169
65.255 16.926321
65.260 16.714899
65.265 17.108818
65.270 17.911888
65.275 18.116995
65.280 18.54377
65.285 18.899532
65.290 19.140848
65.295 19.60911
65.300 20.215878
65.305 19.617802
65.310 19.370684
65.315 19.233013
65.320 19.38043
65.325 19.088669
65.330 18.611719
65.335 18.48996
65.340 19.054117
65.345 19.213209
65.350 19.004341
65.355 18.751909
65.360 19.510916
65.365 19.543571
65.370 19.108065
65.375 19.337107
65.380 20.02655
65.385 20.381191
65.390 20.159983
65.395 19.88685
65.400 20.447735
65.405 21.315027
65.410 21.267908
65.415 21.050398
65.420 21.306377
65.425 21.300112
65.430 20.277138
65.435 20.143852
65.440 19.85371
65.445 19.97636
65.450 19.195286
65.455 18.358297
65.460 18.173342
65.465 18.704393
65.470 18.33316
65.475 17.588453
65.480 17.195221
65.485 17.757959
65.490 18.021103
65.495 18.277079
65.500 17.963905
65.505 17.44766
65.510 17.709558
65.515 17.172911
65.520 16.932497
65.525 16.772411
65.530 16.577229
65.535 17.177238
65.540 17.976788
65.545 18.458321
65.550 18.947931
65.555 19.031078
65.560 19.238461
65.565 18.81814
65.570 18.657101
65.575 18.143593
65.580 18.257927
65.585 17.800659
65.590 17.307476
65.595 17.232115
65.600 17.490843
65.605 17.098379
65.610 17.435926
65.615 17.094412
65.620 17.240156
65.625 17.549936
65.630 17.690098
65.635 17.486811
65.640 17.389002
65.645 16.575855
65.650 15.92485
65.655 15.678223
65.660 15.77475
65.665 15.518488
65.670 15.654396
65.675 15.773673
65.680 16.174896
65.685 15.959782
65.690 15.725155
65.695 15.527293
65.700 16.14465
65.705 16.845541
65.710 16.770889
65.715 16.807339
65.720 17.326132
65.725 17.784323
65.730 18.062719
65.735 17.815134
65.740 17.44084
65.745 17.584261
65.750 17.379431
65.755 17.347672
65.760 17.29088
65.765 17.215168
65.770 17.641611
65.775 17.478765
65.780 17.292988
65.785 17.242554
65.790 17.673927
65.795 17.460058
65.800 16.851028
65.805 16.257557
65.810 16.226908
65.815 16.139091
65.820 16.220566
65.825 16.010592
65.830 16.942732
65.835 17.294706
65.840 17.260002
65.845 17.034042
65.850 16.905079
65.855 16.329283
65.860 16.198507
65.865 15.267933
65.870 15.245093
65.875 15.328008
65.880 15.454791
65.885 15.159044
65.890 15.174109
65.895 15.414884
65.900 15.769947
65.905 15.629511
65.910 15.604792
65.915 15.527347
65.920 16.066565
65.925 16.697367
65.930 16.246111
65.935 16.214252
65.940 16.261646
65.945 16.206108
65.950 16.369268
65.955 16.012739
65.960 15.386067
65.965 15.394362
65.970 15.731579
65.975 15.556497
65.980 15.558249
65.985 15.490376
65.990 15.067988
65.995 15.036041
66.000 14.826535
66.005 14.227819
66.010 14.516435
66.015 14.581201
66.020 14.65209
66.025 15.32092
66.030 15.377969
66.035 15.215104
66.040 14.749911
66.045 14.266684
66.050 14.292173
66.055 14.407399
66.060 14.205194
66.065 13.882831
66.070 14.294977
66.075 14.426617
66.080 13.878704
66.085 13.149503
66.090 12.598636
66.095 12.087432
66.100 11.754718
66.105 11.662887
66.110 11.783755
66.115 12.178876
66.120 12.458304
66.125 12.928794
66.130 12.978442
66.135 13.067841
66.140 12.918171
66.145 12.92045
66.150 12.795169
66.155 12.784143
66.160 12.463787
66.165 12.966696
66.170 13.193897
66.175 12.798696
66.180 12.955965
66.185 13.313281
66.190 12.789289
66.195 12.517157
66.200 12.139939
66.205 11.752265
66.210 11.917753
66.215 11.798454
66.220 12.246195
66.225 12.81291
66.230 12.587465
66.235 12.717972
66.240 12.747915
66.245 12.79708
66.250 12.470291
66.255 12.001658
66.260 11.609437
66.265 11.720628
66.270 11.482719
66.275 11.399901
66.280 11.456339
66.285 11.553674
66.290 11.443319
66.295 11.569983
66.300 11.482018
66.305 11.020126
66.310 10.631454
66.315 10.344576
66.320 10.168102
66.325 10.130034
66.330 9.933567
66.335 9.822186
66.340 10.12969
66.345 10.471646
66.350 10.528131
66.355 10.793764
66.360 10.707868
66.365 10.768255
66.370 10.832711
66.375 10.605278
66.380 10.379066
66.385 10.222559
66.390 9.888791
66.395 10.167153
66.400 10.458212
66.405 11.069874
66.410 11.744765
66.415 11.80824
66.420 12.084006
66.425 12.44232
66.430 12.212019
66.435 11.999735
66.440 11.707107
66.445 11.559493
66.450 11.674332
66.455 11.375039
66.460 11.204788
66.465 11.271394
66.470 11.359895
66.475 11.190907
66.480 11.484504
66.485 11.868158
66.490 12.202695
66.495 12.315662
66.500 12.213621
66.505 12.109906
66.510 12.146616
66.515 11.847949
66.520 11.724987
66.525 10.804185
66.530 10.41167
66.535 10.525882
66.540 10.551934
66.545 10.235951
66.550 9.40662
66.555 9.258265
66.560 9.685731
66.565 9.812561
66.570 10.164533
66.575 10.200027
66.580 10.202884
66.585 10.977504
66.590 11.50079
66.595 11.956512
66.600 12.104342
66.605 11.431565
66.610 11.337105
66.615 11.48897
66.620 11.327622
66.625 11.06988
66.630 10.992599
66.635 10.875156
66.640 11.256277
66.645 11.644626
66.650 11.961756
66.655 12.100727
66.660 11.997307
66.665 11.508975
66.670 11.272376
66.675 11.059348
66.680 11.068614
66.685 10.746367
66.690 10.64709
66.695 10.683023
66.700 10.733639
66.705 10.972136
66.710 10.857826
66.715 10.352103
66.720 10.166323
66.725 9.893031
66.730 10.024455
66.735 10.009393
66.740 9.882889
66.745 9.816496
66.750 10.177974
66.755 10.448131
66.760 10.670676
66.765 10.822836
66.770 10.801577
66.775 10.491273
66.780 10.507275
66.785 10.058043
66.790 10.022575
66.795 9.868613
66.800 9.665603
66.805 10.560293
66.810 11.377473
66.815 11.854079
66.820 11.91446
66.825 11.593048
66.830 11.448025
66.835 11.41663
66.840 10.919689
66.845 10.315078
66.850 10.028474
66.855 10.771852
66.860 11.435987
66.865 11.79191
66.870 12.129476
66.875 11.935851
66.880 12.429676
66.885 12.46448
66.890 11.642576
66.895 10.687362
66.900 10.303851
66.905 9.933794
66.910 10.052669
66.915 9.94897
66.920 10.195139
66.925 10.679813
66.930 11.110319
66.935 11.134707
66.940 11.294821
66.945 11.853697
66.950 11.626391
66.955 11.5618
66.960 11.597118
66.965 11.597538
66.970 11.581311
66.975 11.324786
66.980 10.826459
66.985 10.985325
66.990 11.285686
66.995 11.137424
67.000 11.339612
67.005 11.673689
67.010 11.748491
67.015 11.841296
67.020 11.948697
67.025 11.65414
67.030 11.706654
67.035 11.460195
67.040 11.326853
67.045 11.285563
67.050 11.227167
67.055 11.018803
67.060 10.987389
67.065 11.026997
67.070 11.29283
67.075 11.393035
67.080 11.596426
67.085 11.890197
67.090 11.85413
67.095 12.376811
67.100 12.289549
67.105 11.69865
67.110 11.320877
67.115 11.281122
67.120 11.742424
67.125 11.747756
67.130 11.712071
67.135 11.908978
67.140 11.96598
67.145 12.024887
67.150 11.741426
67.155 11.290631
67.160 11.429284
67.165 11.330513
67.170 11.487333
67.175 11.645067
67.180 11.75801
67.185 11.768845
67.190 11.676642
67.195 11.558807
67.200 11.163576
67.205 11.181406
67.210 11.248036
67.215 11.298823
67.220 10.901788
67.225 10.807754
67.230 10.93638
67.235 10.866629
67.240 10.977502
67.245 10.636343
67.250 10.68844
67.255 10.886992
67.260 10.817271
67.265 10.773636
67.270 11.049974
67.275 11.239439
67.280 11.850236
67.285 11.566157
67.290 11.663368
67.295 12.014112
67.300 11.819345
67.305 11.269689
67.310 11.036501
67.315 11.371967
67.320 11.378917
67.325 10.993969
67.330 10.742033
67.335 10.879427
67.340 11.009843
67.345 10.65864
67.350 10.316869
67.355 10.791782
67.360 11.297754
67.365 11.756803
67.370 12.095932
67.375 12.372649
67.380 12.529063
67.385 12.253429
67.390 11.990218
67.395 11.335185
67.400 10.92974
67.405 10.491681
67.410 10.374614
67.415 10.546857
67.420 10.903821
67.425 10.686789
67.430 10.781549
67.435 10.249558
67.440 10.341919
67.445 10.520244
67.450 10.299443
67.455 9.985011
67.460 10.036141
67.465 10.085836
67.470 10.503209
67.475 10.479609
67.480 10.372548
67.485 10.8149
67.490 11.017304
67.495 11.197
67.500 11.258958
67.505 11.18821
67.510 11.165032
67.515 10.991863
67.520 10.645912
67.525 10.718211
67.530 10.684804
67.535 10.480208
67.540 10.312632
67.545 10.240287
67.550 10.031637
67.555 10.009185
67.560 9.650289
67.565 9.298232
67.570 9.776797
67.575 10.09921
67.580 10.178319
67.585 11.027363
67.590 11.11819
67.595 10.979375
67.600 10.953503
67.605 10.824206
67.610 11.017709
67.615 10.841656
67.620 10.895034
67.625 11.558766
67.630 12.71726
67.635 13.086665
67.640 13.162742
67.645 13.166866
67.650 13.035873
67.655 12.916917
67.660 12.41782
67.665 11.773118
67.670 11.514903
67.675 11.262465
67.680 10.94886
67.685 10.65514
67.690 9.894738
67.695 9.854337
67.700 9.687773
67.705 9.569391
67.710 9.246288
67.715 9.510711
67.720 10.186723
67.725 10.434656
67.730 10.361252
67.735 10.968761
67.740 11.513875
67.745 12.246556
67.750 12.201423
67.755 11.710094
67.760 11.050696
67.765 11.303945
67.770 11.272937
67.775 11.436113
67.780 11.495788
67.785 11.682119
67.790 12.05886
67.795 12.261555
67.800 11.422296
67.805 10.915473
67.810 9.992572
67.815 9.516754
67.820 9.426476
67.825 9.309565
67.830 9.524204
67.835 9.67767
67.840 9.526003
67.845 9.884623
67.850 10.19817
67.855 10.134428
67.860 10.246944
67.865 10.318612
67.870 10.633682
67.875 10.981089
67.880 10.851326
67.885 10.480226
67.890 10.404264
67.895 10.419026
67.900 10.696798
67.905 10.65389
67.910 10.568716
67.915 10.633506
67.920 10.829712
67.925 11.162976
67.930 10.964174
67.935 11.147971
67.940 11.183679
67.945 11.392015
67.950 11.838504
67.955 11.644659
67.960 11.401182
67.965 11.24441
67.970 10.797059
67.975 11.286417
67.980 11.33751
67.985 11.228259
67.990 11.500678
67.995 11.698131
68.000 11.685574
68.005 11.882094
68.010 11.444353
68.015 11.056363
68.020 11.185907
68.025 11.177229
68.030 11.228268
68.035 11.102058
68.040 10.638156
68.045 10.717889
68.050 10.856168
68.055 10.479108
68.060 10.493585
68.065 10.636856
68.070 11.28562
68.075 12.191216
68.080 12.115898
68.085 12.374321
68.090 12.463035
68.095 12.153728
68.100 11.887187
68.105 11.79789
68.110 11.382337
68.115 11.276516
68.120 11.106608
68.125 11.373137
68.130 11.529041
68.135 11.546147
68.140 11.192007
68.145 11.328203
68.150 11.564319
68.155 11.267655
68.160 10.991995
68.165 10.924873
68.170 10.872189
68.175 11.15231
68.180 10.990302
68.185 11.065841
68.190 11.530169
68.195 11.517942
68.200 11.558963
68.205 11.109061
68.210 10.751471
68.215 10.904478
68.220 11.259233
68.225 11.010384
68.230 10.90999
68.235 10.790217
68.240 11.379848
68.245 11.510276
68.250 11.208108
68.255 10.453006
68.260 10.940085
68.265 11.648494
68.270 12.083939
68.275 12.117978
68.280 12.048238
68.285 12.054004
68.290 12.26758
68.295 11.771322
68.300 11.626596
68.305 11.299458
68.310 11.324553
68.315 11.774635
68.320 12.568287
68.325 13.100938
68.330 13.073253
68.335 12.757462
68.340 13.013339
68.345 12.96547
68.350 12.573748
68.355 12.237522
68.360 11.778879
68.365 11.930099
68.370 12.392106
68.375 12.417399
68.380 12.920018
68.385 13.291011
68.390 13.564026
68.395 13.959873
68.400 14.381766
68.405 14.368874
68.410 14.594301
68.415 15.407699
68.420 15.605704
68.425 15.549377
68.430 15.652247
68.435 15.840279
68.440 15.925332
68.445 16.145565
68.450 15.47269
68.455 15.805744
68.460 16.295527
68.465 16.556162
68.470 16.498484
68.475 16.882786
68.480 16.70319
68.485 16.431585
68.490 16.022713
68.495 15.839602
68.500 15.818478
68.505 15.513875
68.510 14.794579
68.515 14.787266
68.520 14.896695
68.525 15.043874
68.530 15.292217
68.535 15.430291
68.540 16.194344
68.545 16.324177
68.550 16.610826
68.555 17.365322
68.560 17.029066
68.565 16.777111
68.570 16.900406
68.575 16.787525
68.580 17.399578
68.585 17.623905
68.590 17.47431
68.595 17.603842
68.600 17.43685
68.605 17.440565
68.610 17.454525
68.615 17.126255
68.620 16.947044
68.625 16.955885
68.630 17.145443
68.635 17.259539
68.640 16.865242
68.645 17.037382
68.650 17.365696
68.655 17.616074
68.660 16.847788
68.665 16.319597
68.670 16.505714
68.675 16.319157
68.680 15.729724
68.685 15.716135
68.690 15.663994
68.695 16.630987
68.700 16.827438
68.705 17.282677
68.710 17.775848
68.715 18.101204
68.720 17.844166
68.725 18.558075
68.730 18.814207
68.735 19.362619
68.740 18.856012
68.745 18.650341
68.750 18.280611
68.755 17.911489
68.760 17.440529
68.765 17.375164
68.770 17.604042
68.775 17.654203
68.780 17.599091
68.785 17.895695
68.790 17.729187
68.795 17.627302
68.800 16.84626
68.805 16.506617
68.810 17.216694
68.815 17.364462
68.820 17.424219
68.825 17.700287
68.830 18.108606
68.835 18.607679
68.840 18.557632
68.845 17.720549
68.850 17.6353
68.855 17.480646
68.860 17.711008
68.865 17.451857
68.870 17.667465
68.875 17.096247
68.880 17.607422
68.885 17.760603
68.890 17.677454
68.895 17.391888
68.900 17.374758
68.905 17.103815
68.910 17.861
68.915 17.506029
68.920 17.480066
68.925 17.69441
68.930 17.127596
68.935 17.262838
68.940 17.502934
68.945 17.55842
68.950 17.544125
68.955 17.453619
68.960 17.606371
68.965 17.782465
68.970 17.317413
68.975 16.667061
68.980 16.65048
68.985 17.051798
68.990 16.873117
68.995 16.738655
69.000 16.909143
69.005 17.511375
69.010 17.977396
69.015 17.915701
69.020 17.376066
69.025 17.814585
69.030 17.701172
69.035 17.622837
69.040 17.137953
69.045 16.792616
69.050 16.682064
69.055 16.770567
69.060 16.885803
69.065 17.398745
69.070 17.321522
69.075 17.257599
69.080 17.368135
69.085 17.11157
69.090 16.808538
69.095 16.160736
69.100 15.832152
69.105 16.206963
69.110 16.428196
69.115 16.381845
69.120 16.400696
69.125 17.094456
69.130 17.079699
69.135 16.79056
69.140 16.468016
69.145 15.564156
69.150 15.329876
69.155 15.436351
69.160 14.746281
69.165 15.006889
69.170 15.067594
69.175 14.990575
69.180 15.805656
69.185 15.680637
69.190 15.532164
69.195 15.486638
69.200 14.789285
69.205 14.208751
69.210 13.893324
69.215 13.755767
69.220 14.351453
69.225 14.303646
69.230 14.540388
69.235 14.694599
69.240 15.048854
69.245 15.416321
69.250 15.018307
69.255 14.329948
69.260 14.478229
69.265 14.476137
69.270 14.176677
69.275 13.726417
69.280 13.566018
69.285 13.895314
69.290 14.116698
69.295 13.685264
69.300 13.751021
69.305 14.195724
69.310 14.856354
69.315 14.701042
69.320 14.421166
69.325 14.357191
69.330 14.316996
69.335 14.134613
69.340 13.470869
69.345 12.814527
69.350 12.75618
69.355 12.630951
69.360 12.364234
69.365 12.222449
69.370 12.650571
69.375 12.848269
69.380 12.951858
69.385 12.63091
69.390 12.68173
69.395 12.695006
69.400 12.417204
69.405 12.302663
69.410 12.560884
69.415 12.385222
69.420 12.456024
69.425 12.59132
69.430 12.85988
69.435 12.837294
69.440 12.499188
69.445 12.420931
69.450 12.136514
69.455 11.995852
69.460 12.139227
69.465 11.985008
69.470 12.047285
69.475 12.012442
69.480 12.389168
69.485 12.593244
69.490 12.885464
69.495 12.680243
69.500 12.504285
69.505 12.489104
69.510 12.529834
69.515 12.106368
69.520 11.939634
69.525 11.030141
69.530 10.851843
69.535 11.275906
69.540 11.31123
69.545 11.307047
69.550 11.528911
69.555 11.856915
69.560 12.307659
69.565 12.198831
69.570 11.950393
69.575 11.809827
69.580 11.835428
69.585 11.722268
69.590 11.78252
69.595 12.226353
69.600 12.753309
69.605 12.916911
69.610 12.950056
69.615 12.589905
69.620 12.558881
69.625 12.585237
69.630 12.440757
69.635 12.705721
69.640 13.019022
69.645 12.975246
69.650 12.890229
69.655 13.06997
69.660 12.441255
69.665 12.093343
69.670 11.845325
69.675 12.014523
69.680 12.39781
69.685 12.816164
69.690 12.408629
69.695 13.0152
69.700 12.878569
69.705 12.415568
69.710 11.67269
69.715 11.308311
69.720 11.233888
69.725 11.249537
69.730 11.268888
69.735 11.568715
69.740 11.961555
69.745 12.079928
69.750 11.765051
69.755 11.490985
69.760 11.467297
69.765 11.091589
69.770 10.378142
69.775 10.311963
69.780 10.561815
69.785 10.870234
69.790 11.137769
69.795 11.437134
69.800 11.477483
69.805 11.619075
69.810 11.636343
69.815 11.725502
69.820 11.888097
69.825 11.509709
69.830 11.337103
69.835 11.714374
69.840 11.902975
69.845 12.05492
69.850 12.075269
69.855 11.963764
69.860 11.795568
69.865 11.48403
69.870 11.003216
69.875 11.470553
69.880 11.437189
69.885 11.36744
69.890 11.191001
69.895 11.385427
69.900 11.516411
69.905 11.168118
69.910 10.904588
69.915 10.565835
69.920 10.746181
69.925 10.763168
69.930 10.640105
69.935 10.811116
69.940 11.045966
69.945 10.900846
69.950 11.037209
69.955 10.97585
69.960 11.069387
69.965 11.320564
69.970 10.947824
69.975 10.848046
69.980 10.632533
69.985 10.637881
69.990 10.790771
69.995 11.155446
70.000 11.156293
70.005 11.571135
70.010 12.129385
70.015 12.410525
70.020 12.112807
70.025 11.831621
70.030 11.669478
70.035 11.57938
70.040 11.643742
70.045 10.89461
70.050 10.958021
70.055 11.202532
70.060 11.633438
70.065 11.874775
70.070 11.964941
70.075 12.064328
70.080 12.437281
70.085 12.185971
70.090 11.82434
70.095 11.661378
70.100 11.252237
70.105 11.026218
70.110 10.733397
70.115 10.37027
70.120 10.7031
70.125 10.682329
70.130 10.597144
70.135 10.612934
70.140 10.711574
70.145 10.933548
70.150 11.596066
70.155 11.967077
70.160 11.993443
70.165 12.013087
70.170 12.139946
70.175 12.087332
70.180 11.905786
70.185 11.193418
70.190 11.389501
70.195 11.600525
70.200 11.430634
70.205 11.301747
70.210 11.330395
70.215 11.437771
70.220 11.279618
70.225 11.141646
70.230 11.261774
70.235 11.555056
70.240 11.596371
70.245 11.135588
70.250 11.192738
70.255 11.645519
70.260 11.148231
70.265 10.693742
70.270 10.655993
70.275 10.731293
70.280 10.825398
70.285 10.927934
70.290 10.460755
70.295 10.450389
70.300 10.500453
70.305 10.553415
70.310 10.472265
70.315 10.361212
70.320 10.087625
70.325 10.676158
70.330 11.245667
70.335 11.583076
70.340 11.533302
70.345 11.532929
70.350 11.903107
70.355 12.197016
70.360 12.001442
70.365 11.717916
70.370 11.75582
70.375 12.573236
70.380 12.527642
70.385 12.117307
70.390 11.618671
70.395 11.31924
70.400 10.6851
70.405 10.026537
70.410 9.585671
70.415 9.943082
70.420 9.68914
70.425 9.788486
70.430 9.941822
70.435 10.332131
70.440 10.258842
70.445 9.854702
70.450 10.234197
70.455 10.388128
70.460 10.556482
70.465 10.374596
70.470 10.480562
70.475 10.810519
70.480 10.973906
70.485 10.982548
70.490 11.205874
70.495 11.515064
70.500 11.834174
70.505 11.94495
70.510 12.104261
70.515 12.316471
70.520 12.4444
70.525 11.953337
70.530 11.069299
70.535 10.758041
70.540 10.759551
70.545 10.176554
70.550 10.272403
70.555 10.259632
70.560 10.334274
70.565 10.998075
70.570 10.811752
70.575 10.947928
70.580 11.18186
70.585 11.058548
70.590 11.34957
70.595 11.623636
70.600 11.627028
70.605 11.846365
70.610 11.634112
70.615 11.605212
70.620 11.102042
70.625 11.027122
70.630 10.99206
70.635 10.96939
70.640 10.744598
70.645 10.512389
70.650 10.234145
70.655 10.364978
70.660 10.531299
70.665 10.530117
70.670 11.019815
70.675 11.419034
70.680 11.915514
70.685 11.866416
70.690 11.753207
70.695 11.198571
70.700 10.82954
70.705 10.342062
70.710 10.356339
70.715 10.555849
70.720 10.923951
70.725 11.045745
70.730 11.039874
70.735 11.380384
70.740 11.388709
70.745 11.362432
70.750 11.055763
70.755 10.747987
70.760 11.043434
70.765 10.97929
70.770 10.782955
70.775 10.321506
70.780 10.04432
70.785 10.070244
70.790 10.344922
70.795 10.274947
70.800 10.837197
70.805 10.904485
70.810 11.126713
70.815 11.274891
70.820 11.789301
70.825 11.40317
70.830 11.413422
70.835 10.909912
70.840 11.134629
70.845 11.228896
70.850 11.43889
70.855 11.353868
70.860 11.080121
70.865 10.864321
70.870 10.765015
70.875 10.535828
70.880 10.622818
70.885 10.510596
70.890 10.793144
70.895 10.961012
70.900 11.215364
70.905 11.430563
70.910 11.532152
70.915 11.551795
70.920 10.959995
70.925 10.510177
70.930 10.589565
70.935 10.732461
70.940 10.756304
70.945 10.836828
70.950 10.500744
70.955 10.374606
70.960 10.508845
70.965 10.428418
70.970 10.204251
70.975 10.197819
70.980 9.883082
70.985 10.03453
70.990 10.308646
70.995 9.625275
71.000 9.805773
71.005 9.893977
71.010 9.86095
71.015 10.301422
71.020 10.459951
71.025 11.484953
71.030 12.03058
71.035 11.960454
71.040 11.41756
71.045 11.525039
71.050 11.664822
71.055 11.269209
71.060 10.658808
71.065 10.448669
71.070 10.56218
71.075 10.688017
71.080 10.046163
71.085 9.909344
71.090 10.357955
71.095 10.537739
71.100 10.825066
71.105 11.017278
71.110 11.5654
71.115 11.657445
71.120 11.782573
71.125 11.618155
71.130 11.462473
71.135 11.155806
71.140 11.060065
71.145 11.060739
71.150 11.352534
71.155 10.701159
71.160 10.225563
71.165 10.141748
71.170 10.16011
71.175 9.938836
71.180 9.474483
71.185 9.298732
71.190 9.241754
71.195 9.153481
71.200 9.430878
71.205 9.557435
71.210 9.977157
71.215 10.552579
71.220 10.998842
71.225 11.184743
71.230 11.368927
71.235 11.466365
71.240 11.521315
71.245 11.417515
71.250 11.332849
71.255 11.33964
71.260 11.309183
71.265 11.364285
71.270 11.331875
71.275 11.597818
71.280 11.183303
71.285 11.323805
71.290 11.846187
71.295 12.137966
71.300 11.800219
71.305 11.670297
71.310 11.050377
71.315 10.806499
71.320 10.135611
71.325 9.575529
71.330 9.544531
71.335 9.708902
71.340 9.956004
71.345 10.315579
71.350 10.690205
71.355 11.286709
71.360 11.437073
71.365 11.144679
71.370 11.032092
71.375 11.176746
71.380 11.371402
71.385 11.183966
71.390 11.016491
71.395 10.567896
71.400 10.635003
71.405 10.616621
71.410 10.503946
71.415 10.294981
71.420 10.000775
71.425 10.288652
71.430 10.391953
71.435 10.311531
71.440 10.300385
71.445 9.987458
71.450 9.944053
71.455 10.186624
71.460 10.583165
71.465 10.714108
71.470 10.978778
71.475 10.955063
71.480 11.044964
71.485 11.370276
71.490 11.310016
71.495 11.547936
71.500 11.467284
71.505 10.986555
71.510 11.364028
71.515 11.710508
71.520 11.54069
71.525 11.018629
71.530 10.894387
71.535 11.236674
71.540 11.322
71.545 11.052154
71.550 10.536581
71.555 10.503602
71.560 10.129272
71.565 9.907383
71.570 9.587932
71.575 10.290757
71.580 10.481288
71.585 10.748844
71.590 10.954415
71.595 11.055212
71.600 11.17747
71.605 11.219915
71.610 10.623662
71.615 10.382535
71.620 10.555202
71.625 11.01782
71.630 11.300632
71.635 11.388258
71.640 11.298289
71.645 11.742858
71.650 11.848174
71.655 11.3016
71.660 11.234736
71.665 10.797776
71.670 10.772668
71.675 11.267027
71.680 11.191988
71.685 11.508522
71.690 11.795215
71.695 11.753671
71.700 12.205296
71.705 12.466164
71.710 12.404972
71.715 12.037444
71.720 12.062593
71.725 11.938922
71.730 11.754955
71.735 11.507111
71.740 10.558642
71.745 10.006442
71.750 9.829338
71.755 9.375122
71.760 9.675369
71.765 9.714613
71.770 9.796113
71.775 10.630857
71.780 11.142239
71.785 11.51609
71.790 11.849124
71.795 11.894548
71.800 12.195518
71.805 12.282545
71.810 12.316101
71.815 12.92233
71.820 12.547203
71.825 11.851109
71.830 11.382041
71.835 11.560952
71.840 11.42347
71.845 11.211916
71.850 11.019361
71.855 11.396317
71.860 11.938804
71.865 12.081068
71.870 11.838248
71.875 11.732828
71.880 11.476468
71.885 11.494561
71.890 11.057351
71.895 10.976509
71.900 10.511349
71.905 10.361013
71.910 10.68994
71.915 10.342082
71.920 10.131666
71.925 10.237681
71.930 10.425007
71.935 10.822891
71.940 10.747258
71.945 10.870548
71.950 10.927409
71.955 11.171753
71.960 11.399531
71.965 11.616915
71.970 11.777163
71.975 11.918691
71.980 11.579695
71.985 11.521781
71.990 11.012631
71.995 10.694964
72.000 10.646764
72.005 10.227572
72.010 10.41169
72.015 10.888391
72.020 11.298566
72.025 11.80672
72.030 11.964548
72.035 11.998918
72.040 11.844675
72.045 12.13037
72.050 11.98026
72.055 11.800957
72.060 11.215041
72.065 10.858927
72.070 11.006371
72.075 11.220901
72.080 10.753951
72.085 10.809344
72.090 10.42827
72.095 10.669648
72.100 10.359073
72.105 10.279981
72.110 10.454444
72.115 11.101631
72.120 10.811869
72.125 11.021428
72.130 11.512995
72.135 11.521827
72.140 11.401935
72.145 11.218876
72.150 10.399935
72.155 10.684301
72.160 10.499985
72.165 10.533674
72.170 10.521253
72.175 9.974499
72.180 10.167884
72.185 10.947928
72.190 10.725594
72.195 10.956852
72.200 10.788019
72.205 11.038635
72.210 11.176525
72.215 10.375856
72.220 9.737805
72.225 9.667221
72.230 9.510773
72.235 9.665826
72.240 9.799718
72.245 9.988886
72.250 10.89836
72.255 11.061427
72.260 11.467713
72.265 11.597351
72.270 11.560112
72.275 11.476887
72.280 11.394506
72.285 11.000504
72.290 11.728705
72.295 11.712962
72.300 11.905874
72.305 12.300012
72.310 12.29892
72.315 12.227805
72.320 11.989558
72.325 11.291517
72.330 10.828222
72.335 10.889999
72.340 10.671933
72.345 10.722474
72.350 11.04847
72.355 11.199622
72.360 11.439382
72.365 11.776896
72.370 11.28761
72.375 11.581556
72.380 11.713024
72.385 11.640921
72.390 11.788253
72.395 11.266715
72.400 10.984223
72.405 10.878621
72.410 10.72198
72.415 10.53589
72.420 9.921077
72.425 9.554489
72.430 9.899089
72.435 10.328406
72.440 10.496563
72.445 10.308872
72.450 10.415188
72.455 10.758702
72.460 10.868192
72.465 10.8811
72.470 10.867272
72.475 11.202415
72.480 11.28461
72.485 11.469727
72.490 11.245505
72.495 11.508483
72.500 11.298834
72.505 11.165039
72.510 10.869116
72.515 10.348462
72.520 10.381021
72.525 10.329163
72.530 10.417398
72.535 10.341578
72.540 9.967805
72.545 10.050802
72.550 10.42178
72.555 9.679166
72.560 9.415697
72.565 9.275279
72.570 9.268431
72.575 9.525373
72.580 9.606838
72.585 9.82687
72.590 10.822251
72.595 11.026663
72.600 11.227649
72.605 11.360721
72.610 11.226312
72.615 11.166241
72.620 11.001581
72.625 10.833706
72.630 10.592582
72.635 10.218391
72.640 10.179388
72.645 10.654388
72.650 10.731982
72.655 10.373227
72.660 10.511356
72.665 10.889644
72.670 11.066665
72.675 11.096229
72.680 10.76508
72.685 10.874154
72.690 10.860898
72.695 10.887169
72.700 10.255861
72.705 10.186047
72.710 9.708994
72.715 9.437594
72.720 9.085055
72.725 9.073594
72.730 8.962451
72.735 8.817028
72.740 8.992723
72.745 9.494305
72.750 9.635248
72.755 9.735175
72.760 10.222447
72.765 10.467535
72.770 10.334955
72.775 10.13938
72.780 10.038973
72.785 10.07859
72.790 10.465869
72.795 10.152837
72.800 10.420867
72.805 10.717471
72.810 10.621079
72.815 10.636994
72.820 10.331713
72.825 10.199709
72.830 9.910683
72.835 9.573011
72.840 9.424622
72.845 9.686389
72.850 9.678723
72.855 9.451398
72.860 9.395424
72.865 9.667736
72.870 10.021133
72.875 10.215761
72.880 10.129123
72.885 10.327621
72.890 10.263893
72.895 10.026218
72.900 9.489955
72.905 9.413787
72.910 9.233905
72.915 9.622146
72.920 9.730237
72.925 9.74088
72.930 10.081141
72.935 9.884692
72.940 9.95552
72.945 10.134365
72.950 9.718586
72.955 9.693251
72.960 10.248349
72.965 10.193113
72.970 10.240506
72.975 10.222462
72.980 9.87298
72.985 9.878953
72.990 9.586802
72.995 8.894912
73.000 9.088253
