!@!!GADDS PLOTSO FILE: Chi integration type
!@!!Title/SampleName: map-84
!@!!Comment: ?
!@!!User: Bruker Instrument Administrator
!@!!Site: University of Illinois Chicago
!@!!Frame: map-84_01_000.gfrm
!@!!Wavelengths    1.54184   1.54056   1.54439
!@!!Frame angles: 2Theta: 63.000 Omega: 50.000 Phi: 0.000 Chi: 90.000
!@!!Integration range: 2Theta: 53.000 to 73.000  Gamma: -105.000 to -75.000
!@!!Integration method: bin normalized
!@!N
!@!SS
!@!M
!@!L 0.0 0.0 0.0 0.0
!@!XDegrees
!@!YCounts
53.000 6.974002
53.005 7.313598
53.010 7.381699
53.015 7.937616
53.020 8.125006
53.025 8.035078
53.030 8.454529
53.035 8.660933
53.040 8.596167
53.045 8.48761
53.050 7.647429
53.055 7.529433
53.060 7.322113
53.065 7.288634
53.070 7.648373
53.075 7.62851
53.080 7.765917
53.085 8.113176
53.090 8.239826
53.095 8.809803
53.100 8.645399
53.105 8.727973
53.110 9.166764
53.115 9.617277
53.120 9.748563
53.125 9.636993
53.130 9.016955
53.135 8.935429
53.140 8.800646
53.145 8.262374
53.150 8.146799
53.155 8.329242
53.160 8.088678
53.165 8.221497
53.170 8.337241
53.175 8.399326
53.180 8.682895
53.185 8.764989
53.190 8.206663
53.195 8.340592
53.200 8.418176
53.205 8.256321
53.210 8.36926
53.215 8.172311
53.220 8.135737
53.225 8.586771
53.230 9.02315
53.235 8.980661
53.240 8.741774
53.245 8.690447
53.250 8.825742
53.255 8.694032
53.260 8.348348
53.265 7.87368
53.270 8.30542
53.275 8.723227
53.280 8.682499
53.285 8.246404
53.290 9.036495
53.295 9.443643
53.300 9.54913
53.305 9.148532
53.310 8.929705
53.315 8.649514
53.320 8.67738
53.325 8.230906
53.330 8.954116
53.335 9.323795
53.340 9.334215
53.345 9.464834
53.350 9.870548
53.355 10.007629
53.360 9.623042
53.365 8.642471
53.370 8.668114
53.375 8.934763
53.380 9.17629
53.385 9.32655
53.390 9.442657
53.395 9.323074
53.400 9.397544
53.405 9.31386
53.410 9.033897
53.415 8.866411
53.420 8.738378
53.425 9.02472
53.430 8.773429
53.435 8.750319
53.440 9.013976
53.445 9.338728
53.450 9.094882
53.455 8.758156
53.460 8.547926
53.465 8.803368
53.470 8.913713
53.475 8.203545
53.480 8.291556
53.485 8.36965
53.490 8.523965
53.495 8.544959
53.500 8.529123
53.505 8.864569
53.510 9.308045
53.515 9.194121
53.520 9.3335
53.525 9.387938
53.530 9.441139
53.535 9.218477
53.540 8.906423
53.545 8.670547
53.550 8.455441
53.555 8.371381
53.560 8.221601
53.565 8.371341
53.570 8.160892
53.575 8.262456
53.580 8.144091
53.585 7.868903
53.590 7.609697
53.595 7.431571
53.600 7.547757
53.605 7.813975
53.610 7.955364
53.615 8.328048
53.620 8.932311
53.625 9.272914
53.630 9.87265
53.635 10.22846
53.640 9.76335
53.645 9.618572
53.650 9.650945
53.655 10.020343
53.660 10.417756
53.665 9.8781
53.670 9.69143
53.675 9.88889
53.680 9.585139
53.685 9.321277
53.690 9.020364
53.695 9.130179
53.700 9.559582
53.705 9.620199
53.710 9.995642
53.715 10.138301
53.720 10.153014
53.725 10.02939
53.730 9.91507
53.735 9.793645
53.740 9.71859
53.745 9.576285
53.750 9.453553
53.755 9.636146
53.760 9.180813
53.765 8.5819
53.770 8.676017
53.775 8.365731
53.780 8.287671
53.785 8.104953
53.790 7.928855
53.795 8.417979
53.800 8.873829
53.805 8.756578
53.810 9.271379
53.815 9.332792
53.820 9.484459
53.825 9.256897
53.830 8.875922
53.835 8.754039
53.840 8.85244
53.845 8.947842
53.850 9.284717
53.855 9.810611
53.860 10.349626
53.865 10.057397
53.870 9.509182
53.875 9.305505
53.880 9.391248
53.885 8.908743
53.890 8.491674
53.895 8.484182
53.900 9.012954
53.905 9.706156
53.910 9.834231
53.915 9.715388
53.920 9.959118
53.925 9.815725
53.930 10.118226
53.935 9.934459
53.940 9.546405
53.945 9.4823
53.950 9.451783
53.955 9.386478
53.960 8.99384
53.965 8.776905
53.970 8.884218
53.975 8.855103
53.980 8.683234
53.985 8.194366
53.990 8.239636
53.995 8.277998
54.000 8.146718
54.005 8.214369
54.010 8.553803
54.015 8.625761
54.020 8.749759
54.025 8.94746
54.030 9.108959
54.035 9.297916
54.040 9.540095
54.045 9.436088
54.050 9.753085
54.055 9.719011
54.060 9.539228
54.065 9.365656
54.070 9.284286
54.075 9.257927
54.080 9.164765
54.085 9.014606
54.090 8.999944
54.095 8.891706
54.100 9.005472
54.105 9.105119
54.110 9.217113
54.115 9.54302
54.120 9.957788
54.125 10.513221
54.130 10.634678
54.135 10.47327
54.140 9.939469
54.145 9.879628
54.150 9.491076
54.155 9.347474
54.160 9.152812
54.165 9.215254
54.170 9.31014
54.175 9.399198
54.180 9.343575
54.185 9.206767
54.190 9.362404
54.195 9.214567
54.200 9.412885
54.205 9.431097
54.210 9.096677
54.215 9.01982
54.220 8.988721
54.225 9.302166
54.230 9.268232
54.235 9.778211
54.240 10.433561
54.245 10.906624
54.250 11.116179
54.255 10.963394
54.260 10.36976
54.265 10.218637
54.270 9.61377
54.275 9.134289
54.280 9.189808
54.285 9.312181
54.290 9.6795
54.295 10.198728
54.300 10.643292
54.305 10.72179
54.310 11.171929
54.315 11.458744
54.320 11.013631
54.325 10.859306
54.330 10.484153
54.335 10.111948
54.340 10.373715
54.345 9.844638
54.350 9.859655
54.355 10.125774
54.360 9.970285
54.365 10.083243
54.370 10.332545
54.375 10.031211
54.380 10.30099
54.385 9.978703
54.390 10.307135
54.395 10.44042
54.400 9.914577
54.405 9.684975
54.410 9.766133
54.415 9.165611
54.420 9.345379
54.425 9.217228
54.430 9.294713
54.435 9.109048
54.440 8.925303
54.445 9.210005
54.450 9.410077
54.455 8.902003
54.460 8.762794
54.465 9.265889
54.470 9.973362
54.475 10.400176
54.480 10.387917
54.485 10.664226
54.490 10.821908
54.495 10.830616
54.500 10.555471
54.505 10.130289
54.510 9.688251
54.515 9.278189
54.520 9.078353
54.525 9.103297
54.530 9.206805
54.535 9.562977
54.540 9.728256
54.545 9.904349
54.550 10.121833
54.555 10.527472
54.560 10.552899
54.565 10.371521
54.570 10.228148
54.575 10.289639
54.580 10.046181
54.585 10.252702
54.590 10.400318
54.595 10.598127
54.600 10.724129
54.605 10.707027
54.610 10.482362
54.615 10.862875
54.620 10.799107
54.625 10.23923
54.630 9.991746
54.635 9.849051
54.640 10.123005
54.645 10.375368
54.650 10.454141
54.655 10.299374
54.660 10.534657
54.665 10.52626
54.670 10.315566
54.675 10.116883
54.680 10.087167
54.685 9.545286
54.690 9.862635
54.695 10.323941
54.700 10.520228
54.705 10.296161
54.710 10.072294
54.715 10.436234
54.720 10.955299
54.725 10.848035
54.730 10.306396
54.735 10.496514
54.740 11.002185
54.745 10.761992
54.750 10.092908
54.755 10.190841
54.760 10.384295
54.765 10.458011
54.770 10.256385
54.775 10.10036
54.780 9.977629
54.785 9.934886
54.790 9.569754
54.795 9.733226
54.800 9.908414
54.805 9.93652
54.810 10.568305
54.815 11.250239
54.820 12.189173
54.825 12.083598
54.830 11.548226
54.835 11.522204
54.840 11.289135
54.845 11.084702
54.850 10.353157
54.855 9.255942
54.860 9.365273
54.865 9.953504
54.870 10.082108
54.875 10.689815
54.880 10.74807
54.885 10.999983
54.890 11.321113
54.895 10.958321
54.900 10.629725
54.905 10.373232
54.910 9.97421
54.915 9.921696
54.920 10.196368
54.925 10.256859
54.930 10.448556
54.935 10.61778
54.940 10.688625
54.945 10.575801
54.950 10.785649
54.955 10.789927
54.960 10.666453
54.965 10.877566
54.970 10.889368
54.975 10.83098
54.980 10.518786
54.985 10.381108
54.990 10.408112
54.995 10.18786
55.000 9.862729
55.005 10.000189
55.010 10.530092
55.015 10.925305
55.020 10.765347
55.025 11.154944
55.030 11.655194
55.035 11.443958
55.040 11.458668
55.045 11.292458
55.050 11.089788
55.055 10.872139
55.060 10.568735
55.065 10.270299
55.070 10.501007
55.075 10.290172
55.080 10.277561
55.085 10.285058
55.090 10.042828
55.095 9.821494
55.100 9.87942
55.105 10.114473
55.110 10.26938
55.115 10.464127
55.120 10.886543
55.125 10.991172
55.130 10.982801
55.135 11.088099
55.140 10.616074
55.145 10.095571
55.150 9.747766
55.155 9.666217
55.160 9.685733
55.165 10.04692
55.170 10.102986
55.175 10.548697
55.180 11.021547
55.185 11.589712
55.190 12.103455
55.195 12.053271
55.200 11.641261
55.205 12.012083
55.210 11.810282
55.215 11.801499
55.220 11.471086
55.225 11.325988
55.230 11.655124
55.235 11.576798
55.240 11.211151
55.245 11.219273
55.250 10.864732
55.255 10.730716
55.260 10.772364
55.265 10.892514
55.270 11.219762
55.275 11.347945
55.280 11.406511
55.285 11.651949
55.290 11.616976
55.295 11.066009
55.300 10.967166
55.305 10.634468
55.310 10.439278
55.315 9.98433
55.320 10.120994
55.325 10.379034
55.330 10.955558
55.335 10.731875
55.340 10.81628
55.345 11.035225
55.350 11.428944
55.355 11.664909
55.360 11.80515
55.365 12.067391
55.370 12.268877
55.375 12.137494
55.380 12.205305
55.385 12.051807
55.390 11.255054
55.395 10.725964
55.400 10.504595
55.405 10.554185
55.410 10.271842
55.415 10.25869
55.420 10.371025
55.425 10.290575
55.430 10.887217
55.435 11.140309
55.440 11.539733
55.445 11.603307
55.450 11.220908
55.455 11.464553
55.460 11.743098
55.465 11.239959
55.470 11.042833
55.475 10.796505
55.480 10.622526
55.485 10.366011
55.490 10.215657
55.495 9.885656
55.500 9.756598
55.505 9.840868
55.510 9.532625
55.515 9.647431
55.520 10.23754
55.525 10.06555
55.530 10.349897
55.535 10.604488
55.540 10.852947
55.545 11.23145
55.550 11.383962
55.555 11.4157
55.560 11.42689
55.565 10.687025
55.570 10.29143
55.575 10.3734
55.580 10.962832
55.585 10.980106
55.590 10.810138
55.595 11.332555
55.600 11.661851
55.605 11.421788
55.610 11.21065
55.615 10.871369
55.620 10.731307
55.625 10.693864
55.630 10.53037
55.635 10.715376
55.640 10.937927
55.645 10.416974
55.650 10.334822
55.655 10.327726
55.660 10.270591
55.665 9.688993
55.670 10.151816
55.675 10.491969
55.680 10.685201
55.685 11.038803
55.690 10.917917
55.695 10.675975
55.700 11.065087
55.705 10.615477
55.710 10.427172
55.715 10.747697
55.720 10.259611
55.725 10.544254
55.730 10.955813
55.735 10.886115
55.740 11.046294
55.745 11.552286
55.750 11.35955
55.755 11.057726
55.760 10.982466
55.765 11.007002
55.770 11.070037
55.775 10.877325
55.780 10.774579
55.785 10.982865
55.790 11.618426
55.795 11.665297
55.800 11.254771
55.805 11.24562
55.810 11.058607
55.815 10.784288
55.820 10.949052
55.825 10.867045
55.830 10.949615
55.835 11.564379
55.840 11.717206
55.845 12.231523
55.850 12.397855
55.855 12.476042
55.860 12.342517
55.865 12.402114
55.870 12.451921
55.875 12.528819
55.880 11.766863
55.885 12.054424
55.890 12.198514
55.895 12.112977
55.900 12.339991
55.905 12.306758
55.910 12.453999
55.915 12.54823
55.920 11.79451
55.925 11.257911
55.930 11.508078
55.935 11.624551
55.940 11.439181
55.945 11.310745
55.950 11.194525
55.955 11.684453
55.960 12.23393
55.965 12.134602
55.970 12.127603
55.975 11.520036
55.980 11.623747
55.985 11.821572
55.990 11.709105
55.995 11.220839
56.000 10.604548
56.005 10.150811
56.010 10.629013
56.015 10.608006
56.020 10.661561
56.025 11.377958
56.030 11.73397
56.035 11.809528
56.040 11.936205
56.045 11.327413
56.050 11.474347
56.055 11.207791
56.060 10.24514
56.065 10.181763
56.070 10.408975
56.075 10.883558
56.080 11.459401
56.085 11.460703
56.090 11.670581
56.095 12.215619
56.100 12.285426
56.105 12.28817
56.110 12.174819
56.115 12.220703
56.120 12.370272
56.125 11.99553
56.130 11.596294
56.135 12.066898
56.140 11.859756
56.145 11.814694
56.150 11.848735
56.155 11.781468
56.160 11.940864
56.165 12.073663
56.170 11.9682
56.175 12.130354
56.180 11.658711
56.185 11.396917
56.190 11.263149
56.195 10.978845
56.200 10.833785
56.205 10.74186
56.210 11.005323
56.215 11.033433
56.220 10.979332
56.225 11.157268
56.230 11.865301
56.235 12.093403
56.240 12.541793
56.245 12.763333
56.250 12.754923
56.255 13.010834
56.260 13.126687
56.265 12.834244
56.270 12.626121
56.275 12.289928
56.280 12.512753
56.285 12.958184
56.290 12.781917
56.295 12.66587
56.300 12.629814
56.305 12.622308
56.310 12.101818
56.315 11.661415
56.320 11.55084
56.325 11.470035
56.330 11.265653
56.335 11.098567
56.340 11.468102
56.345 12.378824
56.350 13.084188
56.355 13.188071
56.360 13.151615
56.365 13.722588
56.370 14.208587
56.375 13.74414
56.380 12.806606
56.385 12.672006
56.390 12.913327
56.395 13.120436
56.400 13.138912
56.405 12.746208
56.410 12.786774
56.415 12.700322
56.420 12.109496
56.425 11.731753
56.430 11.5697
56.435 11.427523
56.440 11.918446
56.445 12.425476
56.450 12.501018
56.455 12.429747
56.460 12.441284
56.465 12.154585
56.470 12.032427
56.475 11.391628
56.480 11.572915
56.485 12.020594
56.490 12.149626
56.495 12.492191
56.500 12.649023
56.505 12.631635
56.510 13.385866
56.515 13.310289
56.520 13.32388
56.525 13.829032
56.530 13.841693
56.535 14.069342
56.540 14.278781
56.545 13.656951
56.550 13.315574
56.555 12.873903
56.560 12.102762
56.565 11.79317
56.570 11.532804
56.575 11.395599
56.580 11.483186
56.585 11.812902
56.590 12.057148
56.595 12.514441
56.600 13.231386
56.605 13.473777
56.610 13.822324
56.615 13.670066
56.620 13.133918
56.625 13.352628
56.630 12.986904
56.635 12.015821
56.640 11.802109
56.645 11.284615
56.650 11.291549
56.655 11.596367
56.660 11.692348
56.665 11.742832
56.670 11.992365
56.675 11.82669
56.680 11.861103
56.685 12.143994
56.690 11.928673
56.695 11.615085
56.700 11.904963
56.705 11.943161
56.710 12.428269
56.715 12.535848
56.720 12.419013
56.725 12.454515
56.730 12.374656
56.735 12.238614
56.740 11.952616
56.745 11.476955
56.750 11.529565
56.755 11.623973
56.760 12.116604
56.765 12.126564
56.770 11.980739
56.775 12.191934
56.780 12.679301
56.785 12.538891
56.790 12.567506
56.795 12.654794
56.800 13.424016
56.805 13.96963
56.810 13.920078
56.815 13.515792
56.820 13.31258
56.825 12.859655
56.830 12.3468
56.835 11.445646
56.840 11.397036
56.845 11.478143
56.850 11.869246
56.855 11.944369
56.860 11.959465
56.865 12.532028
56.870 12.943734
56.875 12.577443
56.880 12.815995
56.885 12.78301
56.890 13.073756
56.895 13.642304
56.900 13.214056
56.905 12.723792
56.910 12.709584
56.915 12.350231
56.920 12.275742
56.925 12.291173
56.930 11.912121
56.935 11.677447
56.940 12.029743
56.945 11.982687
56.950 11.754062
56.955 11.007641
56.960 10.467405
56.965 10.790343
56.970 11.627955
56.975 11.731971
56.980 11.574562
56.985 11.530022
56.990 12.148422
56.995 12.618109
57.000 12.133893
57.005 11.856533
57.010 11.681616
57.015 12.173211
57.020 12.544605
57.025 12.359036
57.030 12.238945
57.035 12.369709
57.040 12.210617
57.045 11.973423
57.050 11.673627
57.055 11.806153
57.060 11.80248
57.065 11.919386
57.070 12.180133
57.075 12.200347
57.080 12.437889
57.085 12.38592
57.090 12.514528
57.095 12.472533
57.100 12.340229
57.105 12.461851
57.110 12.593354
57.115 12.45254
57.120 12.566051
57.125 12.300762
57.130 12.286108
57.135 12.164139
57.140 12.0795
57.145 12.14283
57.150 12.03309
57.155 11.951566
57.160 12.208482
57.165 12.315902
57.170 12.103062
57.175 12.195114
57.180 12.392533
57.185 12.736838
57.190 12.95841
57.195 12.539612
57.200 12.636351
57.205 13.030922
57.210 12.422327
57.215 11.988686
57.220 11.780032
57.225 11.714876
57.230 11.878121
57.235 12.050986
57.240 12.364399
57.245 13.407643
57.250 14.25201
57.255 14.403337
57.260 14.504164
57.265 14.540277
57.270 14.301817
57.275 13.951681
57.280 13.641501
57.285 13.394601
57.290 13.228875
57.295 13.579763
57.300 14.34833
57.305 14.124939
57.310 13.721005
57.315 13.505874
57.320 13.46652
57.325 13.864848
57.330 13.577534
57.335 12.519882
57.340 12.358927
57.345 12.283342
57.350 12.161494
57.355 12.398305
57.360 12.398649
57.365 12.558815
57.370 12.941305
57.375 13.35551
57.380 13.544559
57.385 12.746989
57.390 12.333176
57.395 11.927432
57.400 11.555061
57.405 11.646579
57.410 11.646866
57.415 11.789076
57.420 12.436127
57.425 12.259571
57.430 12.625547
57.435 12.890889
57.440 13.4449
57.445 13.572106
57.450 13.579482
57.455 13.823389
57.460 14.230412
57.465 14.034434
57.470 13.776417
57.475 13.295028
57.480 13.208565
57.485 13.027896
57.490 12.719937
57.495 12.428988
57.500 12.45782
57.505 12.753618
57.510 13.129906
57.515 13.023442
57.520 13.255787
57.525 13.429736
57.530 13.390615
57.535 13.418162
57.540 13.432215
57.545 13.611948
57.550 14.184084
57.555 13.548417
57.560 13.558985
57.565 13.846
57.570 13.895649
57.575 13.512238
57.580 13.219706
57.585 13.110415
57.590 13.480708
57.595 13.647763
57.600 13.277849
57.605 13.042921
57.610 13.305814
57.615 13.498045
57.620 13.553959
57.625 13.78486
57.630 13.513965
57.635 13.894549
57.640 14.403837
57.645 14.149016
57.650 13.686279
57.655 13.615266
57.660 13.534163
57.665 13.481154
57.670 13.305728
57.675 13.002185
57.680 13.391524
57.685 13.101745
57.690 12.852714
57.695 13.097142
57.700 13.047845
57.705 12.90124
57.710 13.091924
57.715 12.788409
57.720 13.454497
57.725 13.440965
57.730 13.883257
57.735 14.072791
57.740 14.321631
57.745 14.517535
57.750 14.646659
57.755 14.38827
57.760 14.442325
57.765 13.60454
57.770 13.22476
57.775 13.302553
57.780 13.256084
57.785 13.462347
57.790 14.313568
57.795 14.187655
57.800 14.246139
57.805 14.136059
57.810 13.670209
57.815 13.672224
57.820 13.273705
57.825 12.882765
57.830 13.192242
57.835 13.038141
57.840 13.184649
57.845 13.230869
57.850 12.937731
57.855 13.108624
57.860 12.784931
57.865 12.922675
57.870 13.871398
57.875 13.527081
57.880 13.268919
57.885 13.418006
57.890 13.204237
57.895 13.379276
57.900 13.920783
57.905 13.149326
57.910 13.74636
57.915 14.275728
57.920 14.418015
57.925 14.241807
57.930 13.89092
57.935 13.572284
57.940 13.545641
57.945 13.134903
57.950 12.791536
57.955 12.471203
57.960 12.397382
57.965 12.168588
57.970 11.536246
57.975 11.77394
57.980 12.047471
57.985 12.219001
57.990 12.267873
57.995 12.42931
58.000 12.993652
58.005 13.599045
58.010 13.527238
58.015 13.182874
58.020 13.529124
58.025 14.130281
58.030 14.371498
58.035 14.697939
58.040 14.898032
58.045 15.103477
58.050 15.272243
58.055 14.978831
58.060 14.561904
58.065 14.004771
58.070 13.204683
58.075 12.85031
58.080 13.017715
58.085 12.812705
58.090 12.598128
58.095 12.078718
58.100 12.704846
58.105 13.155299
58.110 13.459008
58.115 13.911477
58.120 14.167323
58.125 14.318141
58.130 14.511474
58.135 14.126981
58.140 14.530006
58.145 14.094096
58.150 13.726735
58.155 14.005039
58.160 14.674385
58.165 15.066298
58.170 15.018397
58.175 14.707831
58.180 15.283307
58.185 15.250992
58.190 15.108521
58.195 14.910296
58.200 14.905117
58.205 14.860887
58.210 14.57865
58.215 13.8751
58.220 13.781043
58.225 13.151038
58.230 12.648816
58.235 12.77492
58.240 13.191709
58.245 13.892669
58.250 14.602123
58.255 14.471097
58.260 14.989187
58.265 15.802816
58.270 15.643318
58.275 15.801046
58.280 16.005213
58.285 16.139446
58.290 16.804979
58.295 16.808735
58.300 17.199881
58.305 17.947937
58.310 17.952667
58.315 17.214735
58.320 16.627506
58.325 16.725512
58.330 16.187365
58.335 15.723547
58.340 15.140171
58.345 14.527578
58.350 14.029813
58.355 13.855566
58.360 13.653185
58.365 14.067163
58.370 13.8568
58.375 13.649342
58.380 13.83435
58.385 13.984142
58.390 14.288213
58.395 14.353209
58.400 14.230202
58.405 15.154428
58.410 15.447545
58.415 15.232458
58.420 15.88028
58.425 16.262726
58.430 16.719763
58.435 16.474958
58.440 16.014339
58.445 16.285347
58.450 16.741348
58.455 16.823193
58.460 16.628899
58.465 16.364008
58.470 17.030128
58.475 17.15921
58.480 17.493046
58.485 18.276663
58.490 18.253347
58.495 18.269327
58.500 18.231375
58.505 17.682606
58.510 17.220837
58.515 17.027243
58.520 16.495075
58.525 16.07593
58.530 16.027367
58.535 16.670458
58.540 17.02334
58.545 17.075802
58.550 17.026566
58.555 17.120102
58.560 18.059229
58.565 18.182741
58.570 18.045435
58.575 18.325964
58.580 18.578421
58.585 18.402561
58.590 18.016645
58.595 17.820858
58.600 17.729586
58.605 17.206751
58.610 17.056698
58.615 17.035124
58.620 17.639818
58.625 18.23592
58.630 18.589369
58.635 18.521791
58.640 18.446234
58.645 18.737146
58.650 18.405052
58.655 18.001198
58.660 18.069307
58.665 18.067127
58.670 18.553289
58.675 19.130486
58.680 18.941614
58.685 19.478104
58.690 19.836992
58.695 19.978592
58.700 19.866978
58.705 19.588175
58.710 19.370461
58.715 19.240593
58.720 18.999084
58.725 18.762281
58.730 18.226627
58.735 18.314489
58.740 18.436878
58.745 18.362595
58.750 18.111086
58.755 18.157984
58.760 17.915077
58.765 18.337173
58.770 18.536346
58.775 18.7162
58.780 18.591293
58.785 18.357801
58.790 18.663113
58.795 18.791048
58.800 17.973644
58.805 17.407808
58.810 17.909185
58.815 18.986633
58.820 19.238056
58.825 18.527815
58.830 18.184309
58.835 19.044802
58.840 19.354464
58.845 18.92005
58.850 18.657722
58.855 18.896301
58.860 19.554066
58.865 19.459595
58.870 18.860899
58.875 18.600885
58.880 18.344311
58.885 17.8888
58.890 17.348173
58.895 17.040836
58.900 17.820541
58.905 17.840719
58.910 18.047342
58.915 18.18153
58.920 18.42322
58.925 18.962753
58.930 19.207821
58.935 19.406872
58.940 20.057402
58.945 19.840115
58.950 19.439522
58.955 19.809381
58.960 20.122995
58.965 20.687702
58.970 20.3999
58.975 19.472977
58.980 19.678022
58.985 19.984524
58.990 19.331297
58.995 18.799812
59.000 18.353592
59.005 18.761915
59.010 19.845764
59.015 19.560122
59.020 19.928766
59.025 20.532682
59.030 20.941681
59.035 20.948393
59.040 20.945518
59.045 20.655691
59.050 20.79216
59.055 20.393999
59.060 20.231581
59.065 20.118092
59.070 19.922338
59.075 19.555168
59.080 19.30661
59.085 19.33568
59.090 19.68955
59.095 19.01959
59.100 18.989109
59.105 18.829559
59.110 18.692574
59.115 18.819698
59.120 18.910555
59.125 18.452457
59.130 18.808033
59.135 18.636221
59.140 18.36842
59.145 18.562086
59.150 18.730753
59.155 18.208406
59.160 18.486105
59.165 18.453373
59.170 19.032463
59.175 19.491741
59.180 19.286646
59.185 19.042009
59.190 19.471758
59.195 19.281624
59.200 19.174067
59.205 18.354626
59.210 17.661404
59.215 18.044556
59.220 18.305227
59.225 18.19313
59.230 18.318701
59.235 18.73595
59.240 18.820997
59.245 19.403412
59.250 19.301817
59.255 18.809835
59.260 18.260609
59.265 17.987276
59.270 17.826939
59.275 18.050701
59.280 17.547993
59.285 16.76634
59.290 16.634918
59.295 16.862606
59.300 17.21464
59.305 17.008966
59.310 17.072918
59.315 17.426573
59.320 17.846146
59.325 18.57115
59.330 18.623133
59.335 18.550625
59.340 18.761967
59.345 18.837086
59.350 18.70875
59.355 18.422722
59.360 18.479208
59.365 18.263641
59.370 18.250141
59.375 17.833015
59.380 17.313744
59.385 17.632742
59.390 18.066427
59.395 17.831972
59.400 18.305185
59.405 18.396082
59.410 18.552502
59.415 18.975101
59.420 18.737974
59.425 18.55072
59.430 18.636963
59.435 18.639355
59.440 18.521101
59.445 18.71916
59.450 19.121342
59.455 19.066271
59.460 18.866898
59.465 18.890724
59.470 19.19659
59.475 19.783709
59.480 19.578203
59.485 19.2658
59.490 19.749645
59.495 20.611391
59.500 20.38295
59.505 19.559969
59.510 19.108351
59.515 19.116985
59.520 19.309639
59.525 18.791517
59.530 18.067965
59.535 18.042496
59.540 18.084038
59.545 18.278797
59.550 18.362305
59.555 18.769634
59.560 19.498896
59.565 19.317389
59.570 19.367647
59.575 19.276325
59.580 19.580612
59.585 19.717199
59.590 18.950304
59.595 19.407373
59.600 19.634302
59.605 19.44912
59.610 19.590916
59.615 19.020882
59.620 18.51589
59.625 18.415998
59.630 17.71003
59.635 17.663792
59.640 17.936296
59.645 18.373304
59.650 18.695452
59.655 18.815403
59.660 18.486355
59.665 17.855955
59.670 17.437107
59.675 17.754499
59.680 17.700233
59.685 17.604946
59.690 17.51852
59.695 17.697725
59.700 18.309015
59.705 19.110279
59.710 18.493685
59.715 17.939383
59.720 17.525394
59.725 17.780701
59.730 18.371052
59.735 18.337191
59.740 18.3092
59.745 18.708214
59.750 19.249817
59.755 19.468502
59.760 19.537865
59.765 19.091848
59.770 19.008398
59.775 18.331499
59.780 18.338236
59.785 18.517292
59.790 18.743631
59.795 18.272491
59.800 18.836283
59.805 19.083286
59.810 19.27989
59.815 18.52841
59.820 18.112431
59.825 18.494835
59.830 18.872925
59.835 18.154345
59.840 18.23015
59.845 18.449583
59.850 19.011915
59.855 18.479832
59.860 17.86235
59.865 17.443403
59.870 17.845568
59.875 17.653963
59.880 17.21603
59.885 17.171474
59.890 18.229904
59.895 19.278868
59.900 19.182915
59.905 18.424034
59.910 18.065147
59.915 18.723976
59.920 18.658974
59.925 17.760181
59.930 17.047297
59.935 17.201822
59.940 17.693666
59.945 17.646332
59.950 16.865992
59.955 16.516615
59.960 16.62463
59.965 16.454107
59.970 16.591953
59.975 16.80509
59.980 16.908266
59.985 17.148762
59.990 17.73271
59.995 17.908844
60.000 17.990931
60.005 18.103569
60.010 18.195059
60.015 18.721067
60.020 19.2955
60.025 19.176682
60.030 19.188576
60.035 19.191786
60.040 18.930244
60.045 19.4312
60.050 19.509874
60.055 18.905539
60.060 18.917103
60.065 18.986067
60.070 18.899712
60.075 18.956139
60.080 18.806749
60.085 18.880728
60.090 19.049252
60.095 19.094772
60.100 19.174995
60.105 19.248415
60.110 19.277184
60.115 18.836596
60.120 18.897715
60.125 18.567453
60.130 18.75193
60.135 19.127607
60.140 18.950624
60.145 19.017414
60.150 18.81953
60.155 18.677584
60.160 18.627272
60.165 18.228773
60.170 18.087547
60.175 18.177504
60.180 18.106272
60.185 18.556067
60.190 18.889763
60.195 19.276491
60.200 19.183681
60.205 19.332727
60.210 19.256788
60.215 18.847212
60.220 18.27183
60.225 18.154207
60.230 18.182657
60.235 18.69696
60.240 18.711414
60.245 18.984867
60.250 18.760033
60.255 18.674913
60.260 18.239649
60.265 18.268196
60.270 17.745241
60.275 17.573076
60.280 17.360691
60.285 17.502022
60.290 17.243542
60.295 17.41818
60.300 17.195959
60.305 16.828279
60.310 16.727112
60.315 16.899952
60.320 17.241119
60.325 17.632513
60.330 17.883574
60.335 17.695805
60.340 17.468462
60.345 16.785086
60.350 16.791246
60.355 16.514151
60.360 16.113514
60.365 16.03203
60.370 16.029282
60.375 16.739412
60.380 17.297384
60.385 17.302004
60.390 17.198454
60.395 17.553093
60.400 17.073242
60.405 16.788467
60.410 16.436081
60.415 16.463589
60.420 16.732544
60.425 17.545254
60.430 17.587463
60.435 17.815357
60.440 18.310808
60.445 18.291674
60.450 18.031279
60.455 17.59926
60.460 17.3235
60.465 17.33231
60.470 17.681355
60.475 18.129866
60.480 18.408072
60.485 18.661947
60.490 18.479168
60.495 17.891615
60.500 17.466341
60.505 16.899281
60.510 16.357704
60.515 16.082066
60.520 15.672923
60.525 15.70267
60.530 15.715797
60.535 16.243187
60.540 16.271931
60.545 16.523335
60.550 16.845018
60.555 17.426294
60.560 17.452789
60.565 17.91189
60.570 18.171276
60.575 18.53182
60.580 18.45285
60.585 18.008932
60.590 17.619875
60.595 17.162729
60.600 16.450851
60.605 16.441002
60.610 16.434822
60.615 16.55015
60.620 17.036442
60.625 17.325874
60.630 18.025993
60.635 18.172876
60.640 17.592035
60.645 17.421154
60.650 17.358259
60.655 17.262976
60.660 16.827932
60.665 16.822834
60.670 17.234732
60.675 16.996334
60.680 16.256063
60.685 15.640573
60.690 15.564557
60.695 15.937677
60.700 15.722179
60.705 15.871631
60.710 16.078362
60.715 16.503145
60.720 16.412598
60.725 16.27784
60.730 15.902064
60.735 15.985537
60.740 15.774842
60.745 15.867861
60.750 16.315462
60.755 16.69994
60.760 17.419176
60.765 17.832298
60.770 17.504997
60.775 17.465124
60.780 17.673241
60.785 16.872459
60.790 16.332541
60.795 15.856283
60.800 15.873807
60.805 15.733137
60.810 15.685902
60.815 16.496572
60.820 16.84017
60.825 17.083817
60.830 16.852425
60.835 16.248104
60.840 15.873445
60.845 15.7815
60.850 15.834276
60.855 15.608727
60.860 15.700783
60.865 15.67679
60.870 16.178467
60.875 16.397413
60.880 15.878922
60.885 15.597144
60.890 15.91893
60.895 15.80434
60.900 15.785042
60.905 15.755386
60.910 15.847966
60.915 15.661697
60.920 15.271491
60.925 14.945822
60.930 15.473866
60.935 15.841423
60.940 16.019718
60.945 16.275803
60.950 16.407953
60.955 16.656895
60.960 17.067284
60.965 16.786633
60.970 16.69367
60.975 16.599028
60.980 16.211365
60.985 16.241838
60.990 16.687954
60.995 16.514181
61.000 16.220699
61.005 16.12491
61.010 16.019133
61.015 16.332357
61.020 16.877752
61.025 17.069958
61.030 17.112638
61.035 16.812532
61.040 16.632011
61.045 16.719372
61.050 16.8591
61.055 16.07465
61.060 15.293458
61.065 15.064743
61.070 15.380442
61.075 15.537482
61.080 16.188606
61.085 16.257359
61.090 16.007669
61.095 16.275639
61.100 16.565258
61.105 16.831018
61.110 16.603996
61.115 15.926021
61.120 15.670138
61.125 16.20352
61.130 15.961773
61.135 15.692724
61.140 15.246436
61.145 15.157605
61.150 15.455663
61.155 15.44243
61.160 15.313805
61.165 15.574498
61.170 15.669766
61.175 15.804155
61.180 16.03953
61.185 16.043337
61.190 16.088423
61.195 16.632965
61.200 16.814522
61.205 17.325176
61.210 17.407494
61.215 16.682076
61.220 16.377628
61.225 16.110043
61.230 15.190634
61.235 14.837523
61.240 15.090161
61.245 15.396279
61.250 15.846529
61.255 15.980954
61.260 16.19128
61.265 16.887527
61.270 17.553303
61.275 17.443172
61.280 17.58157
61.285 17.761469
61.290 17.38237
61.295 17.724794
61.300 17.264908
61.305 16.282923
61.310 15.808863
61.315 15.478598
61.320 15.31832
61.325 15.211979
61.330 15.264905
61.335 15.061781
61.340 14.969003
61.345 14.607502
61.350 15.001276
61.355 15.059497
61.360 15.244602
61.365 15.0129
61.370 15.115096
61.375 15.447951
61.380 15.518975
61.385 15.20705
61.390 15.567167
61.395 15.278076
61.400 15.202917
61.405 15.241003
61.410 15.314377
61.415 14.824915
61.420 14.300403
61.425 14.169881
61.430 14.440383
61.435 14.277665
61.440 14.163468
61.445 13.706657
61.450 13.913919
61.455 14.076965
61.460 13.980679
61.465 14.045015
61.470 14.41405
61.475 14.333858
61.480 14.73314
61.485 14.914467
61.490 15.060712
61.495 15.194913
61.500 15.055455
61.505 14.946608
61.510 15.081145
61.515 14.742296
61.520 14.604433
61.525 14.613866
61.530 14.430118
61.535 14.31864
61.540 14.866696
61.545 15.226933
61.550 14.994324
61.555 15.013906
61.560 15.258595
61.565 15.642885
61.570 16.037266
61.575 15.400771
61.580 15.658426
61.585 16.291929
61.590 16.314175
61.595 16.057787
61.600 16.137009
61.605 15.979904
61.610 16.219851
61.615 15.888118
61.620 15.749599
61.625 15.581344
61.630 15.249856
61.635 14.846487
61.640 14.880904
61.645 14.504002
61.650 14.455639
61.655 14.911649
61.660 15.438828
61.665 16.548023
61.670 16.749077
61.675 16.834585
61.680 17.202478
61.685 17.453306
61.690 17.095224
61.695 16.604792
61.700 15.716925
61.705 15.623794
61.710 15.485038
61.715 15.296017
61.720 15.495852
61.725 15.673676
61.730 15.600101
61.735 15.782799
61.740 15.898358
61.745 15.940038
61.750 15.577353
61.755 15.463696
61.760 15.311723
61.765 15.420392
61.770 15.474685
61.775 15.781643
61.780 15.71977
61.785 16.013922
61.790 15.926886
61.795 16.718697
61.800 16.860044
61.805 17.018044
61.810 17.035963
61.815 17.315378
61.820 17.115496
61.825 16.837729
61.830 16.189224
61.835 16.337555
61.840 16.12624
61.845 15.848516
61.850 15.717542
61.855 15.853954
61.860 16.475735
61.865 16.945244
61.870 17.142628
61.875 17.344963
61.880 17.588253
61.885 18.124279
61.890 18.195044
61.895 17.765318
61.900 17.706141
61.905 17.432863
61.910 17.788445
61.915 17.664051
61.920 17.289999
61.925 17.375565
61.930 16.713181
61.935 16.640736
61.940 16.369854
61.945 15.662619
61.950 14.786778
61.955 14.671246
61.960 14.160884
61.965 14.512432
61.970 14.292545
61.975 13.681242
61.980 13.401128
61.985 13.392571
61.990 13.6402
61.995 13.942428
62.000 14.022285
62.005 14.20497
62.010 14.758886
62.015 14.968028
62.020 15.407115
62.025 15.136093
62.030 14.946051
62.035 15.084162
62.040 15.459273
62.045 15.835564
62.050 16.131701
62.055 16.146221
62.060 16.1012
62.065 16.048431
62.070 15.688944
62.075 15.436229
62.080 15.195459
62.085 15.108893
62.090 15.272423
62.095 15.709243
62.100 16.303083
62.105 16.643408
62.110 16.620739
62.115 17.164162
62.120 17.537777
62.125 17.691738
62.130 17.086481
62.135 16.615507
62.140 16.070271
62.145 15.928246
62.150 15.710288
62.155 15.276332
62.160 15.109322
62.165 15.375338
62.170 15.883287
62.175 16.428377
62.180 16.641712
62.185 16.898582
62.190 16.760933
62.195 16.876587
62.200 17.148655
62.205 16.82523
62.210 16.789522
62.215 16.374079
62.220 15.942728
62.225 16.035557
62.230 16.104481
62.235 15.967974
62.240 16.474648
62.245 16.369507
62.250 16.934837
62.255 16.908371
62.260 16.474779
62.265 16.350182
62.270 16.796726
62.275 16.729738
62.280 17.042778
62.285 16.868076
62.290 17.189001
62.295 17.866693
62.300 17.784487
62.305 17.438837
62.310 17.507318
62.315 16.800449
62.320 16.099876
62.325 15.749154
62.330 15.881732
62.335 16.12488
62.340 16.07822
62.345 15.714009
62.350 15.787804
62.355 16.251566
62.360 16.049757
62.365 15.660366
62.370 15.30253
62.375 14.974272
62.380 14.392858
62.385 14.044783
62.390 13.986161
62.395 14.388033
62.400 14.46994
62.405 14.595313
62.410 15.356243
62.415 16.400616
62.420 16.633045
62.425 16.182842
62.430 15.879827
62.435 15.600713
62.440 15.008444
62.445 14.615067
62.450 14.506746
62.455 14.818313
62.460 15.256677
62.465 15.265096
62.470 15.604385
62.475 15.79916
62.480 15.401975
62.485 15.237917
62.490 15.577092
62.495 15.460692
62.500 15.039389
62.505 14.983562
62.510 15.009682
62.515 15.534452
62.520 15.808384
62.525 15.289929
62.530 15.533411
62.535 15.861077
62.540 15.829367
62.545 15.605136
62.550 15.024336
62.555 14.223487
62.560 14.494246
62.565 14.490461
62.570 14.452612
62.575 14.959977
62.580 15.353642
62.585 16.211283
62.590 17.273525
62.595 17.517178
62.600 17.906029
62.605 18.70129
62.610 18.740831
62.615 18.624578
62.620 18.428673
62.625 17.508608
62.630 17.054237
62.635 16.792728
62.640 16.120375
62.645 15.670046
62.650 16.133347
62.655 16.072676
62.660 16.234808
62.665 16.107885
62.670 15.86943
62.675 16.279043
62.680 16.43786
62.685 16.179665
62.690 16.449955
62.695 16.872431
62.700 17.149632
62.705 17.615459
62.710 17.934879
62.715 18.356293
62.720 18.508108
62.725 17.990444
62.730 18.309048
62.735 18.793859
62.740 18.764101
62.745 18.504232
62.750 17.834934
62.755 18.005655
62.760 18.361507
62.765 18.214186
62.770 17.668697
62.775 17.425554
62.780 17.171621
62.785 17.275646
62.790 17.321884
62.795 17.130743
62.800 16.711555
62.805 17.181662
62.810 16.977182
62.815 16.970091
62.820 16.842264
62.825 16.505827
62.830 16.642797
62.835 16.796858
62.840 16.378607
62.845 16.726976
62.850 16.906559
62.855 16.900745
62.860 17.174301
62.865 17.067305
62.870 16.464668
62.875 16.288839
62.880 15.611634
62.885 15.448186
62.890 15.314632
62.895 14.612417
62.900 14.368382
62.905 14.535727
62.910 14.467279
62.915 15.038072
62.920 15.068638
62.925 15.171335
62.930 15.609078
62.935 16.620962
62.940 17.090046
62.945 17.125994
62.950 16.915983
62.955 16.958626
62.960 17.16716
62.965 16.911665
62.970 16.554884
62.975 16.551643
62.980 17.040804
62.985 16.669176
62.990 16.870289
62.995 16.746288
63.000 17.01494
63.005 16.23307
63.010 16.308102
63.015 16.027136
63.020 15.853548
63.025 15.691309
63.030 15.770987
63.035 15.611957
63.040 15.661871
63.045 15.208077
63.050 14.687002
63.055 15.034766
63.060 15.081203
63.065 15.14283
63.070 15.094414
63.075 15.250953
63.080 15.58129
63.085 15.977938
63.090 15.916816
63.095 15.537255
63.100 15.081791
63.105 15.249863
63.110 15.147857
63.115 15.732792
63.120 15.45706
63.125 15.344671
63.130 15.924932
63.135 16.209665
63.140 16.017731
63.145 15.817606
63.150 15.678886
63.155 16.111334
63.160 15.903237
63.165 15.347607
63.170 15.575354
63.175 16.156801
63.180 16.090975
63.185 15.211415
63.190 15.300448
63.195 15.697352
63.200 15.705929
63.205 15.811982
63.210 15.584521
63.215 15.747747
63.220 16.195282
63.225 15.825089
63.230 16.035316
63.235 16.163177
63.240 15.487155
63.245 15.359632
63.250 15.254651
63.255 15.748635
63.260 16.218515
63.265 16.050539
63.270 16.224386
63.275 16.526514
63.280 17.146439
63.285 17.735266
63.290 17.636223
63.295 17.526981
63.300 17.4876
63.305 17.764473
63.310 18.226421
63.315 18.184435
63.320 18.299665
63.325 18.359512
63.330 18.721558
63.335 18.906866
63.340 18.43096
63.345 18.186958
63.350 18.005732
63.355 17.556223
63.360 17.481762
63.365 17.23881
63.370 17.285257
63.375 17.63748
63.380 17.90666
63.385 17.54851
63.390 17.183546
63.395 16.77446
63.400 16.602352
63.405 16.39669
63.410 16.314272
63.415 15.877393
63.420 16.095362
63.425 16.605333
63.430 17.514555
63.435 17.787916
63.440 18.039629
63.445 18.223713
63.450 18.605362
63.455 18.798491
63.460 18.922804
63.465 18.670082
63.470 18.422476
63.475 18.645584
63.480 18.540846
63.485 18.842564
63.490 18.751684
63.495 18.32695
63.500 18.239414
63.505 18.004158
63.510 17.503225
63.515 17.156841
63.520 16.324898
63.525 15.736589
63.530 15.905954
63.535 15.69553
63.540 16.298576
63.545 16.484478
63.550 16.731894
63.555 17.136406
63.560 17.570623
63.565 17.928692
63.570 18.328108
63.575 18.698818
63.580 18.684662
63.585 18.381523
63.590 18.81909
63.595 19.245567
63.600 18.595171
63.605 18.400219
63.610 17.841988
63.615 18.055353
63.620 18.189968
63.625 17.281549
63.630 16.489916
63.635 16.627504
63.640 16.437798
63.645 16.551853
63.650 16.548794
63.655 16.829485
63.660 17.248652
63.665 18.361818
63.670 18.518721
63.675 19.058352
63.680 19.140804
63.685 19.277498
63.690 19.087723
63.695 19.015793
63.700 18.298985
63.705 17.821581
63.710 17.139898
63.715 16.843973
63.720 16.641056
63.725 16.886169
63.730 16.924313
63.735 17.341316
63.740 18.101974
63.745 18.010906
63.750 18.326735
63.755 19.226534
63.760 19.160599
63.765 19.165092
63.770 19.061214
63.775 18.945259
63.780 19.514137
63.785 19.348921
63.790 18.721165
63.795 18.87501
63.800 19.372242
63.805 19.16304
63.810 18.782982
63.815 18.791265
63.820 18.868633
63.825 18.838511
63.830 18.680157
63.835 19.172489
63.840 20.086687
63.845 20.175407
63.850 19.757717
63.855 19.313402
63.860 19.566584
63.865 19.73443
63.870 19.143572
63.875 18.959852
63.880 19.3274
63.885 19.248079
63.890 19.603977
63.895 19.079918
63.900 18.51609
63.905 18.260473
63.910 17.733351
63.915 17.247671
63.920 17.197489
63.925 16.922182
63.930 16.947193
63.935 17.177143
63.940 17.198618
63.945 17.4496
63.950 18.149424
63.955 18.851028
63.960 19.731209
63.965 20.088335
63.970 20.148863
63.975 20.431004
63.980 20.114098
63.985 19.890583
63.990 19.573647
63.995 19.304752
64.000 18.96512
64.005 18.891243
64.010 19.512877
64.015 20.21443
64.020 19.974966
64.025 19.962358
64.030 19.707039
64.035 20.242115
64.040 20.352701
64.045 20.132973
64.050 20.563988
64.055 20.559484
64.060 19.828045
64.065 19.428007
64.070 19.212337
64.075 19.357697
64.080 19.061234
64.085 18.771078
64.090 18.743132
64.095 19.02969
64.100 19.319782
64.105 19.66013
64.110 20.173214
64.115 20.69364
64.120 20.840685
64.125 21.219652
64.130 21.522751
64.135 21.569201
64.140 20.930321
64.145 20.506556
64.150 20.212109
64.155 19.955553
64.160 20.02231
64.165 20.159042
64.170 20.024822
64.175 20.005238
64.180 19.789663
64.185 19.785667
64.190 19.563114
64.195 19.039307
64.200 19.536812
64.205 20.14373
64.210 19.997221
64.215 19.801004
64.220 19.416527
64.225 19.353884
64.230 20.326332
64.235 19.628454
64.240 19.2318
64.245 19.523703
64.250 19.383545
64.255 19.784885
64.260 20.38945
64.265 20.188265
64.270 20.429737
64.275 20.546869
64.280 20.737768
64.285 21.450779
64.290 21.582396
64.295 21.460806
64.300 21.309528
64.305 21.589869
64.310 21.39259
64.315 21.655071
64.320 21.505154
64.325 21.92989
64.330 22.318165
64.335 22.131979
64.340 22.99708
64.345 23.184729
64.350 22.952061
64.355 22.660812
64.360 22.119102
64.365 21.973278
64.370 21.798214
64.375 21.280739
64.380 21.344894
64.385 21.814812
64.390 21.891205
64.395 21.947321
64.400 21.673706
64.405 22.225958
64.410 21.745287
64.415 21.773182
64.420 21.91707
64.425 22.642952
64.430 22.887283
64.435 22.765232
64.440 22.719475
64.445 23.305357
64.450 23.290009
64.455 22.801201
64.460 22.567411
64.465 22.53941
64.470 22.002762
64.475 21.246746
64.480 21.059378
64.485 21.408422
64.490 21.321453
64.495 20.985888
64.500 21.194061
64.505 22.151844
64.510 22.546453
64.515 22.585011
64.520 21.85607
64.525 21.742443
64.530 21.668261
64.535 21.882689
64.540 21.686884
64.545 21.977209
64.550 22.022223
64.555 22.014618
64.560 21.906855
64.565 21.568039
64.570 20.762442
64.575 20.740049
64.580 20.656837
64.585 21.387939
64.590 21.730162
64.595 22.264334
64.600 22.503
64.605 22.701796
64.610 22.608114
64.615 21.687351
64.620 20.968346
64.625 20.85549
64.630 20.584637
64.635 20.656628
64.640 21.019981
64.645 21.094036
64.650 22.022291
64.655 21.920933
64.660 22.016289
64.665 22.037714
64.670 22.119009
64.675 22.291264
64.680 22.387747
64.685 22.419222
64.690 22.740078
64.695 22.882156
64.700 22.873884
64.705 22.838631
64.710 23.000658
64.715 23.907995
64.720 24.021751
64.725 23.328394
64.730 22.938795
64.735 23.058836
64.740 22.891157
64.745 22.567556
64.750 21.525547
64.755 21.411644
64.760 21.896637
64.765 21.950708
64.770 22.014681
64.775 21.999954
64.780 22.000425
64.785 22.170795
64.790 21.996969
64.795 22.041584
64.800 22.497986
64.805 22.671629
64.810 22.986008
64.815 23.228056
64.820 22.961857
64.825 23.125124
64.830 22.731991
64.835 22.498823
64.840 22.330017
64.845 21.990793
64.850 21.371197
64.855 21.711535
64.860 21.432114
64.865 21.500479
64.870 21.450472
64.875 21.368151
64.880 22.147085
64.885 22.610847
64.890 22.5042
64.895 22.452784
64.900 22.407795
64.905 22.164022
64.910 21.973888
64.915 21.08576
64.920 20.978647
64.925 21.073503
64.930 20.980276
64.935 20.449062
64.940 21.142626
64.945 21.401249
64.950 22.113663
64.955 22.904247
64.960 23.653597
64.965 24.665018
64.970 25.225216
64.975 24.930958
64.980 24.886965
64.985 24.975252
64.990 24.261496
64.995 23.287975
65.000 22.65238
65.005 22.312876
65.010 22.037256
65.015 22.042913
65.020 22.844419
65.025 23.725994
65.030 24.037264
65.035 23.565746
65.040 23.520452
65.045 23.930342
65.050 24.403357
65.055 24.112663
65.060 23.741089
65.065 23.349129
65.070 24.028719
65.075 24.543716
65.080 24.324732
65.085 23.785908
65.090 23.095093
65.095 23.347622
65.100 24.228441
65.105 24.02331
65.110 23.97669
65.115 23.873886
65.120 24.209347
65.125 24.213812
65.130 23.587202
65.135 23.028458
65.140 23.187485
65.145 23.275621
65.150 22.967503
65.155 22.707502
65.160 22.517942
65.165 22.736439
65.170 23.33456
65.175 23.322376
65.180 22.858923
65.185 23.086948
65.190 22.824436
65.195 23.172939
65.200 22.744833
65.205 22.835768
65.210 23.1903
65.215 23.032183
65.220 23.13867
65.225 23.554161
65.230 24.002403
65.235 23.936144
65.240 23.929024
65.245 23.57877
65.250 23.523592
65.255 23.132278
65.260 22.891605
65.265 22.519884
65.270 22.974665
65.275 22.518574
65.280 22.277527
65.285 22.612331
65.290 23.104002
65.295 23.106312
65.300 22.909952
65.305 22.365515
65.310 22.361052
65.315 22.961189
65.320 22.922569
65.325 22.588825
65.330 22.34444
65.335 22.019484
65.340 22.101648
65.345 22.324938
65.350 22.152929
65.355 22.695721
65.360 23.292397
65.365 23.23152
65.370 23.136688
65.375 22.968292
65.380 23.384317
65.385 23.971985
65.390 23.777166
65.395 23.233555
65.400 23.295696
65.405 23.479725
65.410 23.772589
65.415 23.331903
65.420 22.269403
65.425 21.786594
65.430 22.572563
65.435 22.705158
65.440 22.926683
65.445 22.895704
65.450 22.899111
65.455 23.524725
65.460 23.769613
65.465 23.641184
65.470 24.172358
65.475 24.420284
65.480 24.61409
65.485 24.464441
65.490 24.486116
65.495 24.582756
65.500 23.799313
65.505 24.185534
65.510 24.952353
65.515 25.854469
65.520 26.070873
65.525 26.184443
65.530 26.464817
65.535 26.422644
65.540 25.72344
65.545 24.640446
65.550 23.315567
65.555 23.075321
65.560 23.357265
65.565 23.728067
65.570 24.305929
65.575 24.469023
65.580 25.760252
65.585 26.026152
65.590 26.613775
65.595 26.210234
65.600 25.857624
65.605 25.815306
65.610 25.612589
65.615 25.050922
65.620 25.579092
65.625 26.050747
65.630 26.292101
65.635 26.081224
65.640 26.108404
65.645 26.554998
65.650 26.657686
65.655 26.785635
65.660 26.493511
65.665 26.638794
65.670 26.754253
65.675 26.968264
65.680 27.151884
65.685 27.650583
65.690 28.372923
65.695 28.629084
65.700 28.873051
65.705 28.623583
65.710 28.519299
65.715 28.443151
65.720 27.805763
65.725 27.886927
65.730 27.494114
65.735 27.454918
65.740 27.366167
65.745 27.198503
65.750 27.640253
65.755 28.512732
65.760 27.704941
65.765 28.138338
65.770 28.536282
65.775 29.634398
65.780 30.711681
65.785 30.601784
65.790 30.475683
65.795 30.770407
65.800 31.193407
65.805 31.325861
65.810 30.986195
65.815 30.665245
65.820 30.18815
65.825 30.482897
65.830 30.794842
65.835 31.247862
65.840 31.551508
65.845 31.252737
65.850 30.947987
65.855 31.845091
65.860 31.069969
65.865 30.899101
65.870 30.678429
65.875 30.776114
65.880 30.789778
65.885 30.95853
65.890 31.14884
65.895 31.701727
65.900 31.985752
65.905 32.081726
65.910 32.347328
65.915 32.952927
65.920 32.676517
65.925 32.180073
65.930 32.63316
65.935 32.425514
65.940 32.288033
65.945 32.426579
65.950 32.50172
65.955 33.43869
65.960 33.902771
65.965 34.429577
65.970 35.460197
65.975 35.518738
65.980 35.150761
65.985 35.348385
65.990 35.538162
65.995 35.632778
66.000 34.963947
66.005 34.201088
66.010 34.270947
66.015 34.728863
66.020 34.706654
66.025 34.871109
66.030 35.127724
66.035 35.557495
66.040 35.691463
66.045 35.297287
66.050 35.110142
66.055 36.405628
66.060 36.584595
66.065 36.370094
66.070 36.476192
66.075 36.934757
66.080 37.694126
66.085 38.031643
66.090 36.275215
66.095 36.031727
66.100 36.654713
66.105 37.036861
66.110 36.703926
66.115 36.455051
66.120 36.711166
66.125 37.939064
66.130 38.280476
66.135 37.800228
66.140 37.362038
66.145 37.51862
66.150 37.872711
66.155 37.795238
66.160 37.35574
66.165 37.376869
66.170 37.72105
66.175 38.830143
66.180 39.004017
66.185 38.459473
66.190 38.0882
66.195 38.061092
66.200 37.80209
66.205 37.639236
66.210 37.026798
66.215 36.493832
66.220 36.534401
66.225 36.25692
66.230 35.660202
66.235 35.568119
66.240 35.398083
66.245 35.769009
66.250 35.753788
66.255 36.245487
66.260 36.732803
66.265 37.03072
66.270 36.966724
66.275 37.256283
66.280 37.094063
66.285 38.098019
66.290 38.259369
66.295 38.35976
66.300 39.215065
66.305 39.448196
66.310 39.153877
66.315 39.88707
66.320 39.266384
66.325 38.452778
66.330 38.670151
66.335 38.993168
66.340 39.125908
66.345 38.438816
66.350 37.567989
66.355 37.052753
66.360 37.90313
66.365 36.981045
66.370 36.219448
66.375 34.809723
66.380 34.818913
66.385 35.295509
66.390 35.364803
66.395 34.443851
66.400 34.569263
66.405 34.038048
66.410 35.049007
66.415 34.637802
66.420 35.114376
66.425 35.664726
66.430 35.153252
66.435 34.188286
66.440 34.152771
66.445 34.244572
66.450 34.328316
66.455 33.294552
66.460 32.871624
66.465 33.364723
66.470 34.084339
66.475 33.855438
66.480 33.301765
66.485 33.507431
66.490 33.057846
66.495 32.584991
66.500 31.834606
66.505 31.083067
66.510 30.584829
66.515 30.214598
66.520 29.28611
66.525 28.797201
66.530 28.694841
66.535 28.659142
66.540 29.049383
66.545 29.041136
66.550 28.901707
66.555 29.125433
66.560 29.205738
66.565 29.254992
66.570 29.380022
66.575 28.88588
66.580 28.387827
66.585 27.368572
66.590 26.572392
66.595 26.485607
66.600 25.929375
66.605 25.316866
66.610 25.596476
66.615 25.440126
66.620 25.569054
66.625 24.975088
66.630 24.131069
66.635 24.107555
66.640 24.783161
66.645 24.206476
66.650 23.603056
66.655 22.971169
66.660 23.587021
66.665 24.259121
66.670 24.163139
66.675 23.456282
66.680 23.742899
66.685 24.444555
66.690 25.101009
66.695 24.593849
66.700 24.094011
66.705 24.118687
66.710 24.094807
66.715 23.922419
66.720 23.880249
66.725 23.544182
66.730 23.452429
66.735 22.98481
66.740 22.585976
66.745 22.086863
66.750 21.921257
66.755 21.421377
66.760 21.339956
66.765 21.794729
66.770 21.970581
66.775 21.858589
66.780 21.775745
66.785 21.793179
66.790 21.208693
66.795 20.221571
66.800 19.416399
66.805 19.639965
66.810 20.078211
66.815 20.258451
66.820 19.520824
66.825 20.437025
66.830 20.568102
66.835 20.590723
66.840 20.131857
66.845 19.96911
66.850 19.892923
66.855 20.246788
66.860 19.835901
66.865 19.789169
66.870 20.013826
66.875 20.628052
66.880 20.542402
66.885 20.235512
66.890 19.901525
66.895 19.593538
66.900 19.556078
66.905 19.627844
66.910 19.48332
66.915 19.439072
66.920 19.340275
66.925 19.53583
66.930 19.892395
66.935 21.013269
66.940 21.103615
66.945 20.864271
66.950 21.159506
66.955 20.956356
66.960 21.219259
66.965 21.292315
66.970 20.593117
66.975 19.963926
66.980 19.936247
66.985 19.976763
66.990 20.30018
66.995 19.993475
67.000 19.595707
67.005 19.63065
67.010 19.894279
67.015 20.322178
67.020 20.291128
67.025 20.346092
67.030 20.316702
67.035 19.944435
67.040 19.626591
67.045 19.630255
67.050 19.437086
67.055 18.991428
67.060 18.817564
67.065 19.323647
67.070 19.346489
67.075 19.153732
67.080 18.929918
67.085 19.143309
67.090 19.472576
67.095 19.410282
67.100 19.708164
67.105 20.564592
67.110 21.360485
67.115 21.205379
67.120 21.238943
67.125 21.503595
67.130 21.675787
67.135 21.48657
67.140 21.39855
67.145 21.55336
67.150 21.882523
67.155 21.940557
67.160 21.767937
67.165 21.448921
67.170 21.543106
67.175 21.237362
67.180 20.982819
67.185 20.980843
67.190 20.627439
67.195 20.815649
67.200 21.181482
67.205 20.859901
67.210 20.975718
67.215 20.805796
67.220 20.835751
67.225 20.763906
67.230 20.737244
67.235 21.184481
67.240 21.45504
67.245 21.404757
67.250 21.177385
67.255 20.314566
67.260 20.009985
67.265 19.983934
67.270 19.571682
67.275 19.394537
67.280 18.993645
67.285 19.036396
67.290 19.626186
67.295 19.886784
67.300 19.164768
67.305 18.913046
67.310 18.9489
67.315 19.281521
67.320 19.16551
67.325 19.2033
67.330 19.176657
67.335 19.448067
67.340 19.54425
67.345 19.887474
67.350 20.191696
67.355 20.492689
67.360 20.254707
67.365 20.779541
67.370 21.239609
67.375 20.766125
67.380 20.360025
67.385 19.611082
67.390 19.705997
67.395 19.468594
67.400 19.172972
67.405 19.108322
67.410 19.237865
67.415 19.143559
67.420 18.878958
67.425 18.628241
67.430 19.073364
67.435 18.998442
67.440 18.83461
67.445 18.894081
67.450 19.20957
67.455 19.786758
67.460 19.809261
67.465 19.489439
67.470 18.838852
67.475 18.786942
67.480 18.830076
67.485 18.465773
67.490 17.917158
67.495 17.724556
67.500 17.919054
67.505 18.800964
67.510 18.757898
67.515 18.782812
67.520 19.184359
67.525 19.125299
67.530 19.090397
67.535 18.937685
67.540 18.6978
67.545 19.072008
67.550 18.824762
67.555 18.053438
67.560 18.47253
67.565 18.591587
67.570 18.440706
67.575 18.847364
67.580 19.301878
67.585 19.788517
67.590 20.296705
67.595 20.052128
67.600 20.144211
67.605 20.186394
67.610 19.521397
67.615 19.486317
67.620 19.667072
67.625 19.703695
67.630 20.313316
67.635 20.847582
67.640 20.927744
67.645 20.870169
67.650 20.579054
67.655 20.250715
67.660 20.640362
67.665 20.033257
67.670 19.598396
67.675 19.745903
67.680 20.26112
67.685 20.486477
67.690 21.11805
67.695 20.902729
67.700 21.277466
67.705 21.233585
67.710 20.704655
67.715 20.240393
67.720 20.062603
67.725 19.420422
67.730 19.265732
67.735 19.112982
67.740 18.960321
67.745 19.183405
67.750 19.148766
67.755 18.500458
67.760 19.372665
67.765 19.720631
67.770 19.77742
67.775 19.89546
67.780 20.02858
67.785 20.605635
67.790 21.170218
67.795 20.564714
67.800 20.179989
67.805 19.663582
67.810 19.883038
67.815 19.626192
67.820 19.486691
67.825 19.175856
67.830 18.517878
67.835 18.55291
67.840 19.200178
67.845 18.8599
67.850 18.732918
67.855 18.400761
67.860 18.592932
67.865 19.378403
67.870 19.656515
67.875 19.979916
67.880 20.308084
67.885 20.289511
67.890 20.855947
67.895 21.314198
67.900 21.374037
67.905 21.012461
67.910 20.782122
67.915 20.468271
67.920 20.3545
67.925 20.085875
67.930 19.90435
67.935 19.963837
67.940 20.539778
67.945 20.52816
67.950 20.835463
67.955 21.051477
67.960 20.865728
67.965 20.70343
67.970 20.536417
67.975 19.826693
67.980 19.663822
67.985 19.417849
67.990 19.300232
67.995 18.771135
68.000 18.278673
68.005 17.863682
68.010 17.85203
68.015 18.001539
68.020 18.92551
68.025 18.651482
68.030 19.347876
68.035 19.610977
68.040 19.888098
68.045 20.11307
68.050 19.731283
68.055 19.298323
68.060 19.401979
68.065 19.525263
68.070 19.757427
68.075 19.901484
68.080 19.712355
68.085 19.424057
68.090 19.401802
68.095 19.358776
68.100 19.331161
68.105 19.433046
68.110 19.640833
68.115 20.239201
68.120 20.477146
68.125 20.142567
68.130 20.19245
68.135 20.208939
68.140 19.586773
68.145 19.566114
68.150 19.181437
68.155 19.290089
68.160 19.76565
68.165 20.136265
68.170 20.001947
68.175 20.391462
68.180 20.366713
68.185 20.259237
68.190 20.356016
68.195 20.066431
68.200 19.925592
68.205 20.510832
68.210 20.703304
68.215 20.642267
68.220 21.091511
68.225 21.859608
68.230 21.767601
68.235 21.640711
68.240 21.142124
68.245 20.812881
68.250 20.045296
68.255 19.218151
68.260 18.883009
68.265 19.504978
68.270 19.420444
68.275 19.477552
68.280 19.779259
68.285 20.577864
68.290 20.938932
68.295 20.913376
68.300 20.470657
68.305 20.392962
68.310 20.577568
68.315 19.921576
68.320 19.773783
68.325 19.747391
68.330 18.889231
68.335 19.09671
68.340 19.288902
68.345 19.287373
68.350 19.629414
68.355 19.692444
68.360 19.676376
68.365 20.002979
68.370 19.717955
68.375 19.97328
68.380 20.319721
68.385 20.789347
68.390 20.815849
68.395 20.961411
68.400 20.759783
68.405 20.57926
68.410 20.439016
68.415 20.046219
68.420 19.881628
68.425 19.635609
68.430 19.555832
68.435 20.046589
68.440 20.095112
68.445 19.797485
68.450 19.496874
68.455 19.572374
68.460 20.037878
68.465 20.008057
68.470 19.836782
68.475 19.874146
68.480 20.079407
68.485 20.086411
68.490 20.512527
68.495 20.762278
68.500 20.922766
68.505 21.169464
68.510 20.854034
68.515 20.500374
68.520 20.714731
68.525 20.33353
68.530 20.123159
68.535 20.237568
68.540 20.090069
68.545 20.576702
68.550 21.266735
68.555 21.578632
68.560 21.652824
68.565 21.619576
68.570 21.479362
68.575 21.101982
68.580 20.780878
68.585 19.766502
68.590 19.503965
68.595 18.946486
68.600 18.638044
68.605 18.014294
68.610 18.28483
68.615 18.539408
68.620 18.066513
68.625 17.596642
68.630 18.032925
68.635 18.120216
68.640 18.551741
68.645 18.465916
68.650 18.589857
68.655 19.019915
68.660 18.660536
68.665 18.164885
68.670 18.298731
68.675 18.642792
68.680 18.941261
68.685 19.125526
68.690 19.36335
68.695 20.642117
68.700 20.807753
68.705 20.643509
68.710 20.66704
68.715 20.124868
68.720 19.849298
68.725 20.050957
68.730 19.827991
68.735 20.18187
68.740 20.489834
68.745 20.373142
68.750 20.954546
68.755 20.901276
68.760 20.597063
68.765 20.58572
68.770 20.618668
68.775 20.191113
68.780 20.311438
68.785 20.30946
68.790 20.207819
68.795 20.766216
68.800 21.174168
68.805 21.348608
68.810 21.868534
68.815 21.569746
68.820 22.070259
68.825 22.714396
68.830 22.640287
68.835 22.325338
68.840 22.084389
68.845 21.472136
68.850 21.367027
68.855 21.272432
68.860 21.357487
68.865 21.253447
68.870 21.137991
68.875 22.039557
68.880 22.708628
68.885 23.046078
68.890 22.88932
68.895 22.446318
68.900 22.924713
68.905 22.602961
68.910 21.742369
68.915 22.200884
68.920 22.284233
68.925 22.154955
68.930 22.41622
68.935 22.313547
68.940 23.017668
68.945 23.39397
68.950 23.009125
68.955 22.761612
68.960 22.995787
68.965 22.956469
68.970 23.046621
68.975 23.032715
68.980 22.641676
68.985 22.31175
68.990 22.686588
68.995 22.810179
69.000 23.065207
69.005 23.087372
69.010 22.919172
69.015 22.914782
69.020 23.406404
69.025 23.304956
69.030 23.562292
69.035 23.875547
69.040 24.127373
69.045 24.607512
69.050 25.111057
69.055 25.293232
69.060 25.192888
69.065 25.174374
69.070 24.862537
69.075 24.512499
69.080 24.170343
69.085 24.276661
69.090 24.351427
69.095 24.235186
69.100 24.697859
69.105 24.496309
69.110 24.556347
69.115 24.982847
69.120 25.606916
69.125 26.309031
69.130 26.123161
69.135 25.626112
69.140 26.046808
69.145 25.334242
69.150 25.272221
69.155 24.912113
69.160 24.635229
69.165 24.732643
69.170 25.25301
69.175 25.535938
69.180 26.75161
69.185 26.776957
69.190 26.690611
69.195 26.726431
69.200 27.501511
69.205 27.731455
69.210 27.76405
69.215 27.122883
69.220 26.985254
69.225 27.18807
69.230 26.961575
69.235 27.010756
69.240 27.51495
69.245 28.056236
69.250 27.918041
69.255 27.672472
69.260 28.145823
69.265 28.369465
69.270 27.737925
69.275 28.189629
69.280 28.098803
69.285 28.724009
69.290 29.503613
69.295 29.252789
69.300 29.408978
69.305 29.609253
69.310 28.90419
69.315 29.176584
69.320 29.010094
69.325 28.993792
69.330 28.393778
69.335 28.147017
69.340 27.430292
69.345 27.769386
69.350 28.543037
69.355 28.331736
69.360 28.67141
69.365 29.806038
69.370 30.976667
69.375 31.946089
69.380 31.994045
69.385 32.054874
69.390 32.619232
69.395 32.08942
69.400 31.900803
69.405 31.274179
69.410 30.787737
69.415 31.003645
69.420 30.911568
69.425 30.654781
69.430 30.947428
69.435 31.415806
69.440 31.983702
69.445 32.774281
69.450 33.137592
69.455 32.963165
69.460 32.74033
69.465 32.519894
69.470 31.533752
69.475 31.073296
69.480 30.779869
69.485 30.620661
69.490 30.850393
69.495 31.616619
69.500 31.945873
69.505 32.47261
69.510 32.252331
69.515 31.813736
69.520 31.696182
69.525 31.268898
69.530 30.772461
69.535 31.135801
69.540 31.657013
69.545 32.477543
69.550 33.200603
69.555 34.099194
69.560 34.83165
69.565 34.813404
69.570 35.002586
69.575 34.882114
69.580 34.529705
69.585 34.088066
69.590 32.893574
69.595 33.05806
69.600 32.536934
69.605 31.523315
69.610 31.570498
69.615 31.611258
69.620 31.555405
69.625 32.319431
69.630 32.767353
69.635 33.041317
69.640 32.9865
69.645 32.452549
69.650 32.032333
69.655 31.946011
69.660 31.434586
69.665 30.882761
69.670 30.755785
69.675 30.806374
69.680 30.48262
69.685 30.798023
69.690 30.495722
69.695 30.739073
69.700 30.916498
69.705 31.118626
69.710 31.487305
69.715 31.88093
69.720 31.953966
69.725 31.499855
69.730 30.642658
69.735 30.468327
69.740 30.391378
69.745 30.249004
69.750 29.576122
69.755 29.271664
69.760 28.413649
69.765 28.847616
69.770 28.959673
69.775 28.91572
69.780 28.066784
69.785 27.943008
69.790 27.384914
69.795 28.172789
69.800 27.505753
69.805 26.846107
69.810 26.826109
69.815 27.683092
69.820 28.192032
69.825 28.458014
69.830 27.990822
69.835 27.964516
69.840 27.831669
69.845 27.972921
69.850 27.720814
69.855 27.131634
69.860 26.891907
69.865 26.850433
69.870 27.138815
69.875 27.247118
69.880 26.877111
69.885 27.261232
69.890 27.198322
69.895 26.534523
69.900 26.565887
69.905 26.454357
69.910 26.035238
69.915 24.937389
69.920 24.125553
69.925 23.805069
69.930 23.558447
69.935 22.936956
69.940 22.291285
69.945 22.070358
69.950 21.708015
69.955 22.034601
69.960 21.888678
69.965 21.799292
69.970 21.928404
69.975 21.729349
69.980 22.178545
69.985 22.102674
69.990 21.695911
69.995 22.715206
70.000 22.952726
70.005 22.434362
70.010 22.706896
70.015 22.208115
70.020 22.129942
70.025 21.783777
70.030 20.799973
70.035 20.679169
70.040 20.757139
70.045 20.204323
70.050 20.695415
70.055 21.558533
70.060 21.460747
70.065 21.376949
70.070 20.925467
70.075 20.891495
70.080 21.179789
70.085 20.34156
70.090 19.622377
70.095 19.862095
70.100 19.411055
70.105 19.671022
70.110 20.11286
70.115 21.001629
70.120 21.510925
70.125 21.565338
70.130 22.441895
70.135 23.851225
70.140 24.148155
70.145 23.44467
70.150 22.701317
70.155 22.049301
70.160 21.457478
70.165 20.34853
70.170 19.056614
70.175 18.36064
70.180 18.747337
70.185 18.618633
70.190 18.992941
70.195 19.531174
70.200 19.765873
70.205 20.185074
70.210 20.354349
70.215 19.818754
70.220 19.749599
70.225 19.94569
70.230 19.919746
70.235 19.845251
70.240 20.194313
70.245 20.218563
70.250 20.509451
70.255 20.762152
70.260 20.407021
70.265 20.530706
70.270 20.492241
70.275 20.671673
70.280 20.569025
70.285 20.285702
70.290 20.581011
70.295 20.598511
70.300 20.392178
70.305 19.934254
70.310 19.061363
70.315 19.327667
70.320 19.370674
70.325 19.018824
70.330 19.252974
70.335 18.611412
70.340 18.484104
70.345 18.48768
70.350 18.4422
70.355 18.746288
70.360 18.775974
70.365 19.037369
70.370 19.460045
70.375 19.535366
70.380 19.771311
70.385 19.392839
70.390 19.122353
70.395 18.797743
70.400 18.738821
70.405 19.212288
70.410 19.469944
70.415 19.206518
70.420 19.233183
70.425 19.104776
70.430 19.208441
70.435 18.841019
70.440 18.943886
70.445 18.978199
70.450 19.069387
70.455 18.890596
70.460 18.169151
70.465 18.052423
70.470 18.204861
70.475 18.024988
70.480 18.553522
70.485 18.024483
70.490 18.273973
70.495 18.894602
70.500 19.086435
70.505 18.909138
70.510 18.472235
70.515 18.319563
70.520 18.950109
70.525 19.024158
70.530 19.513008
70.535 19.550699
70.540 19.563099
70.545 20.151308
70.550 20.629148
70.555 20.463863
70.560 20.386154
70.565 20.354198
70.570 20.366711
70.575 20.160641
70.580 19.726593
70.585 19.448208
70.590 19.785666
70.595 19.682058
70.600 19.10894
70.605 18.761457
70.610 19.023064
70.615 18.651588
70.620 18.786631
70.625 18.902658
70.630 18.951445
70.635 18.676962
70.640 18.623173
70.645 18.81741
70.650 19.047529
70.655 19.577015
70.660 19.592016
70.665 19.840803
70.670 20.599171
70.675 20.568846
70.680 20.57329
70.685 20.608957
70.690 20.069355
70.695 19.471542
70.700 19.476463
70.705 19.200323
70.710 19.226545
70.715 18.78783
70.720 18.19051
70.725 17.945263
70.730 18.223803
70.735 17.758717
70.740 17.859663
70.745 17.759293
70.750 17.864767
70.755 18.135729
70.760 18.716951
70.765 18.526997
70.770 18.245413
70.775 18.211914
70.780 18.320578
70.785 18.09729
70.790 18.159088
70.795 18.356907
70.800 18.306484
70.805 18.696909
70.810 18.79143
70.815 19.099525
70.820 19.553061
70.825 19.309118
70.830 18.999367
70.835 19.075308
70.840 19.321444
70.845 19.166452
70.850 19.974422
70.855 19.326254
70.860 19.039497
70.865 18.595081
70.870 18.719454
70.875 19.213528
70.880 19.09182
70.885 18.623943
70.890 18.772835
70.895 18.659931
70.900 18.605251
70.905 18.418375
70.910 18.08596
70.915 17.8468
70.920 17.536312
70.925 17.710905
70.930 18.298828
70.935 18.846886
70.940 18.649157
70.945 18.435368
70.950 18.489025
70.955 18.460264
70.960 18.583147
70.965 18.341053
70.970 18.548231
70.975 18.51878
70.980 18.2983
70.985 18.697811
70.990 18.827272
70.995 18.199099
71.000 17.918261
71.005 17.605562
71.010 17.665087
71.015 17.722651
71.020 17.870092
71.025 17.612154
71.030 17.556263
71.035 17.32354
71.040 17.581911
71.045 17.744467
71.050 17.446053
71.055 17.066849
71.060 18.225634
71.065 18.671856
71.070 18.656141
71.075 18.215384
71.080 18.524355
71.085 18.825994
71.090 18.903193
71.095 18.956331
71.100 19.031294
71.105 19.248058
71.110 19.468987
71.115 18.918545
71.120 19.179726
71.125 19.016024
71.130 19.398399
71.135 19.422613
71.140 19.587132
71.145 19.456804
71.150 19.244427
71.155 19.29915
71.160 18.729628
71.165 18.323259
71.170 18.387598
71.175 17.888567
71.180 18.193361
71.185 18.070295
71.190 17.735876
71.195 18.024033
71.200 18.366337
71.205 18.278542
71.210 18.660601
71.215 18.506933
71.220 18.276138
71.225 17.841879
71.230 17.169744
71.235 16.926374
71.240 17.001369
71.245 16.977108
71.250 17.05448
71.255 17.656067
71.260 18.20475
71.265 18.482035
71.270 18.465818
71.275 18.382208
71.280 18.2927
71.285 18.650791
71.290 18.644709
71.295 18.946344
71.300 18.32358
71.305 18.537868
71.310 18.556744
71.315 18.695314
71.320 18.389795
71.325 18.114853
71.330 18.311531
71.335 18.815275
71.340 18.509211
71.345 18.773645
71.350 18.973423
71.355 19.597881
71.360 19.337364
71.365 18.591763
71.370 18.695061
71.375 18.831732
71.380 18.807114
71.385 18.234827
71.390 17.718744
71.395 18.103109
71.400 18.160183
71.405 17.687889
71.410 17.129705
71.415 17.039186
71.420 17.130077
71.425 17.109882
71.430 16.804934
71.435 17.261122
71.440 17.473475
71.445 17.71933
71.450 17.865566
71.455 17.659233
71.460 18.063498
71.465 17.963831
71.470 17.578445
71.475 17.525576
71.480 17.371433
71.485 17.482027
71.490 17.880013
71.495 17.728783
71.500 17.600872
71.505 17.333639
71.510 17.342625
71.515 17.221506
71.520 17.013393
71.525 17.210592
71.530 16.728714
71.535 17.491251
71.540 18.018812
71.545 18.203711
71.550 18.888979
71.555 18.428471
71.560 18.628489
71.565 19.052349
71.570 18.405378
71.575 18.040092
71.580 17.519178
71.585 17.025925
71.590 17.029112
71.595 16.796423
71.600 17.048359
71.605 17.192261
71.610 17.439823
71.615 17.311989
71.620 17.532429
71.625 17.306002
71.630 17.551821
71.635 17.358355
71.640 17.436377
71.645 17.893507
71.650 18.213852
71.655 18.215763
71.660 18.238413
71.665 18.461615
71.670 18.656145
71.675 18.878662
71.680 18.705427
71.685 19.330862
71.690 19.985765
71.695 20.129501
71.700 20.232819
71.705 20.027224
71.710 19.887278
71.715 20.016676
71.720 19.754114
71.725 19.842951
71.730 19.431664
71.735 19.132067
71.740 18.935369
71.745 18.22541
71.750 18.175266
71.755 17.956371
71.760 17.887917
71.765 17.680138
71.770 17.835194
71.775 18.468655
71.780 18.447767
71.785 17.876942
71.790 17.252155
71.795 17.52981
71.800 17.716297
71.805 17.67992
71.810 17.659145
71.815 18.667852
71.820 19.041056
71.825 19.030706
71.830 19.054291
71.835 19.506147
71.840 19.518492
71.845 19.408792
71.850 18.485233
71.855 17.910074
71.860 17.974838
71.865 17.38938
71.870 16.772297
71.875 16.923033
71.880 16.722103
71.885 17.230404
71.890 17.059767
71.895 17.000454
71.900 16.607801
71.905 16.199615
71.910 15.939762
71.915 16.116253
71.920 16.33667
71.925 16.359905
71.930 15.757998
71.935 16.2159
71.940 16.559566
71.945 16.790272
71.950 16.756163
71.955 16.75367
71.960 17.18792
71.965 17.663689
71.970 18.000677
71.975 17.58774
71.980 17.664967
71.985 17.737007
71.990 17.722412
71.995 17.449072
72.000 18.0028
72.005 18.449018
72.010 18.821346
72.015 18.863661
72.020 18.690374
72.025 18.559715
72.030 18.821981
72.035 18.358109
72.040 18.087711
72.045 18.047356
72.050 17.71118
72.055 17.410139
72.060 17.656858
72.065 17.551291
72.070 17.157339
72.075 16.957542
72.080 16.569408
72.085 16.398487
72.090 16.766451
72.095 16.849831
72.100 16.613539
72.105 16.872915
72.110 16.648682
72.115 17.079084
72.120 17.674059
72.125 17.551062
72.130 17.811348
72.135 17.949188
72.140 18.16844
72.145 18.473354
72.150 18.206436
72.155 18.221577
72.160 18.359947
72.165 18.452787
72.170 18.773207
72.175 18.976448
72.180 18.914549
72.185 19.07975
72.190 18.646755
72.195 18.727053
72.200 18.755095
72.205 18.7943
72.210 18.391024
72.215 18.621479
72.220 18.294481
72.225 18.870026
72.230 18.716219
72.235 18.523525
72.240 18.590412
72.245 18.832941
72.250 18.580919
72.255 18.571833
72.260 17.527554
72.265 17.207972
72.270 17.335398
72.275 16.962812
72.280 16.658405
72.285 16.610184
72.290 17.363325
72.295 18.145119
72.300 18.400919
72.305 18.808338
72.310 19.354006
72.315 19.478947
72.320 19.695366
72.325 19.526638
72.330 18.959179
72.335 18.66057
72.340 18.736671
72.345 18.342264
72.350 18.510019
72.355 18.596544
72.360 18.086618
72.365 18.032038
72.370 18.116842
72.375 18.058878
72.380 18.698389
72.385 18.513632
72.390 18.516977
72.395 18.660965
72.400 18.37536
72.405 17.982044
72.410 17.761204
72.415 17.219355
72.420 17.2651
72.425 17.377707
72.430 17.78849
72.435 17.629728
72.440 16.953381
72.445 16.902592
72.450 17.205553
72.455 17.106468
72.460 17.217239
72.465 17.236879
72.470 17.673687
72.475 17.703846
72.480 17.555687
72.485 17.51556
72.490 17.575363
72.495 17.133051
72.500 16.909887
72.505 17.049612
72.510 16.892578
72.515 16.915722
72.520 16.921593
72.525 17.051729
72.530 17.42844
72.535 17.586559
72.540 17.580542
72.545 17.978937
72.550 17.717102
72.555 17.103935
72.560 16.594606
72.565 15.806549
72.570 15.862469
72.575 15.919564
72.580 16.002195
72.585 16.20528
72.590 16.360056
72.595 16.820955
72.600 17.944008
72.605 18.256849
72.610 18.157719
72.615 18.120304
72.620 18.233173
72.625 18.450317
72.630 17.657335
72.635 16.933918
72.640 16.42156
72.645 16.113695
72.650 15.656607
72.655 15.916595
72.660 16.255312
72.665 17.003351
72.670 17.220589
72.675 17.930687
72.680 17.97003
72.685 18.223255
72.690 17.962391
72.695 17.716423
72.700 17.680159
72.705 17.048693
72.710 16.58592
72.715 16.928461
72.720 17.133797
72.725 16.957315
72.730 16.754332
72.735 16.584864
72.740 17.004549
72.745 16.926888
72.750 16.329142
72.755 16.117668
72.760 15.733756
72.765 15.638893
72.770 15.590846
72.775 15.139653
72.780 15.343703
72.785 15.635198
72.790 16.309746
72.795 16.514475
72.800 16.23947
72.805 16.103363
72.810 16.056705
72.815 16.414686
72.820 16.13386
72.825 15.743126
72.830 16.429123
72.835 17.044182
72.840 17.887354
72.845 18.303907
72.850 18.545124
72.855 18.457567
72.860 18.956211
72.865 18.768309
72.870 18.473539
72.875 18.247372
72.880 17.899357
72.885 17.61109
72.890 17.682722
72.895 16.755732
72.900 15.652449
72.905 15.492662
72.910 15.111571
72.915 14.717635
72.920 14.566647
72.925 14.25092
72.930 14.314872
72.935 14.108018
72.940 13.75617
72.945 14.139069
72.950 14.665577
72.955 15.021587
72.960 14.847517
72.965 15.847046
72.970 16.370607
72.975 16.90044
72.980 16.702551
72.985 16.973549
72.990 17.263239
72.995 17.707024
73.000 17.831509
