!@!!GADDS PLOTSO FILE: Chi integration type
!@!!Title/SampleName: map-11a
!@!!Comment: ?
!@!!User: Bruker Instrument Administrator
!@!!Site: University of Illinois Chicago
!@!!Frame: map-11a_01_000.gfrm
!@!!Wavelengths    1.54184   1.54056   1.54439
!@!!Frame angles: 2Theta: 63.000 Omega: 50.000 Phi: 0.000 Chi: 90.000
!@!!Integration range: 2Theta: 53.000 to 73.000  Gamma: -105.000 to -75.000
!@!!Integration method: bin normalized
!@!N
!@!SS
!@!M
!@!L 0.0 0.0 0.0 0.0
!@!XDegrees
!@!YCounts
53.000 7.816605
53.005 7.57527
53.010 7.208539
53.015 6.902105
53.020 7.015191
53.025 6.806422
53.030 6.759843
53.035 6.739686
53.040 6.859146
53.045 6.801109
53.050 6.704705
53.055 6.917377
53.060 7.351008
53.065 7.790682
53.070 8.362155
53.075 8.136046
53.080 8.252443
53.085 8.734725
53.090 8.659309
53.095 8.493532
53.100 8.194447
53.105 7.626281
53.110 7.95822
53.115 8.269662
53.120 7.962895
53.125 7.974965
53.130 7.589236
53.135 7.077991
53.140 6.943614
53.145 6.617829
53.150 6.121758
53.155 6.583342
53.160 6.529881
53.165 6.952623
53.170 7.380723
53.175 7.747163
53.180 7.843668
53.185 7.716564
53.190 7.732519
53.195 7.967593
53.200 7.445867
53.205 7.182635
53.210 6.951557
53.215 6.948578
53.220 6.688002
53.225 6.367695
53.230 6.32763
53.235 6.833132
53.240 7.229548
53.245 7.325066
53.250 7.419611
53.255 7.374753
53.260 7.012351
53.265 6.829785
53.270 6.488662
53.275 6.307784
53.280 6.540333
53.285 6.722703
53.290 7.021209
53.295 7.241271
53.300 7.080092
53.305 7.344335
53.310 7.368539
53.315 6.937539
53.320 7.107591
53.325 7.042409
53.330 7.235832
53.335 7.482497
53.340 7.114126
53.345 7.233286
53.350 7.457838
53.355 7.526739
53.360 7.567923
53.365 7.494492
53.370 7.461486
53.375 7.512982
53.380 7.641519
53.385 7.751553
53.390 7.551655
53.395 7.362049
53.400 7.570467
53.405 7.507835
53.410 7.190994
53.415 6.674101
53.420 6.37518
53.425 6.654473
53.430 6.618345
53.435 6.620392
53.440 6.90439
53.445 7.417314
53.450 7.806125
53.455 7.849364
53.460 7.928914
53.465 8.045472
53.470 8.101664
53.475 7.913626
53.480 7.766819
53.485 7.525177
53.490 7.474532
53.495 7.205029
53.500 6.825988
53.505 6.729665
53.510 7.026669
53.515 7.409119
53.520 7.768382
53.525 7.719031
53.530 8.239662
53.535 8.233477
53.540 8.292444
53.545 8.006763
53.550 7.920152
53.555 7.631791
53.560 7.197204
53.565 7.237719
53.570 7.486945
53.575 7.378444
53.580 7.343185
53.585 7.375882
53.590 7.943253
53.595 8.282164
53.600 8.244689
53.605 8.092143
53.610 8.144176
53.615 8.281965
53.620 8.255206
53.625 8.070471
53.630 7.915875
53.635 7.812794
53.640 8.093344
53.645 7.559031
53.650 7.451437
53.655 7.131206
53.660 6.961169
53.665 7.449967
53.670 7.403764
53.675 7.570873
53.680 8.040761
53.685 7.947431
53.690 7.98507
53.695 8.209682
53.700 8.049231
53.705 8.001033
53.710 7.838149
53.715 7.701575
53.720 7.781546
53.725 7.81616
53.730 7.219241
53.735 6.878636
53.740 7.18688
53.745 7.217402
53.750 7.320651
53.755 7.232487
53.760 7.281412
53.765 7.814588
53.770 8.195004
53.775 8.242436
53.780 8.359788
53.785 8.025065
53.790 8.505595
53.795 8.657823
53.800 8.767627
53.805 8.715392
53.810 8.341879
53.815 8.382896
53.820 8.456783
53.825 8.168812
53.830 7.731462
53.835 7.719971
53.840 7.302362
53.845 7.279462
53.850 7.102768
53.855 7.193282
53.860 7.473626
53.865 7.907457
53.870 7.868661
53.875 8.200415
53.880 8.376824
53.885 8.085072
53.890 7.739971
53.895 7.144785
53.900 6.496086
53.905 6.448439
53.910 6.469573
53.915 6.536609
53.920 7.002584
53.925 6.847545
53.930 7.1997
53.935 8.072617
53.940 7.961541
53.945 7.955914
53.950 8.028787
53.955 8.235294
53.960 8.315792
53.965 8.036797
53.970 7.63221
53.975 7.982747
53.980 8.042205
53.985 8.051933
53.990 8.254491
53.995 8.690866
54.000 9.024037
54.005 8.692164
54.010 8.54938
54.015 8.732465
54.020 8.97081
54.025 8.798972
54.030 8.753016
54.035 9.257124
54.040 9.264869
54.045 9.056073
54.050 8.40355
54.055 7.867208
54.060 7.675545
54.065 7.346786
54.070 7.207656
54.075 7.348663
54.080 7.573349
54.085 7.834723
54.090 8.015071
54.095 7.986835
54.100 8.072479
54.105 8.200182
54.110 8.420868
54.115 8.864244
54.120 9.186772
54.125 9.503314
54.130 9.607024
54.135 9.401184
54.140 8.727411
54.145 8.726165
54.150 8.253552
54.155 7.937601
54.160 7.6708
54.165 7.865114
54.170 8.057775
54.175 8.021117
54.180 7.954738
54.185 8.318324
54.190 8.5995
54.195 8.5451
54.200 8.5144
54.205 8.651974
54.210 8.67431
54.215 8.204065
54.220 7.902408
54.225 7.746768
54.230 7.697373
54.235 7.216265
54.240 7.384723
54.245 7.512814
54.250 7.589224
54.255 7.728292
54.260 8.090702
54.265 8.270691
54.270 8.880444
54.275 8.78205
54.280 9.055842
54.285 8.959094
54.290 8.707123
54.295 8.749842
54.300 8.942361
54.305 8.857229
54.310 8.564029
54.315 8.492401
54.320 8.385461
54.325 8.167326
54.330 8.042988
54.335 7.750048
54.340 7.47312
54.345 8.026259
54.350 8.038434
54.355 8.57111
54.360 8.809372
54.365 8.921185
54.370 8.822879
54.375 8.736078
54.380 8.582593
54.385 8.648579
54.390 8.102077
54.395 7.88096
54.400 7.757571
54.405 8.104984
54.410 8.306507
54.415 8.066352
54.420 8.232754
54.425 8.412452
54.430 8.547559
54.435 8.385822
54.440 8.548165
54.445 8.632634
54.450 8.883068
54.455 8.882998
54.460 8.801341
54.465 8.99576
54.470 9.423496
54.475 9.237017
54.480 9.202088
54.485 9.064091
54.490 8.826163
54.495 8.877502
54.500 8.353498
54.505 8.048038
54.510 7.989987
54.515 7.810297
54.520 8.336429
54.525 8.896322
54.530 9.138115
54.535 9.191123
54.540 9.332465
54.545 9.570578
54.550 9.672071
54.555 9.141251
54.560 9.073374
54.565 8.944901
54.570 9.249974
54.575 9.077963
54.580 8.998308
54.585 8.753048
54.590 8.6566
54.595 8.445704
54.600 8.423243
54.605 7.720206
54.610 7.433223
54.615 7.428399
54.620 7.783168
54.625 7.743812
54.630 7.626011
54.635 7.725586
54.640 7.750318
54.645 7.789699
54.650 7.395161
54.655 7.038992
54.660 7.158904
54.665 7.146369
54.670 7.367712
54.675 7.721411
54.680 7.416391
54.685 7.938054
54.690 8.015065
54.695 7.904613
54.700 7.985024
54.705 7.810805
54.710 7.795365
54.715 7.857052
54.720 7.528366
54.725 7.601137
54.730 7.63199
54.735 7.888276
54.740 7.942979
54.745 8.359859
54.750 8.449959
54.755 8.833237
54.760 8.956042
54.765 8.938043
54.770 8.758767
54.775 8.286653
54.780 7.816823
54.785 7.563734
54.790 6.78844
54.795 6.533982
54.800 6.470596
54.805 6.840972
54.810 7.659997
54.815 8.362257
54.820 8.724404
54.825 9.183996
54.830 9.524093
54.835 9.595442
54.840 9.388463
54.845 9.402452
54.850 9.101509
54.855 9.331573
54.860 9.639829
54.865 9.510278
54.870 9.169291
54.875 8.845353
54.880 8.338934
54.885 8.50003
54.890 8.263043
54.895 8.236231
54.900 8.242867
54.905 8.668047
54.910 9.157717
54.915 9.347434
54.920 9.505952
54.925 9.565254
54.930 9.676067
54.935 9.717484
54.940 9.38519
54.945 9.510235
54.950 9.351509
54.955 9.032693
54.960 9.214376
54.965 8.796854
54.970 8.826189
54.975 8.891994
54.980 8.739914
54.985 8.840597
54.990 8.65484
54.995 8.294013
55.000 8.318485
55.005 8.283137
55.010 8.308514
55.015 8.060925
55.020 8.320897
55.025 8.452263
55.030 8.682407
55.035 8.829477
55.040 8.526515
55.045 8.404825
55.050 8.474382
55.055 8.605161
55.060 8.916132
55.065 8.369531
55.070 8.452138
55.075 8.899713
55.080 9.185509
55.085 9.265148
55.090 9.14158
55.095 9.270029
55.100 9.567102
55.105 9.359702
55.110 9.08359
55.115 8.94753
55.120 8.687465
55.125 8.159379
55.130 8.178082
55.135 8.625677
55.140 8.95914
55.145 9.435036
55.150 9.590487
55.155 9.765139
55.160 9.90916
55.165 9.459875
55.170 8.987639
55.175 8.718344
55.180 8.589081
55.185 8.309549
55.190 8.562664
55.195 8.944558
55.200 9.442342
55.205 9.704832
55.210 9.666479
55.215 9.678186
55.220 9.730998
55.225 9.518577
55.230 9.25603
55.235 8.800352
55.240 9.090882
55.245 9.251803
55.250 8.989224
55.255 8.917921
55.260 8.781304
55.265 9.043434
55.270 9.089034
55.275 8.552486
55.280 8.866369
55.285 9.012422
55.290 8.867941
55.295 9.000063
55.300 8.75767
55.305 8.649751
55.310 8.383162
55.315 8.099561
55.320 8.177503
55.325 8.406628
55.330 8.209445
55.335 8.054348
55.340 8.11024
55.345 8.417784
55.350 8.333616
55.355 8.308976
55.360 8.045208
55.365 7.838095
55.370 8.383442
55.375 8.354586
55.380 7.92451
55.385 7.872462
55.390 7.995656
55.395 8.256575
55.400 8.202071
55.405 8.103141
55.410 8.23448
55.415 8.312972
55.420 8.275982
55.425 7.931778
55.430 7.773883
55.435 7.666929
55.440 7.573496
55.445 7.861954
55.450 8.289622
55.455 8.657656
55.460 8.636784
55.465 9.045212
55.470 9.284678
55.475 8.975578
55.480 8.634244
55.485 8.254629
55.490 7.957181
55.495 7.9267
55.500 7.73522
55.505 7.829679
55.510 8.384199
55.515 8.718458
55.520 8.782111
55.525 9.032024
55.530 9.000233
55.535 8.873378
55.540 8.674324
55.545 8.262243
55.550 8.263354
55.555 8.317585
55.560 8.299241
55.565 8.492856
55.570 8.070692
55.575 7.895751
55.580 8.013319
55.585 8.046843
55.590 8.424603
55.595 8.448017
55.600 8.58509
55.605 8.90095
55.610 9.050209
55.615 8.553347
55.620 8.417933
55.625 8.684769
55.630 8.781885
55.635 8.72187
55.640 8.693353
55.645 9.06126
55.650 9.416355
55.655 9.156316
55.660 8.20118
55.665 8.137745
55.670 8.332996
55.675 8.112355
55.680 7.793926
55.685 8.014796
55.690 8.447173
55.695 8.488556
55.700 8.120635
55.705 7.99708
55.710 8.300536
55.715 8.507872
55.720 8.297607
55.725 8.129694
55.730 8.333989
55.735 8.570497
55.740 8.272937
55.745 7.94726
55.750 7.872104
55.755 8.213082
55.760 8.748098
55.765 9.194039
55.770 9.747172
55.775 10.255773
55.780 10.474347
55.785 9.963311
55.790 9.414976
55.795 8.771656
55.800 8.543119
55.805 8.214843
55.810 8.48129
55.815 8.464094
55.820 8.737253
55.825 8.9926
55.830 9.358498
55.835 9.81685
55.840 9.668848
55.845 9.391936
55.850 9.549592
55.855 9.676266
55.860 9.664345
55.865 9.537441
55.870 9.41942
55.875 9.648439
55.880 9.761848
55.885 9.657186
55.890 9.591749
55.895 9.699379
55.900 9.79924
55.905 9.385362
55.910 9.287049
55.915 9.271897
55.920 9.458538
55.925 9.501986
55.930 9.261854
55.935 9.146988
55.940 9.217446
55.945 9.182954
55.950 9.170699
55.955 8.970983
55.960 8.571607
55.965 8.456304
55.970 8.45868
55.975 7.84118
55.980 7.735712
55.985 7.632261
55.990 7.463892
55.995 7.456409
56.000 7.434428
56.005 7.81247
56.010 8.16471
56.015 7.77983
56.020 7.595812
56.025 7.828383
56.030 8.193061
56.035 7.877018
56.040 7.578503
56.045 7.949482
56.050 8.449795
56.055 8.95772
56.060 8.696613
56.065 8.692086
56.070 8.907448
56.075 9.127159
56.080 9.357012
56.085 9.255552
56.090 8.974277
56.095 9.118086
56.100 9.050273
56.105 8.961746
56.110 8.583153
56.115 8.117233
56.120 7.967198
56.125 8.268879
56.130 8.499603
56.135 8.741015
56.140 9.235391
56.145 9.607063
56.150 9.969682
56.155 10.255775
56.160 9.998352
56.165 9.88043
56.170 9.327331
56.175 8.866894
56.180 8.53273
56.185 8.155621
56.190 7.974984
56.195 7.480645
56.200 7.93311
56.205 8.567657
56.210 8.697063
56.215 9.129428
56.220 9.621121
56.225 10.067531
56.230 10.42933
56.235 9.855326
56.240 9.905872
56.245 10.05703
56.250 9.649733
56.255 9.093642
56.260 9.025726
56.265 9.481113
56.270 9.564736
56.275 9.369134
56.280 9.18748
56.285 9.077991
56.290 9.327028
56.295 9.129948
56.300 8.718525
56.305 8.90906
56.310 8.737511
56.315 8.933738
56.320 9.506586
56.325 9.351089
56.330 9.525551
56.335 10.12357
56.340 10.450979
56.345 10.922066
56.350 11.162326
56.355 11.412928
56.360 11.32398
56.365 11.526654
56.370 11.199517
56.375 10.760995
56.380 10.322058
56.385 10.019794
56.390 9.82735
56.395 10.278358
56.400 10.052602
56.405 10.397139
56.410 10.696131
56.415 10.529524
56.420 10.419532
56.425 10.501657
56.430 10.087167
56.435 9.63494
56.440 9.100677
56.445 9.002482
56.450 9.300179
56.455 9.572774
56.460 10.032927
56.465 10.641605
56.470 10.965182
56.475 11.31349
56.480 11.496315
56.485 12.063766
56.490 12.119301
56.495 11.961967
56.500 11.620858
56.505 11.618352
56.510 11.474745
56.515 11.613539
56.520 10.992633
56.525 11.195463
56.530 11.285554
56.535 11.400143
56.540 11.248263
56.545 11.002989
56.550 10.549713
56.555 10.269567
56.560 10.016566
56.565 9.616921
56.570 9.987596
56.575 10.341521
56.580 10.602229
56.585 10.810893
56.590 10.726773
56.595 10.532043
56.600 10.586601
56.605 10.366076
56.610 10.079846
56.615 9.848518
56.620 10.016884
56.625 10.241262
56.630 10.576091
56.635 10.743587
56.640 10.45472
56.645 10.202967
56.650 10.069547
56.655 9.839613
56.660 9.442464
56.665 8.90401
56.670 8.028867
56.675 8.134029
56.680 8.187524
56.685 8.44679
56.690 8.8364
56.695 9.221025
56.700 9.124804
56.705 9.905228
56.710 10.659715
56.715 11.307403
56.720 11.007919
56.725 11.017622
56.730 11.037226
56.735 11.461269
56.740 11.31731
56.745 10.796515
56.750 10.748671
56.755 10.767775
56.760 10.743676
56.765 10.914852
56.770 11.136473
56.775 11.400101
56.780 11.385922
56.785 11.409592
56.790 11.223006
56.795 11.025615
56.800 10.820403
56.805 10.363083
56.810 10.385528
56.815 10.512458
56.820 11.018481
56.825 11.098685
56.830 10.831605
56.835 11.052687
56.840 11.37374
56.845 11.381811
56.850 10.818539
56.855 10.319963
56.860 10.522024
56.865 10.964538
56.870 10.676191
56.875 9.841279
56.880 9.777853
56.885 9.975312
56.890 9.680321
56.895 9.35024
56.900 8.6519
56.905 9.128119
56.910 9.525567
56.915 9.217658
56.920 8.767909
56.925 8.644914
56.930 9.124355
56.935 9.543801
56.940 9.138086
56.945 9.101719
56.950 9.201643
56.955 9.609146
56.960 9.899734
56.965 9.887872
56.970 9.540846
56.975 9.236423
56.980 9.375011
56.985 9.700897
56.990 9.758746
56.995 9.571809
57.000 9.502921
57.005 9.792129
57.010 10.232536
57.015 10.493708
57.020 10.227794
57.025 10.078629
57.030 9.931879
57.035 9.507454
57.040 9.296353
57.045 8.950249
57.050 8.588273
57.055 8.572347
57.060 8.450612
57.065 8.751135
57.070 9.148043
57.075 9.427753
57.080 9.975152
57.085 10.250608
57.090 10.096572
57.095 10.33055
57.100 9.898449
57.105 9.749524
57.110 9.239567
57.115 8.951024
57.120 9.182927
57.125 9.371912
57.130 9.607182
57.135 9.604176
57.140 9.528291
57.145 9.778418
57.150 9.415009
57.155 8.985736
57.160 8.966537
57.165 8.925343
57.170 9.106879
57.175 9.389579
57.180 9.504949
57.185 9.965944
57.190 10.10962
57.195 10.24423
57.200 10.199377
57.205 10.288175
57.210 10.086536
57.215 10.101425
57.220 10.190154
57.225 10.201838
57.230 9.88065
57.235 9.758889
57.240 9.684727
57.245 9.320695
57.250 9.116308
57.255 8.908582
57.260 8.976221
57.265 8.974996
57.270 9.019876
57.275 9.083852
57.280 9.292003
57.285 8.814913
57.290 8.476094
57.295 8.443755
57.300 8.650983
57.305 8.778841
57.310 8.958203
57.315 9.540855
57.320 10.170378
57.325 10.054423
57.330 9.946458
57.335 10.127333
57.340 10.029923
57.345 9.932999
57.350 9.810926
57.355 9.580552
57.360 10.118721
57.365 10.290663
57.370 10.017317
57.375 9.849334
57.380 9.792746
57.385 9.833338
57.390 10.191006
57.395 10.070519
57.400 10.051306
57.405 10.17998
57.410 10.799261
57.415 10.89305
57.420 11.024376
57.425 11.016632
57.430 11.125868
57.435 11.291908
57.440 11.550777
57.445 11.147418
57.450 10.992105
57.455 10.856748
57.460 10.615973
57.465 10.877363
57.470 11.01335
57.475 10.766285
57.480 11.338201
57.485 11.416346
57.490 11.517025
57.495 11.632874
57.500 11.344699
57.505 11.143327
57.510 11.128929
57.515 10.738209
57.520 10.849179
57.525 10.774077
57.530 10.280918
57.535 10.120377
57.540 9.866347
57.545 9.235306
57.550 9.131997
57.555 8.898141
57.560 9.214792
57.565 9.441422
57.570 9.33539
57.575 9.581182
57.580 9.971915
57.585 9.864155
57.590 9.999892
57.595 9.883533
57.600 10.180822
57.605 10.800551
57.610 10.786948
57.615 10.549709
57.620 10.48676
57.625 10.695653
57.630 10.726148
57.635 10.587613
57.640 10.353055
57.645 10.205139
57.650 10.249667
57.655 10.405521
57.660 9.863967
57.665 9.76419
57.670 9.621281
57.675 9.146212
57.680 9.51715
57.685 9.746785
57.690 9.458445
57.695 9.802693
57.700 9.881323
57.705 9.898653
57.710 10.204968
57.715 10.015387
57.720 10.134047
57.725 10.272602
57.730 10.132037
57.735 10.158017
57.740 9.739106
57.745 9.860849
57.750 10.153845
57.755 10.003935
57.760 9.563185
57.765 9.910674
57.770 10.214856
57.775 11.13883
57.780 11.20229
57.785 11.162415
57.790 11.770609
57.795 12.061436
57.800 11.525826
57.805 11.288937
57.810 11.333309
57.815 11.50222
57.820 11.207403
57.825 10.693008
57.830 10.386315
57.835 10.385695
57.840 9.930673
57.845 8.882187
57.850 8.610158
57.855 8.458676
57.860 8.539389
57.865 8.900648
57.870 9.173492
57.875 9.574095
57.880 10.188394
57.885 10.507647
57.890 10.896091
57.895 10.604672
57.900 10.405402
57.905 10.406668
57.910 10.390832
57.915 10.266339
57.920 10.250036
57.925 10.449887
57.930 10.530746
57.935 10.974931
57.940 10.864216
57.945 10.681049
57.950 10.311433
57.955 10.281487
57.960 10.047121
57.965 10.027436
57.970 9.289534
57.975 9.508638
57.980 9.598441
57.985 9.484324
57.990 9.465545
57.995 9.598965
58.000 9.886004
58.005 9.717763
58.010 10.100253
58.015 10.485968
58.020 10.489848
58.025 10.203032
58.030 10.316366
58.035 10.266501
58.040 10.72723
58.045 10.84106
58.050 10.918352
58.055 11.192731
58.060 11.178232
58.065 11.028944
58.070 10.889729
58.075 11.509713
58.080 11.048192
58.085 11.216664
58.090 11.168386
58.095 11.159579
58.100 11.044496
58.105 11.225715
58.110 10.663303
58.115 11.013113
58.120 11.103752
58.125 11.477846
58.130 11.791095
58.135 12.115563
58.140 12.053499
58.145 11.794024
58.150 11.878485
58.155 11.757426
58.160 11.474689
58.165 11.376209
58.170 11.347182
58.175 11.228743
58.180 10.973363
58.185 10.373158
58.190 9.840077
58.195 9.868083
58.200 9.805317
58.205 9.772703
58.210 10.07274
58.215 10.603408
58.220 11.218987
58.225 11.807326
58.230 12.320151
58.235 12.657609
58.240 12.632414
58.245 12.256324
58.250 12.160506
58.255 12.457219
58.260 12.321512
58.265 12.03089
58.270 12.119746
58.275 12.345012
58.280 12.081596
58.285 11.635355
58.290 11.171657
58.295 11.166408
58.300 10.834764
58.305 10.663947
58.310 10.709085
58.315 11.720922
58.320 12.080745
58.325 12.25756
58.330 12.511053
58.335 13.042645
58.340 13.536817
58.345 13.836914
58.350 12.953515
58.355 12.501789
58.360 12.39087
58.365 12.191104
58.370 11.90898
58.375 12.000715
58.380 12.156185
58.385 13.189466
58.390 13.995708
58.395 14.202096
58.400 14.686337
58.405 15.036583
58.410 14.300682
58.415 14.247703
58.420 14.155956
58.425 13.647147
58.430 13.485085
58.435 13.430106
58.440 13.934848
58.445 14.270507
58.450 13.664031
58.455 13.094472
58.460 13.324698
58.465 13.102651
58.470 13.144771
58.475 12.59205
58.480 12.752337
58.485 13.120243
58.490 13.3391
58.495 13.307447
58.500 13.93932
58.505 13.869651
58.510 13.992221
58.515 13.664361
58.520 13.614242
58.525 14.390811
58.530 14.54852
58.535 14.455289
58.540 14.014322
58.545 13.84204
58.550 13.846584
58.555 13.463974
58.560 13.030842
58.565 13.438353
58.570 13.243266
58.575 13.205408
58.580 13.695905
58.585 14.07505
58.590 14.331932
58.595 14.363307
58.600 14.02085
58.605 14.303199
58.610 14.002361
58.615 14.02369
58.620 13.953325
58.625 14.429704
58.630 14.41418
58.635 14.380506
58.640 14.16701
58.645 14.488591
58.650 14.148661
58.655 13.741101
58.660 13.878714
58.665 13.99063
58.670 13.818803
58.675 13.947683
58.680 13.747487
58.685 14.413425
58.690 15.035577
58.695 14.345181
58.700 13.694363
58.705 13.690598
58.710 13.784102
58.715 13.45992
58.720 13.110303
58.725 13.155417
58.730 13.098577
58.735 13.707086
58.740 13.938528
58.745 13.648328
58.750 13.707241
58.755 13.550824
58.760 12.968446
58.765 13.045654
58.770 12.431479
58.775 11.902704
58.780 12.217328
58.785 11.809953
58.790 11.678645
58.795 11.911444
58.800 12.198155
58.805 11.910064
58.810 12.000424
58.815 12.028696
58.820 12.189048
58.825 12.114163
58.830 11.98614
58.835 10.962754
58.840 11.149255
58.845 11.181065
58.850 11.132699
58.855 11.211143
58.860 11.288209
58.865 11.797157
58.870 11.881507
58.875 11.66936
58.880 11.558553
58.885 11.332366
58.890 11.202714
58.895 10.761501
58.900 10.309679
58.905 10.190574
58.910 10.21163
58.915 9.967883
58.920 10.353744
58.925 10.175908
58.930 10.385292
58.935 10.656724
58.940 10.923436
58.945 10.974845
58.950 10.656357
58.955 10.309057
58.960 10.748709
58.965 10.948919
58.970 10.714468
58.975 10.913354
58.980 11.110291
58.985 11.440585
58.990 11.388809
58.995 11.037529
59.000 10.77321
59.005 10.901574
59.010 10.914324
59.015 11.131425
59.020 11.432009
59.025 11.200544
59.030 11.35124
59.035 11.287989
59.040 11.541947
59.045 11.763668
59.050 11.935584
59.055 12.222962
59.060 12.618794
59.065 12.688705
59.070 12.655568
59.075 12.34819
59.080 11.988505
59.085 11.681536
59.090 11.307702
59.095 11.111792
59.100 10.916678
59.105 11.269976
59.110 11.505584
59.115 11.742535
59.120 11.938295
59.125 11.779601
59.130 11.42176
59.135 11.348175
59.140 11.128096
59.145 11.015755
59.150 10.824659
59.155 10.841228
59.160 11.218984
59.165 11.311843
59.170 11.609893
59.175 11.516391
59.180 11.341717
59.185 11.615095
59.190 10.784919
59.195 10.279703
59.200 10.275498
59.205 9.982582
59.210 9.755273
59.215 8.966602
59.220 8.854314
59.225 9.466153
59.230 9.63498
59.235 10.005445
59.240 10.238688
59.245 10.853237
59.250 11.381336
59.255 11.294341
59.260 11.29333
59.265 11.357552
59.270 11.284471
59.275 11.023232
59.280 10.712471
59.285 10.873819
59.290 10.728491
59.295 10.968389
59.300 11.261391
59.305 11.554149
59.310 11.477715
59.315 11.464111
59.320 11.589161
59.325 11.655833
59.330 11.56286
59.335 11.101294
59.340 10.201405
59.345 10.331192
59.350 10.421879
59.355 10.213346
59.360 10.430718
59.365 10.395941
59.370 10.31145
59.375 10.80364
59.380 10.854841
59.385 10.706979
59.390 11.017797
59.395 10.633448
59.400 10.415678
59.405 11.016797
59.410 11.469995
59.415 11.946121
59.420 11.935107
59.425 11.401293
59.430 11.496623
59.435 11.854983
59.440 11.451453
59.445 11.155339
59.450 10.51324
59.455 10.273513
59.460 10.200549
59.465 10.223932
59.470 9.765973
59.475 9.597803
59.480 9.340491
59.485 9.724594
59.490 10.432108
59.495 11.059375
59.500 11.301126
59.505 11.68712
59.510 11.461965
59.515 11.400707
59.520 11.269711
59.525 10.66869
59.530 9.832339
59.535 9.341743
59.540 9.242724
59.545 9.346833
59.550 9.487283
59.555 9.534864
59.560 10.00717
59.565 9.853078
59.570 10.367251
59.575 10.504687
59.580 10.899502
59.585 11.107917
59.590 11.055625
59.595 11.002185
59.600 11.351549
59.605 11.482679
59.610 11.905937
59.615 12.119665
59.620 12.119452
59.625 12.783271
59.630 12.872821
59.635 12.819131
59.640 12.363845
59.645 11.992174
59.650 11.715158
59.655 11.509918
59.660 11.004721
59.665 10.576992
59.670 10.894356
59.675 11.375876
59.680 11.748944
59.685 11.650458
59.690 11.490179
59.695 11.717475
59.700 11.928212
59.705 11.363575
59.710 10.889959
59.715 10.739985
59.720 10.868874
59.725 10.765639
59.730 10.555125
59.735 10.563483
59.740 11.053999
59.745 10.96069
59.750 10.968363
59.755 10.973882
59.760 11.100546
59.765 11.393249
59.770 11.345136
59.775 11.320845
59.780 11.171476
59.785 10.997307
59.790 10.698496
59.795 10.541416
59.800 10.4104
59.805 10.369489
59.810 10.232548
59.815 10.454712
59.820 10.34608
59.825 10.417597
59.830 10.508891
59.835 10.551679
59.840 10.236457
59.845 10.326416
59.850 9.963307
59.855 10.017667
59.860 10.3911
59.865 10.517514
59.870 10.579332
59.875 10.68711
59.880 11.091312
59.885 11.321229
59.890 11.468882
59.895 10.959826
59.900 11.003456
59.905 10.922136
59.910 10.573449
59.915 10.303208
59.920 10.380335
59.925 10.557074
59.930 11.023656
59.935 10.795234
59.940 10.767645
59.945 10.782415
59.950 10.910721
59.955 10.959522
59.960 10.87089
59.965 10.805838
59.970 10.877461
59.975 11.021983
59.980 11.362071
59.985 11.570138
59.990 12.235531
59.995 12.032903
60.000 11.695753
60.005 11.799777
60.010 11.560158
60.015 11.501159
60.020 10.868077
60.025 10.200168
60.030 10.0561
60.035 9.946354
60.040 9.941321
60.045 10.336419
60.050 10.438188
60.055 10.427238
60.060 11.045335
60.065 10.971427
60.070 11.338593
60.075 11.869796
60.080 11.933924
60.085 11.891045
60.090 12.070297
60.095 11.829215
60.100 12.356688
60.105 12.246973
60.110 11.468981
60.115 11.087755
60.120 11.179614
60.125 11.332871
60.130 10.931007
60.135 11.123536
60.140 11.064353
60.145 11.500095
60.150 11.769427
60.155 11.67059
60.160 11.488182
60.165 11.765451
60.170 11.244661
60.175 10.990169
60.180 10.820493
60.185 10.881385
60.190 10.988872
60.195 11.11494
60.200 11.019739
60.205 10.941317
60.210 10.968258
60.215 10.724388
60.220 10.475772
60.225 10.514238
60.230 10.886542
60.235 11.293021
60.240 11.668798
60.245 11.911286
60.250 12.227828
60.255 12.312776
60.260 12.408868
60.265 12.117709
60.270 12.20255
60.275 11.852615
60.280 11.767684
60.285 11.747981
60.290 11.350742
60.295 11.056559
60.300 11.045014
60.305 11.075898
60.310 11.294384
60.315 11.307256
60.320 11.135112
60.325 11.812087
60.330 11.697986
60.335 11.156795
60.340 11.367514
60.345 11.725778
60.350 11.934735
60.355 12.426493
60.360 12.500543
60.365 12.752257
60.370 13.079709
60.375 12.537903
60.380 12.1862
60.385 11.625172
60.390 11.013015
60.395 10.588956
60.400 10.227773
60.405 9.584007
60.410 9.639434
60.415 9.581277
60.420 9.64912
60.425 9.669188
60.430 10.225471
60.435 10.217495
60.440 9.960519
60.445 10.087867
60.450 10.415819
60.455 10.489979
60.460 10.566954
60.465 9.812637
60.470 9.659209
60.475 10.196192
60.480 9.910255
60.485 9.748507
60.490 9.58725
60.495 9.325982
60.500 9.528999
60.505 10.243116
60.510 10.104773
60.515 10.079054
60.520 10.22217
60.525 10.594271
60.530 11.00442
60.535 11.170501
60.540 10.927567
60.545 11.207009
60.550 11.269049
60.555 11.152062
60.560 11.12541
60.565 10.889896
60.570 10.546332
60.575 10.571445
60.580 10.675882
60.585 10.949239
60.590 11.333968
60.595 11.386511
60.600 11.3081
60.605 11.527263
60.610 11.433095
60.615 11.201079
60.620 11.635406
60.625 11.462992
60.630 11.812564
60.635 11.528147
60.640 11.647494
60.645 12.040114
60.650 11.787636
60.655 10.992193
60.660 10.757058
60.665 10.417233
60.670 10.75852
60.675 10.405643
60.680 10.043869
60.685 10.270812
60.690 10.641056
60.695 11.006736
60.700 10.848004
60.705 10.957308
60.710 10.836679
60.715 10.809356
60.720 10.993176
60.725 10.52424
60.730 10.272589
60.735 10.668246
60.740 10.539561
60.745 10.590029
60.750 11.229224
60.755 11.370829
60.760 11.708858
60.765 11.854811
60.770 11.986209
60.775 12.353519
60.780 12.59199
60.785 11.753597
60.790 10.960221
60.795 10.800836
60.800 11.000432
60.805 10.779473
60.810 10.556631
60.815 10.236331
60.820 10.626956
60.825 10.978221
60.830 10.969568
60.835 10.301786
60.840 10.026859
60.845 10.205161
60.850 10.367055
60.855 10.108185
60.860 9.87836
60.865 10.008366
60.870 10.164876
60.875 10.315092
60.880 10.203828
60.885 10.354443
60.890 10.747575
60.895 11.048269
60.900 11.01002
60.905 10.774117
60.910 10.27652
60.915 9.787676
60.920 9.977272
60.925 9.946658
60.930 9.660742
60.935 9.858197
60.940 10.451172
60.945 10.815325
60.950 11.317271
60.955 11.528069
60.960 11.591695
60.965 11.901582
60.970 11.803405
60.975 11.833396
60.980 12.241272
60.985 11.904872
60.990 11.45616
60.995 11.102665
61.000 10.941875
61.005 11.009597
61.010 10.809175
61.015 11.092462
61.020 11.149335
61.025 11.470188
61.030 11.288161
61.035 11.343528
61.040 11.473355
61.045 11.504494
61.050 11.381783
61.055 11.279944
61.060 10.881817
61.065 11.406288
61.070 11.35314
61.075 11.220272
61.080 10.959309
61.085 10.869075
61.090 11.541389
61.095 11.7292
61.100 10.969124
61.105 10.990416
61.110 10.741786
61.115 10.889686
61.120 10.952316
61.125 10.475176
61.130 10.619899
61.135 11.096168
61.140 11.29189
61.145 11.479088
61.150 11.159724
61.155 10.570266
61.160 10.638227
61.165 10.154272
61.170 9.932066
61.175 9.984358
61.180 10.273085
61.185 10.596635
61.190 10.628722
61.195 10.593229
61.200 10.99705
61.205 10.880319
61.210 10.831228
61.215 10.657876
61.220 11.109916
61.225 11.403591
61.230 11.381018
61.235 11.150592
61.240 11.249562
61.245 10.968807
61.250 10.853421
61.255 10.348078
61.260 10.661154
61.265 11.03529
61.270 11.165411
61.275 11.063228
61.280 11.132672
61.285 11.048326
61.290 10.986638
61.295 10.465542
61.300 9.890294
61.305 9.781812
61.310 9.938111
61.315 10.094271
61.320 10.321043
61.325 10.407702
61.330 10.586248
61.335 10.571909
61.340 10.952348
61.345 11.000365
61.350 10.50016
61.355 10.226893
61.360 10.313703
61.365 10.227097
61.370 10.303696
61.375 10.351204
61.380 10.622838
61.385 11.296557
61.390 11.216916
61.395 11.012527
61.400 11.33001
61.405 11.385988
61.410 10.942503
61.415 10.30883
61.420 10.029845
61.425 10.423065
61.430 10.852135
61.435 10.785477
61.440 10.576765
61.445 10.722337
61.450 11.055117
61.455 10.695896
61.460 10.530818
61.465 10.515188
61.470 10.767143
61.475 10.819252
61.480 10.903032
61.485 10.856771
61.490 11.372121
61.495 11.278337
61.500 10.807386
61.505 10.605306
61.510 10.583461
61.515 10.191996
61.520 10.00194
61.525 9.656612
61.530 9.631621
61.535 9.846797
61.540 9.908744
61.545 10.800791
61.550 11.247503
61.555 11.834986
61.560 12.20248
61.565 12.203095
61.570 12.220768
61.575 12.087348
61.580 11.697629
61.585 11.535783
61.590 10.975936
61.595 10.466679
61.600 10.199442
61.605 9.874789
61.610 9.875163
61.615 9.931122
61.620 10.086953
61.625 10.119947
61.630 10.558857
61.635 10.618832
61.640 10.679272
61.645 10.472479
61.650 10.085285
61.655 9.733862
61.660 10.058472
61.665 9.998746
61.670 9.938211
61.675 10.418698
61.680 10.895292
61.685 10.617741
61.690 10.851315
61.695 10.808477
61.700 10.927757
61.705 11.203042
61.710 10.993472
61.715 10.891472
61.720 11.411008
61.725 11.541191
61.730 10.977421
61.735 10.911832
61.740 11.200373
61.745 11.235426
61.750 11.034334
61.755 11.003222
61.760 11.092594
61.765 11.344183
61.770 11.298639
61.775 10.996037
61.780 11.032318
61.785 11.087623
61.790 11.120629
61.795 11.175867
61.800 10.996926
61.805 11.048662
61.810 11.123096
61.815 11.282311
61.820 11.260605
61.825 11.221533
61.830 11.131641
61.835 11.536282
61.840 11.436194
61.845 11.105911
61.850 11.148633
61.855 11.166193
61.860 11.193267
61.865 11.653945
61.870 11.801444
61.875 12.085519
61.880 12.593125
61.885 12.518569
61.890 12.56308
61.895 12.179498
61.900 12.102701
61.905 12.376238
61.910 12.597382
61.915 12.067266
61.920 12.038505
61.925 11.979574
61.930 12.319869
61.935 12.186315
61.940 11.943676
61.945 11.813278
61.950 11.751111
61.955 11.992613
61.960 12.331769
61.965 11.824892
61.970 11.464849
61.975 11.44975
61.980 10.978394
61.985 11.181126
61.990 10.846973
61.995 10.151069
62.000 10.061316
62.005 10.322845
62.010 10.218365
62.015 10.499434
62.020 10.286132
62.025 10.650887
62.030 11.553782
62.035 11.655553
62.040 11.458414
62.045 11.465472
62.050 11.98519
62.055 12.013768
62.060 11.454905
62.065 11.09705
62.070 11.024327
62.075 11.064439
62.080 11.494301
62.085 11.38316
62.090 11.765272
62.095 12.241975
62.100 12.731142
62.105 13.041842
62.110 13.169843
62.115 12.736232
62.120 12.067512
62.125 12.235809
62.130 12.204045
62.135 11.954398
62.140 11.828642
62.145 11.516577
62.150 11.95408
62.155 12.028534
62.160 12.115344
62.165 12.62801
62.170 12.975052
62.175 12.907338
62.180 13.276245
62.185 13.141403
62.190 13.20924
62.195 13.014729
62.200 12.556696
62.205 11.726644
62.210 11.734262
62.215 11.34332
62.220 11.588947
62.225 11.463779
62.230 11.055075
62.235 11.009853
62.240 11.887179
62.245 11.677431
62.250 11.568914
62.255 11.159617
62.260 11.262218
62.265 11.585727
62.270 11.560908
62.275 11.2587
62.280 11.651168
62.285 11.821897
62.290 11.838738
62.295 12.020031
62.300 11.655357
62.305 11.132088
62.310 11.004154
62.315 11.308212
62.320 11.513824
62.325 11.905515
62.330 11.697021
62.335 11.868503
62.340 12.394323
62.345 11.980697
62.350 11.797119
62.355 11.811638
62.360 11.848761
62.365 12.253983
62.370 12.307877
62.375 12.574818
62.380 13.021856
62.385 12.59397
62.390 12.132814
62.395 11.808853
62.400 12.01188
62.405 11.865202
62.410 11.871175
62.415 11.969241
62.420 12.176603
62.425 11.953848
62.430 11.641883
62.435 11.215225
62.440 11.158934
62.445 10.981186
62.450 11.252813
62.455 11.389342
62.460 11.774879
62.465 12.103797
62.470 12.075181
62.475 12.434245
62.480 12.613595
62.485 12.40554
62.490 12.399989
62.495 12.550282
62.500 12.52812
62.505 12.827616
62.510 12.712252
62.515 11.889585
62.520 11.655044
62.525 11.510482
62.530 11.135795
62.535 10.956427
62.540 10.99788
62.545 11.343564
62.550 11.728678
62.555 11.571823
62.560 11.349552
62.565 11.031216
62.570 11.388542
62.575 11.367455
62.580 11.292346
62.585 11.587728
62.590 11.77344
62.595 12.479313
62.600 13.20828
62.605 13.040527
62.610 12.585126
62.615 12.365985
62.620 12.333941
62.625 12.789482
62.630 12.504812
62.635 12.181254
62.640 11.977359
62.645 11.989006
62.650 12.341009
62.655 12.827741
62.660 12.830706
62.665 12.564721
62.670 12.503877
62.675 12.759341
62.680 12.809982
62.685 12.491752
62.690 12.381822
62.695 12.245854
62.700 12.20593
62.705 12.551099
62.710 12.698399
62.715 12.939649
62.720 13.084642
62.725 13.123158
62.730 13.655745
62.735 14.248118
62.740 13.796837
62.745 13.419563
62.750 13.060724
62.755 13.014097
62.760 13.234564
62.765 13.512644
62.770 12.890294
62.775 12.97486
62.780 13.293149
62.785 13.54745
62.790 13.538568
62.795 12.662978
62.800 12.097687
62.805 13.145447
62.810 13.799294
62.815 13.754245
62.820 13.906608
62.825 13.772437
62.830 14.136798
62.835 13.948143
62.840 13.02545
62.845 12.375838
62.850 12.282117
62.855 12.165529
62.860 12.376235
62.865 11.946568
62.870 11.502489
62.875 11.479039
62.880 11.635844
62.885 11.558038
62.890 11.848041
62.895 11.5629
62.900 11.269835
62.905 11.581924
62.910 11.629354
62.915 11.491493
62.920 11.431342
62.925 11.154344
62.930 11.325265
62.935 11.802868
62.940 12.15587
62.945 12.665594
62.950 12.830399
62.955 13.06591
62.960 13.004891
62.965 12.99894
62.970 12.828256
62.975 12.496899
62.980 12.15197
62.985 11.901146
62.990 11.934525
62.995 11.741956
63.000 11.820066
63.005 11.634242
63.010 11.61896
63.015 11.716799
63.020 11.889825
63.025 11.665616
63.030 11.966143
63.035 12.020989
63.040 12.640063
63.045 12.850194
63.050 12.53287
63.055 12.30149
63.060 12.401715
63.065 12.42468
63.070 12.040051
63.075 11.782339
63.080 11.716008
63.085 11.772752
63.090 11.679663
63.095 11.752248
63.100 11.617396
63.105 11.953934
63.110 12.062943
63.115 12.015976
63.120 12.01545
63.125 12.314268
63.130 11.906863
63.135 11.887105
63.140 11.595338
63.145 11.459469
63.150 11.530552
63.155 11.735399
63.160 11.745234
63.165 11.499732
63.170 11.385466
63.175 11.719465
63.180 12.120474
63.185 12.220561
63.190 12.117356
63.195 12.045978
63.200 12.706579
63.205 12.98709
63.210 12.838998
63.215 12.779921
63.220 12.719119
63.225 12.740994
63.230 12.668222
63.235 12.358861
63.240 12.142798
63.245 12.14694
63.250 11.915923
63.255 12.017807
63.260 12.505721
63.265 12.878634
63.270 13.104957
63.275 13.179381
63.280 13.36063
63.285 13.950061
63.290 13.88479
63.295 13.292433
63.300 13.10212
63.305 12.841751
63.310 12.972871
63.315 12.980158
63.320 12.451303
63.325 12.342133
63.330 12.523738
63.335 12.51372
63.340 12.786803
63.345 12.85652
63.350 12.971353
63.355 13.06157
63.360 12.937583
63.365 12.861641
63.370 13.027659
63.375 13.182013
63.380 13.433679
63.385 13.662026
63.390 13.858476
63.395 13.947761
63.400 14.238306
63.405 14.104735
63.410 13.798849
63.415 13.273542
63.420 12.557229
63.425 12.578207
63.430 12.855969
63.435 12.756572
63.440 12.983944
63.445 13.126563
63.450 13.385538
63.455 13.311292
63.460 12.797273
63.465 12.334973
63.470 12.286584
63.475 12.294366
63.480 12.420053
63.485 12.747373
63.490 12.783961
63.495 12.621973
63.500 12.645174
63.505 12.689906
63.510 12.982238
63.515 12.9755
63.520 13.05385
63.525 12.736608
63.530 12.8431
63.535 12.800958
63.540 12.6171
63.545 12.05092
63.550 11.88149
63.555 11.760975
63.560 11.566904
63.565 11.57878
63.570 11.824495
63.575 11.761948
63.580 11.58189
63.585 11.242241
63.590 10.931412
63.595 11.027609
63.600 11.245254
63.605 11.249288
63.610 11.168804
63.615 11.09836
63.620 11.376557
63.625 12.050631
63.630 12.805917
63.635 12.620436
63.640 12.176719
63.645 12.155585
63.650 12.45526
63.655 12.324137
63.660 12.25871
63.665 12.344449
63.670 13.21949
63.675 14.011299
63.680 14.177124
63.685 14.11509
63.690 14.179791
63.695 13.689318
63.700 13.324669
63.705 12.757655
63.710 12.040071
63.715 12.202726
63.720 12.599018
63.725 12.889845
63.730 13.122008
63.735 13.688951
63.740 13.750025
63.745 14.107398
63.750 14.059545
63.755 13.503694
63.760 12.826395
63.765 12.091086
63.770 11.409645
63.775 11.665956
63.780 11.724333
63.785 11.747954
63.790 12.155169
63.795 12.752461
63.800 13.83084
63.805 14.387606
63.810 14.157013
63.815 14.01878
63.820 13.839796
63.825 13.633252
63.830 13.607105
63.835 13.293126
63.840 13.235154
63.845 13.138541
63.850 13.635678
63.855 14.138977
63.860 14.134247
63.865 13.810948
63.870 13.06543
63.875 13.311317
63.880 13.891102
63.885 14.046117
63.890 13.839493
63.895 13.567479
63.900 13.887936
63.905 14.704041
63.910 14.40795
63.915 13.653856
63.920 13.727833
63.925 14.275319
63.930 14.98256
63.935 15.415776
63.940 15.071993
63.945 15.207225
63.950 15.903078
63.955 15.913165
63.960 15.70448
63.965 15.643664
63.970 15.314365
63.975 15.989121
63.980 16.75906
63.985 16.75305
63.990 16.530539
63.995 16.875885
64.000 17.28433
64.005 17.618935
64.010 17.781004
64.015 17.964499
64.020 18.332844
64.025 18.366951
64.030 18.131845
64.035 17.837421
64.040 17.738659
64.045 17.528658
64.050 17.334759
64.055 17.229521
64.060 17.711353
64.065 17.893824
64.070 18.434801
64.075 19.009985
64.080 19.162476
64.085 19.630129
64.090 19.883299
64.095 20.133358
64.100 20.137386
64.105 19.494793
64.110 18.843508
64.115 18.775984
64.120 18.561913
64.125 18.154305
64.130 17.662184
64.135 18.206793
64.140 18.383404
64.145 18.532719
64.150 18.312761
64.155 18.066692
64.160 18.348427
64.165 18.484121
64.170 18.254183
64.175 18.113867
64.180 18.133377
64.185 18.39238
64.190 18.816439
64.195 19.15048
64.200 18.868931
64.205 18.538399
64.210 18.802458
64.215 18.816017
64.220 18.709814
64.225 18.221443
64.230 17.263611
64.235 17.409374
64.240 18.080877
64.245 18.443775
64.250 18.696701
64.255 18.339743
64.260 18.396708
64.265 18.903124
64.270 19.070677
64.275 18.857603
64.280 18.896931
64.285 18.845795
64.290 19.020004
64.295 19.415581
64.300 19.654161
64.305 19.036722
64.310 18.440685
64.315 18.140593
64.320 17.901838
64.325 17.087843
64.330 16.619532
64.335 16.00564
64.340 16.142277
64.345 16.2997
64.350 16.052525
64.355 15.947262
64.360 16.308733
64.365 16.132345
64.370 16.265945
64.375 16.721027
64.380 16.811348
64.385 16.766838
64.390 16.933205
64.395 16.972914
64.400 16.996328
64.405 16.850739
64.410 16.869339
64.415 16.451454
64.420 16.294678
64.425 16.297009
64.430 16.110147
64.435 16.389017
64.440 16.521719
64.445 16.459942
64.450 17.108175
64.455 17.144524
64.460 17.0173
64.465 16.636707
64.470 16.418816
64.475 16.238256
64.480 15.790298
64.485 15.464233
64.490 15.859627
64.495 16.34934
64.500 16.959408
64.505 16.868038
64.510 16.582039
64.515 16.39962
64.520 16.358227
64.525 16.27367
64.530 15.737804
64.535 14.967999
64.540 14.528288
64.545 14.560276
64.550 14.495535
64.555 13.981954
64.560 13.720658
64.565 13.811647
64.570 13.968258
64.575 13.87121
64.580 13.369731
64.585 13.229579
64.590 13.255181
64.595 13.272227
64.600 13.276035
64.605 13.234196
64.610 13.562839
64.615 14.142073
64.620 14.320258
64.625 14.762966
64.630 14.508925
64.635 14.449883
64.640 14.158612
64.645 13.796042
64.650 13.465361
64.655 13.233222
64.660 13.118742
64.665 13.250715
64.670 13.495745
64.675 13.950891
64.680 14.28171
64.685 14.310454
64.690 14.498945
64.695 14.504344
64.700 14.310614
64.705 14.151885
64.710 13.826372
64.715 13.956958
64.720 14.31795
64.725 13.722082
64.730 13.578402
64.735 13.600366
64.740 13.226932
64.745 13.123181
64.750 12.713327
64.755 12.366517
64.760 13.087589
64.765 13.434619
64.770 13.829502
64.775 14.901007
64.780 15.464876
64.785 15.741171
64.790 16.34124
64.795 16.227074
64.800 15.920785
64.805 15.89857
64.810 15.932974
64.815 16.684736
64.820 16.922384
64.825 17.109997
64.830 17.208935
64.835 17.31325
64.840 17.386061
64.845 16.537703
64.850 16.297827
64.855 16.173136
64.860 15.834
64.865 15.619316
64.870 15.471203
64.875 15.569791
64.880 15.912111
64.885 16.046263
64.890 16.585682
64.895 17.028183
64.900 17.020834
64.905 17.169329
64.910 16.855196
64.915 16.998409
64.920 16.899458
64.925 16.195915
64.930 16.25732
64.935 16.205336
64.940 16.458687
64.945 16.667929
64.950 16.855814
64.955 17.200701
64.960 17.700974
64.965 18.192968
64.970 18.63541
64.975 18.814453
64.980 18.73559
64.985 18.240059
64.990 18.501181
64.995 18.633453
65.000 18.384272
65.005 17.94088
65.010 17.653086
65.015 17.362514
65.020 17.326921
65.025 17.227945
65.030 17.40291
65.035 17.050215
65.040 17.270832
65.045 17.381821
65.050 17.48875
65.055 17.207006
65.060 16.700241
65.065 16.517408
65.070 16.244209
65.075 16.245304
65.080 16.679815
65.085 16.843666
65.090 16.794838
65.095 16.472036
65.100 16.077551
65.105 16.307074
65.110 16.130413
65.115 15.279082
65.120 15.404504
65.125 15.992126
65.130 16.580961
65.135 17.264336
65.140 17.594437
65.145 18.000183
65.150 18.163509
65.155 18.089783
65.160 17.945345
65.165 17.418879
65.170 17.309521
65.175 17.037159
65.180 17.330244
65.185 17.89855
65.190 17.963249
65.195 17.807501
65.200 17.53577
65.205 16.912619
65.210 16.921022
65.215 16.2658
65.220 15.954902
65.225 15.811412
65.230 15.573931
65.235 16.040255
65.240 16.613686
65.245 17.067465
65.250 17.549555
65.255 17.708
65.260 17.345715
65.265 17.324223
65.270 16.822941
65.275 16.481754
65.280 15.705351
65.285 14.806356
65.290 14.529918
65.295 15.215515
65.300 15.476203
65.305 15.43167
65.310 15.105048
65.315 15.220104
65.320 15.904554
65.325 15.732839
65.330 15.201142
65.335 14.889952
65.340 14.918123
65.345 15.051121
65.350 14.686762
65.355 14.463954
65.360 14.807701
65.365 14.545771
65.370 14.806279
65.375 14.628069
65.380 14.667356
65.385 14.280462
65.390 13.923086
65.395 13.943863
65.400 13.986138
65.405 13.830991
65.410 14.220436
65.415 14.339397
65.420 14.671244
65.425 14.642108
65.430 14.314666
65.435 14.277452
65.440 14.269601
65.445 13.650928
65.450 13.193738
65.455 13.380181
65.460 12.741507
65.465 12.577703
65.470 12.652013
65.475 12.493637
65.480 13.001949
65.485 13.139578
65.490 13.430908
65.495 14.209626
65.500 14.510827
65.505 14.162072
65.510 14.290994
65.515 14.379142
65.520 14.633355
65.525 14.687643
65.530 15.28412
65.535 15.74193
65.540 16.365051
65.545 16.62603
65.550 16.455704
65.555 16.561363
65.560 16.263508
65.565 15.229458
65.570 14.818634
65.575 14.343398
65.580 14.23538
65.585 14.388895
65.590 14.144396
65.595 13.935369
65.600 13.938424
65.605 13.790827
65.610 13.751507
65.615 13.446212
65.620 13.462165
65.625 13.365359
65.630 13.610282
65.635 13.979803
65.640 14.536258
65.645 14.702894
65.650 14.963868
65.655 15.074997
65.660 15.59894
65.665 15.951174
65.670 16.092503
65.675 16.221724
65.680 16.657644
65.685 17.300743
65.690 17.122892
65.695 16.937305
65.700 16.941765
65.705 16.810003
65.710 16.72924
65.715 16.73465
65.720 16.382694
65.725 16.825558
65.730 17.347349
65.735 17.170355
65.740 17.352081
65.745 17.340988
65.750 17.313324
65.755 17.718945
65.760 17.540668
65.765 17.582703
65.770 18.068186
65.775 18.014301
65.780 18.335642
65.785 18.343691
65.790 17.955791
65.795 18.120157
65.800 18.113613
65.805 18.01343
65.810 18.101768
65.815 17.726391
65.820 17.753307
65.825 18.209902
65.830 18.68368
65.835 18.676485
65.840 19.085272
65.845 19.596256
65.850 20.420963
65.855 20.673716
65.860 20.841362
65.865 20.591839
65.870 20.755033
65.875 20.500452
65.880 20.417978
65.885 20.106188
65.890 20.527931
65.895 20.885386
65.900 20.987719
65.905 21.507807
65.910 22.12801
65.915 22.220655
65.920 22.447144
65.925 22.160158
65.930 21.658007
65.935 21.885777
65.940 21.562231
65.945 21.362408
65.950 21.301441
65.955 21.546669
65.960 22.319649
65.965 22.905508
65.970 22.309731
65.975 22.256424
65.980 21.996193
65.985 22.208025
65.990 21.57115
65.995 21.573402
66.000 22.483377
66.005 23.100145
66.010 23.105844
66.015 22.856472
66.020 22.67646
66.025 22.521471
66.030 21.810795
66.035 21.378519
66.040 21.424156
66.045 21.165426
66.050 21.281393
66.055 21.146559
66.060 21.598642
66.065 21.555561
66.070 20.98912
66.075 20.282867
66.080 20.44392
66.085 20.487375
66.090 20.261
66.095 19.874306
66.100 19.691553
66.105 19.599226
66.110 19.903461
66.115 19.737474
66.120 19.639624
66.125 19.979523
66.130 19.890839
66.135 19.504684
66.140 19.964386
66.145 20.076981
66.150 20.411125
66.155 20.295893
66.160 19.785709
66.165 19.731447
66.170 20.323174
66.175 19.75606
66.180 18.892021
66.185 17.96172
66.190 17.717854
66.195 17.779499
66.200 17.618492
66.205 16.581511
66.210 16.767389
66.215 17.065716
66.220 17.344849
66.225 17.50774
66.230 17.158001
66.235 17.007826
66.240 16.920156
66.245 16.986809
66.250 17.094133
66.255 16.781544
66.260 16.414783
66.265 16.304998
66.270 16.18265
66.275 15.956378
66.280 14.94122
66.285 15.015397
66.290 15.300287
66.295 15.048364
66.300 15.051723
66.305 15.468447
66.310 15.145852
66.315 15.149845
66.320 14.849922
66.325 14.847094
66.330 15.24234
66.335 15.165936
66.340 14.50861
66.345 14.833622
66.350 14.850721
66.355 14.559528
66.360 14.606686
66.365 14.761543
66.370 14.706218
66.375 15.002126
66.380 14.957079
66.385 15.153879
66.390 15.257391
66.395 14.794936
66.400 14.537222
66.405 14.078741
66.410 13.409741
66.415 13.282784
66.420 13.407063
66.425 13.888843
66.430 13.770086
66.435 13.111174
66.440 13.330461
66.445 14.001991
66.450 13.557933
66.455 12.39367
66.460 11.546763
66.465 11.681682
66.470 12.245163
66.475 11.671124
66.480 11.230909
66.485 11.371775
66.490 12.229462
66.495 12.542255
66.500 12.643077
66.505 12.787074
66.510 13.768536
66.515 13.840896
66.520 13.85331
66.525 13.209664
66.530 13.007441
66.535 12.698328
66.540 12.506389
66.545 11.872723
66.550 12.199282
66.555 12.335102
66.560 12.171561
66.565 12.180006
66.570 12.710238
66.575 12.710702
66.580 12.474991
66.585 11.953392
66.590 11.852387
66.595 12.049678
66.600 12.105913
66.605 11.775896
66.610 11.658684
66.615 11.75866
66.620 11.873174
66.625 11.782829
66.630 12.267121
66.635 12.502714
66.640 12.777436
66.645 13.229374
66.650 13.34957
66.655 13.570152
66.660 13.402117
66.665 13.121439
66.670 12.744193
66.675 12.682333
66.680 12.25639
66.685 12.045092
66.690 11.83261
66.695 11.436509
66.700 11.257554
66.705 11.190728
66.710 10.791835
66.715 11.017583
66.720 11.403135
66.725 12.158018
66.730 12.613876
66.735 12.929969
66.740 13.232035
66.745 13.249366
66.750 13.053836
66.755 12.422775
66.760 11.910009
66.765 11.752601
66.770 11.423038
66.775 11.373006
66.780 11.745746
66.785 11.574879
66.790 11.574391
66.795 11.764885
66.800 12.139943
66.805 12.255514
66.810 12.204419
66.815 12.303109
66.820 12.356828
66.825 13.016682
66.830 13.286925
66.835 12.977959
66.840 12.896756
66.845 12.478099
66.850 12.467341
66.855 12.730048
66.860 12.389603
66.865 12.203427
66.870 12.455085
66.875 12.542075
66.880 12.651751
66.885 12.322357
66.890 12.724051
66.895 12.524399
66.900 12.433214
66.905 12.15583
66.910 12.441854
66.915 12.630245
66.920 12.884862
66.925 12.580688
66.930 12.696586
66.935 12.432403
66.940 12.399768
66.945 12.221482
66.950 11.96545
66.955 12.058897
66.960 12.662108
66.965 13.192352
66.970 13.22279
66.975 13.304969
66.980 13.473784
66.985 13.452702
66.990 13.180701
66.995 12.859711
67.000 12.834742
67.005 12.621811
67.010 12.169009
67.015 12.245165
67.020 12.635179
67.025 12.464483
67.030 12.268319
67.035 12.240133
67.040 12.611332
67.045 13.134873
67.050 13.19519
67.055 12.67249
67.060 12.470057
67.065 12.409035
67.070 12.46356
67.075 12.836599
67.080 12.495339
67.085 12.146513
67.090 12.372847
67.095 12.289797
67.100 12.681005
67.105 12.033514
67.110 11.88374
67.115 12.10042
67.120 12.465215
67.125 12.541889
67.130 12.549932
67.135 12.004717
67.140 12.259115
67.145 12.162472
67.150 12.066381
67.155 11.967647
67.160 11.739647
67.165 12.288878
67.170 12.171842
67.175 11.949694
67.180 11.955647
67.185 12.258151
67.190 12.708638
67.195 13.087746
67.200 12.843412
67.205 13.203334
67.210 13.531258
67.215 13.885069
67.220 13.617815
67.225 13.269202
67.230 13.127275
67.235 12.998819
67.240 12.749124
67.245 12.680726
67.250 12.650448
67.255 12.971312
67.260 12.79149
67.265 12.825362
67.270 13.08163
67.275 13.204017
67.280 13.206722
67.285 13.403768
67.290 13.127875
67.295 12.956177
67.300 12.872862
67.305 12.466021
67.310 12.490538
67.315 12.548517
67.320 11.984912
67.325 12.105006
67.330 12.267959
67.335 12.325846
67.340 12.564446
67.345 12.766159
67.350 13.022576
67.355 13.284452
67.360 13.234229
67.365 13.503611
67.370 13.89952
67.375 13.736648
67.380 13.006409
67.385 12.605874
67.390 12.329244
67.395 12.186601
67.400 11.970026
67.405 11.629285
67.410 11.996712
67.415 12.420014
67.420 12.391758
67.425 12.50294
67.430 12.529941
67.435 12.507936
67.440 12.445156
67.445 12.311044
67.450 12.298438
67.455 12.205597
67.460 11.89897
67.465 11.676822
67.470 11.805484
67.475 11.710224
67.480 12.015102
67.485 12.400834
67.490 12.594271
67.495 12.939885
67.500 13.326119
67.505 13.189719
67.510 13.823723
67.515 13.561073
67.520 13.471433
67.525 13.860991
67.530 13.369394
67.535 13.499025
67.540 13.660653
67.545 13.483735
67.550 13.06378
67.555 12.673865
67.560 12.188789
67.565 12.571896
67.570 12.277136
67.575 11.991608
67.580 12.001547
67.585 12.250544
67.590 12.908807
67.595 13.490005
67.600 13.704088
67.605 13.591866
67.610 13.711459
67.615 13.21945
67.620 13.397385
67.625 13.293979
67.630 13.019523
67.635 12.911544
67.640 12.710726
67.645 12.896304
67.650 13.353019
67.655 13.441343
67.660 13.656729
67.665 13.737853
67.670 13.449862
67.675 13.508717
67.680 13.351232
67.685 13.336247
67.690 12.832099
67.695 12.16186
67.700 11.878535
67.705 12.264306
67.710 12.308456
67.715 12.27773
67.720 11.851059
67.725 11.845062
67.730 12.335477
67.735 12.504955
67.740 12.163918
67.745 11.950145
67.750 11.948418
67.755 11.737741
67.760 11.396276
67.765 10.953743
67.770 11.043514
67.775 11.381007
67.780 11.655138
67.785 11.707657
67.790 12.22464
67.795 12.627298
67.800 12.89837
67.805 12.662704
67.810 12.633566
67.815 12.378874
67.820 12.373267
67.825 12.329248
67.830 12.214109
67.835 11.938032
67.840 11.824723
67.845 11.595785
67.850 12.251555
67.855 11.870453
67.860 11.870224
67.865 12.172359
67.870 12.815053
67.875 13.343747
67.880 13.399609
67.885 13.341829
67.890 14.369609
67.895 14.347497
67.900 14.45692
67.905 14.271481
67.910 14.303999
67.915 14.155291
67.920 13.718604
67.925 13.402106
67.930 13.787419
67.935 13.218735
67.940 13.486652
67.945 13.641759
67.950 13.696202
67.955 13.817009
67.960 13.335462
67.965 12.941929
67.970 13.300316
67.975 13.060857
67.980 12.850513
67.985 12.698506
67.990 12.753757
67.995 12.951266
68.000 12.894546
68.005 12.339743
68.010 11.909246
68.015 11.783156
68.020 11.893612
68.025 11.985106
68.030 12.563177
68.035 13.34922
68.040 14.124415
68.045 14.000556
68.050 14.0158
68.055 14.315192
68.060 14.226072
68.065 14.063641
68.070 13.411738
68.075 13.586929
68.080 14.527008
68.085 14.482705
68.090 13.849265
68.095 13.809559
68.100 13.629028
68.105 13.632785
68.110 13.138524
68.115 12.765389
68.120 12.919714
68.125 13.316865
68.130 13.058879
68.135 13.166302
68.140 13.197755
68.145 13.260118
68.150 13.510074
68.155 13.687458
68.160 13.569774
68.165 13.538256
68.170 13.38463
68.175 13.026602
68.180 12.950452
68.185 13.056938
68.190 12.886244
68.195 13.214015
68.200 13.376919
68.205 13.776543
68.210 14.507844
68.215 13.884821
68.220 13.537454
68.225 13.69793
68.230 13.580503
68.235 13.348624
68.240 12.539578
68.245 12.396613
68.250 12.637312
68.255 12.409248
68.260 12.282022
68.265 12.278728
68.270 12.533665
68.275 12.420473
68.280 11.956214
68.285 12.341882
68.290 12.80195
68.295 12.842337
68.300 12.639396
68.305 12.842943
68.310 13.308714
68.315 13.985269
68.320 14.087572
68.325 13.769966
68.330 13.493438
68.335 13.332296
68.340 13.274385
68.345 13.227793
68.350 13.445411
68.355 13.25665
68.360 13.462861
68.365 14.034018
68.370 14.086563
68.375 13.668907
68.380 13.203859
68.385 12.496004
68.390 12.394228
68.395 12.004562
68.400 11.696218
68.405 11.746673
68.410 12.074389
68.415 12.68771
68.420 12.892389
68.425 13.068435
68.430 13.330923
68.435 13.016171
68.440 13.54812
68.445 13.643133
68.450 12.84913
68.455 13.002454
68.460 12.693995
68.465 12.796667
68.470 13.021915
68.475 12.42332
68.480 12.055264
68.485 12.479524
68.490 12.719414
68.495 13.190972
68.500 12.932691
68.505 12.653157
68.510 12.783485
68.515 13.310729
68.520 13.87679
68.525 13.070344
68.530 12.936921
68.535 13.235533
68.540 13.530349
68.545 13.569963
68.550 12.952779
68.555 12.349277
68.560 12.904879
68.565 12.540977
68.570 12.801924
68.575 12.425166
68.580 12.587396
68.585 13.09847
68.590 12.825666
68.595 12.879003
68.600 13.092703
68.605 13.036649
68.610 13.278291
68.615 13.150092
68.620 12.907701
68.625 13.010835
68.630 12.907935
68.635 12.956989
68.640 12.996221
68.645 13.43503
68.650 13.581058
68.655 13.670511
68.660 13.498813
68.665 13.630857
68.670 13.540814
68.675 13.849682
68.680 13.404793
68.685 13.110879
68.690 13.382484
68.695 13.865592
68.700 13.815713
68.705 13.745482
68.710 13.305539
68.715 13.586598
68.720 13.995358
68.725 13.63164
68.730 12.991434
68.735 13.136981
68.740 13.222631
68.745 13.496634
68.750 13.354288
68.755 13.111577
68.760 14.209661
68.765 15.14227
68.770 14.829798
68.775 14.48208
68.780 14.668626
68.785 15.106215
68.790 15.44706
68.795 14.816517
68.800 15.333438
68.805 16.0238
68.810 16.722157
68.815 16.708164
68.820 17.062983
68.825 17.524519
68.830 17.672922
68.835 16.838737
68.840 16.21801
68.845 15.967148
68.850 15.980352
68.855 15.347418
68.860 14.833682
68.865 14.576521
68.870 14.396854
68.875 14.732175
68.880 14.74375
68.885 14.433065
68.890 14.634306
68.895 14.46297
68.900 14.787415
68.905 15.158205
68.910 15.637613
68.915 15.660027
68.920 16.107573
68.925 16.468418
68.930 16.987452
68.935 17.251999
68.940 17.559065
68.945 17.237864
68.950 17.250269
68.955 17.318775
68.960 17.581282
68.965 18.074341
68.970 18.23702
68.975 18.385633
68.980 18.407211
68.985 18.605236
68.990 18.616987
68.995 18.125902
69.000 17.414635
69.005 17.463594
69.010 17.981617
69.015 18.765249
69.020 19.074785
69.025 19.162344
69.030 19.296131
69.035 19.932587
69.040 19.939854
69.045 19.678514
69.050 19.212236
69.055 19.265528
69.060 19.666422
69.065 20.02471
69.070 19.985945
69.075 20.306416
69.080 20.389944
69.085 20.681299
69.090 21.106791
69.095 20.942184
69.100 21.206095
69.105 21.135395
69.110 21.440664
69.115 21.475874
69.120 20.916996
69.125 20.861883
69.130 21.029692
69.135 21.529341
69.140 22.164219
69.145 22.212965
69.150 22.263697
69.155 22.657646
69.160 22.455982
69.165 21.718271
69.170 21.188927
69.175 20.382544
69.180 20.318491
69.185 20.73521
69.190 21.016428
69.195 21.073551
69.200 21.999784
69.205 22.29669
69.210 22.861111
69.215 22.274042
69.220 22.187483
69.225 21.920069
69.230 21.444426
69.235 21.392096
69.240 21.501421
69.245 21.681536
69.250 21.711805
69.255 20.93347
69.260 21.147139
69.265 20.782827
69.270 20.318579
69.275 20.146994
69.280 19.646694
69.285 19.905544
69.290 19.76671
69.295 19.696411
69.300 20.304497
69.305 20.441612
69.310 20.337954
69.315 19.855242
69.320 19.860611
69.325 20.021172
69.330 19.302952
69.335 19.182663
69.340 18.195925
69.345 17.800211
69.350 18.616802
69.355 18.795227
69.360 18.827843
69.365 18.813187
69.370 18.604342
69.375 18.667168
69.380 18.062153
69.385 17.009336
69.390 16.389721
69.395 16.415079
69.400 16.249903
69.405 15.941242
69.410 15.4606
69.415 15.394904
69.420 15.760744
69.425 15.489995
69.430 15.245633
69.435 15.70885
69.440 15.680569
69.445 15.942013
69.450 15.923637
69.455 15.583332
69.460 15.504486
69.465 15.367923
69.470 15.781784
69.475 15.802749
69.480 15.954033
69.485 15.644078
69.490 15.630767
69.495 16.240206
69.500 16.378534
69.505 16.224754
69.510 16.309978
69.515 16.243477
69.520 16.084246
69.525 15.838597
69.530 14.980715
69.535 14.48067
69.540 14.152939
69.545 14.234849
69.550 14.133552
69.555 13.761713
69.560 14.183506
69.565 15.019275
69.570 15.423646
69.575 15.241579
69.580 15.086984
69.585 15.563169
69.590 16.011694
69.595 15.771419
69.600 15.025785
69.605 14.429255
69.610 14.098195
69.615 13.879006
69.620 13.325756
69.625 13.4153
69.630 13.229875
69.635 13.516682
69.640 14.311593
69.645 14.842658
69.650 15.517551
69.655 15.459116
69.660 15.195311
69.665 15.233397
69.670 14.759058
69.675 13.987783
69.680 13.73046
69.685 13.406223
69.690 13.42659
69.695 13.601969
69.700 13.736317
69.705 13.671261
69.710 13.883331
69.715 13.951718
69.720 13.882905
69.725 13.895084
69.730 13.492399
69.735 13.351848
69.740 13.568684
69.745 13.498983
69.750 13.232023
69.755 12.698545
69.760 12.374314
69.765 12.229689
69.770 12.420907
69.775 11.724165
69.780 11.416253
69.785 11.530552
69.790 11.548519
69.795 11.835488
69.800 11.894191
69.805 12.341141
69.810 12.648395
69.815 12.807333
69.820 12.954807
69.825 13.201148
69.830 13.442795
69.835 13.6315
69.840 13.145959
69.845 13.218201
69.850 13.332314
69.855 13.219037
69.860 13.12709
69.865 12.800488
69.870 12.359388
69.875 12.833807
69.880 12.802713
69.885 12.583856
69.890 12.673271
69.895 12.728123
69.900 12.630659
69.905 12.769857
69.910 12.472364
69.915 12.671793
69.920 13.020313
69.925 13.178521
69.930 13.309737
69.935 13.005057
69.940 13.13548
69.945 12.97091
69.950 12.999898
69.955 12.555745
69.960 12.094155
69.965 12.062867
69.970 12.308047
69.975 12.185148
69.980 12.27157
69.985 12.279171
69.990 12.455984
69.995 12.722836
70.000 12.816808
70.005 12.94996
70.010 13.180698
70.015 13.673571
70.020 13.838601
70.025 14.332178
70.030 14.088988
70.035 14.297228
70.040 14.342958
70.045 13.783641
70.050 13.235885
70.055 12.863264
70.060 12.467
70.065 12.436543
70.070 12.16707
70.075 11.946902
70.080 12.143583
70.085 11.907202
70.090 11.889471
70.095 11.882475
70.100 11.626818
70.105 11.388363
70.110 11.20752
70.115 11.367564
70.120 11.593491
70.125 11.549753
70.130 12.023406
70.135 12.37497
70.140 12.318938
70.145 12.705735
70.150 12.872834
70.155 13.048669
70.160 13.001267
70.165 12.464223
70.170 12.372463
70.175 12.502207
70.180 12.384128
70.185 12.051676
70.190 12.251184
70.195 12.845778
70.200 13.247864
70.205 13.385193
70.210 13.19509
70.215 13.282892
70.220 13.521973
70.225 13.297515
70.230 13.214718
70.235 12.647061
70.240 13.01443
70.245 13.221646
70.250 12.979659
70.255 12.924067
70.260 12.392757
70.265 12.434726
70.270 12.984642
70.275 13.065374
70.280 13.097813
70.285 13.153739
70.290 13.464971
70.295 13.6646
70.300 13.508065
70.305 13.553942
70.310 12.797499
70.315 12.839231
70.320 13.079126
70.325 13.377958
70.330 13.317477
70.335 12.722452
70.340 12.381718
70.345 13.071229
70.350 12.661887
70.355 12.436831
70.360 12.225275
70.365 12.626117
70.370 13.404699
70.375 13.499185
70.380 13.903519
70.385 14.655148
70.390 14.431403
70.395 14.496322
70.400 14.293526
70.405 13.904748
70.410 14.153502
70.415 13.658267
70.420 12.966682
70.425 13.243108
70.430 13.141051
70.435 12.872156
70.440 12.978009
70.445 12.875475
70.450 12.849542
70.455 13.204037
70.460 13.04982
70.465 13.09653
70.470 13.350657
70.475 13.314621
70.480 13.063501
70.485 12.94118
70.490 12.820298
70.495 12.825891
70.500 12.875116
70.505 12.842808
70.510 12.769715
70.515 12.950559
70.520 13.435845
70.525 13.74089
70.530 13.582437
70.535 13.767037
70.540 13.633117
70.545 13.956067
70.550 13.691002
70.555 13.027671
70.560 12.56286
70.565 12.745056
70.570 12.879646
70.575 12.987161
70.580 12.976562
70.585 13.148152
70.590 13.141279
70.595 13.14539
70.600 13.058619
70.605 13.071882
70.610 13.027925
70.615 13.334599
70.620 13.429997
70.625 13.698786
70.630 13.748124
70.635 13.642982
70.640 13.175729
70.645 12.763698
70.650 11.795324
70.655 11.504611
70.660 11.332389
70.665 11.315184
70.670 11.711086
70.675 12.051325
70.680 12.579068
70.685 13.419751
70.690 14.212102
70.695 14.3217
70.700 14.147646
70.705 13.85651
70.710 13.215343
70.715 12.82769
70.720 12.343843
70.725 11.794173
70.730 11.899175
70.735 11.643712
70.740 11.592676
70.745 12.324476
70.750 12.59796
70.755 12.756365
70.760 12.876466
70.765 12.749024
70.770 12.828403
70.775 12.659372
70.780 12.123449
70.785 12.610319
70.790 12.916937
70.795 12.633654
70.800 13.224949
70.805 13.596143
70.810 13.62284
70.815 13.690666
70.820 13.389993
70.825 13.778757
70.830 14.565315
70.835 14.327593
70.840 14.139297
70.845 14.293849
70.850 14.07983
70.855 13.715781
70.860 12.9912
70.865 12.356306
70.870 11.741323
70.875 11.742153
70.880 11.708634
70.885 11.87462
70.890 12.102217
70.895 12.069336
70.900 12.580538
70.905 13.229741
70.910 13.108735
70.915 12.991958
70.920 13.107272
70.925 13.38205
70.930 13.253133
70.935 12.494005
70.940 12.470824
70.945 12.92554
70.950 13.243235
70.955 13.170111
70.960 13.257541
70.965 12.975386
70.970 13.027225
70.975 12.879272
70.980 12.51715
70.985 12.360512
70.990 11.455075
70.995 11.167316
71.000 11.46605
71.005 11.890552
71.010 12.39176
71.015 12.249181
71.020 12.505403
71.025 12.638589
71.030 12.363464
71.035 12.526402
71.040 12.42218
71.045 12.122635
71.050 11.995215
71.055 11.906977
71.060 12.539725
71.065 13.225551
71.070 13.115116
71.075 13.01752
71.080 12.676029
71.085 12.86106
71.090 12.244032
71.095 11.895302
71.100 11.717774
71.105 11.423002
71.110 11.672548
71.115 11.696329
71.120 11.935037
71.125 12.121896
71.130 11.725572
71.135 11.343562
71.140 11.303452
71.145 10.753641
71.150 10.823616
71.155 10.816222
71.160 10.866879
71.165 10.759412
71.170 10.86446
71.175 11.203062
71.180 11.452143
71.185 11.264821
71.190 11.030444
71.195 11.000891
71.200 11.32639
71.205 11.456334
71.210 11.427951
71.215 11.569044
71.220 11.648387
71.225 11.703059
71.230 11.994733
71.235 11.91245
71.240 11.732109
71.245 11.894679
71.250 12.159777
71.255 12.616638
71.260 12.75366
71.265 12.834291
71.270 12.573462
71.275 12.416453
71.280 12.168015
71.285 12.034392
71.290 11.717917
71.295 11.800904
71.300 12.131409
71.305 12.875539
71.310 12.913197
71.315 12.959907
71.320 12.892466
71.325 13.042264
71.330 12.919444
71.335 12.519214
71.340 12.269246
71.345 12.781512
71.350 12.921418
71.355 13.245574
71.360 13.070312
71.365 12.881011
71.370 13.140127
71.375 12.848672
71.380 12.492027
71.385 12.43796
71.390 12.309237
71.395 12.173385
71.400 11.742852
71.405 11.802265
71.410 12.227985
71.415 11.918778
71.420 11.750592
71.425 11.33767
71.430 11.554374
71.435 11.449752
71.440 11.281107
71.445 11.343633
71.450 11.450375
71.455 11.975683
71.460 12.768902
71.465 13.199945
71.470 13.133149
71.475 12.89441
71.480 12.826576
71.485 12.886678
71.490 12.808837
71.495 12.790167
71.500 12.956911
71.505 12.960052
71.510 12.651877
71.515 12.621362
71.520 12.648483
71.525 12.716787
71.530 12.129603
71.535 12.076198
71.540 12.403659
71.545 12.449247
71.550 12.225637
71.555 12.039185
71.560 11.738108
71.565 12.055013
71.570 12.194674
71.575 12.485697
71.580 12.891498
71.585 12.910252
71.590 12.806691
71.595 13.027382
71.600 12.520175
71.605 12.44176
71.610 12.630812
71.615 12.508832
71.620 12.584702
71.625 12.423391
71.630 12.578905
71.635 12.73806
71.640 12.930414
71.645 12.612705
71.650 12.707914
71.655 12.841067
71.660 13.365561
71.665 13.532365
71.670 13.273581
71.675 13.028123
71.680 13.13881
71.685 13.122127
71.690 13.072318
71.695 12.608109
71.700 12.572444
71.705 12.541189
71.710 12.613957
71.715 12.419604
71.720 13.093939
71.725 13.145279
71.730 13.399638
71.735 13.356553
71.740 13.054964
71.745 12.73908
71.750 12.497267
71.755 11.510385
71.760 11.675602
71.765 11.556988
71.770 11.675404
71.775 11.746394
71.780 12.084803
71.785 12.326847
71.790 12.459668
71.795 12.301142
71.800 12.351991
71.805 12.051893
71.810 12.561507
71.815 12.429276
71.820 12.306246
71.825 12.12021
71.830 12.089762
71.835 11.964197
71.840 12.01897
71.845 11.293034
71.850 11.275484
71.855 11.18251
71.860 11.088276
71.865 10.631395
71.870 10.719586
71.875 11.110627
71.880 11.244602
71.885 11.720971
71.890 12.034239
71.895 12.352778
71.900 12.52081
71.905 12.305036
71.910 12.78194
71.915 12.961286
71.920 13.011547
71.925 13.300424
71.930 13.724926
71.935 13.728904
71.940 14.125582
71.945 14.317587
71.950 14.423118
71.955 14.107548
71.960 13.726108
71.965 13.677017
71.970 13.981518
71.975 13.664192
71.980 13.378132
71.985 13.222001
71.990 13.09336
71.995 13.008232
72.000 12.64648
72.005 12.302674
72.010 11.873865
72.015 11.63261
72.020 11.554821
72.025 11.585112
72.030 11.414792
72.035 11.764871
72.040 12.090383
72.045 12.411942
72.050 12.641047
72.055 12.894792
72.060 13.176869
72.065 13.754724
72.070 13.922891
72.075 14.034797
72.080 13.659629
72.085 13.174791
72.090 13.001651
72.095 12.316491
72.100 11.441584
72.105 11.13265
72.110 10.757366
72.115 11.435184
72.120 11.502524
72.125 11.610519
72.130 11.92216
72.135 12.193272
72.140 12.473668
72.145 12.263421
72.150 11.581473
72.155 11.74812
72.160 11.696057
72.165 12.244134
72.170 12.370692
72.175 12.358772
72.180 12.667017
72.185 12.676443
72.190 12.871821
72.195 12.913327
72.200 12.615653
72.205 12.87816
72.210 13.001053
72.215 13.07825
72.220 13.256831
72.225 12.946518
72.230 12.920972
72.235 12.984421
72.240 12.72058
72.245 12.621252
72.250 12.640157
72.255 12.57962
72.260 12.221117
72.265 12.314913
72.270 12.273159
72.275 12.32122
72.280 12.645202
72.285 12.86037
72.290 13.193703
72.295 13.316345
72.300 13.013693
72.305 12.486936
72.310 12.000281
72.315 12.016426
72.320 11.75771
72.325 11.934009
72.330 11.99644
72.335 12.529519
72.340 12.546584
72.345 12.56214
72.350 12.734176
72.355 12.604968
72.360 12.665404
72.365 12.972522
72.370 13.008767
72.375 12.843146
72.380 13.052883
72.385 12.785409
72.390 12.589546
72.395 12.149416
72.400 11.558209
72.405 11.331519
72.410 11.546374
72.415 11.210304
72.420 10.887938
72.425 10.975184
72.430 11.320736
72.435 11.844559
72.440 11.609224
72.445 11.676573
72.450 12.051483
72.455 13.121127
72.460 13.04781
72.465 13.189211
72.470 13.22989
72.475 13.613957
72.480 13.570889
72.485 13.252938
72.490 13.294773
72.495 13.270731
72.500 12.711419
72.505 12.409886
72.510 12.407565
72.515 12.356715
72.520 12.11928
72.525 11.522191
72.530 11.484994
72.535 11.830976
72.540 12.011412
72.545 11.992441
72.550 11.97105
72.555 12.004586
72.560 12.131933
72.565 11.781294
72.570 11.858745
72.575 11.723066
72.580 12.252534
72.585 12.201703
72.590 12.057655
72.595 12.287112
72.600 12.464786
72.605 12.958583
72.610 12.787992
72.615 12.156462
72.620 12.581251
72.625 13.019485
72.630 12.862553
72.635 13.082595
72.640 12.594822
72.645 12.842628
72.650 12.784099
72.655 12.567519
72.660 12.498011
72.665 12.013838
72.670 11.474395
72.675 11.8865
72.680 12.1642
72.685 12.440392
72.690 13.048464
72.695 13.210756
72.700 13.706615
72.705 13.677687
72.710 13.33959
72.715 12.773055
72.720 12.216633
72.725 11.324284
72.730 11.600275
72.735 11.960419
72.740 12.133609
72.745 11.678559
72.750 11.825679
72.755 11.499201
72.760 11.528112
72.765 11.643981
72.770 10.976759
72.775 10.51616
72.780 10.743556
72.785 11.240041
72.790 11.768582
72.795 11.467304
72.800 11.441445
72.805 11.828132
72.810 12.395967
72.815 12.134701
72.820 11.699552
72.825 11.535921
72.830 11.524575
72.835 11.610789
72.840 11.54772
72.845 11.174437
72.850 11.408636
72.855 11.119787
72.860 10.818478
72.865 10.986784
72.870 10.977585
72.875 11.167905
72.880 11.304391
72.885 11.60798
72.890 12.037124
72.895 11.952179
72.900 11.885278
72.905 11.70879
72.910 11.854664
72.915 11.811124
72.920 11.724232
72.925 11.814672
72.930 11.923919
72.935 11.893363
72.940 11.448443
72.945 11.064367
72.950 11.031068
72.955 11.098038
72.960 10.908609
72.965 10.990353
72.970 11.643085
72.975 12.315578
72.980 12.563792
72.985 12.660165
72.990 12.772526
72.995 13.181045
73.000 12.392733
