!@!!GADDS PLOTSO FILE: Chi integration type
!@!!Title/SampleName: map-17a
!@!!Comment: ?
!@!!User: Bruker Instrument Administrator
!@!!Site: University of Illinois Chicago
!@!!Frame: map-17a_01_000.gfrm
!@!!Wavelengths    1.54184   1.54056   1.54439
!@!!Frame angles: 2Theta: 63.000 Omega: 50.000 Phi: 0.000 Chi: 90.000
!@!!Integration range: 2Theta: 53.000 to 73.000  Gamma: -105.000 to -75.000
!@!!Integration method: bin normalized
!@!N
!@!SS
!@!M
!@!L 0.0 0.0 0.0 0.0
!@!XDegrees
!@!YCounts
53.000 7.510418
53.005 7.596208
53.010 7.544778
53.015 7.417513
53.020 7.610334
53.025 7.637442
53.030 7.580523
53.035 7.469254
53.040 7.587524
53.045 7.77655
53.050 7.95246
53.055 7.883826
53.060 8.038417
53.065 7.673387
53.070 7.189623
53.075 6.994466
53.080 7.272907
53.085 7.317798
53.090 7.280483
53.095 7.202134
53.100 7.370536
53.105 7.826092
53.110 7.839536
53.115 7.746691
53.120 7.518664
53.125 7.376078
53.130 7.274027
53.135 7.211826
53.140 6.857428
53.145 6.589756
53.150 6.720943
53.155 6.986951
53.160 7.056985
53.165 6.951869
53.170 7.178459
53.175 7.715507
53.180 7.966529
53.185 7.337368
53.190 6.936225
53.195 6.868456
53.200 7.071644
53.205 6.869451
53.210 6.652425
53.215 6.66506
53.220 7.448651
53.225 8.038416
53.230 8.154349
53.235 8.148227
53.240 7.98435
53.245 7.970523
53.250 7.932024
53.255 7.751349
53.260 7.335784
53.265 7.282178
53.270 7.335737
53.275 7.198801
53.280 7.16134
53.285 6.888547
53.290 6.913079
53.295 7.088384
53.300 7.619458
53.305 7.662342
53.310 7.787999
53.315 7.838563
53.320 7.862216
53.325 7.692182
53.330 7.241608
53.335 6.760941
53.340 6.921392
53.345 6.890417
53.350 7.055593
53.355 6.856838
53.360 7.199422
53.365 7.72938
53.370 7.978626
53.375 7.888034
53.380 7.791147
53.385 7.756321
53.390 7.631478
53.395 7.268436
53.400 6.917222
53.405 7.115828
53.410 7.186731
53.415 7.006692
53.420 7.106019
53.425 7.394986
53.430 7.940467
53.435 7.877983
53.440 7.94486
53.445 8.069592
53.450 8.026947
53.455 8.10912
53.460 7.786347
53.465 7.6723
53.470 7.531506
53.475 7.554571
53.480 8.071928
53.485 7.924692
53.490 7.952327
53.495 7.677224
53.500 7.819581
53.505 8.046307
53.510 7.688857
53.515 7.29225
53.520 7.563235
53.525 8.197842
53.530 8.559678
53.535 8.399448
53.540 8.363128
53.545 8.449581
53.550 8.70277
53.555 8.483932
53.560 7.709728
53.565 7.581774
53.570 7.525804
53.575 7.34895
53.580 7.281584
53.585 7.214013
53.590 7.040882
53.595 7.084251
53.600 7.150766
53.605 7.150925
53.610 7.252498
53.615 7.298755
53.620 7.187551
53.625 6.986959
53.630 6.968545
53.635 7.143799
53.640 7.340883
53.645 7.126022
53.650 7.180064
53.655 7.471111
53.660 7.789088
53.665 7.954047
53.670 8.144538
53.675 8.428618
53.680 8.639982
53.685 8.332531
53.690 8.115138
53.695 8.141613
53.700 7.773685
53.705 7.446955
53.710 7.470409
53.715 7.73183
53.720 7.873381
53.725 8.246966
53.730 8.21379
53.735 8.592475
53.740 8.626997
53.745 8.258159
53.750 7.916749
53.755 8.456087
53.760 8.518731
53.765 8.495564
53.770 8.573157
53.775 8.497941
53.780 8.753791
53.785 8.774906
53.790 8.3729
53.795 7.919245
53.800 7.732493
53.805 7.381999
53.810 7.291064
53.815 7.246843
53.820 7.383565
53.825 7.442957
53.830 7.440142
53.835 7.427644
53.840 7.548482
53.845 7.683384
53.850 8.10069
53.855 8.034211
53.860 8.139423
53.865 8.292717
53.870 8.514005
53.875 8.463665
53.880 8.226007
53.885 7.544072
53.890 7.562563
53.895 7.613873
53.900 7.374881
53.905 7.237875
53.910 6.857379
53.915 6.500703
53.920 6.94269
53.925 6.827489
53.930 7.010024
53.935 6.709369
53.940 6.344845
53.945 6.842339
53.950 6.971644
53.955 6.804409
53.960 6.60402
53.965 6.75528
53.970 6.950251
53.975 6.872209
53.980 6.691512
53.985 6.530378
53.990 6.516572
53.995 6.482336
54.000 6.269412
54.005 6.626138
54.010 6.648585
54.015 6.748989
54.020 6.846473
54.025 6.896873
54.030 7.387753
54.035 7.726901
54.040 7.6547
54.045 7.884763
54.050 7.85745
54.055 7.942044
54.060 7.985064
54.065 7.665864
54.070 7.676104
54.075 7.717417
54.080 7.649397
54.085 7.487962
54.090 7.377717
54.095 6.817301
54.100 6.672328
54.105 6.747744
54.110 7.076763
54.115 7.273044
54.120 7.243071
54.125 7.364603
54.130 7.919436
54.135 8.110671
54.140 8.209924
54.145 8.327707
54.150 8.409195
54.155 8.371306
54.160 8.075616
54.165 7.832259
54.170 7.443457
54.175 7.149209
54.180 6.798428
54.185 6.751015
54.190 7.090606
54.195 7.118209
54.200 6.978844
54.205 7.337795
54.210 7.659551
54.215 7.84973
54.220 7.881447
54.225 7.768525
54.230 8.118206
54.235 8.894844
54.240 8.898939
54.245 8.713856
54.250 8.635391
54.255 8.690064
54.260 8.836371
54.265 8.498597
54.270 7.764287
54.275 7.413001
54.280 7.149264
54.285 7.319534
54.290 7.116516
54.295 7.096498
54.300 7.540213
54.305 7.846037
54.310 8.305243
54.315 8.853738
54.320 8.779434
54.325 8.474474
54.330 8.186729
54.335 7.349001
54.340 7.10906
54.345 6.558045
54.350 6.238342
54.355 6.900946
54.360 7.557678
54.365 7.653063
54.370 7.90248
54.375 7.893457
54.380 8.308112
54.385 8.379567
54.390 8.110706
54.395 7.987276
54.400 8.40355
54.405 8.721185
54.410 8.814881
54.415 8.309067
54.420 8.23133
54.425 8.228733
54.430 7.926614
54.435 7.52521
54.440 7.529929
54.445 7.782924
54.450 8.45568
54.455 8.658909
54.460 8.61585
54.465 8.494804
54.470 8.28975
54.475 8.379112
54.480 8.422822
54.485 7.919097
54.490 7.590166
54.495 7.836535
54.500 8.252478
54.505 8.467472
54.510 8.406848
54.515 8.555409
54.520 8.712443
54.525 9.165355
54.530 9.139867
54.535 9.255139
54.540 9.037238
54.545 8.673436
54.550 8.539779
54.555 8.5855
54.560 8.14971
54.565 8.216387
54.570 8.053099
54.575 7.859087
54.580 7.717685
54.585 7.930313
54.590 8.07305
54.595 8.266863
54.600 8.180062
54.605 8.775585
54.610 9.176052
54.615 9.042178
54.620 8.791045
54.625 8.723335
54.630 8.456573
54.635 8.606714
54.640 7.885787
54.645 7.483536
54.650 7.625723
54.655 7.525917
54.660 7.591925
54.665 7.424024
54.670 7.263537
54.675 7.786976
54.680 7.733365
54.685 8.299914
54.690 8.435446
54.695 8.490439
54.700 8.53968
54.705 8.636101
54.710 8.433525
54.715 8.75643
54.720 8.682576
54.725 8.582321
54.730 8.68666
54.735 9.009264
54.740 8.952743
54.745 9.214012
54.750 9.024122
54.755 8.835809
54.760 9.366305
54.765 9.240296
54.770 9.032527
54.775 9.072774
54.780 8.66353
54.785 8.39916
54.790 8.271324
54.795 7.924968
54.800 8.075434
54.805 8.232085
54.810 8.394502
54.815 8.65789
54.820 9.083054
54.825 9.239894
54.830 9.295856
54.835 8.973681
54.840 8.64685
54.845 8.590475
54.850 8.741734
54.855 8.436875
54.860 8.390094
54.865 8.391891
54.870 8.4581
54.875 8.651637
54.880 8.366322
54.885 7.848344
54.890 7.534337
54.895 7.450337
54.900 7.645707
54.905 8.068154
54.910 8.39955
54.915 9.242217
54.920 9.315846
54.925 9.574717
54.930 9.824063
54.935 9.580849
54.940 9.344705
54.945 9.419017
54.950 9.131086
54.955 9.312317
54.960 9.306099
54.965 8.962634
54.970 8.726097
54.975 8.532037
54.980 8.515823
54.985 8.763347
54.990 8.723319
54.995 8.411469
55.000 8.543738
55.005 8.871877
55.010 9.470626
55.015 9.229741
55.020 9.185471
55.025 9.864819
55.030 10.078756
55.035 10.266459
55.040 10.060906
55.045 9.569675
55.050 9.743788
55.055 9.489282
55.060 9.377398
55.065 9.297139
55.070 9.061637
55.075 9.103275
55.080 9.077847
55.085 8.795523
55.090 8.367128
55.095 8.107306
55.100 8.123
55.105 7.941808
55.110 8.030671
55.115 7.690385
55.120 7.949149
55.125 8.473601
55.130 8.439347
55.135 8.680278
55.140 8.803244
55.145 9.147742
55.150 9.626168
55.155 9.422156
55.160 9.205094
55.165 8.835505
55.170 8.565071
55.175 8.42945
55.180 8.002469
55.185 7.939208
55.190 7.601856
55.195 7.64726
55.200 7.673202
55.205 7.915492
55.210 8.659065
55.215 9.059516
55.220 9.077403
55.225 8.938529
55.230 8.973823
55.235 9.264795
55.240 9.402623
55.245 8.949324
55.250 8.515278
55.255 8.599156
55.260 8.939268
55.265 9.160736
55.270 8.895257
55.275 8.698202
55.280 9.110732
55.285 9.617706
55.290 9.454582
55.295 9.374039
55.300 9.35736
55.305 9.55632
55.310 9.278855
55.315 9.006388
55.320 8.931367
55.325 9.044088
55.330 8.888611
55.335 8.900337
55.340 9.13309
55.345 9.311537
55.350 8.821515
55.355 8.490908
55.360 8.895473
55.365 8.808336
55.370 8.682585
55.375 8.324608
55.380 8.158684
55.385 8.368863
55.390 8.745058
55.395 8.80411
55.400 9.141495
55.405 9.030929
55.410 8.884315
55.415 8.623033
55.420 8.474961
55.425 8.119626
55.430 8.132344
55.435 7.883385
55.440 7.864832
55.445 7.915384
55.450 8.168162
55.455 8.493325
55.460 8.409578
55.465 8.584295
55.470 8.710691
55.475 8.6499
55.480 8.573128
55.485 8.960844
55.490 8.998968
55.495 9.085826
55.500 8.847106
55.505 8.927154
55.510 9.307557
55.515 9.33985
55.520 9.675402
55.525 9.450619
55.530 9.447976
55.535 9.610335
55.540 9.710674
55.545 9.568729
55.550 9.580302
55.555 9.252349
55.560 9.302122
55.565 9.265224
55.570 9.211584
55.575 9.233949
55.580 9.084436
55.585 9.084421
55.590 8.599052
55.595 8.551883
55.600 8.44815
55.605 7.979549
55.610 7.890129
55.615 7.900611
55.620 7.870957
55.625 8.352822
55.630 8.308796
55.635 8.016531
55.640 8.382358
55.645 8.572432
55.650 8.998259
55.655 9.20323
55.660 9.140642
55.665 9.408967
55.670 9.424747
55.675 9.140067
55.680 8.972959
55.685 8.809493
55.690 8.462064
55.695 7.970592
55.700 7.784939
55.705 8.002862
55.710 8.110703
55.715 7.969518
55.720 7.594665
55.725 7.561405
55.730 7.620199
55.735 7.416277
55.740 7.797157
55.745 8.090471
55.750 8.133453
55.755 8.243072
55.760 8.196507
55.765 8.586244
55.770 8.738846
55.775 8.062738
55.780 7.792523
55.785 8.333704
55.790 8.676765
55.795 8.726608
55.800 8.639537
55.805 9.022108
55.810 9.250157
55.815 9.374834
55.820 9.366432
55.825 9.292422
55.830 9.43976
55.835 9.651879
55.840 9.610594
55.845 9.611697
55.850 9.318677
55.855 8.937943
55.860 8.736563
55.865 8.212761
55.870 8.04231
55.875 7.789951
55.880 7.833348
55.885 8.531589
55.890 8.844259
55.895 9.064588
55.900 9.618484
55.905 9.255101
55.910 9.069861
55.915 8.842903
55.920 9.012354
55.925 9.289862
55.930 9.886623
55.935 9.888384
55.940 10.578541
55.945 11.506315
55.950 11.6404
55.955 10.890071
55.960 10.412789
55.965 10.183694
55.970 10.092192
55.975 9.299994
55.980 8.791413
55.985 8.676489
55.990 8.789046
55.995 9.176901
56.000 8.966167
56.005 9.033017
56.010 9.403978
56.015 9.376391
56.020 9.022766
56.025 8.701713
56.030 8.706177
56.035 8.884913
56.040 9.02667
56.045 8.77307
56.050 9.177121
56.055 9.923289
56.060 9.958039
56.065 9.404077
56.070 9.33586
56.075 9.219047
56.080 9.33335
56.085 9.210631
56.090 8.95893
56.095 8.740584
56.100 8.885871
56.105 9.023602
56.110 8.990979
56.115 9.269942
56.120 8.955138
56.125 8.901296
56.130 9.29941
56.135 9.209208
56.140 8.711933
56.145 8.952899
56.150 8.990305
56.155 9.215816
56.160 9.325929
56.165 9.289397
56.170 9.105116
56.175 8.97593
56.180 8.8043
56.185 8.418097
56.190 8.165386
56.195 7.89538
56.200 7.789419
56.205 8.072576
56.210 8.09767
56.215 8.187036
56.220 8.183403
56.225 7.923413
56.230 8.230122
56.235 8.995555
56.240 9.284057
56.245 9.344036
56.250 8.843966
56.255 9.179198
56.260 9.791319
56.265 9.857801
56.270 9.289314
56.275 9.07373
56.280 9.311338
56.285 9.670335
56.290 9.674651
56.295 9.608343
56.300 9.166857
56.305 9.350605
56.310 9.473987
56.315 10.081882
56.320 10.29772
56.325 10.087759
56.330 10.01478
56.335 10.015376
56.340 9.796958
56.345 9.654389
56.350 9.466372
56.355 9.855497
56.360 9.962043
56.365 10.131642
56.370 10.602096
56.375 10.504864
56.380 10.244081
56.385 9.832604
56.390 9.70638
56.395 9.81121
56.400 9.434391
56.405 9.234889
56.410 9.725869
56.415 10.021512
56.420 10.189761
56.425 9.957967
56.430 9.724721
56.435 10.114605
56.440 10.415808
56.445 10.362666
56.450 10.295398
56.455 9.676578
56.460 9.671559
56.465 9.736757
56.470 9.471879
56.475 9.096046
56.480 9.31883
56.485 9.088107
56.490 9.821383
56.495 9.795777
56.500 10.397405
56.505 10.699493
56.510 10.494308
56.515 10.533108
56.520 10.526445
56.525 10.648067
56.530 10.92234
56.535 10.166271
56.540 9.840812
56.545 10.098675
56.550 10.269686
56.555 10.509304
56.560 10.53954
56.565 10.704617
56.570 11.197964
56.575 11.552697
56.580 11.401813
56.585 11.199678
56.590 10.591306
56.595 10.214435
56.600 9.987559
56.605 9.624379
56.610 9.040258
56.615 8.87757
56.620 9.310104
56.625 9.553368
56.630 9.196239
56.635 9.358542
56.640 9.351113
56.645 9.812119
56.650 9.738705
56.655 9.425222
56.660 9.797194
56.665 9.628473
56.670 9.503702
56.675 9.756755
56.680 9.702957
56.685 9.629709
56.690 9.68826
56.695 9.173563
56.700 9.538997
56.705 9.326511
56.710 9.263675
56.715 9.034798
56.720 9.188571
56.725 9.467973
56.730 10.298632
56.735 10.200662
56.740 10.09804
56.745 10.194911
56.750 10.160581
56.755 9.824811
56.760 9.288717
56.765 8.713655
56.770 8.714431
56.775 9.159605
56.780 9.363528
56.785 9.504895
56.790 9.50598
56.795 9.605606
56.800 9.589767
56.805 9.747484
56.810 9.546412
56.815 9.538145
56.820 9.631624
56.825 9.852036
56.830 10.156363
56.835 10.160177
56.840 10.009298
56.845 10.248247
56.850 10.077241
56.855 9.941774
56.860 9.80711
56.865 9.492665
56.870 9.510823
56.875 9.797187
56.880 9.626049
56.885 9.459995
56.890 9.13909
56.895 9.33307
56.900 9.65349
56.905 10.011142
56.910 9.66518
56.915 9.747699
56.920 10.155858
56.925 10.59977
56.930 10.90007
56.935 10.598239
56.940 10.527563
56.945 10.891722
56.950 10.856879
56.955 10.876386
56.960 10.839157
56.965 10.402669
56.970 10.14068
56.975 9.979403
56.980 10.006001
56.985 10.017984
56.990 9.741207
56.995 9.237702
57.000 9.181408
57.005 9.630119
57.010 9.318394
57.015 8.720931
57.020 8.923082
57.025 9.075783
57.030 9.336515
57.035 9.701532
57.040 9.618421
57.045 10.178221
57.050 10.492249
57.055 10.629557
57.060 10.933598
57.065 10.927436
57.070 10.985783
57.075 10.882423
57.080 10.51885
57.085 10.246041
57.090 9.692641
57.095 9.512663
57.100 9.295598
57.105 9.491851
57.110 9.95195
57.115 9.905793
57.120 9.879907
57.125 10.249401
57.130 10.310565
57.135 10.287696
57.140 9.824629
57.145 10.069414
57.150 10.621081
57.155 10.657584
57.160 10.536791
57.165 10.47178
57.170 10.366617
57.175 10.562813
57.180 10.372018
57.185 10.420925
57.190 10.502437
57.195 10.400542
57.200 10.41729
57.205 10.432779
57.210 10.397807
57.215 10.031775
57.220 9.989245
57.225 10.478149
57.230 10.566099
57.235 10.467387
57.240 10.339715
57.245 10.270343
57.250 10.270219
57.255 10.294256
57.260 10.370018
57.265 10.561213
57.270 10.768649
57.275 10.556564
57.280 10.361129
57.285 9.980834
57.290 9.512721
57.295 9.163655
57.300 9.368626
57.305 9.174511
57.310 9.131408
57.315 8.981718
57.320 9.06548
57.325 8.89153
57.330 8.680475
57.335 8.567526
57.340 8.927078
57.345 9.177608
57.350 9.513713
57.355 10.049021
57.360 10.409631
57.365 10.543514
57.370 10.279347
57.375 10.279285
57.380 10.156872
57.385 9.928309
57.390 9.916598
57.395 9.896175
57.400 10.010623
57.405 9.927365
57.410 9.957866
57.415 10.265174
57.420 10.580846
57.425 10.644662
57.430 10.724378
57.435 10.852284
57.440 10.870849
57.445 10.477335
57.450 10.254502
57.455 9.561508
57.460 9.410155
57.465 9.486589
57.470 9.646543
57.475 9.873562
57.480 10.198073
57.485 10.470811
57.490 11.153467
57.495 10.90739
57.500 10.623552
57.505 10.109066
57.510 10.044733
57.515 10.086423
57.520 10.126222
57.525 10.38668
57.530 10.592762
57.535 10.446318
57.540 10.332435
57.545 10.388662
57.550 10.107266
57.555 10.263918
57.560 9.711665
57.565 9.347692
57.570 9.876197
57.575 10.340617
57.580 10.30901
57.585 10.147539
57.590 9.442533
57.595 9.275718
57.600 9.487844
57.605 9.713051
57.610 9.725307
57.615 10.02821
57.620 10.120396
57.625 10.414009
57.630 10.700493
57.635 11.058762
57.640 10.586049
57.645 10.460747
57.650 10.895743
57.655 11.480853
57.660 11.948826
57.665 12.11935
57.670 11.652947
57.675 11.77024
57.680 11.314858
57.685 10.757057
57.690 10.809907
57.695 10.604731
57.700 10.205104
57.705 10.227982
57.710 10.208957
57.715 10.59268
57.720 10.573635
57.725 10.064684
57.730 10.20063
57.735 10.695724
57.740 10.747047
57.745 10.800374
57.750 10.838543
57.755 10.8618
57.760 10.860387
57.765 10.707379
57.770 10.530951
57.775 10.294564
57.780 10.406973
57.785 10.409418
57.790 10.373581
57.795 10.352388
57.800 9.963834
57.805 10.239099
57.810 10.64536
57.815 10.792375
57.820 10.521726
57.825 10.894797
57.830 11.660915
57.835 12.36795
57.840 12.13688
57.845 11.961102
57.850 11.838727
57.855 11.947938
57.860 11.296412
57.865 10.418054
57.870 10.183826
57.875 10.164984
57.880 9.750635
57.885 9.905144
57.890 10.380145
57.895 10.623137
57.900 10.603642
57.905 10.449574
57.910 10.445934
57.915 11.001212
57.920 10.944405
57.925 10.842836
57.930 10.976797
57.935 11.250289
57.940 11.185907
57.945 11.131604
57.950 10.95918
57.955 10.790573
57.960 10.42135
57.965 10.472244
57.970 10.797357
57.975 11.171205
57.980 11.185122
57.985 11.229259
57.990 11.543752
57.995 11.640936
58.000 12.048429
58.005 11.738698
58.010 11.797025
58.015 12.225923
58.020 12.193996
58.025 12.121614
58.030 12.002196
58.035 11.573378
58.040 11.459011
58.045 11.558211
58.050 11.114875
58.055 11.045065
58.060 11.382646
58.065 11.544486
58.070 11.358634
58.075 11.191218
58.080 10.813942
58.085 10.798228
58.090 10.620059
58.095 10.099141
58.100 10.105507
58.105 10.688918
58.110 10.858939
58.115 10.688097
58.120 10.581489
58.125 10.459959
58.130 10.71009
58.135 10.492242
58.140 10.778256
58.145 11.076159
58.150 10.782486
58.155 11.171665
58.160 11.649884
58.165 12.015424
58.170 12.572317
58.175 12.352836
58.180 12.440673
58.185 12.814055
58.190 12.600994
58.195 12.89539
58.200 12.527028
58.205 11.762156
58.210 12.049166
58.215 12.20545
58.220 12.016138
58.225 12.116794
58.230 11.976628
58.235 12.250913
58.240 12.58725
58.245 11.861995
58.250 11.56816
58.255 11.846973
58.260 11.33167
58.265 10.81068
58.270 10.796654
58.275 11.123922
58.280 11.127971
58.285 11.253515
58.290 11.130888
58.295 11.442815
58.300 11.761932
58.305 11.984234
58.310 12.118237
58.315 12.24576
58.320 12.248451
58.325 12.240325
58.330 12.002393
58.335 12.420679
58.340 12.375494
58.345 12.40709
58.350 12.511468
58.355 12.478727
58.360 12.844846
58.365 13.41223
58.370 13.498065
58.375 13.325844
58.380 13.27133
58.385 13.623012
58.390 14.009941
58.395 14.761012
58.400 14.48936
58.405 14.413113
58.410 14.631122
58.415 14.394996
58.420 14.482562
58.425 14.625796
58.430 15.126814
58.435 15.607271
58.440 15.35297
58.445 15.897943
58.450 16.497309
58.455 16.605341
58.460 16.669119
58.465 15.422098
58.470 15.292354
58.475 15.104901
58.480 15.045766
58.485 15.350068
58.490 16.391504
58.495 17.310432
58.500 17.953493
58.505 18.152836
58.510 18.101206
58.515 17.994656
58.520 17.807581
58.525 17.075747
58.530 16.348259
58.535 16.498047
58.540 16.62887
58.545 16.836428
58.550 16.989325
58.555 17.440708
58.560 18.460011
58.565 18.967913
58.570 18.820131
58.575 18.89994
58.580 19.183332
58.585 19.820421
58.590 19.425699
58.595 18.825918
58.600 18.6842
58.605 19.133131
58.610 19.554409
58.615 19.732769
58.620 19.243202
58.625 18.807236
58.630 18.499371
58.635 18.48144
58.640 18.797989
58.645 18.368471
58.650 17.933756
58.655 17.887609
58.660 18.486252
58.665 19.048347
58.670 19.209347
58.675 19.302713
58.680 19.742064
58.685 20.686964
58.690 21.350342
58.695 21.290564
58.700 20.617157
58.705 20.244938
58.710 19.534584
58.715 19.163805
58.720 18.320536
58.725 17.992138
58.730 18.33333
58.735 18.975105
58.740 19.269619
58.745 18.990522
58.750 18.905636
58.755 18.687681
58.760 18.278006
58.765 17.593439
58.770 16.765108
58.775 16.443741
58.780 16.535494
58.785 16.589258
58.790 16.757048
58.795 16.271574
58.800 16.024961
58.805 15.796775
58.810 15.370774
58.815 15.409635
58.820 15.313564
58.825 15.136201
58.830 15.324414
58.835 15.157326
58.840 15.226442
58.845 15.076364
58.850 14.752995
58.855 14.636623
58.860 14.285112
58.865 14.542494
58.870 14.845632
58.875 15.064981
58.880 14.944516
58.885 14.630163
58.890 14.317976
58.895 14.002173
58.900 13.675947
58.905 13.175246
58.910 13.398909
58.915 13.907061
58.920 13.76274
58.925 14.165552
58.930 14.595881
58.935 14.496243
58.940 14.291262
58.945 13.64065
58.950 13.175839
58.955 12.784167
58.960 11.953683
58.965 11.500166
58.970 11.26069
58.975 11.397056
58.980 11.501824
58.985 11.573932
58.990 11.979785
58.995 12.381765
59.000 12.5293
59.005 12.81963
59.010 12.74306
59.015 12.573782
59.020 12.832574
59.025 12.982422
59.030 12.852195
59.035 13.015665
59.040 13.121476
59.045 13.287265
59.050 13.338973
59.055 12.685891
59.060 12.50388
59.065 12.205079
59.070 11.780843
59.075 11.590905
59.080 11.488923
59.085 11.551052
59.090 11.882345
59.095 11.846725
59.100 11.977714
59.105 11.929
59.110 12.08792
59.115 11.883481
59.120 11.391364
59.125 11.181056
59.130 10.971559
59.135 11.146691
59.140 10.995044
59.145 10.716373
59.150 10.699383
59.155 11.199166
59.160 11.622227
59.165 12.083847
59.170 12.067827
59.175 12.096556
59.180 11.843487
59.185 11.86444
59.190 11.60416
59.195 11.181668
59.200 10.961055
59.205 10.601571
59.210 10.724146
59.215 10.627713
59.220 10.588217
59.225 10.868871
59.230 10.845434
59.235 10.877919
59.240 11.170213
59.245 11.323971
59.250 11.81664
59.255 11.954258
59.260 11.791654
59.265 11.723089
59.270 11.711268
59.275 11.550362
59.280 11.019764
59.285 10.290667
59.290 9.902143
59.295 9.766087
59.300 9.92384
59.305 9.724614
59.310 9.809326
59.315 9.823165
59.320 10.324524
59.325 10.879319
59.330 11.215424
59.335 11.190343
59.340 11.397689
59.345 11.372465
59.350 11.615198
59.355 10.965113
59.360 10.811397
59.365 10.551764
59.370 10.34096
59.375 10.460353
59.380 10.578289
59.385 10.549094
59.390 11.215236
59.395 11.144867
59.400 11.487902
59.405 11.487891
59.410 11.413614
59.415 11.12786
59.420 10.871384
59.425 10.485459
59.430 10.44479
59.435 10.294451
59.440 10.603903
59.445 10.647001
59.450 10.839468
59.455 11.35778
59.460 12.193233
59.465 12.452274
59.470 12.365243
59.475 11.970997
59.480 12.159594
59.485 12.600013
59.490 12.084663
59.495 11.369285
59.500 10.711958
59.505 10.236589
59.510 10.139455
59.515 9.712493
59.520 9.304832
59.525 9.36074
59.530 9.243703
59.535 10.205162
59.540 10.917274
59.545 10.975648
59.550 11.520177
59.555 11.535071
59.560 11.588161
59.565 11.620643
59.570 11.165397
59.575 11.076564
59.580 10.984561
59.585 10.701958
59.590 10.913156
59.595 10.901997
59.600 11.116017
59.605 11.160842
59.610 11.117949
59.615 11.140619
59.620 10.970644
59.625 10.961574
59.630 10.716773
59.635 10.936188
59.640 10.909876
59.645 11.001016
59.650 11.068105
59.655 10.901156
59.660 10.916844
59.665 10.63981
59.670 10.220862
59.675 9.90693
59.680 9.512886
59.685 9.582737
59.690 9.892247
59.695 10.012842
59.700 10.382831
59.705 10.377172
59.710 10.727135
59.715 10.669401
59.720 10.828547
59.725 10.792397
59.730 10.710548
59.735 10.858035
59.740 10.937446
59.745 10.853698
59.750 11.028427
59.755 10.551356
59.760 10.700078
59.765 11.293704
59.770 10.965865
59.775 11.167078
59.780 11.169237
59.785 11.318057
59.790 11.917044
59.795 11.774999
59.800 11.383523
59.805 11.696079
59.810 11.363033
59.815 11.41856
59.820 11.3653
59.825 11.169048
59.830 10.911067
59.835 10.552482
59.840 10.268359
59.845 10.668303
59.850 10.597194
59.855 10.064007
59.860 9.835114
59.865 10.246762
59.870 10.638245
59.875 10.929882
59.880 10.682096
59.885 10.340818
59.890 10.711304
59.895 10.934655
59.900 10.724018
59.905 10.873799
59.910 10.656192
59.915 10.657661
59.920 11.144847
59.925 11.271827
59.930 11.414042
59.935 11.237406
59.940 11.180284
59.945 11.37584
59.950 11.91256
59.955 11.649379
59.960 11.816496
59.965 12.059162
59.970 12.385983
59.975 12.39302
59.980 12.043303
59.985 11.703617
59.990 11.652827
59.995 11.036136
60.000 10.594869
60.005 10.202513
60.010 9.966158
60.015 10.484469
60.020 10.347198
60.025 10.615766
60.030 10.497057
60.035 10.645411
60.040 10.664275
60.045 10.632783
60.050 10.167249
60.055 10.217585
60.060 10.338717
60.065 10.491065
60.070 10.507658
60.075 10.337552
60.080 10.422048
60.085 10.866679
60.090 10.583091
60.095 10.381493
60.100 10.500523
60.105 10.424779
60.110 10.754689
60.115 10.844599
60.120 10.972542
60.125 11.432582
60.130 11.612201
60.135 11.342776
60.140 11.238391
60.145 10.995578
60.150 10.466627
60.155 10.178797
60.160 10.448046
60.165 10.596657
60.170 11.051352
60.175 11.459374
60.180 11.282205
60.185 11.499784
60.190 11.008333
60.195 10.559995
60.200 10.402055
60.205 10.346442
60.210 10.267957
60.215 10.65642
60.220 10.976968
60.225 11.466648
60.230 11.659008
60.235 11.743306
60.240 11.594244
60.245 11.514504
60.250 11.635054
60.255 11.534181
60.260 11.772846
60.265 11.632292
60.270 11.575921
60.275 11.438533
60.280 11.499891
60.285 11.289076
60.290 10.657364
60.295 9.64884
60.300 9.434038
60.305 9.066427
60.310 9.187897
60.315 9.126057
60.320 8.982592
60.325 9.334666
60.330 9.711094
60.335 10.191404
60.340 10.552707
60.345 10.60276
60.350 10.815722
60.355 11.330534
60.360 11.648345
60.365 11.771219
60.370 11.599898
60.375 11.547462
60.380 11.21246
60.385 10.805192
60.390 10.688023
60.395 11.115259
60.400 11.555903
60.405 11.727026
60.410 11.807787
60.415 12.017275
60.420 11.622975
60.425 11.252752
60.430 10.924055
60.435 9.996581
60.440 9.490814
60.445 9.502165
60.450 9.309315
60.455 9.807316
60.460 9.857203
60.465 9.719025
60.470 10.313521
60.475 10.593302
60.480 10.603536
60.485 10.659252
60.490 10.827432
60.495 10.693935
60.500 10.719701
60.505 10.50082
60.510 10.166703
60.515 10.034492
60.520 10.141818
60.525 10.510017
60.530 10.526246
60.535 10.245856
60.540 10.34341
60.545 10.644376
60.550 10.536371
60.555 10.442529
60.560 10.124424
60.565 10.098774
60.570 10.29073
60.575 10.286195
60.580 10.351889
60.585 10.4169
60.590 10.044307
60.595 9.605291
60.600 9.690809
60.605 9.763652
60.610 9.742892
60.615 9.70516
60.620 9.747407
60.625 9.941648
60.630 10.240905
60.635 10.503161
60.640 10.604931
60.645 10.849352
60.650 11.597598
60.655 11.820676
60.660 11.925822
60.665 11.78515
60.670 11.883035
60.675 11.61413
60.680 11.3854
60.685 10.852227
60.690 10.93594
60.695 11.121876
60.700 11.255188
60.705 11.368575
60.710 12.139049
60.715 12.292945
60.720 12.75064
60.725 12.473612
60.730 12.492627
60.735 12.660723
60.740 12.076612
60.745 11.251123
60.750 11.023791
60.755 11.080927
60.760 11.396453
60.765 11.562316
60.770 11.792134
60.775 12.149305
60.780 12.559129
60.785 12.110772
60.790 11.561806
60.795 11.628925
60.800 11.806192
60.805 11.454708
60.810 11.380788
60.815 11.496635
60.820 11.35774
60.825 11.218674
60.830 10.955929
60.835 10.698611
60.840 10.911742
60.845 10.801475
60.850 10.705586
60.855 10.935345
60.860 11.232924
60.865 11.55661
60.870 11.289396
60.875 11.094155
60.880 11.373534
60.885 11.378853
60.890 11.11428
60.895 11.022071
60.900 10.790586
60.905 11.004792
60.910 10.913441
60.915 11.124228
60.920 11.459974
60.925 11.981071
60.930 12.019794
60.935 12.436966
60.940 12.452602
60.945 12.101682
60.950 11.417928
60.955 11.380563
60.960 11.206993
60.965 10.899969
60.970 10.561447
60.975 10.3985
60.980 10.379714
60.985 10.673479
60.990 10.65978
60.995 10.930231
61.000 11.099305
61.005 11.136024
61.010 11.324961
61.015 11.276478
61.020 11.438726
61.025 11.451763
61.030 11.323274
61.035 11.311317
61.040 10.972442
61.045 10.923717
61.050 11.017558
61.055 10.719645
61.060 10.536236
61.065 10.654495
61.070 10.985458
61.075 11.140186
61.080 11.294308
61.085 11.769737
61.090 12.156815
61.095 12.496442
61.100 11.966587
61.105 11.660981
61.110 11.456703
61.115 11.327938
61.120 10.822666
61.125 10.37261
61.130 10.136366
61.135 10.560395
61.140 10.464934
61.145 10.308397
61.150 10.158288
61.155 10.158638
61.160 9.874783
61.165 9.495255
61.170 9.13278
61.175 9.475571
61.180 9.426625
61.185 9.506164
61.190 9.642185
61.195 10.245683
61.200 10.735607
61.205 11.402467
61.210 11.628476
61.215 12.333686
61.220 13.077072
61.225 13.151264
61.230 12.825176
61.235 12.79054
61.240 12.465283
61.245 12.306168
61.250 11.890792
61.255 11.464878
61.260 11.634561
61.265 11.613622
61.270 11.780783
61.275 11.386496
61.280 11.43294
61.285 11.554951
61.290 11.266166
61.295 11.149401
61.300 11.088767
61.305 10.656753
61.310 10.933831
61.315 10.831078
61.320 10.627322
61.325 10.369476
61.330 10.14934
61.335 10.501074
61.340 10.729781
61.345 10.565124
61.350 10.629075
61.355 10.61061
61.360 11.016567
61.365 11.326402
61.370 11.352016
61.375 11.2749
61.380 11.581614
61.385 11.376209
61.390 11.532074
61.395 11.577991
61.400 11.618156
61.405 11.328026
61.410 11.46904
61.415 11.416233
61.420 11.399651
61.425 11.475944
61.430 11.458155
61.435 11.106484
61.440 11.56175
61.445 11.5639
61.450 11.542522
61.455 11.673412
61.460 11.780296
61.465 11.630368
61.470 12.000294
61.475 11.584051
61.480 11.235987
61.485 11.449777
61.490 11.256217
61.495 11.036889
61.500 10.79151
61.505 10.043252
61.510 10.042665
61.515 9.956383
61.520 9.980953
61.525 10.115706
61.530 10.213959
61.535 10.611873
61.540 11.218584
61.545 11.952411
61.550 12.428895
61.555 12.57924
61.560 12.604898
61.565 12.218439
61.570 11.90383
61.575 11.822002
61.580 11.227551
61.585 11.197558
61.590 10.914347
61.595 11.08286
61.600 11.495584
61.605 11.594886
61.610 11.313275
61.615 11.494582
61.620 10.999502
61.625 10.934937
61.630 10.763703
61.635 10.913269
61.640 11.178746
61.645 10.853665
61.650 10.546123
61.655 10.258104
61.660 10.645412
61.665 10.750882
61.670 10.893392
61.675 11.0383
61.680 11.484636
61.685 11.391555
61.690 11.569566
61.695 11.411758
61.700 11.24585
61.705 11.019043
61.710 10.782124
61.715 10.627295
61.720 10.750612
61.725 10.606055
61.730 10.70236
61.735 11.024056
61.740 11.098102
61.745 11.505467
61.750 11.677377
61.755 11.71376
61.760 12.370045
61.765 12.050411
61.770 11.911249
61.775 12.28138
61.780 12.645429
61.785 13.075773
61.790 13.307677
61.795 13.06351
61.800 12.85443
61.805 12.689152
61.810 12.556027
61.815 12.255751
61.820 12.128781
61.825 12.687145
61.830 13.084548
61.835 13.167781
61.840 13.195385
61.845 12.803753
61.850 12.283662
61.855 12.029046
61.860 11.5181
61.865 10.757098
61.870 10.647099
61.875 10.518063
61.880 10.781788
61.885 11.049112
61.890 11.368445
61.895 11.626402
61.900 12.117851
61.905 12.788908
61.910 12.891908
61.915 12.531398
61.920 12.499955
61.925 11.861282
61.930 11.57887
61.935 11.520247
61.940 11.200474
61.945 11.220807
61.950 11.652332
61.955 11.303707
61.960 11.507107
61.965 11.686148
61.970 11.6127
61.975 11.688555
61.980 11.795466
61.985 11.696332
61.990 12.064671
61.995 11.879206
62.000 11.856582
62.005 12.004741
62.010 12.096786
62.015 12.048484
62.020 11.71984
62.025 11.788918
62.030 11.745632
62.035 11.25906
62.040 11.649077
62.045 11.498842
62.050 11.121309
62.055 10.920017
62.060 10.627634
62.065 11.110009
62.070 11.149846
62.075 10.347919
62.080 10.374291
62.085 10.488623
62.090 10.883401
62.095 11.268867
62.100 11.254317
62.105 11.735426
62.110 12.404041
62.115 12.60392
62.120 12.890848
62.125 12.99985
62.130 13.03696
62.135 12.789618
62.140 12.93884
62.145 12.957172
62.150 12.708927
62.155 12.941351
62.160 12.885674
62.165 13.071428
62.170 13.080997
62.175 12.754613
62.180 12.599937
62.185 12.86399
62.190 12.43498
62.195 12.016635
62.200 11.462774
62.205 11.495713
62.210 11.186728
62.215 11.250445
62.220 11.2536
62.225 11.493263
62.230 11.874403
62.235 11.985267
62.240 11.446996
62.245 11.483972
62.250 11.25485
62.255 11.67623
62.260 12.147424
62.265 12.329372
62.270 12.2139
62.275 12.697042
62.280 12.46252
62.285 12.451954
62.290 12.175958
62.295 11.569016
62.300 11.084602
62.305 11.014447
62.310 10.668957
62.315 10.602923
62.320 10.479076
62.325 10.055341
62.330 10.466414
62.335 10.648951
62.340 11.245585
62.345 11.758927
62.350 12.003324
62.355 11.544284
62.360 11.598824
62.365 11.420122
62.370 11.686556
62.375 11.316257
62.380 10.967546
62.385 11.03214
62.390 11.694728
62.395 12.008564
62.400 11.81257
62.405 11.491796
62.410 11.432975
62.415 11.312522
62.420 11.267952
62.425 10.820365
62.430 10.412382
62.435 10.640317
62.440 10.635873
62.445 11.602372
62.450 12.251686
62.455 12.52641
62.460 12.352061
62.465 12.386209
62.470 12.51318
62.475 12.765053
62.480 12.334621
62.485 11.80468
62.490 11.243716
62.495 11.492233
62.500 11.394902
62.505 11.283547
62.510 10.901743
62.515 10.583591
62.520 10.563578
62.525 10.736567
62.530 10.533941
62.535 10.466661
62.540 10.216496
62.545 10.598516
62.550 11.371461
62.555 11.981051
62.560 12.036691
62.565 12.039924
62.570 12.108493
62.575 12.242844
62.580 12.030108
62.585 11.500497
62.590 11.361507
62.595 12.025101
62.600 12.818244
62.605 13.563665
62.610 13.613223
62.615 13.376351
62.620 13.510922
62.625 13.592293
62.630 13.428052
62.635 13.19256
62.640 12.597746
62.645 13.030244
62.650 13.036124
62.655 12.733344
62.660 12.99264
62.665 12.747695
62.670 12.824483
62.675 13.082277
62.680 12.928454
62.685 13.084299
62.690 13.347073
62.695 13.180071
62.700 13.1444
62.705 13.319016
62.710 13.609612
62.715 13.402441
62.720 13.588216
62.725 13.366222
62.730 13.078393
62.735 13.405797
62.740 12.828916
62.745 12.366549
62.750 12.42855
62.755 12.12496
62.760 12.036748
62.765 12.144163
62.770 11.979109
62.775 12.235894
62.780 12.133863
62.785 11.959887
62.790 12.231843
62.795 12.335081
62.800 12.275578
62.805 12.171021
62.810 11.833134
62.815 11.893745
62.820 12.066279
62.825 11.802537
62.830 11.712767
62.835 11.476779
62.840 11.725643
62.845 11.797723
62.850 11.84777
62.855 11.929085
62.860 11.905593
62.865 11.719165
62.870 11.819349
62.875 11.976111
62.880 12.133207
62.885 11.835159
62.890 11.504288
62.895 11.854172
62.900 12.235765
62.905 12.371704
62.910 12.05017
62.915 12.376563
62.920 12.989366
62.925 13.378923
62.930 13.498702
62.935 13.035207
62.940 12.797009
62.945 12.921273
62.950 12.768025
62.955 12.341855
62.960 11.959843
62.965 11.572042
62.970 11.94748
62.975 12.126809
62.980 12.086877
62.985 11.89359
62.990 12.24036
62.995 12.70664
63.000 12.970476
63.005 12.794319
63.010 12.711509
63.015 12.68167
63.020 12.654483
63.025 12.547643
63.030 12.765835
63.035 12.681523
63.040 12.837289
63.045 12.790684
63.050 12.511259
63.055 12.59383
63.060 12.356157
63.065 12.520997
63.070 12.974054
63.075 13.087951
63.080 12.766387
63.085 12.729261
63.090 12.702071
63.095 12.733618
63.100 11.696651
63.105 11.447113
63.110 11.130843
63.115 11.685369
63.120 11.528959
63.125 11.768675
63.130 11.70374
63.135 11.976222
63.140 12.161838
63.145 12.29487
63.150 12.310924
63.155 12.671595
63.160 12.613399
63.165 12.828008
63.170 12.936908
63.175 12.669374
63.180 12.605563
63.185 12.237255
63.190 11.761038
63.195 11.550135
63.200 11.779008
63.205 11.706343
63.210 11.983056
63.215 12.479481
63.220 12.429253
63.225 12.642159
63.230 12.453862
63.235 12.430732
63.240 12.851621
63.245 13.070137
63.250 13.080578
63.255 13.506393
63.260 13.796483
63.265 13.824097
63.270 13.952379
63.275 14.253332
63.280 13.579555
63.285 13.136606
63.290 12.541967
63.295 12.692761
63.300 13.019579
63.305 12.432298
63.310 12.158885
63.315 12.47758
63.320 12.544834
63.325 12.742832
63.330 12.629313
63.335 12.861349
63.340 12.902024
63.345 12.479297
63.350 12.334392
63.355 12.192964
63.360 12.134222
63.365 11.883524
63.370 11.973521
63.375 12.476363
63.380 12.74186
63.385 12.923095
63.390 13.448585
63.395 13.844178
63.400 13.626186
63.405 13.207873
63.410 13.011156
63.415 12.820038
63.420 12.691821
63.425 12.805322
63.430 12.808392
63.435 12.390205
63.440 11.985913
63.445 11.679645
63.450 12.197335
63.455 12.589402
63.460 12.200577
63.465 12.272048
63.470 12.844921
63.475 13.293264
63.480 13.475704
63.485 13.183963
63.490 13.051623
63.495 13.109633
63.500 13.405354
63.505 13.941413
63.510 13.533972
63.515 13.404682
63.520 13.141422
63.525 13.119987
63.530 12.817049
63.535 12.450979
63.540 12.410706
63.545 12.96733
63.550 12.940022
63.555 13.610078
63.560 13.148417
63.565 13.135098
63.570 12.781239
63.575 12.795638
63.580 12.183742
63.585 12.270571
63.590 11.959469
63.595 12.580913
63.600 12.972038
63.605 12.970721
63.610 12.696639
63.615 13.06076
63.620 13.615396
63.625 13.455007
63.630 13.419929
63.635 13.534925
63.640 13.824978
63.645 14.123366
63.650 13.848408
63.655 13.043032
63.660 12.859471
63.665 12.45308
63.670 12.312585
63.675 11.791707
63.680 11.174038
63.685 11.463436
63.690 11.602163
63.695 12.00658
63.700 12.007423
63.705 12.095303
63.710 12.678481
63.715 12.988207
63.720 12.590446
63.725 12.415139
63.730 12.682457
63.735 12.880405
63.740 12.506089
63.745 11.92297
63.750 11.711776
63.755 11.788667
63.760 11.733159
63.765 11.149623
63.770 11.465263
63.775 12.114792
63.780 12.886334
63.785 12.854735
63.790 12.965085
63.795 13.023051
63.800 12.926372
63.805 12.468364
63.810 11.926103
63.815 12.137572
63.820 12.669742
63.825 12.836059
63.830 12.690367
63.835 13.031781
63.840 13.073234
63.845 13.479422
63.850 13.530888
63.855 13.437265
63.860 13.486268
63.865 13.411047
63.870 13.157874
63.875 13.015429
63.880 12.330485
63.885 12.39059
63.890 12.31733
63.895 12.271768
63.900 12.677729
63.905 12.849005
63.910 13.0446
63.915 13.087687
63.920 12.525833
63.925 12.185838
63.930 12.681506
63.935 13.016584
63.940 12.958575
63.945 12.763299
63.950 12.598254
63.955 12.897135
63.960 13.555849
63.965 13.852728
63.970 13.765181
63.975 13.887954
63.980 14.419118
63.985 14.924376
63.990 15.120078
63.995 14.944187
64.000 14.522757
64.005 15.03706
64.010 15.734197
64.015 15.851272
64.020 16.196083
64.025 16.463579
64.030 16.366608
64.035 17.100372
64.040 16.92918
64.045 17.212864
64.050 17.290472
64.055 16.762604
64.060 16.595366
64.065 16.756052
64.070 16.561127
64.075 16.608662
64.080 16.566349
64.085 16.932093
64.090 17.747938
64.095 18.231401
64.100 18.338997
64.105 18.101007
64.110 18.189817
64.115 18.568609
64.120 18.91614
64.125 18.629549
64.130 18.304077
64.135 18.673277
64.140 18.738441
64.145 18.955982
64.150 18.720022
64.155 18.758688
64.160 19.837637
64.165 20.283892
64.170 20.166826
64.175 20.143747
64.180 20.636339
64.185 20.975351
64.190 20.98711
64.195 20.992205
64.200 20.989246
64.205 21.909853
64.210 22.7612
64.215 22.241938
64.220 22.570538
64.225 23.183798
64.230 23.345888
64.235 23.953318
64.240 23.235363
64.245 22.923067
64.250 23.03261
64.255 23.179888
64.260 23.686317
64.265 23.515736
64.270 23.564981
64.275 24.375446
64.280 24.653511
64.285 25.045319
64.290 25.405424
64.295 24.42861
64.300 24.402723
64.305 23.834698
64.310 23.33247
64.315 23.308214
64.320 23.28945
64.325 22.995052
64.330 22.800533
64.335 22.65892
64.340 22.527689
64.345 22.796387
64.350 23.231091
64.355 23.942059
64.360 24.085577
64.365 24.864006
64.370 25.039701
64.375 25.660295
64.380 25.595467
64.385 24.677345
64.390 23.767473
64.395 23.515291
64.400 23.451899
64.405 23.571274
64.410 23.391687
64.415 23.372704
64.420 23.61516
64.425 23.339415
64.430 22.615448
64.435 21.724827
64.440 22.016098
64.445 21.898783
64.450 22.232737
64.455 22.574711
64.460 22.731585
64.465 23.182137
64.470 23.616243
64.475 23.08106
64.480 23.300734
64.485 22.901466
64.490 22.259855
64.495 22.27632
64.500 22.181591
64.505 21.906979
64.510 21.363979
64.515 20.884815
64.520 21.034178
64.525 21.06179
64.530 20.513346
64.535 19.892857
64.540 19.813524
64.545 19.719744
64.550 19.264416
64.555 19.495691
64.560 19.51074
64.565 19.484369
64.570 19.350815
64.575 19.310249
64.580 19.249384
64.585 18.833084
64.590 17.984257
64.595 17.302538
64.600 17.32173
64.605 16.901407
64.610 16.87686
64.615 16.890934
64.620 17.19311
64.625 16.932461
64.630 17.358274
64.635 17.476406
64.640 17.121199
64.645 16.361662
64.650 16.001947
64.655 15.589758
64.660 15.982483
64.665 15.472908
64.670 14.96172
64.675 14.891539
64.680 14.709901
64.685 14.892505
64.690 15.117176
64.695 14.941037
64.700 15.431396
64.705 15.691418
64.710 16.46978
64.715 16.914557
64.720 16.68104
64.725 15.921169
64.730 15.430593
64.735 14.802775
64.740 13.975665
64.745 13.840031
64.750 13.856502
64.755 14.264224
64.760 14.944006
64.765 15.196103
64.770 15.430389
64.775 15.82743
64.780 16.011883
64.785 15.468522
64.790 15.406541
64.795 15.382315
64.800 15.707032
64.805 15.805552
64.810 16.316095
64.815 16.275402
64.820 16.863092
64.825 17.055084
64.830 17.018446
64.835 17.194941
64.840 17.360325
64.845 17.246788
64.850 17.241474
64.855 16.980778
64.860 16.67314
64.865 16.402267
64.870 15.777843
64.875 15.627821
64.880 15.596025
64.885 15.290279
64.890 15.15179
64.895 15.174809
64.900 15.456568
64.905 15.788809
64.910 16.167168
64.915 15.997008
64.920 16.401155
64.925 16.976824
64.930 17.076736
64.935 17.322269
64.940 17.286562
64.945 16.863474
64.950 16.808336
64.955 16.633095
64.960 16.274525
64.965 15.895986
64.970 15.339883
64.975 15.488138
64.980 15.958272
64.985 16.312288
64.990 16.630318
64.995 16.660173
65.000 17.121458
65.005 16.973129
65.010 17.174759
65.015 16.972408
65.020 17.19319
65.025 17.312984
65.030 17.176117
65.035 16.871098
65.040 17.245777
65.045 17.757057
65.050 18.129902
65.055 17.42432
65.060 17.103867
65.065 17.847515
65.070 18.143452
65.075 17.961317
65.080 17.384741
65.085 17.341555
65.090 17.441116
65.095 17.614424
65.100 16.818481
65.105 16.587339
65.110 16.57448
65.115 16.651648
65.120 16.552969
65.125 16.896364
65.130 17.195936
65.135 17.70443
65.140 18.021381
65.145 17.764219
65.150 17.516216
65.155 17.324678
65.160 17.291845
65.165 17.052046
65.170 16.911791
65.175 16.984324
65.180 17.345312
65.185 17.303053
65.190 17.239542
65.195 17.240786
65.200 16.7805
65.205 16.784098
65.210 17.086975
65.215 17.009855
65.220 17.714148
65.225 18.16839
65.230 17.751776
65.235 17.840967
65.240 17.641621
65.245 17.3013
65.250 17.137308
65.255 16.42161
65.260 16.467348
65.265 16.360262
65.270 16.510258
65.275 16.968489
65.280 17.146208
65.285 17.217962
65.290 17.463982
65.295 17.583448
65.300 17.981224
65.305 18.07275
65.310 18.422396
65.315 18.656801
65.320 18.982599
65.325 18.748598
65.330 18.734388
65.335 18.316792
65.340 18.076233
65.345 17.587879
65.350 17.005577
65.355 17.141233
65.360 16.868572
65.365 16.609411
65.370 17.073454
65.375 16.779528
65.380 16.955818
65.385 17.476486
65.390 17.385302
65.395 17.967306
65.400 18.641298
65.405 18.641554
65.410 18.489199
65.415 18.731997
65.420 19.584482
65.425 19.443562
65.430 19.252907
65.435 19.055101
65.440 19.395891
65.445 20.291695
65.450 20.404148
65.455 19.940979
65.460 20.146757
65.465 19.967821
65.470 19.691589
65.475 20.127914
65.480 20.235725
65.485 20.185459
65.490 20.728403
65.495 20.977472
65.500 21.294348
65.505 21.499737
65.510 21.131361
65.515 21.617891
65.520 21.707211
65.525 22.017134
65.530 22.60499
65.535 23.487303
65.540 24.103796
65.545 24.659504
65.550 25.092154
65.555 25.482277
65.560 24.882242
65.565 24.869688
65.570 24.77232
65.575 25.810085
65.580 26.504837
65.585 26.248623
65.590 26.191973
65.595 26.526163
65.600 26.576723
65.605 26.554523
65.610 26.275862
65.615 25.957413
65.620 26.450041
65.625 26.818634
65.630 27.389692
65.635 27.446806
65.640 27.906128
65.645 28.285353
65.650 28.260485
65.655 27.642365
65.660 26.649401
65.665 26.349495
65.670 26.317217
65.675 26.015083
65.680 24.747663
65.685 24.637566
65.690 25.018024
65.695 25.6696
65.700 25.873451
65.705 25.928865
65.710 26.184122
65.715 26.202177
65.720 25.612492
65.725 24.688293
65.730 23.937378
65.735 23.4519
65.740 23.400223
65.745 22.723223
65.750 23.580349
65.755 24.24119
65.760 24.778282
65.765 25.11837
65.770 24.814695
65.775 24.712576
65.780 24.554024
65.785 23.531374
65.790 23.354399
65.795 23.438702
65.800 23.28298
65.805 23.509195
65.810 23.725552
65.815 24.265139
65.820 24.383984
65.825 24.106945
65.830 24.068157
65.835 23.562225
65.840 22.999859
65.845 22.240414
65.850 21.732868
65.855 21.670109
65.860 21.628222
65.865 21.354303
65.870 21.287226
65.875 21.490921
65.880 21.252413
65.885 20.934233
65.890 20.193998
65.895 19.453119
65.900 19.56806
65.905 19.649637
65.910 19.246717
65.915 18.952894
65.920 18.772366
65.925 18.969301
65.930 19.16593
65.935 19.398298
65.940 19.171724
65.945 18.673986
65.950 18.105703
65.955 17.913374
65.960 17.727615
65.965 17.229355
65.970 16.609116
65.975 16.544067
65.980 17.017914
65.985 17.510824
65.990 17.206188
65.995 16.829844
66.000 16.729507
66.005 16.807528
66.010 17.142286
66.015 17.210897
66.020 17.649172
66.025 17.741121
66.030 17.715744
66.035 17.373222
66.040 17.492641
66.045 17.069368
66.050 16.810883
66.055 16.748297
66.060 16.722992
66.065 16.297346
66.070 16.182995
66.075 16.129765
66.080 16.169945
66.085 16.36603
66.090 16.185061
66.095 16.109465
66.100 16.449329
66.105 16.43782
66.110 15.96701
66.115 15.888591
66.120 15.215667
66.125 14.965587
66.130 14.756132
66.135 14.321192
66.140 14.414207
66.145 14.001619
66.150 13.348071
66.155 13.066324
66.160 13.232033
66.165 13.359871
66.170 13.583908
66.175 13.151057
66.180 13.297859
66.185 13.833881
66.190 14.192327
66.195 14.512526
66.200 14.936209
66.205 14.770413
66.210 14.902596
66.215 14.713794
66.220 14.870389
66.225 14.65412
66.230 13.98344
66.235 13.712018
66.240 13.439409
66.245 13.618757
66.250 13.623086
66.255 13.410885
66.260 13.471678
66.265 13.509621
66.270 12.823161
66.275 13.100782
66.280 13.212393
66.285 13.533474
66.290 13.977534
66.295 14.130073
66.300 14.014847
66.305 14.373426
66.310 14.462005
66.315 14.540298
66.320 14.502594
66.325 13.908423
66.330 14.28356
66.335 14.645423
66.340 14.28528
66.345 13.909584
66.350 13.945428
66.355 14.146103
66.360 13.621083
66.365 13.220793
66.370 13.028758
66.375 13.366979
66.380 12.928047
66.385 12.46557
66.390 12.027171
66.395 11.920482
66.400 12.109072
66.405 12.55409
66.410 12.81818
66.415 12.772976
66.420 12.814987
66.425 12.814505
66.430 13.030937
66.435 12.629869
66.440 12.015436
66.445 11.402842
66.450 11.543591
66.455 12.006379
66.460 12.468463
66.465 12.8273
66.470 12.913879
66.475 12.789437
66.480 13.214389
66.485 13.366098
66.490 12.92588
66.495 12.487464
66.500 12.314125
66.505 12.884895
66.510 13.678832
66.515 13.088731
66.520 12.922537
66.525 13.076147
66.530 12.850992
66.535 12.627622
66.540 11.972693
66.545 11.974311
66.550 12.818228
66.555 12.695285
66.560 12.893686
66.565 13.303879
66.570 13.422669
66.575 13.479556
66.580 12.973898
66.585 12.71534
66.590 12.77475
66.595 12.950317
66.600 13.120352
66.605 13.208634
66.610 13.41431
66.615 13.291861
66.620 13.170936
66.625 13.955514
66.630 13.900164
66.635 13.897613
66.640 14.009181
66.645 13.79576
66.650 13.863153
66.655 13.705314
66.660 12.532337
66.665 12.145223
66.670 12.169195
66.675 12.377328
66.680 12.636924
66.685 12.959429
66.690 13.207314
66.695 13.859739
66.700 14.100753
66.705 13.810042
66.710 13.784874
66.715 13.914888
66.720 13.638885
66.725 13.408679
66.730 13.285058
66.735 13.37541
66.740 13.255257
66.745 12.954853
66.750 12.893823
66.755 14.07673
66.760 14.579152
66.765 14.416706
66.770 14.321872
66.775 13.840405
66.780 13.740624
66.785 13.45748
66.790 12.290774
66.795 11.866952
66.800 11.704263
66.805 11.433857
66.810 11.527183
66.815 11.713744
66.820 11.657377
66.825 12.073221
66.830 11.963303
66.835 12.098905
66.840 12.653369
66.845 12.814186
66.850 12.78144
66.855 12.456495
66.860 12.205616
66.865 11.905097
66.870 11.981983
66.875 11.774499
66.880 11.43928
66.885 11.181449
66.890 11.200242
66.895 11.088063
66.900 11.259511
66.905 11.198281
66.910 11.492272
66.915 11.916451
66.920 12.339854
66.925 12.814735
66.930 13.441376
66.935 13.444057
66.940 13.02118
66.945 12.772794
66.950 12.705948
66.955 12.953995
66.960 12.716075
66.965 12.620898
66.970 12.848228
66.975 13.508539
66.980 14.215611
66.985 13.994678
66.990 13.583236
66.995 13.865821
67.000 13.561271
67.005 13.01995
67.010 12.280777
67.015 12.059812
67.020 12.310035
67.025 12.387083
67.030 12.614923
67.035 12.734727
67.040 13.089494
67.045 13.04835
67.050 12.720857
67.055 12.703818
67.060 12.259217
67.065 12.285282
67.070 12.709482
67.075 13.512987
67.080 13.691138
67.085 13.785214
67.090 13.831983
67.095 13.702692
67.100 13.781572
67.105 13.700154
67.110 13.052572
67.115 12.921066
67.120 13.352231
67.125 13.689708
67.130 13.400114
67.135 12.832401
67.140 12.709696
67.145 12.772399
67.150 12.855233
67.155 12.49593
67.160 12.396165
67.165 12.709123
67.170 12.751808
67.175 12.886813
67.180 12.838627
67.185 12.513007
67.190 12.494196
67.195 12.522305
67.200 12.549205
67.205 12.433993
67.210 12.352798
67.215 12.628285
67.220 12.972416
67.225 12.943435
67.230 12.468821
67.235 12.21196
67.240 12.611318
67.245 12.633568
67.250 12.607097
67.255 12.553406
67.260 12.777479
67.265 13.199725
67.270 13.410225
67.275 13.029192
67.280 12.904896
67.285 13.107958
67.290 12.823496
67.295 12.769815
67.300 12.671077
67.305 12.98534
67.310 13.445828
67.315 13.24958
67.320 13.189826
67.325 13.675722
67.330 13.798434
67.335 13.872385
67.340 13.767129
67.345 13.618794
67.350 13.956417
67.355 13.675449
67.360 13.17871
67.365 12.984979
67.370 12.967503
67.375 12.922945
67.380 13.058385
67.385 13.074657
67.390 13.113811
67.395 13.543962
67.400 13.363687
67.405 13.425385
67.410 13.588783
67.415 14.089711
67.420 13.994889
67.425 14.447409
67.430 14.411474
67.435 14.578639
67.440 14.931129
67.445 14.460194
67.450 13.900315
67.455 13.687202
67.460 13.322382
67.465 13.204337
67.470 12.887746
67.475 12.200267
67.480 12.287485
67.485 12.352255
67.490 12.491174
67.495 12.34949
67.500 12.12676
67.505 12.357893
67.510 12.336732
67.515 12.417015
67.520 12.637397
67.525 12.46437
67.530 12.668475
67.535 12.888253
67.540 13.135083
67.545 13.413143
67.550 13.061949
67.555 12.610895
67.560 12.620266
67.565 13.074477
67.570 13.222992
67.575 12.989666
67.580 12.881289
67.585 12.827231
67.590 12.901335
67.595 12.428009
67.600 12.02097
67.605 12.091696
67.610 12.226068
67.615 12.433093
67.620 12.525365
67.625 12.625158
67.630 13.764792
67.635 13.958858
67.640 13.521602
67.645 13.162674
67.650 13.181231
67.655 13.234358
67.660 13.325627
67.665 12.634887
67.670 12.765731
67.675 13.265387
67.680 13.655949
67.685 13.693261
67.690 13.789921
67.695 13.597102
67.700 13.678009
67.705 13.201009
67.710 12.805657
67.715 12.769457
67.720 13.05818
67.725 13.016254
67.730 13.178794
67.735 12.736715
67.740 12.883332
67.745 13.024195
67.750 12.591314
67.755 12.286604
67.760 12.068872
67.765 12.003939
67.770 12.138965
67.775 12.377406
67.780 12.698137
67.785 13.008726
67.790 12.961143
67.795 13.356585
67.800 13.224272
67.805 13.046646
67.810 12.764987
67.815 12.816855
67.820 13.297136
67.825 13.374742
67.830 13.571337
67.835 14.028017
67.840 14.367561
67.845 14.498683
67.850 14.239881
67.855 13.374323
67.860 12.941994
67.865 12.490297
67.870 12.40334
67.875 12.159372
67.880 11.639995
67.885 11.728421
67.890 12.405835
67.895 12.66534
67.900 13.151328
67.905 13.21941
67.910 13.251537
67.915 13.736064
67.920 13.681331
67.925 13.258756
67.930 13.369184
67.935 13.112824
67.940 13.354355
67.945 13.480919
67.950 13.320126
67.955 13.576221
67.960 13.609784
67.965 13.433288
67.970 13.80405
67.975 13.379928
67.980 12.881244
67.985 13.14234
67.990 13.060019
67.995 13.171647
68.000 13.249593
68.005 13.008305
68.010 13.272418
68.015 13.416146
68.020 13.211763
68.025 13.081252
68.030 12.860321
68.035 12.644329
68.040 12.646365
68.045 12.990959
68.050 13.196058
68.055 13.180662
68.060 13.438987
68.065 13.434031
68.070 13.236882
68.075 13.322921
68.080 13.253904
68.085 13.296362
68.090 13.541699
68.095 13.301311
68.100 13.227877
68.105 13.442304
68.110 12.66286
68.115 12.139096
68.120 12.055902
68.125 11.544737
68.130 11.800815
68.135 11.905934
68.140 12.144714
68.145 12.307013
68.150 12.598929
68.155 12.441141
68.160 12.452418
68.165 12.379998
68.170 12.348846
68.175 12.29171
68.180 12.475791
68.185 12.449653
68.190 13.04062
68.195 13.473715
68.200 13.695885
68.205 13.295244
68.210 12.891712
68.215 13.462157
68.220 13.840446
68.225 13.552444
68.230 13.596562
68.235 13.621837
68.240 13.825704
68.245 13.857657
68.250 13.388433
68.255 12.80617
68.260 12.711302
68.265 12.698257
68.270 12.824656
68.275 13.270473
68.280 13.379334
68.285 13.371345
68.290 13.466
68.295 13.664644
68.300 13.735449
68.305 13.778883
68.310 13.862076
68.315 13.913204
68.320 13.857223
68.325 13.851974
68.330 13.073436
68.335 13.286609
68.340 13.383412
68.345 13.238686
68.350 12.918092
68.355 13.0553
68.360 13.040133
68.365 13.479293
68.370 13.077987
68.375 12.472803
68.380 12.244086
68.385 13.076294
68.390 13.557853
68.395 13.816247
68.400 14.15887
68.405 14.990269
68.410 15.382507
68.415 15.889077
68.420 15.389509
68.425 15.083434
68.430 15.109336
68.435 14.97243
68.440 14.891615
68.445 14.940268
68.450 15.486979
68.455 15.705865
68.460 15.76888
68.465 15.848629
68.470 15.609378
68.475 14.975884
68.480 15.120122
68.485 15.154554
68.490 15.047177
68.495 15.603613
68.500 15.363107
68.505 15.159183
68.510 15.234932
68.515 14.882371
68.520 14.692034
68.525 14.862556
68.530 14.78026
68.535 15.049008
68.540 15.253222
68.545 15.769563
68.550 16.303537
68.555 16.682941
68.560 16.491161
68.565 16.165684
68.570 15.934254
68.575 16.468372
68.580 16.130022
68.585 15.844754
68.590 15.805939
68.595 16.071016
68.600 16.659309
68.605 17.188129
68.610 17.2901
68.615 17.618715
68.620 17.135641
68.625 17.543388
68.630 17.363792
68.635 16.975542
68.640 17.220518
68.645 17.13998
68.650 17.071726
68.655 17.807787
68.660 17.250135
68.665 17.709457
68.670 18.237022
68.675 18.325748
68.680 18.382732
68.685 18.775986
68.690 18.987448
68.695 19.646223
68.700 19.213331
68.705 19.018663
68.710 18.943962
68.715 19.173588
68.720 18.84223
68.725 18.864647
68.730 19.272852
68.735 19.465822
68.740 19.484516
68.745 19.593636
68.750 19.803703
68.755 20.17243
68.760 19.877079
68.765 20.241894
68.770 21.169481
68.775 21.294212
68.780 21.369652
68.785 21.569599
68.790 21.827229
68.795 22.483042
68.800 22.417336
68.805 22.361534
68.810 23.026695
68.815 23.465132
68.820 23.454363
68.825 23.735338
68.830 23.710327
68.835 23.999645
68.840 23.68231
68.845 23.321815
68.850 23.278486
68.855 22.969673
68.860 23.551895
68.865 23.860218
68.870 23.751053
68.875 24.273401
68.880 24.506903
68.885 24.292645
68.890 24.563814
68.895 23.927748
68.900 23.263384
68.905 23.437269
68.910 23.062588
68.915 22.684702
68.920 22.88921
68.925 22.9349
68.930 22.746008
68.935 23.203802
68.940 23.570459
68.945 23.881971
68.950 23.771254
68.955 23.942171
68.960 24.072927
68.965 23.938723
68.970 23.609989
68.975 23.323185
68.980 23.386202
68.985 23.570347
68.990 23.595478
68.995 23.742153
69.000 23.422775
69.005 23.39588
69.010 23.345306
69.015 23.391577
69.020 23.230659
69.025 23.252413
69.030 22.816534
69.035 23.338781
69.040 22.328878
69.045 21.39768
69.050 20.895399
69.055 20.887058
69.060 21.012159
69.065 21.020622
69.070 20.403723
69.075 20.687691
69.080 21.272673
69.085 21.266422
69.090 21.170387
69.095 20.741486
69.100 20.91045
69.105 21.12068
69.110 21.688038
69.115 21.613005
69.120 21.575788
69.125 21.198147
69.130 20.456053
69.135 20.022474
69.140 19.684828
69.145 18.635429
69.150 18.01833
69.155 18.124083
69.160 18.343866
69.165 19.150423
69.170 19.032349
69.175 19.054029
69.180 18.832155
69.185 18.483585
69.190 17.82188
69.195 17.416357
69.200 17.1098
69.205 17.099457
69.210 16.883821
69.215 17.112686
69.220 17.02354
69.225 17.2456
69.230 16.93058
69.235 16.32263
69.240 15.798086
69.245 15.106467
69.250 14.994406
69.255 15.201089
69.260 15.392974
69.265 16.018297
69.270 16.016344
69.275 16.671349
69.280 17.657372
69.285 17.373171
69.290 16.848967
69.295 16.262747
69.300 15.756342
69.305 15.826989
69.310 15.345812
69.315 14.630498
69.320 14.800017
69.325 15.470856
69.330 15.055416
69.335 14.757279
69.340 14.9437
69.345 14.715995
69.350 15.214286
69.355 14.685519
69.360 14.334707
69.365 14.817519
69.370 14.733944
69.375 14.609276
69.380 14.567866
69.385 14.375641
69.390 14.784239
69.395 14.959063
69.400 15.255199
69.405 15.432797
69.410 15.419885
69.415 15.456373
69.420 15.39285
69.425 14.991882
69.430 14.710508
69.435 14.940353
69.440 14.862113
69.445 14.750859
69.450 14.712193
69.455 14.13079
69.460 13.763859
69.465 13.845433
69.470 13.222393
69.475 12.941375
69.480 13.097227
69.485 13.163177
69.490 13.679441
69.495 14.166383
69.500 13.871308
69.505 13.969688
69.510 13.800212
69.515 13.526538
69.520 13.875328
69.525 13.972486
69.530 13.401258
69.535 13.169395
69.540 13.202676
69.545 13.121281
69.550 12.743164
69.555 12.020325
69.560 12.176826
69.565 12.845391
69.570 13.407775
69.575 13.931987
69.580 13.835165
69.585 14.005716
69.590 14.084385
69.595 13.541147
69.600 13.41221
69.605 13.065736
69.610 12.947062
69.615 13.13643
69.620 12.874358
69.625 12.992081
69.630 13.175982
69.635 12.978339
69.640 13.057531
69.645 12.43618
69.650 12.596263
69.655 13.059281
69.660 13.315244
69.665 13.565116
69.670 13.502689
69.675 13.513909
69.680 13.644032
69.685 13.539641
69.690 13.327374
69.695 12.971698
69.700 13.214535
69.705 13.24199
69.710 13.099642
69.715 12.907755
69.720 12.904749
69.725 12.759394
69.730 12.302073
69.735 11.855658
69.740 11.78359
69.745 12.244052
69.750 12.730535
69.755 12.857744
69.760 13.454503
69.765 13.791185
69.770 13.720633
69.775 13.263561
69.780 12.815784
69.785 12.549757
69.790 12.048327
69.795 11.657219
69.800 11.126102
69.805 11.311599
69.810 11.938005
69.815 12.015821
69.820 12.00198
69.825 12.427026
69.830 12.855755
69.835 13.157901
69.840 12.692706
69.845 12.562575
69.850 12.558966
69.855 12.721485
69.860 11.97167
69.865 11.587436
69.870 11.63715
69.875 11.822535
69.880 12.059659
69.885 11.981112
69.890 12.057408
69.895 12.40256
69.900 12.665369
69.905 12.875263
69.910 12.753022
69.915 12.402493
69.920 12.752424
69.925 12.794354
69.930 12.699186
69.935 12.54094
69.940 12.574779
69.945 12.199342
69.950 12.16131
69.955 11.978243
69.960 12.042693
69.965 11.934258
69.970 11.660748
69.975 11.060877
69.980 11.084202
69.985 10.578787
69.990 10.710292
69.995 10.669212
70.000 10.86839
70.005 11.500085
70.010 12.274456
70.015 12.868239
70.020 13.282936
70.025 13.877119
70.030 14.044739
70.035 13.819334
70.040 13.263169
70.045 12.902225
70.050 12.715535
70.055 12.440714
70.060 12.053414
70.065 12.481473
70.070 13.046769
70.075 13.169066
70.080 12.854424
70.085 12.751619
70.090 12.666726
70.095 12.516686
70.100 12.647223
70.105 12.468428
70.110 12.581966
70.115 12.582021
70.120 12.679576
70.125 12.854877
70.130 12.812981
70.135 12.552964
70.140 12.200448
70.145 12.165368
70.150 12.475851
70.155 12.454622
70.160 12.164836
70.165 11.794949
70.170 11.660002
70.175 12.108042
70.180 12.196556
70.185 12.550972
70.190 13.030925
70.195 13.275535
70.200 13.272791
70.205 13.251854
70.210 13.285439
70.215 13.855979
70.220 13.837939
70.225 13.672783
70.230 13.905921
70.235 13.858949
70.240 13.810696
70.245 13.791743
70.250 13.28635
70.255 13.221709
70.260 13.459718
70.265 13.535582
70.270 13.670208
70.275 13.856677
70.280 13.371326
70.285 13.483098
70.290 13.359485
70.295 13.333626
70.300 13.394904
70.305 13.384976
70.310 13.342237
70.315 13.843537
70.320 13.716758
70.325 13.832885
70.330 13.419957
70.335 13.305483
70.340 13.669804
70.345 13.807912
70.350 14.05384
70.355 14.106188
70.360 13.982889
70.365 14.204032
70.370 14.357957
70.375 13.916265
70.380 13.526405
70.385 13.304111
70.390 12.952132
70.395 12.92821
70.400 12.750229
70.405 12.611697
70.410 12.984103
70.415 12.60763
70.420 12.310155
70.425 12.597388
70.430 12.372758
70.435 12.276788
70.440 12.201552
70.445 12.23986
70.450 12.56793
70.455 12.618244
70.460 12.434488
70.465 12.792669
70.470 13.091495
70.475 13.743332
70.480 14.033842
70.485 14.231667
70.490 13.98145
70.495 14.020725
70.500 13.676375
70.505 13.260489
70.510 12.867005
70.515 12.900043
70.520 13.026807
70.525 13.478269
70.530 13.711538
70.535 13.820502
70.540 14.032615
70.545 14.429886
70.550 14.46349
70.555 13.919504
70.560 13.624287
70.565 13.572999
70.570 13.857939
70.575 13.848154
70.580 13.568229
70.585 13.218089
70.590 13.210126
70.595 13.08447
70.600 13.57207
70.605 13.079321
70.610 12.886699
70.615 13.511253
70.620 13.782237
70.625 13.720936
70.630 13.692697
70.635 13.516233
70.640 13.492639
70.645 13.205094
70.650 12.665233
70.655 12.651483
70.660 12.734091
70.665 12.716982
70.670 12.526876
70.675 12.154733
70.680 12.428271
70.685 12.334008
70.690 12.602598
70.695 12.614433
70.700 12.186701
70.705 12.414132
70.710 12.565346
70.715 12.135259
70.720 12.013353
70.725 11.788789
70.730 11.858669
70.735 11.94703
70.740 11.734684
70.745 11.433486
70.750 11.710868
70.755 11.905644
70.760 12.084755
70.765 11.970043
70.770 11.871517
70.775 12.263809
70.780 12.468588
70.785 12.128453
70.790 12.006179
70.795 11.784034
70.800 11.929547
70.805 12.001553
70.810 12.242025
70.815 12.409516
70.820 12.931857
70.825 13.321056
70.830 13.338751
70.835 13.307151
70.840 13.218782
70.845 13.038813
70.850 12.921348
70.855 12.541876
70.860 12.365067
70.865 12.918201
70.870 13.033611
70.875 13.020947
70.880 13.069515
70.885 13.036589
70.890 12.938419
70.895 12.912617
70.900 12.771962
70.905 12.593624
70.910 12.600671
70.915 12.503919
70.920 12.078753
70.925 11.907681
70.930 12.190783
70.935 12.283341
70.940 12.83007
70.945 13.106634
70.950 13.128401
70.955 13.228561
70.960 13.258122
70.965 12.775692
70.970 12.392365
70.975 12.150001
70.980 11.496715
70.985 11.599213
70.990 11.361739
70.995 10.880766
71.000 10.803135
71.005 10.687417
71.010 10.701771
71.015 10.785468
71.020 11.000017
71.025 11.276504
71.030 11.780078
71.035 11.959883
71.040 12.132288
71.045 11.89395
71.050 12.124683
71.055 12.312756
71.060 12.887521
71.065 12.812715
71.070 13.318663
71.075 13.627865
71.080 13.716077
71.085 13.819168
71.090 13.912305
71.095 13.695398
71.100 13.690898
71.105 13.677904
71.110 13.348674
71.115 13.211555
71.120 12.994045
71.125 12.48647
71.130 12.294108
71.135 12.292668
71.140 11.826413
71.145 11.81884
71.150 12.357107
71.155 12.33119
71.160 12.029313
71.165 11.592394
71.170 11.717963
71.175 12.013626
71.180 11.934493
71.185 11.54964
71.190 11.727894
71.195 12.970826
71.200 13.272069
71.205 13.037674
71.210 12.622018
71.215 12.67381
71.220 12.702593
71.225 12.710505
71.230 11.933636
71.235 11.110268
71.240 11.066051
71.245 11.457472
71.250 11.656096
71.255 11.455746
71.260 10.779706
71.265 11.460544
71.270 12.127172
71.275 12.350698
71.280 12.376305
71.285 12.256495
71.290 12.512492
71.295 12.665327
71.300 12.211803
71.305 11.872696
71.310 11.751858
71.315 11.746172
71.320 11.910792
71.325 11.894131
71.330 12.280658
71.335 12.573853
71.340 12.413568
71.345 12.535908
71.350 12.589853
71.355 12.340219
71.360 12.086445
71.365 11.805365
71.370 11.7509
71.375 12.035036
71.380 11.755704
71.385 11.70813
71.390 11.715404
71.395 11.948418
71.400 12.16497
71.405 12.31811
71.410 12.384675
71.415 12.412433
71.420 12.634566
71.425 12.554489
71.430 12.487989
71.435 12.423536
71.440 12.133145
71.445 12.106066
71.450 12.036211
71.455 12.02801
71.460 12.430637
71.465 12.465101
71.470 12.512403
71.475 12.995258
71.480 12.945504
71.485 13.351918
71.490 13.346512
71.495 13.491282
71.500 13.607633
71.505 13.502055
71.510 13.255276
71.515 12.974341
71.520 12.646212
71.525 12.626716
71.530 12.075007
71.535 11.825725
71.540 11.883435
71.545 11.798181
71.550 12.024331
71.555 11.990145
71.560 11.776006
71.565 11.261391
71.570 11.180779
71.575 11.758983
71.580 11.685336
71.585 11.382972
71.590 11.695595
71.595 12.089765
71.600 12.470689
71.605 12.339985
71.610 12.131706
71.615 12.308183
71.620 11.849664
71.625 11.644753
71.630 11.898839
71.635 12.264328
71.640 12.225389
71.645 11.966336
71.650 12.475779
71.655 12.652309
71.660 12.93408
71.665 13.079733
71.670 13.675169
71.675 14.045403
71.680 14.476567
71.685 14.142057
71.690 14.269282
71.695 13.592147
71.700 13.338322
71.705 12.869716
71.710 12.724587
71.715 12.254788
71.720 12.995415
71.725 13.04648
71.730 13.45646
71.735 13.344348
71.740 13.337258
71.745 13.034418
71.750 13.081716
71.755 12.891927
71.760 12.83849
71.765 12.576041
71.770 12.479732
71.775 12.106112
71.780 11.701162
71.785 11.943156
71.790 11.675063
71.795 11.599989
71.800 11.322921
71.805 11.2726
71.810 11.646012
71.815 11.830048
71.820 11.421613
71.825 11.65544
71.830 11.963178
71.835 12.093321
71.840 12.289465
71.845 12.517187
71.850 12.305345
71.855 11.604724
71.860 11.237782
71.865 11.614565
71.870 11.32003
71.875 11.551154
71.880 11.665253
71.885 12.097332
71.890 12.215229
71.895 11.922219
71.900 11.482089
71.905 11.294026
71.910 10.841594
71.915 10.459558
71.920 10.586051
71.925 11.596028
71.930 11.290881
71.935 11.735498
71.940 12.397514
71.945 12.532874
71.950 12.772959
71.955 12.583839
71.960 12.530386
71.965 13.150594
71.970 13.197261
71.975 13.218852
71.980 13.773919
71.985 13.97438
71.990 13.655699
71.995 13.53919
72.000 13.523938
72.005 13.257661
72.010 12.625125
72.015 12.092375
72.020 12.239629
72.025 12.451127
72.030 11.895397
72.035 11.816747
72.040 11.651681
72.045 11.921007
72.050 11.625965
72.055 11.366796
72.060 11.751513
72.065 12.288978
72.070 12.444592
72.075 12.677944
72.080 12.997379
72.085 13.807912
72.090 14.001688
72.095 13.374404
72.100 13.072525
72.105 12.983647
72.110 12.948244
72.115 12.961652
72.120 12.869634
72.125 13.156611
72.130 13.484324
72.135 13.551184
72.140 13.357376
72.145 12.763185
72.150 12.204973
72.155 12.475436
72.160 12.768372
72.165 12.659969
72.170 12.632979
72.175 12.629436
72.180 13.014714
72.185 13.233984
72.190 12.753927
72.195 12.437186
72.200 12.162465
72.205 12.037182
72.210 12.106662
72.215 11.875981
72.220 11.763824
72.225 11.385817
72.230 11.715461
72.235 11.746568
72.240 12.037998
72.245 12.669901
72.250 12.513499
72.255 12.457144
72.260 12.873007
72.265 13.08028
72.270 13.772631
72.275 13.677259
72.280 13.695085
72.285 14.203094
72.290 14.32263
72.295 13.826902
72.300 13.478148
72.305 13.024194
72.310 12.407154
72.315 12.048764
72.320 11.715944
72.325 11.637383
72.330 11.887774
72.335 11.963898
72.340 12.095407
72.345 12.685995
72.350 13.114114
72.355 13.014825
72.360 13.163267
72.365 13.31262
72.370 13.901267
72.375 14.712543
72.380 14.960526
72.385 14.210126
72.390 14.017457
72.395 13.843328
72.400 13.193023
72.405 12.829782
72.410 12.322355
72.415 12.583503
72.420 12.9227
72.425 12.825542
72.430 13.229886
72.435 13.241529
72.440 13.042131
72.445 12.420377
72.450 12.002894
72.455 12.056305
72.460 12.03701
72.465 12.103755
72.470 11.784781
72.475 11.854808
72.480 12.12802
72.485 12.512779
72.490 12.831565
72.495 12.61201
72.500 12.551227
72.505 12.268952
72.510 12.111083
72.515 11.973335
72.520 11.775918
72.525 11.121305
72.530 10.95449
72.535 11.17142
72.540 11.543768
72.545 12.186295
72.550 12.432225
72.555 12.705228
72.560 13.239096
72.565 13.371911
72.570 13.830635
72.575 13.862904
72.580 13.607011
72.585 13.57848
72.590 13.709973
72.595 13.699594
72.600 13.968225
72.605 14.301288
72.610 13.902263
72.615 13.153681
72.620 13.076527
72.625 13.155948
72.630 12.93601
72.635 12.654407
72.640 12.372326
72.645 12.340708
72.650 12.902979
72.655 12.762486
72.660 12.348847
72.665 11.762278
72.670 11.566081
72.675 11.434727
72.680 11.300398
72.685 10.835868
72.690 10.7232
72.695 11.22405
72.700 11.085686
72.705 11.125252
72.710 11.315877
72.715 11.580095
72.720 11.579455
72.725 11.375963
72.730 12.021263
72.735 11.826702
72.740 11.56999
72.745 11.450066
72.750 11.747744
72.755 12.115431
72.760 12.48927
72.765 12.518744
72.770 12.932208
72.775 13.71277
72.780 13.376184
72.785 13.246879
72.790 12.868668
72.795 12.424112
72.800 12.205982
72.805 12.024295
72.810 11.641269
72.815 12.162446
72.820 12.135818
72.825 12.469751
72.830 12.660951
72.835 12.683186
72.840 12.73688
72.845 13.179402
72.850 13.134105
72.855 12.823338
72.860 12.03875
72.865 11.643169
72.870 11.695038
72.875 11.668747
72.880 11.37284
72.885 11.394352
72.890 11.467964
72.895 11.943192
72.900 11.904801
72.905 11.436578
72.910 10.990009
72.915 10.332158
72.920 10.07369
72.925 10.299838
72.930 9.531734
72.935 9.163524
72.940 9.302029
72.945 9.517416
72.950 9.745337
72.955 9.708367
72.960 10.019337
72.965 10.598096
72.970 10.434799
72.975 10.588075
72.980 10.870283
72.985 10.984492
72.990 11.12045
72.995 11.275438
73.000 11.842132
