!@!!GADDS PLOTSO FILE: Chi integration type
!@!!Title/SampleName: map-11f
!@!!Comment: ?
!@!!User: Bruker Instrument Administrator
!@!!Site: University of Illinois Chicago
!@!!Frame: map-11f_01_000.gfrm
!@!!Wavelengths    1.54184   1.54056   1.54439
!@!!Frame angles: 2Theta: 63.000 Omega: 50.000 Phi: 0.000 Chi: 90.000
!@!!Integration range: 2Theta: 53.000 to 73.000  Gamma: -105.000 to -75.000
!@!!Integration method: bin normalized
!@!N
!@!SS
!@!M
!@!L 0.0 0.0 0.0 0.0
!@!XDegrees
!@!YCounts
53.000 5.189744
53.005 5.328436
53.010 4.99172
53.015 4.72087
53.020 4.665841
53.025 5.015321
53.030 5.440119
53.035 5.380524
53.040 5.362344
53.045 5.712036
53.050 5.739408
53.055 5.609
53.060 5.606941
53.065 5.527149
53.070 5.443353
53.075 5.36379
53.080 5.559512
53.085 6.030694
53.090 5.836141
53.095 5.581041
53.100 5.513634
53.105 5.539896
53.110 5.469156
53.115 4.949108
53.120 4.882774
53.125 4.99677
53.130 5.181555
53.135 5.40907
53.140 5.498593
53.145 5.511727
53.150 5.57054
53.155 5.762257
53.160 5.904073
53.165 5.659163
53.170 5.325223
53.175 5.134693
53.180 5.225215
53.185 5.249431
53.190 5.184373
53.195 5.383057
53.200 5.689297
53.205 5.850341
53.210 5.610786
53.215 5.347373
53.220 5.223667
53.225 4.834734
53.230 4.62079
53.235 4.358951
53.240 4.458423
53.245 4.669373
53.250 4.480773
53.255 4.664427
53.260 5.005662
53.265 5.570307
53.270 5.870674
53.275 5.796942
53.280 5.808877
53.285 5.896812
53.290 5.74516
53.295 5.640652
53.300 5.251636
53.305 5.186843
53.310 5.164407
53.315 5.263088
53.320 5.151667
53.325 5.090021
53.330 4.976942
53.335 5.051197
53.340 5.240224
53.345 5.349325
53.350 5.456753
53.355 5.757286
53.360 5.708822
53.365 5.644319
53.370 5.535715
53.375 5.570222
53.380 5.675949
53.385 6.134805
53.390 6.07094
53.395 6.308646
53.400 6.503393
53.405 6.304205
53.410 6.085716
53.415 6.033543
53.420 5.393116
53.425 5.714236
53.430 5.582073
53.435 5.577171
53.440 5.788918
53.445 5.937655
53.450 5.98986
53.455 5.905899
53.460 5.190127
53.465 4.901155
53.470 4.830781
53.475 4.691546
53.480 4.884973
53.485 5.053101
53.490 5.367905
53.495 5.929345
53.500 6.704421
53.505 6.910518
53.510 7.026487
53.515 6.646654
53.520 6.722216
53.525 6.96376
53.530 6.675438
53.535 6.6006
53.540 6.685323
53.545 6.70413
53.550 6.918856
53.555 6.455702
53.560 6.111248
53.565 5.91242
53.570 5.519564
53.575 5.208703
53.580 5.11248
53.585 4.705219
53.590 4.736198
53.595 4.611372
53.600 4.748654
53.605 4.807563
53.610 4.971282
53.615 5.214693
53.620 5.613923
53.625 6.206902
53.630 6.52114
53.635 6.298563
53.640 6.479068
53.645 6.230606
53.650 5.992353
53.655 5.785454
53.660 5.709605
53.665 5.706844
53.670 5.700589
53.675 5.455836
53.680 5.749637
53.685 5.982759
53.690 5.7779
53.695 5.429758
53.700 5.469536
53.705 5.693769
53.710 5.700032
53.715 5.662121
53.720 5.834109
53.725 6.368523
53.730 6.484348
53.735 6.621864
53.740 7.002861
53.745 7.169763
53.750 7.475784
53.755 7.260657
53.760 7.057517
53.765 6.751629
53.770 6.593215
53.775 6.064454
53.780 6.05302
53.785 5.873355
53.790 5.80967
53.795 5.768192
53.800 5.794282
53.805 5.80285
53.810 5.886465
53.815 5.563438
53.820 5.395024
53.825 5.527335
53.830 5.752853
53.835 6.023471
53.840 6.048923
53.845 6.140256
53.850 6.396248
53.855 6.274703
53.860 6.111627
53.865 6.052495
53.870 6.092166
53.875 6.618682
53.880 6.464146
53.885 6.314065
53.890 6.485042
53.895 6.548559
53.900 6.423598
53.905 6.26466
53.910 6.146162
53.915 6.137514
53.920 6.202221
53.925 6.450386
53.930 6.840046
53.935 6.734654
53.940 6.293676
53.945 6.278762
53.950 6.393014
53.955 6.576281
53.960 6.049349
53.965 5.962936
53.970 6.030212
53.975 5.885367
53.980 5.474192
53.985 5.380715
53.990 5.650773
53.995 6.359023
54.000 6.675524
54.005 6.762673
54.010 6.716951
54.015 6.843373
54.020 7.036551
54.025 6.808083
54.030 6.194013
54.035 6.00582
54.040 6.074274
54.045 6.375424
54.050 6.434375
54.055 6.084812
54.060 5.606417
54.065 5.509716
54.070 5.722808
54.075 5.944967
54.080 6.052683
54.085 6.459015
54.090 6.557359
54.095 6.461475
54.100 6.314332
54.105 6.373116
54.110 6.431976
54.115 6.237655
54.120 6.061345
54.125 6.12503
54.130 6.110076
54.135 6.273992
54.140 6.112807
54.145 6.097985
54.150 5.969723
54.155 6.065612
54.160 6.556525
54.165 6.905542
54.170 7.071023
54.175 7.00903
54.180 7.037832
54.185 7.011793
54.190 6.754461
54.195 6.571005
54.200 6.797415
54.205 6.877341
54.210 6.724581
54.215 7.144203
54.220 7.277725
54.225 7.799119
54.230 7.736452
54.235 7.438689
54.240 7.222863
54.245 7.137639
54.250 6.868693
54.255 6.641776
54.260 6.498045
54.265 6.121908
54.270 5.775319
54.275 6.033113
54.280 6.242917
54.285 6.24408
54.290 5.972274
54.295 6.053869
54.300 6.314523
54.305 6.179727
54.310 5.723527
54.315 5.236026
54.320 5.478949
54.325 5.352478
54.330 5.372304
54.335 5.544289
54.340 5.617711
54.345 5.900314
54.350 6.585952
54.355 6.735216
54.360 6.732593
54.365 6.802901
54.370 6.877995
54.375 6.792824
54.380 6.44851
54.385 6.00947
54.390 6.308138
54.395 6.164213
54.400 6.039513
54.405 6.168871
54.410 6.278294
54.415 6.68222
54.420 7.089779
54.425 6.684752
54.430 6.81304
54.435 6.975354
54.440 7.02442
54.445 6.991488
54.450 6.388852
54.455 5.846107
54.460 5.7125
54.465 5.675004
54.470 5.420943
54.475 5.615453
54.480 5.895113
54.485 6.131824
54.490 6.214133
54.495 6.493459
54.500 6.57822
54.505 6.646983
54.510 6.314567
54.515 6.64577
54.520 6.844426
54.525 6.947303
54.530 6.886456
54.535 6.817108
54.540 6.958584
54.545 7.037265
54.550 6.500588
54.555 6.372025
54.560 6.084593
54.565 5.908338
54.570 5.602424
54.575 5.376298
54.580 5.264985
54.585 5.658074
54.590 6.025878
54.595 6.441592
54.600 6.829701
54.605 7.342975
54.610 7.171283
54.615 7.078409
54.620 6.713358
54.625 6.421658
54.630 6.350258
54.635 6.284064
54.640 6.261161
54.645 6.931301
54.650 6.908036
54.655 7.306324
54.660 7.25445
54.665 6.936222
54.670 6.715092
54.675 6.661367
54.680 6.58466
54.685 6.678106
54.690 6.97361
54.695 7.229814
54.700 7.359325
54.705 7.506293
54.710 7.633931
54.715 7.541542
54.720 7.160847
54.725 6.715264
54.730 6.656846
54.735 6.616378
54.740 6.597356
54.745 6.504606
54.750 6.807204
54.755 7.140524
54.760 7.0766
54.765 7.274925
54.770 7.432635
54.775 7.275123
54.780 6.856693
54.785 6.656679
54.790 6.443634
54.795 6.579931
54.800 6.492396
54.805 6.243855
54.810 6.132497
54.815 6.182699
54.820 6.313426
54.825 6.51928
54.830 6.402781
54.835 6.421871
54.840 6.397766
54.845 6.760307
54.850 6.982194
54.855 7.149966
54.860 7.176738
54.865 7.279176
54.870 7.376753
54.875 7.608134
54.880 7.364562
54.885 6.99749
54.890 6.484009
54.895 6.347383
54.900 6.396865
54.905 6.346835
54.910 6.631705
54.915 6.979422
54.920 7.181506
54.925 7.42712
54.930 7.36401
54.935 7.778562
54.940 7.906961
54.945 7.792161
54.950 7.707735
54.955 7.571208
54.960 7.653746
54.965 7.419822
54.970 7.132498
54.975 7.065878
54.980 7.189196
54.985 6.840572
54.990 6.62484
54.995 6.499402
55.000 6.760933
55.005 6.82919
55.010 6.608344
55.015 6.31603
55.020 6.730772
55.025 7.218594
55.030 7.493217
55.035 7.408249
55.040 7.295021
55.045 7.444759
55.050 7.919599
55.055 7.797109
55.060 7.588307
55.065 7.231846
55.070 7.021235
55.075 6.992724
55.080 6.572537
55.085 6.094539
55.090 6.134158
55.095 6.2555
55.100 6.475573
55.105 6.208105
55.110 6.364133
55.115 6.21223
55.120 6.335489
55.125 6.386391
55.130 6.50171
55.135 7.046465
55.140 7.130498
55.145 7.153388
55.150 7.718191
55.155 8.155486
55.160 8.118824
55.165 8.08346
55.170 7.790141
55.175 7.820244
55.180 7.560082
55.185 7.217836
55.190 7.242026
55.195 7.173896
55.200 6.999141
55.205 7.057905
55.210 7.239528
55.215 7.664661
55.220 7.830412
55.225 7.729439
55.230 7.72876
55.235 7.76055
55.240 7.739823
55.245 7.599011
55.250 7.402573
55.255 7.27259
55.260 7.454481
55.265 7.584302
55.270 8.18549
55.275 8.268169
55.280 8.388621
55.285 8.180093
55.290 8.201573
55.295 8.228274
55.300 7.895668
55.305 7.175272
55.310 7.021444
55.315 7.002274
55.320 7.345123
55.325 7.044918
55.330 7.024815
55.335 7.732535
55.340 8.041183
55.345 7.812102
55.350 7.479033
55.355 7.383573
55.360 7.721731
55.365 7.330234
55.370 6.777569
55.375 6.419624
55.380 6.64395
55.385 7.02757
55.390 6.652834
55.395 6.533352
55.400 6.392845
55.405 6.146089
55.410 6.006503
55.415 5.703044
55.420 5.392691
55.425 5.435493
55.430 5.88549
55.435 6.086154
55.440 6.413106
55.445 6.742229
55.450 6.991429
55.455 7.042877
55.460 6.545396
55.465 6.506547
55.470 6.732086
55.475 7.070989
55.480 7.183215
55.485 7.444629
55.490 7.96918
55.495 8.263082
55.500 8.166966
55.505 8.227487
55.510 8.189367
55.515 8.133689
55.520 7.629155
55.525 7.179168
55.530 6.740473
55.535 6.618402
55.540 6.276402
55.545 5.700563
55.550 5.676111
55.555 5.832392
55.560 5.998236
55.565 5.839213
55.570 5.495207
55.575 5.694536
55.580 5.789789
55.585 5.971022
55.590 5.7856
55.595 5.916204
55.600 6.333629
55.605 6.480997
55.610 6.525203
55.615 6.635198
55.620 6.766604
55.625 6.810365
55.630 6.830432
55.635 6.707167
55.640 6.972225
55.645 7.243467
55.650 7.169929
55.655 7.091833
55.660 7.394961
55.665 7.382002
55.670 7.278671
55.675 7.179341
55.680 7.217496
55.685 7.446995
55.690 7.59085
55.695 7.801046
55.700 8.387263
55.705 8.268585
55.710 7.975982
55.715 7.787378
55.720 7.739676
55.725 7.481449
55.730 7.046901
55.735 6.433576
55.740 6.761285
55.745 7.089939
55.750 7.015643
55.755 6.961934
55.760 7.176789
55.765 7.381162
55.770 7.428844
55.775 7.174095
55.780 7.321218
55.785 7.423786
55.790 7.43401
55.795 7.351451
55.800 7.125054
55.805 7.28486
55.810 7.591282
55.815 7.460542
55.820 7.701145
55.825 7.470836
55.830 7.270268
55.835 7.421515
55.840 7.436075
55.845 7.086837
55.850 7.009312
55.855 6.94517
55.860 6.906462
55.865 7.008557
55.870 6.963401
55.875 6.851299
55.880 6.844828
55.885 7.165364
55.890 6.852703
55.895 6.930468
55.900 7.072273
55.905 6.892871
55.910 7.132049
55.915 6.88801
55.920 6.723775
55.925 6.932252
55.930 7.044529
55.935 7.045757
55.940 7.458535
55.945 7.739299
55.950 7.967995
55.955 7.979965
55.960 7.937946
55.965 7.749938
55.970 7.686202
55.975 6.791814
55.980 6.426838
55.985 6.634501
55.990 6.531954
55.995 6.815825
56.000 7.215369
56.005 7.364001
56.010 7.710634
56.015 7.696953
56.020 7.466525
56.025 7.494155
56.030 7.242867
56.035 7.434295
56.040 7.775225
56.045 8.000502
56.050 7.900199
56.055 7.721765
56.060 7.511868
56.065 7.269268
56.070 7.167717
56.075 7.042829
56.080 6.912201
56.085 6.7694
56.090 7.076149
56.095 7.450996
56.100 7.264962
56.105 7.039539
56.110 6.763895
56.115 7.083564
56.120 7.152183
56.125 6.833004
56.130 6.750247
56.135 7.070974
56.140 7.146971
56.145 7.335742
56.150 7.121334
56.155 7.713746
56.160 8.367044
56.165 8.518814
56.170 8.320954
56.175 8.681409
56.180 8.513815
56.185 8.385653
56.190 7.906475
56.195 7.426688
56.200 7.446747
56.205 7.502371
56.210 7.471782
56.215 7.629267
56.220 7.629197
56.225 7.788299
56.230 8.013309
56.235 8.049666
56.240 8.289184
56.245 8.208323
56.250 8.484537
56.255 8.462847
56.260 8.285786
56.265 7.818488
56.270 7.44005
56.275 6.957241
56.280 6.897667
56.285 6.601181
56.290 6.517237
56.295 6.573695
56.300 6.870063
56.305 7.494671
56.310 7.917718
56.315 7.992722
56.320 8.258008
56.325 8.344284
56.330 8.599351
56.335 8.774194
56.340 8.448301
56.345 8.333495
56.350 8.398721
56.355 8.563895
56.360 8.541397
56.365 8.759675
56.370 8.91764
56.375 8.733666
56.380 8.602942
56.385 8.014139
56.390 7.599226
56.395 7.787025
56.400 7.806867
56.405 7.669129
56.410 7.884013
56.415 7.675683
56.420 8.062504
56.425 8.363874
56.430 8.325016
56.435 7.955604
56.440 7.866044
56.445 7.912505
56.450 7.947656
56.455 7.738542
56.460 7.592199
56.465 7.432465
56.470 7.727751
56.475 7.419798
56.480 7.138258
56.485 7.47881
56.490 7.82799
56.495 8.197987
56.500 7.92358
56.505 7.932558
56.510 8.174232
56.515 8.455698
56.520 8.722708
56.525 8.777429
56.530 8.382437
56.535 8.488362
56.540 8.365388
56.545 8.637851
56.550 8.398383
56.555 8.074423
56.560 8.223425
56.565 8.463147
56.570 8.450779
56.575 8.203367
56.580 8.205023
56.585 8.295954
56.590 7.757354
56.595 7.732272
56.600 8.03517
56.605 8.06205
56.610 8.175304
56.615 8.207353
56.620 7.907905
56.625 8.345972
56.630 8.133486
56.635 7.840567
56.640 7.636558
56.645 7.35042
56.650 7.290652
56.655 7.571219
56.660 7.113864
56.665 7.278076
56.670 7.511425
56.675 7.934081
56.680 8.423906
56.685 8.4713
56.690 8.519562
56.695 8.647195
56.700 8.724994
56.705 8.421336
56.710 8.101566
56.715 8.09898
56.720 8.051873
56.725 8.185019
56.730 8.322269
56.735 8.54609
56.740 8.775252
56.745 8.970997
56.750 8.391774
56.755 8.62978
56.760 8.705958
56.765 8.237838
56.770 7.828247
56.775 8.033323
56.780 8.280159
56.785 8.545323
56.790 8.26756
56.795 8.177793
56.800 8.377962
56.805 8.189242
56.810 7.792046
56.815 7.449308
56.820 7.278213
56.825 7.188163
56.830 7.050834
56.835 6.688195
56.840 6.769614
56.845 6.764278
56.850 7.067842
56.855 7.105078
56.860 7.137414
56.865 7.235047
56.870 7.570798
56.875 7.599817
56.880 7.952784
56.885 7.97414
56.890 8.079405
56.895 8.653652
56.900 8.9587
56.905 9.142285
56.910 8.982997
56.915 8.75103
56.920 9.072994
56.925 9.07827
56.930 8.386374
56.935 7.827003
56.940 7.601826
56.945 8.055361
56.950 8.573914
56.955 8.429003
56.960 8.378998
56.965 8.887846
56.970 9.256456
56.975 9.32895
56.980 8.641652
56.985 7.902042
56.990 7.834091
56.995 8.205213
57.000 8.083756
57.005 8.247981
57.010 8.103524
57.015 7.765668
57.020 7.53613
57.025 7.686706
57.030 7.506086
57.035 7.558273
57.040 7.72876
57.045 8.189638
57.050 8.654372
57.055 8.732313
57.060 8.789865
57.065 8.801837
57.070 8.417066
57.075 8.321004
57.080 8.155046
57.085 7.900312
57.090 7.887774
57.095 7.659864
57.100 8.15431
57.105 8.876354
57.110 9.05399
57.115 8.769657
57.120 8.608219
57.125 8.712647
57.130 8.221241
57.135 7.771338
57.140 7.211233
57.145 6.874534
57.150 7.433945
57.155 7.810856
57.160 7.884946
57.165 8.235616
57.170 7.685991
57.175 7.585517
57.180 7.410625
57.185 7.100041
57.190 7.218745
57.195 7.240016
57.200 7.167268
57.205 7.828489
57.210 8.275419
57.215 8.064741
57.220 7.884052
57.225 7.950634
57.230 8.107458
57.235 8.161441
57.240 7.764904
57.245 7.931723
57.250 8.654451
57.255 8.9674
57.260 8.794933
57.265 8.869783
57.270 9.082629
57.275 9.103225
57.280 8.45561
57.285 8.456383
57.290 8.534899
57.295 8.486889
57.300 8.148415
57.305 8.271067
57.310 8.549609
57.315 8.840907
57.320 8.905833
57.325 9.096651
57.330 9.091898
57.335 9.560538
57.340 9.434109
57.345 9.342493
57.350 9.456621
57.355 9.315642
57.360 9.572955
57.365 9.894832
57.370 9.990709
57.375 10.457384
57.380 10.289687
57.385 10.058567
57.390 9.678119
57.395 9.5238
57.400 9.461136
57.405 9.121459
57.410 8.958704
57.415 9.085272
57.420 9.265452
57.425 9.310732
57.430 9.326221
57.435 9.10752
57.440 9.049009
57.445 9.004956
57.450 9.473323
57.455 9.743226
57.460 10.218904
57.465 10.218226
57.470 10.443213
57.475 10.520477
57.480 10.146212
57.485 9.613027
57.490 9.336665
57.495 8.973159
57.500 8.595567
57.505 8.219453
57.510 8.039826
57.515 8.463236
57.520 8.782434
57.525 8.779376
57.530 8.917798
57.535 9.2005
57.540 9.079936
57.545 9.059403
57.550 9.051558
57.555 9.066814
57.560 8.737505
57.565 8.447289
57.570 8.418885
57.575 8.743787
57.580 9.026899
57.585 8.829274
57.590 8.839335
57.595 8.960478
57.600 9.169638
57.605 9.3263
57.610 9.459552
57.615 9.225538
57.620 9.048309
57.625 8.962241
57.630 8.722654
57.635 8.035763
57.640 7.721365
57.645 7.188792
57.650 7.468693
57.655 7.789212
57.660 7.946027
57.665 8.546756
57.670 8.972272
57.675 9.121296
57.680 9.495408
57.685 8.998261
57.690 8.953504
57.695 8.893057
57.700 8.973872
57.705 9.113057
57.710 9.155977
57.715 9.072055
57.720 9.589581
57.725 9.388062
57.730 9.327861
57.735 9.006856
57.740 8.88028
57.745 8.934383
57.750 9.144114
57.755 8.791617
57.760 8.842375
57.765 8.683468
57.770 8.431135
57.775 8.483208
57.780 8.817198
57.785 8.422812
57.790 8.758494
57.795 8.902218
57.800 8.927438
57.805 9.257939
57.810 9.239216
57.815 9.103862
57.820 9.29711
57.825 9.251335
57.830 9.44289
57.835 9.367728
57.840 9.275989
57.845 9.519745
57.850 9.501099
57.855 9.675327
57.860 9.729671
57.865 9.682178
57.870 10.050442
57.875 10.26651
57.880 9.756639
57.885 9.622337
57.890 9.392461
57.895 8.88931
57.900 8.569048
57.905 8.391003
57.910 8.060668
57.915 8.156968
57.920 8.293172
57.925 8.11594
57.930 8.275729
57.935 8.718437
57.940 9.046022
57.945 9.615121
57.950 9.711744
57.955 9.453964
57.960 9.466214
57.965 9.392351
57.970 9.011614
57.975 8.528754
57.980 8.318306
57.985 8.935132
57.990 9.539447
57.995 9.903354
58.000 10.502603
58.005 10.780106
58.010 11.13467
58.015 11.587215
58.020 11.060463
58.025 10.714523
58.030 10.605252
58.035 10.135302
58.040 10.423273
58.045 10.515674
58.050 10.06152
58.055 9.85532
58.060 10.130933
58.065 9.982987
58.070 9.924022
58.075 9.502055
58.080 9.140115
58.085 9.06945
58.090 8.930228
58.095 9.063727
58.100 9.243877
58.105 9.288627
58.110 8.772566
58.115 8.50329
58.120 8.599392
58.125 8.825897
58.130 8.802783
58.135 8.894761
58.140 9.019133
58.145 9.585339
58.150 9.784183
58.155 9.591951
58.160 9.497453
58.165 9.180064
58.170 9.210404
58.175 9.447522
58.180 9.702589
58.185 9.977036
58.190 9.922423
58.195 9.629646
58.200 9.553454
58.205 9.451151
58.210 9.542886
58.215 9.199713
58.220 8.917709
58.225 8.942824
58.230 9.663754
58.235 10.002765
58.240 9.817353
58.245 10.04426
58.250 10.584915
58.255 11.092866
58.260 11.375582
58.265 10.943109
58.270 10.962557
58.275 11.064634
58.280 11.015453
58.285 10.986207
58.290 11.153292
58.295 11.21962
58.300 11.696542
58.305 11.558203
58.310 11.74807
58.315 11.903249
58.320 11.791212
58.325 11.578568
58.330 11.953531
58.335 12.058969
58.340 12.146541
58.345 11.98266
58.350 11.796593
58.355 11.876696
58.360 11.937363
58.365 11.661272
58.370 11.713502
58.375 12.322452
58.380 12.182015
58.385 11.918876
58.390 12.054238
58.395 12.577668
58.400 12.917351
58.405 12.655167
58.410 12.536982
58.415 13.153857
58.420 14.434605
58.425 15.003469
58.430 15.323977
58.435 15.456825
58.440 15.837179
58.445 15.921924
58.450 15.557853
58.455 14.444351
58.460 14.08303
58.465 14.036176
58.470 14.423364
58.475 14.60338
58.480 14.6591
58.485 15.396823
58.490 16.118008
58.495 16.162233
58.500 15.611873
58.505 15.143177
58.510 14.526697
58.515 15.034777
58.520 14.402731
58.525 14.58066
58.530 14.980918
58.535 15.372047
58.540 15.876881
58.545 16.214434
58.550 15.717704
58.555 16.279327
58.560 15.759104
58.565 15.151166
58.570 14.867719
58.575 14.833799
58.580 15.27638
58.585 15.435163
58.590 15.396751
58.595 15.854086
58.600 16.67074
58.605 17.043682
58.610 17.11363
58.615 16.504225
58.620 16.257196
58.625 16.01536
58.630 15.659678
58.635 14.719743
58.640 14.027638
58.645 13.714937
58.650 13.476048
58.655 13.74862
58.660 13.412539
58.665 13.533351
58.670 14.050781
58.675 14.232871
58.680 14.394838
58.685 14.74306
58.690 14.595001
58.695 14.608012
58.700 14.43199
58.705 13.908473
58.710 13.938316
58.715 13.998137
58.720 14.367295
58.725 14.045792
58.730 13.630916
58.735 13.655732
58.740 13.532509
58.745 13.408082
58.750 12.944974
58.755 12.264757
58.760 12.255107
58.765 12.322807
58.770 11.94722
58.775 11.931514
58.780 11.752736
58.785 12.024918
58.790 12.141404
58.795 12.58519
58.800 12.511614
58.805 13.0224
58.810 13.1141
58.815 13.157424
58.820 12.867564
58.825 12.712136
58.830 12.607349
58.835 12.440301
58.840 11.598032
58.845 10.856012
58.850 10.59038
58.855 10.645094
58.860 10.313579
58.865 9.852229
58.870 9.696121
58.875 10.245713
58.880 10.832108
58.885 10.705585
58.890 10.701792
58.895 11.01294
58.900 11.420929
58.905 11.541843
58.910 11.179525
58.915 11.313071
58.920 11.318751
58.925 11.248684
58.930 11.396348
58.935 11.132936
58.940 10.938045
58.945 10.970149
58.950 10.505457
58.955 10.507915
58.960 10.542057
58.965 10.418827
58.970 10.330132
58.975 10.568398
58.980 10.711187
58.985 11.012142
58.990 11.132844
58.995 11.329417
59.000 11.105175
59.005 11.166888
59.010 10.969897
59.015 10.967867
59.020 11.112638
59.025 10.865669
59.030 10.554194
59.035 10.679741
59.040 10.451088
59.045 10.339254
59.050 9.982842
59.055 9.711751
59.060 9.520896
59.065 9.223285
59.070 8.996841
59.075 8.791428
59.080 9.026111
59.085 9.199505
59.090 9.493527
59.095 9.806824
59.100 10.017995
59.105 9.971921
59.110 10.459469
59.115 10.267887
59.120 10.351963
59.125 9.792589
59.130 9.559804
59.135 9.426297
59.140 9.694255
59.145 9.450178
59.150 9.010523
59.155 8.648757
59.160 9.131493
59.165 9.298212
59.170 9.518781
59.175 9.273433
59.180 9.409925
59.185 9.890951
59.190 10.113681
59.195 9.859245
59.200 10.052999
59.205 10.112073
59.210 9.927553
59.215 9.406794
59.220 9.406802
59.225 9.145161
59.230 9.00595
59.235 8.86087
59.240 9.180565
59.245 9.414268
59.250 9.871404
59.255 9.931148
59.260 10.014509
59.265 10.509243
59.270 10.271909
59.275 9.996758
59.280 9.901078
59.285 9.917595
59.290 9.746714
59.295 9.325224
59.300 8.97579
59.305 8.755565
59.310 8.856241
59.315 8.912716
59.320 8.716174
59.325 8.712594
59.330 9.164781
59.335 8.882753
59.340 8.712441
59.345 8.553759
59.350 8.68044
59.355 8.945338
59.360 9.019002
59.365 9.216758
59.370 9.673523
59.375 10.150551
59.380 10.280662
59.385 10.379051
59.390 10.702534
59.395 10.790348
59.400 10.390437
59.405 10.013308
59.410 9.529851
59.415 9.245786
59.420 8.96646
59.425 8.810079
59.430 8.729046
59.435 9.178664
59.440 9.627739
59.445 9.872655
59.450 10.024509
59.455 10.086892
59.460 9.902839
59.465 9.986202
59.470 9.756491
59.475 9.702972
59.480 9.762915
59.485 9.504601
59.490 9.644376
59.495 9.470243
59.500 9.010383
59.505 8.944121
59.510 8.765143
59.515 8.479471
59.520 8.808505
59.525 8.914979
59.530 8.925806
59.535 9.238892
59.540 9.331882
59.545 9.274848
59.550 9.260571
59.555 9.055562
59.560 9.111482
59.565 9.523504
59.570 9.943258
59.575 10.021042
59.580 10.348089
59.585 10.594457
59.590 10.872949
59.595 10.85072
59.600 10.80358
59.605 10.555437
59.610 10.406322
59.615 10.364279
59.620 10.322348
59.625 10.164326
59.630 9.713728
59.635 9.376489
59.640 9.236192
59.645 8.874389
59.650 8.937982
59.655 9.359322
59.660 9.439521
59.665 9.788206
59.670 10.177733
59.675 10.23617
59.680 10.496528
59.685 10.591844
59.690 10.16044
59.695 10.479628
59.700 10.660397
59.705 10.265498
59.710 10.350173
59.715 10.447383
59.720 10.282683
59.725 10.118269
59.730 9.642729
59.735 8.96277
59.740 9.153637
59.745 9.437453
59.750 9.744699
59.755 10.212805
59.760 10.31976
59.765 10.273902
59.770 10.999661
59.775 11.372905
59.780 11.434225
59.785 11.218521
59.790 10.750882
59.795 10.990856
59.800 11.27779
59.805 10.98324
59.810 10.521884
59.815 10.051854
59.820 9.518882
59.825 9.60668
59.830 9.073356
59.835 8.89714
59.840 8.638184
59.845 8.620224
59.850 8.819164
59.855 9.220267
59.860 9.364867
59.865 9.256988
59.870 9.11571
59.875 9.247211
59.880 9.502264
59.885 9.455702
59.890 9.067762
59.895 8.578473
59.900 8.761786
59.905 8.952281
59.910 8.915276
59.915 8.770307
59.920 9.080526
59.925 9.590748
59.930 10.317861
59.935 10.604332
59.940 10.903625
59.945 11.132386
59.950 11.049645
59.955 10.834294
59.960 10.716201
59.965 10.67568
59.970 10.619433
59.975 10.248745
59.980 10.159955
59.985 10.701099
59.990 10.98112
59.995 10.871866
60.000 10.372236
60.005 10.454422
60.010 10.681213
60.015 10.4568
60.020 9.497026
60.025 8.786935
60.030 8.617609
60.035 8.767431
60.040 8.35943
60.045 8.201541
60.050 8.296358
60.055 9.098629
60.060 9.742729
60.065 9.901678
60.070 9.888748
60.075 9.661662
60.080 9.823185
60.085 9.886683
60.090 9.604885
60.095 9.113723
60.100 9.126216
60.105 9.170097
60.110 9.575912
60.115 9.59148
60.120 9.54431
60.125 9.435245
60.130 9.669586
60.135 9.919502
60.140 10.106859
60.145 9.903121
60.150 9.722693
60.155 9.550628
60.160 9.70626
60.165 10.026239
60.170 10.103182
60.175 10.11989
60.180 9.980797
60.185 9.998721
60.190 10.605428
60.195 10.468219
60.200 10.175364
60.205 9.740508
60.210 9.590574
60.215 9.924497
60.220 9.838942
60.225 9.254934
60.230 9.187046
60.235 9.195236
60.240 9.472343
60.245 9.70596
60.250 9.690464
60.255 9.781695
60.260 9.742105
60.265 9.772997
60.270 9.690944
60.275 9.544658
60.280 9.377722
60.285 9.074036
60.290 9.25086
60.295 9.175791
60.300 9.234321
60.305 9.217194
60.310 8.987654
60.315 9.471639
60.320 9.595325
60.325 9.771132
60.330 10.049683
60.335 10.465426
60.340 10.578012
60.345 10.586309
60.350 9.914504
60.355 10.000943
60.360 10.259339
60.365 10.567755
60.370 10.205328
60.375 10.658807
60.380 10.916797
60.385 11.26081
60.390 11.174332
60.395 10.838813
60.400 10.651501
60.405 11.056333
60.410 10.135406
60.415 9.908383
60.420 9.60914
60.425 9.539601
60.430 9.80807
60.435 9.924502
60.440 9.568
60.445 9.863027
60.450 10.02881
60.455 10.19276
60.460 10.011151
60.465 9.727493
60.470 9.212742
60.475 9.103241
60.480 9.015162
60.485 9.150647
60.490 9.27549
60.495 9.271678
60.500 9.161201
60.505 9.417178
60.510 9.627218
60.515 9.675669
60.520 9.324697
60.525 8.995204
60.530 8.937572
60.535 8.961985
60.540 9.144059
60.545 9.244209
60.550 9.80931
60.555 10.038073
60.560 10.232608
60.565 10.546309
60.570 10.961279
60.575 10.840811
60.580 10.672688
60.585 10.64312
60.590 11.043186
60.595 11.229617
60.600 11.074351
60.605 10.442872
60.610 10.386823
60.615 10.747097
60.620 10.485835
60.625 10.303309
60.630 10.331389
60.635 10.129497
60.640 10.297652
60.645 9.986503
60.650 9.780885
60.655 9.824531
60.660 9.495092
60.665 9.445271
60.670 9.638591
60.675 9.763075
60.680 9.947908
60.685 9.908632
60.690 9.813241
60.695 9.913364
60.700 10.196003
60.705 10.332665
60.710 10.006549
60.715 9.839048
60.720 9.642402
60.725 9.396332
60.730 9.286753
60.735 8.834873
60.740 9.163271
60.745 9.571255
60.750 9.605899
60.755 9.522301
60.760 9.863043
60.765 9.969321
60.770 10.213728
60.775 9.913431
60.780 9.754989
60.785 10.182581
60.790 10.327728
60.795 10.916102
60.800 11.443577
60.805 11.219883
60.810 10.954799
60.815 11.474953
60.820 11.396608
60.825 11.67356
60.830 10.846184
60.835 10.283978
60.840 10.230815
60.845 10.386395
60.850 9.83674
60.855 9.99
60.860 9.927854
60.865 10.286698
60.870 10.322082
60.875 10.564283
60.880 10.426591
60.885 10.404854
60.890 10.033682
60.895 9.626211
60.900 9.341239
60.905 9.261736
60.910 9.172932
60.915 9.314448
60.920 9.191925
60.925 9.269165
60.930 9.550858
60.935 10.049046
60.940 9.991707
60.945 9.694056
60.950 9.691532
60.955 10.160453
60.960 10.317898
60.965 10.155388
60.970 9.901469
60.975 10.086386
60.980 10.266129
60.985 9.957663
60.990 9.807042
60.995 9.890017
61.000 9.87883
61.005 10.40976
61.010 10.751104
61.015 10.840478
61.020 11.085939
61.025 10.66729
61.030 10.742102
61.035 10.989607
61.040 10.626236
61.045 10.57741
61.050 10.940293
61.055 11.118092
61.060 11.397485
61.065 11.350793
61.070 11.004079
61.075 10.754722
61.080 10.538258
61.085 10.065578
61.090 9.685075
61.095 9.866973
61.100 9.64295
61.105 9.823578
61.110 9.691184
61.115 10.140307
61.120 10.393723
61.125 10.984416
61.130 10.977853
61.135 10.874677
61.140 10.850189
61.145 11.153382
61.150 11.019453
61.155 10.596048
61.160 9.970516
61.165 10.037265
61.170 10.205561
61.175 9.935391
61.180 9.580517
61.185 9.811845
61.190 10.402767
61.195 10.557827
61.200 10.751686
61.205 11.281034
61.210 11.621691
61.215 11.688533
61.220 11.385933
61.225 11.588244
61.230 12.001739
61.235 11.760718
61.240 11.295176
61.245 11.506235
61.250 11.899688
61.255 12.060616
61.260 11.530007
61.265 10.729012
61.270 10.2448
61.275 10.578012
61.280 10.310257
61.285 9.802092
61.290 9.445342
61.295 9.692976
61.300 10.284948
61.305 10.57762
61.310 10.347018
61.315 10.299109
61.320 10.770979
61.325 11.130617
61.330 11.366747
61.335 11.126203
61.340 10.976051
61.345 10.961473
61.350 10.593223
61.355 10.151835
61.360 10.011114
61.365 9.735305
61.370 9.777852
61.375 9.94965
61.380 9.98944
61.385 10.391743
61.390 10.493989
61.395 10.5755
61.400 10.315724
61.405 9.64664
61.410 9.831154
61.415 10.028543
61.420 9.77383
61.425 9.418028
61.430 9.36915
61.435 9.329902
61.440 9.894206
61.445 9.663773
61.450 9.638028
61.455 9.707506
61.460 9.832838
61.465 9.939017
61.470 10.078563
61.475 9.899833
61.480 10.280817
61.485 10.50768
61.490 10.712455
61.495 10.499483
61.500 10.16823
61.505 10.263889
61.510 10.357047
61.515 9.528278
61.520 8.904352
61.525 8.861327
61.530 9.188817
61.535 9.42314
61.540 9.266018
61.545 9.345431
61.550 10.07139
61.555 10.695691
61.560 10.931725
61.565 11.216517
61.570 11.265725
61.575 12.159294
61.580 12.799953
61.585 13.064167
61.590 12.87512
61.595 13.024423
61.600 12.950678
61.605 12.975729
61.610 12.555583
61.615 11.515569
61.620 10.913305
61.625 10.748427
61.630 10.092244
61.635 9.502974
61.640 8.82905
61.645 8.635914
61.650 8.832232
61.655 8.696912
61.660 8.635346
61.665 8.89458
61.670 9.17831
61.675 9.399828
61.680 9.770815
61.685 10.088943
61.690 10.529028
61.695 10.710746
61.700 10.758046
61.705 10.956972
61.710 11.021106
61.715 10.543798
61.720 10.021421
61.725 9.652878
61.730 10.098562
61.735 10.445986
61.740 10.505485
61.745 10.30019
61.750 10.459536
61.755 11.187929
61.760 11.559888
61.765 11.026578
61.770 10.719623
61.775 11.124149
61.780 11.303583
61.785 10.889165
61.790 10.679123
61.795 10.510507
61.800 10.427774
61.805 9.916348
61.810 9.529227
61.815 9.421412
61.820 9.773786
61.825 9.682997
61.830 9.75739
61.835 10.093007
61.840 10.580016
61.845 10.465022
61.850 10.847377
61.855 10.833434
61.860 10.91503
61.865 11.105675
61.870 10.923617
61.875 11.415863
61.880 11.972376
61.885 11.61558
61.890 11.486604
61.895 11.368453
61.900 11.186531
61.905 11.242437
61.910 10.582445
61.915 10.235542
61.920 10.361073
61.925 10.236115
61.930 9.924361
61.935 9.572721
61.940 9.45835
61.945 9.377966
61.950 9.572538
61.955 9.678431
61.960 9.72225
61.965 9.792603
61.970 9.878894
61.975 10.121827
61.980 10.162225
61.985 10.103962
61.990 10.093306
61.995 10.341305
62.000 10.922235
62.005 10.971864
62.010 10.988055
62.015 10.96152
62.020 10.560019
62.025 10.437342
62.030 10.461107
62.035 10.342145
62.040 10.572685
62.045 10.516713
62.050 11.026996
62.055 11.493412
62.060 11.661537
62.065 11.595779
62.070 11.331526
62.075 11.357369
62.080 11.187534
62.085 10.613365
62.090 10.225555
62.095 9.940697
62.100 9.913319
62.105 9.745745
62.110 9.317241
62.115 9.203827
62.120 9.218634
62.125 9.396564
62.130 9.510487
62.135 9.105961
62.140 9.464653
62.145 9.968817
62.150 10.294203
62.155 10.977861
62.160 11.525069
62.165 11.852376
62.170 12.24946
62.175 12.331935
62.180 12.028745
62.185 11.913272
62.190 11.665977
62.195 11.896622
62.200 11.545384
62.205 10.873483
62.210 10.488724
62.215 10.478543
62.220 10.056825
62.225 9.45035
62.230 9.047003
62.235 9.291404
62.240 9.617899
62.245 10.08585
62.250 10.291857
62.255 10.548469
62.260 10.521469
62.265 10.081179
62.270 10.151709
62.275 10.112055
62.280 9.750731
62.285 9.88009
62.290 9.938564
62.295 10.181915
62.300 10.341866
62.305 10.241063
62.310 9.961843
62.315 9.986793
62.320 9.778938
62.325 9.530775
62.330 9.455398
62.335 8.988078
62.340 9.07208
62.345 9.429509
62.350 9.300501
62.355 9.191051
62.360 9.296556
62.365 9.309236
62.370 9.784249
62.375 9.967175
62.380 9.793245
62.385 10.004484
62.390 10.158175
62.395 10.476067
62.400 10.467668
62.405 10.901162
62.410 11.194672
62.415 11.555194
62.420 11.697297
62.425 11.535941
62.430 11.381671
62.435 11.724687
62.440 11.326584
62.445 11.4151
62.450 11.694489
62.455 12.08567
62.460 12.507071
62.465 12.656207
62.470 12.435211
62.475 12.495159
62.480 11.608746
62.485 10.828817
62.490 10.172694
62.495 10.077225
62.500 10.284286
62.505 10.38233
62.510 10.24828
62.515 10.724324
62.520 11.286398
62.525 11.401455
62.530 11.174418
62.535 10.854421
62.540 10.524074
62.545 10.590651
62.550 10.687128
62.555 10.21091
62.560 9.892178
62.565 9.622512
62.570 9.674096
62.575 9.793901
62.580 9.804399
62.585 9.88628
62.590 10.111407
62.595 10.258873
62.600 10.566718
62.605 11.131261
62.610 11.372858
62.615 11.312654
62.620 11.109048
62.625 10.920412
62.630 10.767752
62.635 11.492433
62.640 11.251217
62.645 10.937085
62.650 11.319594
62.655 11.475974
62.660 11.854767
62.665 12.234916
62.670 11.771646
62.675 11.687715
62.680 11.697089
62.685 11.59709
62.690 11.615362
62.695 11.416708
62.700 11.442051
62.705 11.200939
62.710 11.052824
62.715 11.195112
62.720 11.119174
62.725 11.254642
62.730 11.674561
62.735 11.602584
62.740 11.752504
62.745 11.971516
62.750 11.758987
62.755 11.381776
62.760 10.60864
62.765 10.521014
62.770 10.151732
62.775 9.661448
62.780 9.276306
62.785 9.061318
62.790 9.269649
62.795 9.601763
62.800 9.62315
62.805 10.161855
62.810 10.462867
62.815 10.734811
62.820 11.357881
62.825 11.590544
62.830 11.599424
62.835 11.27017
62.840 11.335711
62.845 11.321358
62.850 11.621369
62.855 11.310493
62.860 11.494078
62.865 11.670091
62.870 11.274883
62.875 10.932352
62.880 10.834494
62.885 10.333442
62.890 10.428001
62.895 10.629434
62.900 10.710802
62.905 11.063989
62.910 10.781103
62.915 10.982851
62.920 11.22247
62.925 11.175402
62.930 10.801137
62.935 10.634326
62.940 10.957515
62.945 11.267679
62.950 11.080395
62.955 10.818542
62.960 10.44719
62.965 10.281379
62.970 10.775055
62.975 11.02615
62.980 11.330801
62.985 11.838241
62.990 12.300931
62.995 12.745827
63.000 13.101744
63.005 13.145561
63.010 12.938856
63.015 12.952004
63.020 12.962516
63.025 12.672079
63.030 12.385343
63.035 12.004542
63.040 11.901574
63.045 11.499301
63.050 10.785425
63.055 10.278692
63.060 10.569338
63.065 10.651039
63.070 10.562898
63.075 10.782145
63.080 11.156322
63.085 11.484763
63.090 11.757553
63.095 11.832559
63.100 11.751669
63.105 11.835207
63.110 11.44265
63.115 11.274631
63.120 11.367905
63.125 10.930555
63.130 10.313713
63.135 10.207133
63.140 9.865978
63.145 9.715104
63.150 9.756759
63.155 9.660203
63.160 9.944368
63.165 10.166038
63.170 10.548445
63.175 10.830517
63.180 11.177514
63.185 11.073158
63.190 11.21668
63.195 11.055226
63.200 11.138099
63.205 10.909549
63.210 10.926858
63.215 10.837915
63.220 11.143301
63.225 11.286402
63.230 11.558102
63.235 11.882316
63.240 12.060017
63.245 11.685066
63.250 11.317841
63.255 11.124466
63.260 10.966719
63.265 10.808773
63.270 10.612948
63.275 10.548481
63.280 11.270804
63.285 12.0373
63.290 12.098694
63.295 12.264674
63.300 12.273243
63.305 12.47227
63.310 12.511312
63.315 12.196393
63.320 11.764997
63.325 11.507833
63.330 11.328502
63.335 11.004525
63.340 10.529888
63.345 10.286275
63.350 9.956763
63.355 10.071856
63.360 10.383058
63.365 10.408761
63.370 10.891581
63.375 11.328459
63.380 11.687185
63.385 11.947348
63.390 11.528561
63.395 11.81133
63.400 12.289402
63.405 12.4102
63.410 12.428614
63.415 12.119351
63.420 12.233075
63.425 12.412201
63.430 12.223713
63.435 11.923641
63.440 11.694588
63.445 12.036573
63.450 11.974669
63.455 11.700256
63.460 12.326802
63.465 12.098387
63.470 12.404264
63.475 13.043096
63.480 12.484641
63.485 12.296868
63.490 12.444668
63.495 11.768537
63.500 12.093833
63.505 11.743945
63.510 11.359164
63.515 11.580865
63.520 11.886686
63.525 12.103741
63.530 11.875533
63.535 11.832952
63.540 11.643686
63.545 11.356227
63.550 11.32773
63.555 11.244745
63.560 11.231277
63.565 11.295043
63.570 11.113179
63.575 11.619422
63.580 12.109308
63.585 12.137553
63.590 12.280014
63.595 12.091723
63.600 12.343859
63.605 12.744446
63.610 12.332721
63.615 11.963693
63.620 12.064876
63.625 11.878955
63.630 12.033979
63.635 11.606414
63.640 11.194632
63.645 11.664659
63.650 11.682811
63.655 11.593964
63.660 11.870301
63.665 11.983991
63.670 12.589466
63.675 12.844023
63.680 12.567197
63.685 12.527531
63.690 12.482566
63.695 12.52901
63.700 12.124574
63.705 11.596163
63.710 11.727706
63.715 12.15556
63.720 12.334364
63.725 11.921847
63.730 11.648117
63.735 11.994479
63.740 12.147095
63.745 11.915425
63.750 11.517791
63.755 11.62847
63.760 11.804804
63.765 11.814835
63.770 11.588041
63.775 11.570407
63.780 11.383423
63.785 11.424803
63.790 11.656255
63.795 11.815579
63.800 11.717566
63.805 11.784583
63.810 11.737793
63.815 12.197783
63.820 12.270846
63.825 12.157305
63.830 12.543165
63.835 13.213536
63.840 13.78714
63.845 14.100163
63.850 14.262897
63.855 14.37944
63.860 14.429062
63.865 14.686728
63.870 14.750759
63.875 14.605597
63.880 14.792336
63.885 14.698565
63.890 14.637136
63.895 14.626065
63.900 14.171947
63.905 13.662202
63.910 13.585134
63.915 13.041278
63.920 12.372753
63.925 12.432481
63.930 12.159334
63.935 12.263076
63.940 12.169087
63.945 11.952733
63.950 12.334517
63.955 12.956548
63.960 13.72504
63.965 14.133714
63.970 14.336944
63.975 14.291873
63.980 14.259556
63.985 14.624237
63.990 14.982557
63.995 15.121062
64.000 15.486269
64.005 16.062843
64.010 17.40926
64.015 18.743378
64.020 19.355867
64.025 19.302479
64.030 19.210899
64.035 19.60626
64.040 19.734913
64.045 19.547649
64.050 19.700161
64.055 19.087456
64.060 18.699711
64.065 18.342749
64.070 18.009403
64.075 17.885557
64.080 17.533867
64.085 16.983679
64.090 16.965506
64.095 17.504133
64.100 18.178396
64.105 17.990242
64.110 18.14555
64.115 18.217615
64.120 18.941435
64.125 19.062593
64.130 18.832932
64.135 18.486904
64.140 19.026054
64.145 19.566263
64.150 20.344776
64.155 20.424915
64.160 20.616123
64.165 20.912529
64.170 21.540642
64.175 21.140778
64.180 20.441919
64.185 20.171545
64.190 20.268929
64.195 20.821905
64.200 20.377634
64.205 19.818167
64.210 20.331966
64.215 20.414822
64.220 20.251642
64.225 19.971212
64.230 19.743879
64.235 20.52107
64.240 20.541531
64.245 20.486099
64.250 20.826223
64.255 20.991348
64.260 21.562769
64.265 21.038729
64.270 20.303207
64.275 20.44853
64.280 20.110767
64.285 19.555958
64.290 19.373795
64.295 19.02371
64.300 18.889072
64.305 18.640726
64.310 18.29097
64.315 18.415468
64.320 18.441626
64.325 18.144726
64.330 18.290863
64.335 18.700851
64.340 19.150328
64.345 19.377106
64.350 19.753025
64.355 20.186064
64.360 19.763371
64.365 19.639475
64.370 19.774696
64.375 19.5928
64.380 18.847994
64.385 17.857332
64.390 17.100843
64.395 17.359198
64.400 17.175724
64.405 17.190374
64.410 17.392162
64.415 18.02807
64.420 18.223486
64.425 18.084494
64.430 17.717863
64.435 17.229937
64.440 16.461462
64.445 16.201822
64.450 16.412319
64.455 16.775814
64.460 17.521595
64.465 18.26235
64.470 19.24929
64.475 19.738031
64.480 19.780136
64.485 19.345547
64.490 19.187504
64.495 18.61628
64.500 18.184732
64.505 17.603439
64.510 17.246473
64.515 16.748074
64.520 16.503149
64.525 16.128174
64.530 16.000055
64.535 15.009383
64.540 14.535183
64.545 14.00832
64.550 13.895705
64.555 14.262252
64.560 14.351683
64.565 14.152752
64.570 14.454083
64.575 14.185606
64.580 15.365423
64.585 15.766118
64.590 15.238688
64.595 14.518642
64.600 14.552311
64.605 14.498558
64.610 14.455912
64.615 14.228108
64.620 13.84767
64.625 13.674119
64.630 13.920308
64.635 13.656454
64.640 14.335473
64.645 14.376286
64.650 13.757895
64.655 13.781787
64.660 13.599359
64.665 13.761511
64.670 14.169638
64.675 13.568786
64.680 13.202635
64.685 13.046206
64.690 12.52682
64.695 12.694682
64.700 13.145868
64.705 12.737617
64.710 13.287344
64.715 13.940175
64.720 13.607429
64.725 14.338169
64.730 14.767449
64.735 14.550402
64.740 14.414128
64.745 14.090281
64.750 13.910646
64.755 14.182762
64.760 14.046599
64.765 14.113986
64.770 14.390427
64.775 14.407121
64.780 13.885489
64.785 13.778153
64.790 13.66395
64.795 13.610374
64.800 13.17948
64.805 12.509275
64.810 12.834298
64.815 13.779327
64.820 13.933542
64.825 14.475094
64.830 14.247714
64.835 14.267397
64.840 14.688755
64.845 13.983829
64.850 13.135232
64.855 12.730438
64.860 12.295975
64.865 12.351467
64.870 12.066142
64.875 12.150228
64.880 12.241687
64.885 12.167989
64.890 12.604782
64.895 13.232293
64.900 13.397219
64.905 13.876363
64.910 13.390898
64.915 13.359774
64.920 13.790586
64.925 13.589693
64.930 13.404513
64.935 13.314022
64.940 13.060004
64.945 13.384589
64.950 13.604452
64.955 13.145858
64.960 13.083059
64.965 13.158167
64.970 13.524259
64.975 13.40063
64.980 13.368813
64.985 14.033815
64.990 14.444618
64.995 14.456961
65.000 14.033883
65.005 13.596483
65.010 13.816502
65.015 13.500963
65.020 12.970999
65.025 13.132993
65.030 12.759182
65.035 12.749625
65.040 13.086273
65.045 13.513839
65.050 13.887521
65.055 13.859105
65.060 13.911469
65.065 14.514694
65.070 14.796973
65.075 14.929405
65.080 14.982201
65.085 14.873652
65.090 15.2411
65.095 15.090625
65.100 15.108048
65.105 14.989269
65.110 14.450541
65.115 14.178242
65.120 13.632583
65.125 13.096041
65.130 13.18259
65.135 13.188004
65.140 13.632309
65.145 13.51577
65.150 13.838628
65.155 14.29064
65.160 14.155012
65.165 14.295643
65.170 14.624854
65.175 14.304081
65.180 14.505099
65.185 14.494077
65.190 15.020674
65.195 14.62459
65.200 14.065983
65.205 13.957567
65.210 13.880911
65.215 13.898666
65.220 13.664788
65.225 13.377038
65.230 14.346645
65.235 14.623672
65.240 14.571711
65.245 14.478404
65.250 14.149298
65.255 14.100892
65.260 13.852236
65.265 13.520199
65.270 13.338442
65.275 12.844875
65.280 13.072067
65.285 13.047702
65.290 12.810061
65.295 12.954734
65.300 13.248187
65.305 13.277399
65.310 13.370201
65.315 13.76903
65.320 13.86181
65.325 14.236866
65.330 14.311976
65.335 14.425812
65.340 14.61345
65.345 14.339754
65.350 13.801195
65.355 13.908176
65.360 13.360158
65.365 12.972758
65.370 12.137167
65.375 11.729341
65.380 11.478696
65.385 11.593472
65.390 11.531237
65.395 11.702969
65.400 12.146754
65.405 11.992766
65.410 12.408072
65.415 13.255309
65.420 13.585032
65.425 13.688679
65.430 13.546509
65.435 13.696282
65.440 14.234217
65.445 13.715935
65.450 13.258737
65.455 13.133952
65.460 13.600486
65.465 13.88366
65.470 13.376606
65.475 13.452008
65.480 14.03231
65.485 14.244968
65.490 14.441452
65.495 14.251097
65.500 14.582013
65.505 14.925516
65.510 15.429773
65.515 15.439694
65.520 15.366268
65.525 14.809408
65.530 14.864898
65.535 14.628217
65.540 14.493223
65.545 14.070172
65.550 14.45228
65.555 14.715989
65.560 15.059282
65.565 14.719521
65.570 14.647576
65.575 14.563004
65.580 14.551329
65.585 14.354496
65.590 14.807175
65.595 14.738931
65.600 15.434277
65.605 16.052591
65.610 16.561495
65.615 17.174788
65.620 17.216631
65.625 17.590065
65.630 17.998243
65.635 17.450197
65.640 17.457077
65.645 17.732529
65.650 17.818666
65.655 17.923971
65.660 17.776972
65.665 17.941872
65.670 18.40909
65.675 18.528971
65.680 18.287548
65.685 17.784588
65.690 17.535324
65.695 17.925331
65.700 18.128592
65.705 18.006077
65.710 18.269741
65.715 18.299034
65.720 18.717855
65.725 18.582983
65.730 18.523165
65.735 18.863897
65.740 18.812828
65.745 18.361481
65.750 18.530071
65.755 19.126934
65.760 19.659351
65.765 18.911222
65.770 18.786713
65.775 19.56918
65.780 20.181738
65.785 20.809027
65.790 21.144279
65.795 21.527479
65.800 22.221441
65.805 22.45014
65.810 22.196304
65.815 22.591652
65.820 22.701756
65.825 22.126659
65.830 21.59001
65.835 21.53652
65.840 21.411146
65.845 20.976793
65.850 20.365744
65.855 20.295053
65.860 20.830463
65.865 21.285513
65.870 21.144539
65.875 21.234869
65.880 22.101057
65.885 22.074278
65.890 21.897747
65.895 21.215681
65.900 21.14835
65.905 21.551418
65.910 21.573191
65.915 21.337093
65.920 21.769136
65.925 21.812656
65.930 21.499907
65.935 21.476337
65.940 21.612082
65.945 21.564783
65.950 21.303648
65.955 20.839293
65.960 20.940075
65.965 21.754122
65.970 21.935024
65.975 21.302961
65.980 21.200808
65.985 21.428732
65.990 21.740114
65.995 21.62244
66.000 21.545826
66.005 21.200287
66.010 21.203533
66.015 20.723251
66.020 20.739107
66.025 20.849852
66.030 21.082853
66.035 21.288532
66.040 21.412123
66.045 21.74205
66.050 21.830452
66.055 21.42627
66.060 21.288616
66.065 21.827404
66.070 21.685389
66.075 21.76631
66.080 21.356544
66.085 21.399784
66.090 21.943949
66.095 21.969711
66.100 20.854403
66.105 20.257929
66.110 19.615744
66.115 19.588076
66.120 19.083582
66.125 18.273304
66.130 18.066019
66.135 18.260189
66.140 18.269857
66.145 18.037798
66.150 17.812233
66.155 17.708832
66.160 17.536289
66.165 17.399628
66.170 17.427999
66.175 17.500257
66.180 17.735407
66.185 17.70599
66.190 18.013155
66.195 18.028111
66.200 18.013407
66.205 17.190844
66.210 16.799471
66.215 17.347485
66.220 17.645485
66.225 17.205099
66.230 17.499399
66.235 17.398516
66.240 17.54553
66.245 18.159054
66.250 17.412422
66.255 17.473057
66.260 17.577562
66.265 17.220594
66.270 17.089455
66.275 17.360062
66.280 16.914705
66.285 16.328922
66.290 15.848574
66.295 16.040295
66.300 16.081152
66.305 16.056862
66.310 15.67079
66.315 15.704181
66.320 16.674622
66.325 16.570198
66.330 16.191896
66.335 16.016203
66.340 15.493557
66.345 15.17874
66.350 14.447695
66.355 14.065473
66.360 13.973822
66.365 13.79021
66.370 13.504911
66.375 13.818398
66.380 14.186141
66.385 14.692863
66.390 14.387692
66.395 14.394228
66.400 14.568781
66.405 15.253574
66.410 15.19488
66.415 14.603925
66.420 14.55652
66.425 14.418106
66.430 14.388631
66.435 14.2509
66.440 13.766799
66.445 13.428273
66.450 13.222886
66.455 12.757375
66.460 12.4231
66.465 12.117868
66.470 11.744337
66.475 11.425847
66.480 11.458901
66.485 11.841031
66.490 11.998348
66.495 12.399613
66.500 12.574531
66.505 12.27142
66.510 12.224807
66.515 12.590405
66.520 12.474451
66.525 12.313787
66.530 12.139133
66.535 12.709032
66.540 13.434308
66.545 13.446627
66.550 13.089321
66.555 13.258115
66.560 13.384531
66.565 13.729839
66.570 13.2948
66.575 12.848322
66.580 12.817117
66.585 12.411309
66.590 12.684011
66.595 12.71391
66.600 12.376625
66.605 12.117859
66.610 11.811834
66.615 11.246635
66.620 11.141563
66.625 10.986285
66.630 11.079723
66.635 11.3998
66.640 11.413621
66.645 11.460408
66.650 11.591611
66.655 11.910458
66.660 11.792561
66.665 11.931963
66.670 11.712439
66.675 11.851719
66.680 12.065757
66.685 12.333472
66.690 12.255047
66.695 11.995256
66.700 11.338682
66.705 11.437405
66.710 11.660287
66.715 11.99436
66.720 12.370898
66.725 12.434511
66.730 12.127022
66.735 12.106777
66.740 11.936083
66.745 11.743318
66.750 11.957928
66.755 11.808669
66.760 11.788591
66.765 12.161481
66.770 12.244714
66.775 12.311512
66.780 12.131785
66.785 11.87716
66.790 11.801751
66.795 11.521742
66.800 11.428218
66.805 11.656379
66.810 11.219781
66.815 10.941092
66.820 10.544641
66.825 10.574692
66.830 10.713549
66.835 10.977752
66.840 10.859083
66.845 11.241837
66.850 11.394158
66.855 11.331826
66.860 11.77509
66.865 11.998744
66.870 11.971884
66.875 11.788917
66.880 11.964731
66.885 12.425089
66.890 12.222071
66.895 11.56922
66.900 11.653687
66.905 11.612716
66.910 11.859504
66.915 11.559759
66.920 11.253668
66.925 12.091525
66.930 12.168424
66.935 11.985629
66.940 11.910469
66.945 11.621673
66.950 11.601308
66.955 11.52463
66.960 11.603633
66.965 11.991048
66.970 11.853271
66.975 11.843828
66.980 12.115957
66.985 12.321185
66.990 12.132314
66.995 11.626657
67.000 11.208252
67.005 11.379372
67.010 11.515008
67.015 11.540824
67.020 11.743192
67.025 11.895228
67.030 12.250262
67.035 12.290812
67.040 12.12581
67.045 12.297376
67.050 12.401105
67.055 12.335521
67.060 12.113457
67.065 12.051212
67.070 12.349811
67.075 12.503306
67.080 12.293448
67.085 11.983958
67.090 12.039371
67.095 12.058882
67.100 12.302665
67.105 12.227644
67.110 12.339007
67.115 12.320753
67.120 12.202128
67.125 12.372464
67.130 12.284581
67.135 11.789849
67.140 11.68139
67.145 11.411434
67.150 11.38486
67.155 11.239601
67.160 11.667892
67.165 11.938873
67.170 12.070819
67.175 12.004304
67.180 12.435506
67.185 12.522109
67.190 12.841445
67.195 12.089871
67.200 12.000867
67.205 12.105363
67.210 11.768236
67.215 11.468441
67.220 11.656862
67.225 11.789401
67.230 11.874825
67.235 11.656185
67.240 12.030643
67.245 12.74855
67.250 12.516662
67.255 12.151332
67.260 12.133709
67.265 12.820275
67.270 13.117428
67.275 12.494064
67.280 12.169731
67.285 12.16304
67.290 11.988076
67.295 11.804291
67.300 11.104596
67.305 10.924183
67.310 11.161531
67.315 11.136044
67.320 11.72579
67.325 11.913353
67.330 12.002728
67.335 11.807282
67.340 11.668004
67.345 11.67223
67.350 11.765346
67.355 11.568702
67.360 11.573561
67.365 11.454297
67.370 11.84132
67.375 12.363904
67.380 11.834462
67.385 11.909226
67.390 12.00343
67.395 11.944621
67.400 11.81348
67.405 11.865606
67.410 12.072069
67.415 12.52752
67.420 12.351958
67.425 12.722896
67.430 12.9198
67.435 13.048697
67.440 12.81676
67.445 12.657009
67.450 12.952739
67.455 12.871736
67.460 12.380695
67.465 12.16994
67.470 12.007211
67.475 11.678179
67.480 11.44278
67.485 11.327412
67.490 11.18581
67.495 11.306129
67.500 11.915213
67.505 11.95063
67.510 11.913013
67.515 11.928536
67.520 11.900299
67.525 12.055989
67.530 11.582868
67.535 11.15835
67.540 11.05973
67.545 11.147152
67.550 11.351168
67.555 11.554224
67.560 12.107776
67.565 12.237362
67.570 12.102918
67.575 12.193428
67.580 12.344798
67.585 11.928596
67.590 11.5276
67.595 11.356959
67.600 11.543229
67.605 11.858365
67.610 12.049649
67.615 12.357048
67.620 12.860655
67.625 12.914858
67.630 12.983874
67.635 13.058904
67.640 12.992323
67.645 12.777683
67.650 12.729238
67.655 12.502837
67.660 12.152162
67.665 11.576525
67.670 11.276145
67.675 11.343807
67.680 11.151803
67.685 11.241368
67.690 11.452561
67.695 11.496302
67.700 11.788239
67.705 12.019356
67.710 12.22646
67.715 12.583741
67.720 12.121313
67.725 12.199195
67.730 12.547378
67.735 12.915767
67.740 12.918033
67.745 12.625522
67.750 12.256864
67.755 12.171576
67.760 12.724695
67.765 12.700699
67.770 12.376966
67.775 12.44908
67.780 12.633236
67.785 12.686208
67.790 12.975335
67.795 12.962445
67.800 12.599394
67.805 12.028768
67.810 12.045092
67.815 12.179853
67.820 12.24722
67.825 11.907108
67.830 11.468981
67.835 11.988266
67.840 12.575154
67.845 12.24405
67.850 12.256171
67.855 12.166286
67.860 12.098071
67.865 12.135135
67.870 12.224399
67.875 12.362432
67.880 12.390732
67.885 12.26182
67.890 12.027082
67.895 11.836643
67.900 11.82466
67.905 11.937898
67.910 11.99008
67.915 12.10135
67.920 12.03785
67.925 12.346334
67.930 12.686901
67.935 13.011928
67.940 12.849492
67.945 13.386176
67.950 13.594176
67.955 13.603962
67.960 13.116945
67.965 13.36609
67.970 13.392759
67.975 13.798664
67.980 13.143359
67.985 13.122471
67.990 13.47555
67.995 13.472397
68.000 12.586643
68.005 11.691405
68.010 11.325687
68.015 11.31577
68.020 11.062974
68.025 10.918918
68.030 11.342107
68.035 11.824091
68.040 12.205061
68.045 11.61539
68.050 12.283339
68.055 12.497044
68.060 12.597954
68.065 12.323971
68.070 13.003236
68.075 13.410505
68.080 13.637428
68.085 13.587511
68.090 13.535281
68.095 13.711645
68.100 13.88094
68.105 13.276113
68.110 13.182936
68.115 13.519946
68.120 12.797076
68.125 12.112665
68.130 12.028916
68.135 12.126759
68.140 11.831066
68.145 11.592251
68.150 11.320751
68.155 11.721139
68.160 12.434712
68.165 12.631472
68.170 12.400126
68.175 12.508412
68.180 12.6409
68.185 12.464194
68.190 12.524921
68.195 12.241865
68.200 12.805779
68.205 13.123758
68.210 13.42802
68.215 13.25833
68.220 13.650235
68.225 13.591355
68.230 13.095574
68.235 12.405979
68.240 12.579488
68.245 12.585066
68.250 12.21892
68.255 11.597157
68.260 12.139732
68.265 12.586254
68.270 12.88853
68.275 12.623912
68.280 12.426638
68.285 12.578032
68.290 12.743044
68.295 12.562433
68.300 12.538179
68.305 12.051986
68.310 12.01182
68.315 12.104107
68.320 12.12166
68.325 12.214749
68.330 12.078235
68.335 11.787276
68.340 11.617432
68.345 11.348126
68.350 10.985461
68.355 11.199976
68.360 11.568839
68.365 11.852282
68.370 12.020606
68.375 12.23517
68.380 12.00369
68.385 12.225088
68.390 11.918053
68.395 11.47067
68.400 11.173612
68.405 10.894979
68.410 10.562162
68.415 10.908653
68.420 11.59557
68.425 11.81264
68.430 11.985239
68.435 12.038578
68.440 12.915381
68.445 13.558088
68.450 14.075534
68.455 13.998798
68.460 13.829846
68.465 13.707966
68.470 13.602275
68.475 13.194056
68.480 12.980734
68.485 11.957192
68.490 11.640489
68.495 11.693563
68.500 11.607288
68.505 11.760974
68.510 11.603773
68.515 11.82792
68.520 12.531179
68.525 12.814503
68.530 12.729397
68.535 12.920648
68.540 13.545287
68.545 13.614104
68.550 13.613927
68.555 13.77983
68.560 14.107895
68.565 14.352479
68.570 14.523579
68.575 14.345164
68.580 14.594168
68.585 14.453847
68.590 14.720058
68.595 14.357244
68.600 14.465895
68.605 14.203109
68.610 14.006536
68.615 14.174616
68.620 14.343314
68.625 13.587436
68.630 13.77169
68.635 13.504336
68.640 13.110986
68.645 12.634759
68.650 12.504748
68.655 12.506618
68.660 12.538594
68.665 12.214843
68.670 12.418485
68.675 12.614023
68.680 12.725631
68.685 12.880569
68.690 12.752579
68.695 12.703522
68.700 13.170083
68.705 13.670169
68.710 14.437838
68.715 14.449262
68.720 14.27048
68.725 14.72728
68.730 15.365101
68.735 15.110425
68.740 14.980028
68.745 14.91684
68.750 15.193132
68.755 15.405938
68.760 15.717186
68.765 15.842653
68.770 16.369427
68.775 16.265654
68.780 16.435163
68.785 16.623348
68.790 16.750124
68.795 16.021139
68.800 15.993611
68.805 16.019699
68.810 16.378397
68.815 16.159824
68.820 16.247255
68.825 16.095072
68.830 16.194532
68.835 15.476029
68.840 14.872486
68.845 14.572616
68.850 15.172181
68.855 15.281266
68.860 15.181474
68.865 15.287602
68.870 16.235165
68.875 16.629194
68.880 16.284821
68.885 15.963108
68.890 15.939925
68.895 16.681108
68.900 17.510513
68.905 16.821905
68.910 16.87422
68.915 17.255871
68.920 17.318119
68.925 17.189005
68.930 17.259727
68.935 17.394493
68.940 17.930367
68.945 18.27277
68.950 18.584557
68.955 18.286892
68.960 18.650587
68.965 18.157257
68.970 18.376669
68.975 18.914183
68.980 18.794048
68.985 19.263008
68.990 20.314875
68.995 20.408049
69.000 21.078663
69.005 21.038328
69.010 20.992968
69.015 20.682205
69.020 20.215712
69.025 19.937584
69.030 20.01329
69.035 19.857666
69.040 20.380634
69.045 20.159229
69.050 20.314646
69.055 20.202551
69.060 19.580944
69.065 19.219229
69.070 19.112635
69.075 19.093868
69.080 19.532574
69.085 19.430828
69.090 19.400557
69.095 19.805689
69.100 20.567461
69.105 20.756691
69.110 20.12887
69.115 20.109516
69.120 20.20509
69.125 20.582117
69.130 19.958487
69.135 19.370642
69.140 19.014959
69.145 19.53109
69.150 20.089058
69.155 20.462307
69.160 20.426744
69.165 20.927807
69.170 20.849363
69.175 21.384495
69.180 21.570982
69.185 20.880724
69.190 20.533777
69.195 20.701719
69.200 21.067179
69.205 20.989838
69.210 20.384855
69.215 20.420082
69.220 20.763599
69.225 20.411308
69.230 20.303919
69.235 19.880545
69.240 19.953161
69.245 20.2043
69.250 19.784489
69.255 19.300417
69.260 19.831354
69.265 20.288633
69.270 20.251938
69.275 19.978056
69.280 19.328686
69.285 19.397543
69.290 19.034561
69.295 17.978062
69.300 17.364599
69.305 17.359701
69.310 17.379433
69.315 16.721069
69.320 16.34004
69.325 16.523148
69.330 16.754261
69.335 16.890404
69.340 16.846058
69.345 16.696148
69.350 17.241196
69.355 16.995037
69.360 17.085814
69.365 16.762522
69.370 16.25279
69.375 15.941855
69.380 15.899614
69.385 16.203037
69.390 17.424299
69.395 17.384338
69.400 17.324175
69.405 17.021532
69.410 17.253292
69.415 17.066734
69.420 16.17907
69.425 15.355579
69.430 15.136823
69.435 14.825856
69.440 15.392133
69.445 15.159492
69.450 15.247196
69.455 15.093969
69.460 15.274449
69.465 15.309115
69.470 15.21623
69.475 14.687194
69.480 14.644609
69.485 14.329816
69.490 13.967106
69.495 13.256813
69.500 13.530225
69.505 13.49913
69.510 13.670573
69.515 13.909351
69.520 14.260313
69.525 14.570043
69.530 14.891317
69.535 14.994243
69.540 15.423084
69.545 15.170798
69.550 15.157576
69.555 15.153587
69.560 15.119687
69.565 15.164726
69.570 15.327388
69.575 15.130087
69.580 15.105171
69.585 14.768907
69.590 14.467382
69.595 14.335079
69.600 14.134485
69.605 13.535539
69.610 13.585135
69.615 13.578025
69.620 13.169704
69.625 13.025357
69.630 12.900315
69.635 13.455819
69.640 13.571146
69.645 13.360627
69.650 13.216362
69.655 13.491464
69.660 13.64359
69.665 13.155396
69.670 12.702014
69.675 12.886489
69.680 12.79296
69.685 13.320968
69.690 12.858462
69.695 12.850095
69.700 13.636964
69.705 13.571043
69.710 13.228402
69.715 13.268016
69.720 12.93821
69.725 13.209571
69.730 12.597502
69.735 11.837375
69.740 11.770179
69.745 12.140932
69.750 12.392927
69.755 12.133601
69.760 12.645657
69.765 13.484252
69.770 13.667527
69.775 13.748644
69.780 13.604429
69.785 13.262843
69.790 13.206105
69.795 13.049826
69.800 13.159316
69.805 12.982902
69.810 12.450445
69.815 12.165067
69.820 12.469799
69.825 13.060936
69.830 13.017834
69.835 12.939112
69.840 13.130212
69.845 13.468498
69.850 13.390849
69.855 13.263568
69.860 12.164557
69.865 11.854257
69.870 11.417138
69.875 11.508113
69.880 11.59711
69.885 11.640242
69.890 11.654094
69.895 11.890907
69.900 12.15891
69.905 12.565745
69.910 12.711121
69.915 12.563132
69.920 12.911038
69.925 13.071198
69.930 13.536899
69.935 13.394338
69.940 13.182979
69.945 13.476903
69.950 13.900351
69.955 13.529744
69.960 13.291017
69.965 13.647837
69.970 13.531891
69.975 12.872994
69.980 12.209022
69.985 11.968795
69.990 12.671219
69.995 12.723766
70.000 11.897933
70.005 11.686658
70.010 11.605966
70.015 11.459473
70.020 11.214606
70.025 11.112447
70.030 11.051781
70.035 10.863319
70.040 11.280478
70.045 11.747268
70.050 12.058297
70.055 12.13451
70.060 11.518727
70.065 11.877073
70.070 12.65122
70.075 12.606157
70.080 12.50458
70.085 12.201297
70.090 12.068393
70.095 12.447596
70.100 12.300006
70.105 11.88695
70.110 11.998118
70.115 12.353463
70.120 12.222805
70.125 12.02016
70.130 12.14702
70.135 12.302447
70.140 12.444527
70.145 12.450044
70.150 12.680636
70.155 13.042789
70.160 13.555876
70.165 13.166533
70.170 12.980506
70.175 13.211363
70.180 13.380381
70.185 13.108255
70.190 12.962267
70.195 12.829357
70.200 12.755955
70.205 12.13751
70.210 11.477199
70.215 11.050412
70.220 11.147
70.225 11.296554
70.230 10.98112
70.235 10.959784
70.240 11.320319
70.245 11.308491
70.250 11.340778
70.255 11.304716
70.260 10.813562
70.265 10.887145
70.270 11.282529
70.275 11.514405
70.280 11.988097
70.285 12.057425
70.290 12.19879
70.295 12.587099
70.300 12.640938
70.305 12.60859
70.310 12.161521
70.315 12.056471
70.320 12.707753
70.325 13.117602
70.330 13.05757
70.335 13.174594
70.340 13.396115
70.345 13.751222
70.350 13.42878
70.355 12.819368
70.360 13.084077
70.365 13.133993
70.370 12.880555
70.375 13.009645
70.380 12.975819
70.385 13.28351
70.390 13.195397
70.395 12.431203
70.400 12.489527
70.405 12.468369
70.410 12.417185
70.415 11.984894
70.420 11.695346
70.425 11.729854
70.430 11.70415
70.435 11.586694
70.440 11.524222
70.445 11.157953
70.450 11.726847
70.455 11.792727
70.460 11.401264
70.465 11.651487
70.470 11.21721
70.475 11.127649
70.480 11.57721
70.485 11.369166
70.490 11.282081
70.495 11.983331
70.500 12.201365
70.505 12.331678
70.510 12.430279
70.515 12.458022
70.520 12.124837
70.525 12.099138
70.530 11.222853
70.535 10.923851
70.540 11.104813
70.545 11.390924
70.550 11.716928
70.555 11.756284
70.560 11.962351
70.565 12.351537
70.570 12.67742
70.575 12.93395
70.580 12.700106
70.585 12.265974
70.590 12.029419
70.595 11.993463
70.600 12.002258
70.605 11.880487
70.610 11.448904
70.615 11.428225
70.620 11.930103
70.625 12.441747
70.630 12.221948
70.635 11.959619
70.640 11.634452
70.645 11.783201
70.650 11.973602
70.655 11.993629
70.660 12.184389
70.665 12.457332
70.670 12.391034
70.675 12.168118
70.680 11.802796
70.685 11.720009
70.690 12.447185
70.695 12.693905
70.700 12.60932
70.705 13.420742
70.710 13.908404
70.715 13.597968
70.720 13.279512
70.725 12.679415
70.730 12.341894
70.735 12.095991
70.740 11.497281
70.745 11.344874
70.750 11.710122
70.755 11.244976
70.760 11.128149
70.765 11.034626
70.770 11.455882
70.775 11.722945
70.780 11.858199
70.785 11.324463
70.790 10.717173
70.795 10.571776
70.800 10.674157
70.805 10.05075
70.810 9.514472
70.815 9.369154
70.820 10.114452
70.825 10.582118
70.830 10.451294
70.835 10.929894
70.840 11.187081
70.845 11.380143
70.850 11.489261
70.855 11.214932
70.860 11.529034
70.865 11.276774
70.870 10.787458
70.875 10.668234
70.880 10.438206
70.885 10.678302
70.890 10.683395
70.895 10.659718
70.900 10.888595
70.905 11.182891
70.910 11.984546
70.915 12.279696
70.920 12.661952
70.925 12.576832
70.930 12.587989
70.935 12.755143
70.940 12.66906
70.945 12.278429
70.950 11.946045
70.955 11.243488
70.960 11.159301
70.965 10.978637
70.970 10.630684
70.975 10.918032
70.980 11.217033
70.985 11.883839
70.990 12.122873
70.995 12.443137
71.000 12.860626
71.005 13.018397
71.010 12.320203
71.015 12.057754
71.020 11.963919
71.025 11.528509
71.030 11.303872
71.035 11.175787
71.040 11.363426
71.045 11.792842
71.050 11.636106
71.055 11.569592
71.060 11.681376
71.065 11.77276
71.070 11.402039
71.075 11.057985
71.080 10.918683
71.085 11.080736
71.090 11.325871
71.095 11.370621
71.100 11.413487
71.105 11.829578
71.110 12.146386
71.115 12.031929
71.120 12.226181
71.125 12.205073
71.130 12.322191
71.135 11.798802
71.140 11.651317
71.145 11.287302
71.150 11.285531
71.155 11.590837
71.160 11.442257
71.165 11.481414
71.170 12.070002
71.175 12.028016
71.180 12.204538
71.185 12.304516
71.190 12.031253
71.195 11.791614
71.200 11.643785
71.205 11.761027
71.210 12.031963
71.215 11.924706
71.220 11.639282
71.225 11.550056
71.230 12.296077
71.235 12.173355
71.240 11.657256
71.245 11.968431
71.250 12.60647
71.255 13.187338
71.260 13.411188
71.265 13.481669
71.270 13.710069
71.275 13.949377
71.280 13.761054
71.285 13.296018
71.290 12.892712
71.295 12.542677
71.300 12.740628
71.305 12.723346
71.310 12.243096
71.315 11.889463
71.320 11.899103
71.325 12.349414
71.330 12.05366
71.335 11.526417
71.340 11.363235
71.345 11.81822
71.350 11.785142
71.355 11.958251
71.360 11.731338
71.365 12.374681
71.370 12.677616
71.375 13.486697
71.380 13.846631
71.385 13.596899
71.390 13.533928
71.395 13.893262
71.400 14.17695
71.405 13.936852
71.410 13.282234
71.415 12.897054
71.420 13.288085
71.425 12.819957
71.430 12.458013
71.435 11.242017
71.440 10.496376
71.445 10.652736
71.450 10.763499
71.455 10.651475
71.460 10.648832
71.465 11.219678
71.470 11.981738
71.475 12.065344
71.480 11.99984
71.485 12.119573
71.490 12.19668
71.495 11.94618
71.500 11.001996
71.505 10.975676
71.510 10.891157
71.515 10.52891
71.520 10.130545
71.525 10.021856
71.530 9.609166
71.535 10.065866
71.540 10.45846
71.545 10.696974
71.550 11.388316
71.555 11.309658
71.560 11.517984
71.565 11.878319
71.570 11.815727
71.575 11.569485
71.580 11.354532
71.585 11.251245
71.590 11.529619
71.595 11.671572
71.600 11.453039
71.605 11.544391
71.610 11.754603
71.615 11.854191
71.620 12.061544
71.625 11.351933
71.630 11.512169
71.635 11.910253
71.640 11.885077
71.645 12.080537
71.650 11.980991
71.655 11.782248
71.660 12.267697
71.665 12.384771
71.670 12.121009
71.675 11.791981
71.680 11.486822
71.685 11.729378
71.690 11.65441
71.695 11.331691
71.700 11.427323
71.705 11.452119
71.710 11.666412
71.715 11.703687
71.720 11.762574
71.725 11.699615
71.730 11.611338
71.735 11.232415
71.740 11.18819
71.745 10.741007
71.750 10.332205
71.755 10.531
71.760 10.990831
71.765 11.207029
71.770 11.268728
71.775 11.591784
71.780 12.273667
71.785 12.403053
71.790 11.668993
71.795 11.245625
71.800 11.275676
71.805 11.564175
71.810 11.781548
71.815 11.304483
71.820 11.482989
71.825 11.487377
71.830 11.558221
71.835 11.728954
71.840 11.402251
71.845 11.801079
71.850 11.917143
71.855 11.69591
71.860 11.835632
71.865 12.338744
71.870 11.993563
71.875 12.573233
71.880 12.536304
71.885 12.652356
71.890 13.137697
71.895 12.806504
71.900 12.181348
71.905 12.076749
71.910 11.5724
71.915 11.29898
71.920 11.178578
71.925 10.925455
71.930 11.267099
71.935 11.482555
71.940 11.684595
71.945 11.101307
71.950 11.202412
71.955 11.23785
71.960 11.582143
71.965 11.601443
71.970 11.330359
71.975 10.995412
71.980 11.433377
71.985 11.812809
71.990 11.692799
71.995 11.293019
72.000 11.423576
72.005 11.710456
72.010 11.971694
72.015 11.767814
72.020 11.654099
72.025 11.728
72.030 11.8751
72.035 11.473031
72.040 11.309126
72.045 10.713387
72.050 10.230087
72.055 10.427677
72.060 10.487425
72.065 10.644915
72.070 10.705899
72.075 10.640325
72.080 11.061982
72.085 11.271748
72.090 10.68833
72.095 10.336672
72.100 10.196542
72.105 10.567572
72.110 10.757367
72.115 10.826312
72.120 11.105549
72.125 11.474598
72.130 11.653794
72.135 11.717706
72.140 11.341116
72.145 11.204766
72.150 11.138386
72.155 11.326197
72.160 11.751896
72.165 11.847157
72.170 12.101061
72.175 12.19594
72.180 12.599174
72.185 12.611088
72.190 12.411062
72.195 12.415822
72.200 12.270367
72.205 11.934588
72.210 11.844878
72.215 11.636414
72.220 11.155119
72.225 10.571219
72.230 10.454187
72.235 10.357049
72.240 10.505698
72.245 10.347069
72.250 10.49134
72.255 11.247888
72.260 11.623004
72.265 11.290999
72.270 11.312466
72.275 11.466433
72.280 12.000745
72.285 12.046753
72.290 11.902945
72.295 11.844642
72.300 12.055239
72.305 12.179467
72.310 12.199953
72.315 11.996922
72.320 11.826929
72.325 11.925501
72.330 11.813374
72.335 12.249018
72.340 12.215767
72.345 11.970557
72.350 11.921949
72.355 11.458431
72.360 11.093202
72.365 11.240076
72.370 11.011031
72.375 11.314424
72.380 11.467393
72.385 11.82462
72.390 11.890429
72.395 12.107244
72.400 11.773494
72.405 11.741234
72.410 11.491941
72.415 11.473521
72.420 11.367671
72.425 11.469144
72.430 11.332115
72.435 11.431321
72.440 11.122494
72.445 11.401516
72.450 11.462205
72.455 11.708772
72.460 11.876948
72.465 11.923262
72.470 12.44377
72.475 12.389487
72.480 12.010303
72.485 12.123589
72.490 11.767987
72.495 11.942264
72.500 11.989633
72.505 11.450989
72.510 11.505113
72.515 12.034195
72.520 12.25369
72.525 11.988932
72.530 11.812155
72.535 11.483233
72.540 11.940513
72.545 11.887542
72.550 12.019064
72.555 11.928394
72.560 12.000328
72.565 11.872565
72.570 11.933662
72.575 11.554805
72.580 11.271971
72.585 11.060542
72.590 11.083882
72.595 11.257874
72.600 11.795679
72.605 12.176109
72.610 12.080255
72.615 12.187449
72.620 12.173571
72.625 12.592933
72.630 12.84522
72.635 12.249332
72.640 12.418267
72.645 12.330746
72.650 12.044198
72.655 12.045855
72.660 11.646315
72.665 11.145066
72.670 11.171574
72.675 10.875903
72.680 11.171388
72.685 11.012279
72.690 11.057525
72.695 11.33729
72.700 11.48257
72.705 11.676163
72.710 12.324822
72.715 12.283743
72.720 11.968388
72.725 11.39184
72.730 11.096258
72.735 10.783133
72.740 11.003007
72.745 10.517837
72.750 10.654154
72.755 10.871326
72.760 11.162872
72.765 11.398907
72.770 11.302517
72.775 10.645521
72.780 10.666534
72.785 10.691435
72.790 10.582815
72.795 11.059
72.800 11.33866
72.805 11.487056
72.810 11.525047
72.815 11.855372
72.820 11.723088
72.825 11.46822
72.830 11.291295
72.835 11.314822
72.840 11.677307
72.845 11.692278
72.850 11.373545
72.855 11.734428
72.860 11.737437
72.865 11.540468
72.870 11.787072
72.875 11.653576
72.880 11.568956
72.885 11.571905
72.890 11.702122
72.895 11.949771
72.900 12.123181
72.905 11.825911
72.910 12.308927
72.915 12.625709
72.920 12.584467
72.925 11.925736
72.930 11.534172
72.935 11.250391
72.940 11.048733
72.945 10.588265
72.950 10.090694
72.955 9.771523
72.960 9.819211
72.965 9.885133
72.970 10.094468
72.975 10.056702
72.980 10.049005
72.985 10.19984
72.990 10.727166
72.995 10.324466
73.000 10.080577
