!@!!GADDS PLOTSO FILE: Chi integration type
!@!!Title/SampleName: map-11
!@!!Comment: ?
!@!!User: Bruker Instrument Administrator
!@!!Site: University of Illinois Chicago
!@!!Frame: map-11_01_000.gfrm
!@!!Wavelengths    1.54184   1.54056   1.54439
!@!!Frame angles: 2Theta: 63.000 Omega: 50.000 Phi: 0.000 Chi: 90.000
!@!!Integration range: 2Theta: 53.000 to 73.000  Gamma: -105.000 to -75.000
!@!!Integration method: bin normalized
!@!N
!@!SS
!@!M
!@!L 0.0 0.0 0.0 0.0
!@!XDegrees
!@!YCounts
53.000 8.109522
53.005 8.099396
53.010 8.099157
53.015 8.006837
53.020 8.293649
53.025 8.538881
53.030 8.494162
53.035 8.652122
53.040 8.813945
53.045 8.856916
53.050 8.855375
53.055 9.020266
53.060 8.791613
53.065 8.918023
53.070 8.642483
53.075 8.433897
53.080 8.734878
53.085 8.614286
53.090 8.459154
53.095 8.363041
53.100 8.163145
53.105 8.34834
53.110 8.552238
53.115 7.908055
53.120 7.856884
53.125 7.867044
53.130 8.122904
53.135 8.357124
53.140 7.921212
53.145 7.507495
53.150 7.738471
53.155 7.733773
53.160 7.506951
53.165 7.426237
53.170 7.224186
53.175 7.501927
53.180 7.865527
53.185 8.18286
53.190 8.465263
53.195 8.781607
53.200 9.133889
53.205 9.095579
53.210 9.333097
53.215 9.604589
53.220 9.373414
53.225 9.489268
53.230 8.924417
53.235 8.96209
53.240 9.069167
53.245 9.129835
53.250 9.02833
53.255 9.239558
53.260 9.504026
53.265 9.473108
53.270 9.619962
53.275 9.484968
53.280 9.463357
53.285 9.272033
53.290 8.757305
53.295 8.990785
53.300 9.013031
53.305 9.046625
53.310 9.28973
53.315 9.453506
53.320 9.738129
53.325 9.494695
53.330 9.229227
53.335 9.391446
53.340 9.650283
53.345 9.489617
53.350 9.447745
53.355 9.45986
53.360 9.415345
53.365 9.636041
53.370 9.920728
53.375 10.061932
53.380 9.852152
53.385 9.799053
53.390 9.747992
53.395 9.759643
53.400 9.41421
53.405 8.342333
53.410 8.363297
53.415 8.470566
53.420 8.381889
53.425 8.33406
53.430 8.719572
53.435 8.754296
53.440 9.092579
53.445 8.831989
53.450 8.681532
53.455 8.744172
53.460 8.92616
53.465 8.706323
53.470 9.115916
53.475 9.555684
53.480 9.769485
53.485 9.880173
53.490 9.546321
53.495 9.544011
53.500 9.228944
53.505 8.575055
53.510 8.159065
53.515 8.33084
53.520 8.454601
53.525 8.640789
53.530 8.216568
53.535 8.559643
53.540 8.766958
53.545 9.209832
53.550 9.104545
53.555 9.080888
53.560 9.173625
53.565 10.0803
53.570 10.342793
53.575 10.663558
53.580 10.488555
53.585 10.778148
53.590 10.984286
53.595 10.612688
53.600 10.077294
53.605 10.085607
53.610 9.577174
53.615 9.144382
53.620 8.763339
53.625 8.656647
53.630 9.383855
53.635 9.666789
53.640 9.46886
53.645 9.659192
53.650 9.947685
53.655 10.108415
53.660 10.157063
53.665 9.77207
53.670 9.074206
53.675 9.032863
53.680 8.98633
53.685 9.116859
53.690 9.036244
53.695 9.247722
53.700 9.584565
53.705 10.055425
53.710 10.26974
53.715 10.112031
53.720 9.986288
53.725 10.497915
53.730 10.335537
53.735 9.885343
53.740 9.922948
53.745 9.919295
53.750 10.097092
53.755 9.713262
53.760 9.26062
53.765 9.211546
53.770 9.33875
53.775 9.466913
53.780 9.470633
53.785 9.758121
53.790 9.903272
53.795 10.232167
53.800 10.409843
53.805 10.501378
53.810 10.747478
53.815 11.235756
53.820 11.370696
53.825 11.603868
53.830 11.546263
53.835 11.372966
53.840 11.314466
53.845 10.828341
53.850 10.252029
53.855 9.947448
53.860 9.38217
53.865 8.918106
53.870 9.164007
53.875 9.40484
53.880 8.896915
53.885 9.11237
53.890 9.410406
53.895 9.420434
53.900 9.716735
53.905 9.454134
53.910 9.315986
53.915 10.06146
53.920 9.831664
53.925 10.010898
53.930 10.781796
53.935 11.344383
53.940 12.002889
53.945 12.15808
53.950 11.79403
53.955 11.983053
53.960 12.377123
53.965 12.090567
53.970 11.53126
53.975 11.193825
53.980 11.22363
53.985 11.046837
53.990 10.759577
53.995 10.21192
54.000 10.09422
54.005 9.555474
54.010 9.053045
54.015 9.095946
54.020 9.245411
54.025 9.593566
54.030 9.510489
54.035 9.428741
54.040 10.136704
54.045 10.765289
54.050 11.310196
54.055 11.51725
54.060 11.002776
54.065 10.67801
54.070 10.66096
54.075 10.37959
54.080 9.984892
54.085 9.353209
54.090 9.044231
54.095 9.374875
54.100 9.461123
54.105 9.473428
54.110 9.702212
54.115 10.049963
54.120 10.150515
54.125 10.00936
54.130 10.454091
54.135 10.43762
54.140 10.710302
54.145 10.701451
54.150 10.390265
54.155 10.321464
54.160 10.508926
54.165 11.024073
54.170 11.34639
54.175 10.416749
54.180 9.894099
54.185 10.532346
54.190 10.737176
54.195 10.327685
54.200 10.182309
54.205 10.71997
54.210 11.346226
54.215 11.08711
54.220 10.316994
54.225 10.30267
54.230 10.789616
54.235 10.172599
54.240 9.791802
54.245 9.834586
54.250 9.930404
54.255 10.379445
54.260 10.452648
54.265 10.233071
54.270 10.486185
54.275 10.545074
54.280 10.058254
54.285 10.18965
54.290 9.946391
54.295 9.714592
54.300 9.585718
54.305 9.294152
54.310 9.346312
54.315 9.774751
54.320 9.605254
54.325 9.819105
54.330 10.089285
54.335 10.487237
54.340 10.445095
54.345 10.683601
54.350 10.995979
54.355 11.737191
54.360 11.653658
54.365 11.633617
54.370 11.756977
54.375 11.861152
54.380 11.495435
54.385 11.416257
54.390 11.62971
54.395 12.011247
54.400 11.669422
54.405 11.75879
54.410 12.054775
54.415 12.710003
54.420 12.591014
54.425 12.074077
54.430 11.622324
54.435 11.386781
54.440 11.007703
54.445 10.754931
54.450 10.255908
54.455 10.095687
54.460 10.300451
54.465 10.91688
54.470 11.076534
54.475 11.089781
54.480 11.08679
54.485 11.377137
54.490 11.756495
54.495 11.609931
54.500 11.441747
54.505 11.531481
54.510 11.770838
54.515 11.838935
54.520 11.846588
54.525 11.604868
54.530 11.574366
54.535 11.35914
54.540 11.562915
54.545 11.0512
54.550 10.798691
54.555 10.510504
54.560 10.686029
54.565 10.650486
54.570 10.508229
54.575 10.431783
54.580 10.52381
54.585 10.847939
54.590 10.840454
54.595 10.841805
54.600 11.117568
54.605 10.828318
54.610 10.882828
54.615 11.119024
54.620 10.829304
54.625 10.838164
54.630 10.501898
54.635 10.651936
54.640 11.504065
54.645 11.494534
54.650 11.375228
54.655 11.477908
54.660 11.513042
54.665 11.854614
54.670 11.461262
54.675 11.383779
54.680 11.560273
54.685 11.502573
54.690 11.378632
54.695 10.870796
54.700 10.484704
54.705 10.212093
54.710 10.409101
54.715 10.701453
54.720 10.722318
54.725 11.150465
54.730 11.529014
54.735 11.547934
54.740 11.593793
54.745 11.192852
54.750 10.843674
54.755 10.747744
54.760 10.653097
54.765 10.722902
54.770 10.854523
54.775 11.140937
54.780 11.235701
54.785 11.038814
54.790 10.975273
54.795 10.886691
54.800 10.802664
54.805 11.241645
54.810 11.0855
54.815 10.887078
54.820 11.379233
54.825 11.583673
54.830 11.68546
54.835 11.487582
54.840 10.985876
54.845 10.820964
54.850 11.002599
54.855 11.005876
54.860 10.797929
54.865 10.664499
54.870 10.533904
54.875 10.435092
54.880 10.807057
54.885 11.039176
54.890 11.123134
54.895 11.104995
54.900 11.529847
54.905 11.65349
54.910 11.494709
54.915 11.128669
54.920 11.208756
54.925 11.30368
54.930 10.886036
54.935 10.560116
54.940 10.746445
54.945 11.144082
54.950 11.45408
54.955 11.302043
54.960 11.251069
54.965 11.34552
54.970 11.642032
54.975 11.767673
54.980 11.568618
54.985 11.298068
54.990 11.376335
54.995 11.370656
55.000 11.545732
55.005 11.622996
55.010 11.64862
55.015 11.493434
55.020 11.174867
55.025 11.505671
55.030 11.812019
55.035 11.870622
55.040 11.590675
55.045 11.307632
55.050 11.595693
55.055 11.706082
55.060 11.451331
55.065 11.036487
55.070 11.359184
55.075 11.510987
55.080 11.630287
55.085 11.486477
55.090 11.415073
55.095 11.478233
55.100 11.550115
55.105 11.720337
55.110 11.687696
55.115 11.849727
55.120 11.585347
55.125 11.758908
55.130 11.872766
55.135 11.69507
55.140 11.335535
55.145 11.210098
55.150 11.155847
55.155 11.1901
55.160 10.921364
55.165 10.901894
55.170 11.28879
55.175 11.288344
55.180 11.134921
55.185 11.375597
55.190 11.823852
55.195 11.650407
55.200 11.212646
55.205 11.060882
55.210 11.257911
55.215 11.726205
55.220 11.50036
55.225 11.483363
55.230 12.015798
55.235 12.514295
55.240 12.635036
55.245 12.724454
55.250 12.393303
55.255 12.418483
55.260 11.739889
55.265 11.760208
55.270 11.312146
55.275 10.965957
55.280 10.893293
55.285 11.155448
55.290 11.572971
55.295 12.346031
55.300 12.348595
55.305 12.343448
55.310 12.156604
55.315 12.160244
55.320 11.795012
55.325 11.649138
55.330 11.320973
55.335 11.149387
55.340 11.651195
55.345 11.653599
55.350 11.684179
55.355 11.54475
55.360 11.227324
55.365 10.872647
55.370 10.780628
55.375 10.308351
55.380 10.2761
55.385 9.77697
55.390 9.401082
55.395 9.477345
55.400 9.516948
55.405 10.125504
55.410 10.512217
55.415 10.593801
55.420 11.392193
55.425 11.849291
55.430 11.667027
55.435 11.641918
55.440 11.608867
55.445 11.397863
55.450 11.722054
55.455 11.265038
55.460 11.436835
55.465 11.93906
55.470 12.342276
55.475 12.271776
55.480 12.438375
55.485 12.450127
55.490 12.738143
55.495 12.624142
55.500 12.928266
55.505 12.598881
55.510 12.354097
55.515 12.185225
55.520 12.107903
55.525 12.789257
55.530 12.874811
55.535 12.498983
55.540 12.550773
55.545 12.815902
55.550 12.884743
55.555 12.770343
55.560 12.380342
55.565 12.452538
55.570 12.314457
55.575 12.12165
55.580 12.562765
55.585 12.765933
55.590 12.84901
55.595 12.143227
55.600 11.476655
55.605 11.339367
55.610 11.10043
55.615 10.711854
55.620 10.274365
55.625 10.342802
55.630 10.922638
55.635 11.300272
55.640 11.933512
55.645 11.826739
55.650 12.431038
55.655 12.832653
55.660 12.869287
55.665 12.892262
55.670 12.936822
55.675 13.063162
55.680 13.519017
55.685 13.539939
55.690 13.888065
55.695 13.753871
55.700 13.31481
55.705 13.348559
55.710 13.070068
55.715 12.989754
55.720 12.945516
55.725 12.459067
55.730 12.801793
55.735 13.192335
55.740 13.066377
55.745 13.178204
55.750 13.07378
55.755 12.828669
55.760 12.494621
55.765 12.110336
55.770 11.510724
55.775 11.126095
55.780 11.280605
55.785 11.385715
55.790 12.081308
55.795 12.173368
55.800 12.116371
55.805 12.291501
55.810 12.21046
55.815 12.150037
55.820 11.745505
55.825 11.858578
55.830 12.731335
55.835 13.571517
55.840 14.431693
55.845 14.82163
55.850 14.844454
55.855 14.371154
55.860 13.598989
55.865 13.103807
55.870 12.249065
55.875 11.810117
55.880 11.385726
55.885 11.463191
55.890 11.737247
55.895 12.148298
55.900 12.061774
55.905 12.026885
55.910 11.577334
55.915 11.533694
55.920 11.355614
55.925 11.116997
55.930 11.42606
55.935 11.754119
55.940 12.728188
55.945 13.762304
55.950 14.272597
55.955 14.946105
55.960 14.999618
55.965 14.306019
55.970 13.950304
55.975 13.439692
55.980 13.187136
55.985 13.024224
55.990 12.609022
55.995 12.46793
56.000 12.536818
56.005 12.983864
56.010 12.59706
56.015 12.068361
56.020 11.725586
56.025 11.637568
56.030 11.430989
56.035 11.599982
56.040 11.306652
56.045 11.694636
56.050 12.466135
56.055 12.660795
56.060 12.885264
56.065 13.371156
56.070 13.606161
56.075 14.114525
56.080 14.195334
56.085 14.013101
56.090 14.443197
56.095 14.146094
56.100 13.928667
56.105 13.311142
56.110 12.806394
56.115 12.471669
56.120 12.650233
56.125 12.222965
56.130 11.877789
56.135 12.075447
56.140 12.252103
56.145 12.017673
56.150 11.89965
56.155 11.727912
56.160 11.951835
56.165 12.391354
56.170 12.143907
56.175 11.956122
56.180 12.120106
56.185 12.11248
56.190 11.988963
56.195 11.958055
56.200 11.622427
56.205 11.399106
56.210 11.483083
56.215 11.710967
56.220 11.608217
56.225 11.409737
56.230 11.532462
56.235 12.35107
56.240 12.996711
56.245 13.182908
56.250 13.544323
56.255 13.834011
56.260 13.483392
56.265 13.703555
56.270 13.473808
56.275 13.15945
56.280 12.526101
56.285 12.688304
56.290 13.088651
56.295 13.618949
56.300 13.094387
56.305 12.869093
56.310 12.758685
56.315 12.706873
56.320 11.708951
56.325 11.587685
56.330 11.627294
56.335 11.797001
56.340 11.995893
56.345 12.500592
56.350 12.757498
56.355 12.891935
56.360 12.854706
56.365 12.844957
56.370 13.141955
56.375 13.11883
56.380 12.837862
56.385 13.099053
56.390 13.30824
56.395 13.359288
56.400 13.347931
56.405 13.191976
56.410 13.108523
56.415 13.239863
56.420 12.974649
56.425 12.80458
56.430 12.9199
56.435 12.962909
56.440 12.964557
56.445 12.57026
56.450 12.688458
56.455 12.920633
56.460 12.853667
56.465 12.791311
56.470 12.839183
56.475 12.826224
56.480 12.974553
56.485 12.779099
56.490 12.961082
56.495 13.248486
56.500 13.113888
56.505 12.901139
56.510 13.419339
56.515 13.671317
56.520 13.897694
56.525 13.682266
56.530 12.990421
56.535 12.98986
56.540 12.677189
56.545 12.110901
56.550 12.12706
56.555 11.514761
56.560 12.183108
56.565 12.408219
56.570 12.095314
56.575 12.320064
56.580 12.44114
56.585 12.455969
56.590 12.717712
56.595 12.451695
56.600 12.817844
56.605 13.078641
56.610 13.076867
56.615 13.172767
56.620 13.242816
56.625 12.650028
56.630 12.233365
56.635 12.623261
56.640 12.9609
56.645 13.088012
56.650 13.090828
56.655 13.387068
56.660 13.78627
56.665 14.402384
56.670 13.783196
56.675 13.459096
56.680 13.516453
56.685 13.408626
56.690 13.657761
56.695 14.19659
56.700 13.731746
56.705 14.375956
56.710 14.943229
56.715 15.219898
56.720 15.473085
56.725 15.479307
56.730 15.295121
56.735 15.569985
56.740 15.129609
56.745 15.106408
56.750 14.734144
56.755 14.469113
56.760 14.03435
56.765 13.82634
56.770 13.451823
56.775 13.370092
56.780 13.270721
56.785 13.977224
56.790 14.238302
56.795 14.263261
56.800 14.630863
56.805 15.454562
56.810 15.24367
56.815 15.210157
56.820 14.561585
56.825 14.401368
56.830 14.73568
56.835 14.568712
56.840 14.238154
56.845 14.959919
56.850 14.643339
56.855 15.010653
56.860 14.830941
56.865 14.739816
56.870 15.0736
56.875 14.617025
56.880 14.610368
56.885 14.827182
56.890 14.394199
56.895 14.457296
56.900 14.452379
56.905 14.697494
56.910 14.609737
56.915 13.80563
56.920 13.971893
56.925 14.48324
56.930 14.749169
56.935 14.611775
56.940 14.222505
56.945 14.428851
56.950 14.545405
56.955 14.548431
56.960 14.811019
56.965 15.051979
56.970 15.042316
56.975 15.091699
56.980 15.031357
56.985 14.989623
56.990 15.241547
56.995 14.850027
57.000 14.288152
57.005 14.454318
57.010 14.679374
57.015 14.943641
57.020 14.911115
57.025 14.24076
57.030 14.30821
57.035 14.509871
57.040 13.96757
57.045 13.958318
57.050 13.769013
57.055 13.925308
57.060 14.018679
57.065 13.614667
57.070 13.231787
57.075 13.530079
57.080 13.147408
57.085 13.183435
57.090 12.829104
57.095 12.723262
57.100 12.596725
57.105 12.890484
57.110 12.661997
57.115 12.733379
57.120 12.801369
57.125 13.408393
57.130 13.359849
57.135 13.793692
57.140 13.264552
57.145 13.399014
57.150 13.815084
57.155 13.623062
57.160 13.310103
57.165 13.468074
57.170 13.145356
57.175 13.808411
57.180 14.070764
57.185 13.727154
57.190 13.889923
57.195 13.973906
57.200 14.27502
57.205 14.583923
57.210 14.470521
57.215 14.1878
57.220 14.466832
57.225 14.635496
57.230 14.734293
57.235 14.410252
57.240 13.95691
57.245 13.414895
57.250 13.186502
57.255 12.803265
57.260 12.782047
57.265 12.605693
57.270 13.098881
57.275 13.42412
57.280 13.696157
57.285 13.998287
57.290 14.18172
57.295 14.421186
57.300 14.699384
57.305 14.372271
57.310 13.974766
57.315 14.96349
57.320 14.521657
57.325 14.50431
57.330 14.215384
57.335 14.204507
57.340 13.89464
57.345 13.924017
57.350 12.561975
57.355 13.030259
57.360 13.035807
57.365 13.386643
57.370 13.072757
57.375 13.039248
57.380 13.430184
57.385 14.053188
57.390 13.720499
57.395 13.524946
57.400 13.341283
57.405 13.798834
57.410 14.036374
57.415 13.807845
57.420 14.011769
57.425 14.34429
57.430 14.369267
57.435 14.246812
57.440 14.359853
57.445 14.507895
57.450 14.565886
57.455 14.356972
57.460 14.097701
57.465 13.652049
57.470 13.457207
57.475 13.043854
57.480 13.071319
57.485 13.077177
57.490 12.789167
57.495 12.870823
57.500 13.284442
57.505 13.843497
57.510 14.023208
57.515 13.758673
57.520 14.059274
57.525 14.284228
57.530 14.0631
57.535 13.912587
57.540 13.591319
57.545 13.025434
57.550 13.036987
57.555 12.768344
57.560 12.586457
57.565 12.621975
57.570 12.544976
57.575 12.195925
57.580 12.703617
57.585 12.907151
57.590 13.174337
57.595 13.675779
57.600 13.913245
57.605 14.245465
57.610 14.352623
57.615 14.304093
57.620 14.184459
57.625 14.390463
57.630 14.011004
57.635 13.950794
57.640 14.218023
57.645 14.525855
57.650 14.608147
57.655 14.658515
57.660 14.308476
57.665 13.884957
57.670 13.270982
57.675 12.741181
57.680 12.634856
57.685 12.597432
57.690 12.526321
57.695 12.492954
57.700 13.195798
57.705 13.799951
57.710 14.136854
57.715 14.116468
57.720 14.280042
57.725 14.566049
57.730 14.830632
57.735 14.367616
57.740 14.094123
57.745 13.944827
57.750 14.252387
57.755 14.594597
57.760 14.591487
57.765 15.088919
57.770 15.466788
57.775 15.621386
57.780 15.753078
57.785 15.74603
57.790 15.414103
57.795 15.64373
57.800 15.426504
57.805 15.241118
57.810 15.198318
57.815 14.972718
57.820 14.760219
57.825 14.331696
57.830 13.339167
57.835 13.229594
57.840 13.482608
57.845 13.718939
57.850 13.475901
57.855 14.076303
57.860 14.414217
57.865 15.109346
57.870 15.192173
57.875 15.169711
57.880 15.18391
57.885 15.618082
57.890 15.387761
57.895 15.678369
57.900 15.447601
57.905 15.837357
57.910 15.850161
57.915 15.870636
57.920 15.811811
57.925 15.893836
57.930 15.719864
57.935 15.510304
57.940 15.303145
57.945 15.003963
57.950 14.912774
57.955 14.484311
57.960 14.159389
57.965 14.247332
57.970 14.146638
57.975 13.184882
57.980 13.15084
57.985 13.750231
57.990 13.959764
57.995 13.883331
58.000 13.592803
58.005 14.000967
58.010 14.658547
58.015 14.46521
58.020 13.72781
58.025 13.134745
58.030 13.134029
58.035 13.538748
58.040 13.968349
58.045 13.724272
58.050 13.62786
58.055 13.99646
58.060 14.311769
58.065 14.534307
58.070 14.436589
58.075 14.468964
58.080 15.002822
58.085 15.28007
58.090 15.290762
58.095 15.544385
58.100 15.204944
58.105 14.935081
58.110 14.735228
58.115 14.769172
58.120 15.40169
58.125 15.687876
58.130 15.74256
58.135 15.96402
58.140 16.354599
58.145 16.539322
58.150 15.8131
58.155 15.582113
58.160 15.583681
58.165 15.662917
58.170 15.75894
58.175 15.471114
58.180 15.814811
58.185 15.994301
58.190 15.625769
58.195 15.260369
58.200 15.325315
58.205 15.476704
58.210 15.547943
58.215 15.000576
58.220 15.383489
58.225 15.534942
58.230 15.675367
58.235 15.578666
58.240 15.236916
58.245 15.454718
58.250 15.762854
58.255 15.722939
58.260 15.786407
58.265 15.736335
58.270 15.727282
58.275 15.546704
58.280 15.49419
58.285 14.999149
58.290 14.508065
58.295 14.477443
58.300 14.559773
58.305 14.299423
58.310 14.181511
58.315 14.000227
58.320 14.061132
58.325 13.946293
58.330 14.053759
58.335 14.203193
58.340 14.412204
58.345 14.399426
58.350 14.462886
58.355 15.226484
58.360 15.047497
58.365 14.455894
58.370 14.733306
58.375 14.897265
58.380 14.89733
58.385 14.17207
58.390 14.230679
58.395 14.762495
58.400 14.942633
58.405 14.044466
58.410 14.166928
58.415 14.456168
58.420 14.347759
58.425 14.273869
58.430 14.296198
58.435 14.633587
58.440 15.225524
58.445 15.1788
58.450 15.272299
58.455 15.809426
58.460 15.907432
58.465 15.653008
58.470 15.761339
58.475 15.36048
58.480 15.423826
58.485 15.35336
58.490 15.284849
58.495 15.059877
58.500 15.478968
58.505 15.340331
58.510 15.396004
58.515 14.813951
58.520 14.469636
58.525 14.925627
58.530 14.985643
58.535 15.007795
58.540 14.526816
58.545 14.676401
58.550 14.936054
58.555 15.137438
58.560 14.596224
58.565 14.493663
58.570 14.60788
58.575 14.752754
58.580 14.74577
58.585 15.181834
58.590 15.031013
58.595 15.291321
58.600 15.488242
58.605 15.406976
58.610 15.445641
58.615 15.626493
58.620 15.203239
58.625 15.540653
58.630 15.520608
58.635 15.344321
58.640 15.775422
58.645 16.006487
58.650 16.027451
58.655 16.729357
58.660 16.543184
58.665 16.338737
58.670 16.045401
58.675 15.592535
58.680 15.452867
58.685 15.079698
58.690 14.52761
58.695 14.66011
58.700 14.335248
58.705 14.94492
58.710 15.067992
58.715 15.489758
58.720 15.874731
58.725 16.383333
58.730 16.345617
58.735 16.685417
58.740 16.451687
58.745 16.618914
58.750 16.377739
58.755 16.345198
58.760 16.239138
58.765 16.242445
58.770 16.2815
58.775 16.822758
58.780 16.826693
58.785 16.740698
58.790 16.204882
58.795 15.892883
58.800 15.604802
58.805 15.173167
58.810 14.202393
58.815 13.826734
58.820 13.556712
58.825 13.740084
58.830 13.764391
58.835 13.929503
58.840 14.427376
58.845 14.917867
58.850 15.622165
58.855 15.724372
58.860 15.912438
58.865 15.95154
58.870 15.893977
58.875 15.196722
58.880 14.718122
58.885 14.550426
58.890 14.622495
58.895 14.211228
58.900 14.55003
58.905 14.868217
58.910 15.798655
58.915 16.286654
58.920 16.623919
58.925 16.458094
58.930 16.645287
58.935 16.360992
58.940 15.720581
58.945 15.385327
58.950 14.522999
58.955 13.868353
58.960 13.751175
58.965 13.462926
58.970 13.209818
58.975 13.627183
58.980 13.934085
58.985 14.54326
58.990 14.995851
58.995 15.070043
59.000 15.526398
59.005 16.023525
59.010 16.172352
59.015 15.801657
59.020 15.326877
59.025 14.913715
59.030 14.970326
59.035 15.07277
59.040 15.478766
59.045 15.302983
59.050 15.578894
59.055 16.042206
59.060 16.211048
59.065 16.404087
59.070 16.540817
59.075 16.17539
59.080 16.478121
59.085 16.645782
59.090 16.451513
59.095 16.726648
59.100 16.541428
59.105 16.728743
59.110 16.398172
59.115 16.292084
59.120 16.536551
59.125 17.070923
59.130 17.241203
59.135 17.31662
59.140 17.110376
59.145 17.550171
59.150 17.83794
59.155 17.421558
59.160 17.160557
59.165 16.83131
59.170 16.467741
59.175 16.41403
59.180 16.5994
59.185 16.597921
59.190 16.560516
59.195 16.268227
59.200 16.547213
59.205 16.737162
59.210 16.615807
59.215 16.041203
59.220 16.185329
59.225 16.117071
59.230 16.479328
59.235 16.649395
59.240 16.925991
59.245 17.272142
59.250 17.401625
59.255 16.792034
59.260 17.287086
59.265 17.042143
59.270 17.076405
59.275 16.96974
59.280 16.898726
59.285 16.50383
59.290 16.394318
59.295 15.911942
59.300 15.598445
59.305 15.024714
59.310 14.874077
59.315 14.783956
59.320 15.296884
59.325 15.247123
59.330 15.25712
59.335 15.526929
59.340 15.81686
59.345 15.84642
59.350 15.773941
59.355 15.948106
59.360 15.955164
59.365 15.919545
59.370 16.189436
59.375 16.261351
59.380 16.170141
59.385 16.679693
59.390 16.772396
59.395 16.907583
59.400 16.941305
59.405 16.638241
59.410 16.396109
59.415 16.502363
59.420 16.326185
59.425 16.372229
59.430 16.881214
59.435 17.229322
59.440 17.695105
59.445 18.290094
59.450 18.532156
59.455 18.564754
59.460 18.882915
59.465 18.853401
59.470 18.746321
59.475 18.598362
59.480 18.423403
59.485 18.345449
59.490 18.178385
59.495 18.55607
59.500 18.561102
59.505 18.512335
59.510 18.48255
59.515 18.480127
59.520 18.36734
59.525 18.256147
59.530 17.120195
59.535 16.722937
59.540 16.709326
59.545 16.198141
59.550 16.539097
59.555 16.672829
59.560 16.833862
59.565 16.775221
59.570 16.888771
59.575 16.97398
59.580 17.517456
59.585 17.04285
59.590 16.799915
59.595 16.500782
59.600 16.418024
59.605 15.986385
59.610 15.662098
59.615 15.482074
59.620 15.10979
59.625 14.782437
59.630 15.264091
59.635 16.0516
59.640 16.900433
59.645 17.420595
59.650 17.41534
59.655 17.869659
59.660 18.387581
59.665 18.348978
59.670 18.649557
59.675 18.553764
59.680 18.299076
59.685 18.405308
59.690 18.615782
59.695 18.730412
59.700 19.327686
59.705 18.636009
59.710 18.264488
59.715 18.110302
59.720 17.901657
59.725 18.267864
59.730 18.628033
59.735 18.559242
59.740 18.945129
59.745 18.902161
59.750 19.340679
59.755 19.78186
59.760 19.771126
59.765 19.240818
59.770 19.25181
59.775 19.972244
59.780 20.437119
59.785 20.410669
59.790 19.990353
59.795 19.728035
59.800 19.995947
59.805 19.522924
59.810 18.78373
59.815 18.678553
59.820 18.181726
59.825 18.341803
59.830 17.818007
59.835 17.646935
59.840 17.662251
59.845 18.048599
59.850 18.034172
59.855 18.315945
59.860 18.268349
59.865 18.779551
59.870 18.770576
59.875 18.578325
59.880 18.204931
59.885 17.906712
59.890 17.757534
59.895 17.455822
59.900 17.471155
59.905 17.695412
59.910 18.036289
59.915 18.431549
59.920 19.147041
59.925 19.765648
59.930 19.846617
59.935 19.759787
59.940 19.663666
59.945 19.67972
59.950 19.519094
59.955 19.195465
59.960 18.904947
59.965 18.972958
59.970 18.470762
59.975 18.586489
59.980 18.976135
59.985 19.359392
59.990 19.767134
59.995 20.604815
60.000 21.584213
60.005 21.717007
60.010 21.392191
60.015 21.511389
60.020 21.362711
60.025 21.112616
60.030 20.873686
60.035 20.33354
60.040 20.760077
60.045 20.815554
60.050 20.131039
60.055 19.732941
60.060 19.533897
60.065 18.944725
60.070 18.694345
60.075 18.770918
60.080 19.748642
60.085 20.638918
60.090 21.085894
60.095 21.050562
60.100 21.416677
60.105 21.820276
60.110 21.655804
60.115 20.811342
60.120 20.397005
60.125 20.388523
60.130 20.844004
60.135 21.359671
60.140 21.908886
60.145 22.363092
60.150 22.622065
60.155 22.017525
60.160 21.546951
60.165 21.282314
60.170 20.962492
60.175 20.578386
60.180 20.005966
60.185 19.644966
60.190 20.618811
60.195 20.723831
60.200 20.697237
60.205 20.699177
60.210 20.771938
60.215 20.735811
60.220 20.587904
60.225 20.434095
60.230 20.61079
60.235 20.876345
60.240 20.673975
60.245 20.296112
60.250 20.427702
60.255 21.024593
60.260 21.369396
60.265 21.74555
60.270 21.373568
60.275 21.061455
60.280 21.390808
60.285 21.581081
60.290 21.015425
60.295 20.826344
60.300 20.748087
60.305 21.407835
60.310 22.238913
60.315 22.66312
60.320 22.676584
60.325 23.322716
60.330 23.714815
60.335 24.453661
60.340 24.417492
60.345 24.743402
60.350 24.442934
60.355 24.665272
60.360 24.324202
60.365 23.183435
60.370 22.245573
60.375 21.733856
60.380 21.407398
60.385 21.288656
60.390 21.611797
60.395 21.539007
60.400 21.168922
60.405 20.818827
60.410 20.967491
60.415 20.66
60.420 20.755798
60.425 20.304667
60.430 20.670807
60.435 20.761055
60.440 20.815855
60.445 20.578762
60.450 20.551697
60.455 20.085287
60.460 20.446447
60.465 20.968348
60.470 21.729582
60.475 21.35918
60.480 21.7237
60.485 21.830322
60.490 21.98632
60.495 21.826103
60.500 22.019964
60.505 21.869354
60.510 22.514473
60.515 22.271957
60.520 22.250881
60.525 22.473818
60.530 22.803497
60.535 22.272238
60.540 22.172407
60.545 21.465212
60.550 20.903563
60.555 20.871141
60.560 20.593433
60.565 19.851843
60.570 18.868
60.575 18.739891
60.580 19.343353
60.585 19.294992
60.590 19.027363
60.595 19.298286
60.600 19.437082
60.605 20.400549
60.610 20.594664
60.615 20.278028
60.620 21.42317
60.625 21.829329
60.630 21.750982
60.635 21.543816
60.640 21.536968
60.645 21.42757
60.650 21.646708
60.655 20.854883
60.660 20.900122
60.665 20.333761
60.670 20.320597
60.675 20.193384
60.680 20.45503
60.685 20.440678
60.690 20.25802
60.695 19.80616
60.700 20.508934
60.705 21.131702
60.710 20.658598
60.715 20.04175
60.720 20.269093
60.725 20.41144
60.730 20.467381
60.735 20.393064
60.740 20.183304
60.745 20.434805
60.750 20.606016
60.755 19.672594
60.760 18.840429
60.765 18.403242
60.770 17.740765
60.775 17.27632
60.780 17.321871
60.785 17.800198
60.790 18.346422
60.795 18.539444
60.800 18.56731
60.805 18.572523
60.810 18.596178
60.815 18.616856
60.820 19.157663
60.825 19.159243
60.830 19.691542
60.835 19.940533
60.840 19.77121
60.845 19.550854
60.850 19.355486
60.855 18.547474
60.860 18.229578
60.865 17.857252
60.870 17.883705
60.875 18.25275
60.880 18.045685
60.885 18.122753
60.890 17.612865
60.895 17.262152
60.900 17.317312
60.905 17.377037
60.910 17.112713
60.915 17.05835
60.920 16.540255
60.925 17.371643
60.930 18.102539
60.935 17.9986
60.940 17.689104
60.945 17.901495
60.950 18.24674
60.955 18.158066
60.960 17.776619
60.965 17.538986
60.970 17.206463
60.975 17.52219
60.980 17.160015
60.985 16.765568
60.990 17.337179
60.995 17.193747
61.000 17.638746
61.005 17.986786
61.010 18.008383
61.015 18.550415
61.020 19.213619
61.025 18.514488
61.030 18.635275
61.035 17.906322
61.040 17.795031
61.045 17.582197
61.050 17.244749
61.055 16.438274
61.060 16.868998
61.065 16.869438
61.070 17.188545
61.075 16.854902
61.080 16.890219
61.085 17.17815
61.090 17.759483
61.095 17.909819
61.100 17.94042
61.105 18.284651
61.110 18.314217
61.115 18.68515
61.120 19.094303
61.125 18.5802
61.130 18.140978
61.135 18.471201
61.140 18.713747
61.145 19.190722
61.150 18.356655
61.155 17.450609
61.160 17.545057
61.165 17.32745
61.170 17.407877
61.175 16.990318
61.180 16.451681
61.185 16.308868
61.190 16.400148
61.195 16.907328
61.200 17.476084
61.205 17.103626
61.210 17.16326
61.215 17.714991
61.220 18.085861
61.225 18.345102
61.230 18.749203
61.235 18.749552
61.240 18.999874
61.245 18.839275
61.250 18.635626
61.255 18.82803
61.260 18.418861
61.265 18.00526
61.270 17.251846
61.275 16.833639
61.280 16.83078
61.285 16.524506
61.290 16.801527
61.295 16.833319
61.300 17.148344
61.305 17.583096
61.310 17.91914
61.315 18.171061
61.320 18.524117
61.325 18.199133
61.330 18.310398
61.335 17.98016
61.340 18.279531
61.345 18.365824
61.350 18.626595
61.355 18.368494
61.360 18.276115
61.365 18.070848
61.370 17.502136
61.375 17.226479
61.380 16.78047
61.385 16.460314
61.390 16.764959
61.395 16.668116
61.400 16.376181
61.405 16.240469
61.410 16.368853
61.415 16.481073
61.420 16.143879
61.425 16.115822
61.430 16.482941
61.435 16.834959
61.440 16.871658
61.445 16.545229
61.450 16.889212
61.455 17.404245
61.460 17.381578
61.465 16.743404
61.470 16.858259
61.475 17.081972
61.480 17.513296
61.485 17.670528
61.490 17.388279
61.495 17.094347
61.500 17.867153
61.505 17.82428
61.510 17.842497
61.515 17.290125
61.520 16.639893
61.525 16.859592
61.530 17.484739
61.535 16.994448
61.540 16.572802
61.545 16.324657
61.550 16.993437
61.555 17.671232
61.560 17.677029
61.565 17.692257
61.570 17.871971
61.575 18.245153
61.580 18.108536
61.585 18.071888
61.590 17.732859
61.595 17.386885
61.600 17.108826
61.605 17.003376
61.610 17.452026
61.615 18.226732
61.620 17.868322
61.625 18.14699
61.630 18.247898
61.635 18.040522
61.640 18.480667
61.645 17.86743
61.650 17.304613
61.655 17.559895
61.660 17.408728
61.665 17.138622
61.670 16.887667
61.675 16.992249
61.680 17.092997
61.685 17.342045
61.690 17.776766
61.695 18.096783
61.700 18.861769
61.705 19.950205
61.710 20.296778
61.715 19.875496
61.720 19.070793
61.725 18.068426
61.730 17.253214
61.735 16.670359
61.740 15.930339
61.745 15.661135
61.750 16.079449
61.755 16.724987
61.760 16.988665
61.765 17.336264
61.770 17.317936
61.775 16.7171
61.780 16.59815
61.785 16.783213
61.790 16.516438
61.795 16.802885
61.800 17.094542
61.805 17.481976
61.810 18.056927
61.815 18.082384
61.820 18.333813
61.825 18.580795
61.830 18.545187
61.835 17.999403
61.840 17.609346
61.845 17.522598
61.850 17.519642
61.855 16.961689
61.860 16.99448
61.865 17.54414
61.870 17.900993
61.875 18.499372
61.880 18.99966
61.885 19.457884
61.890 19.601797
61.895 19.539215
61.900 19.167042
61.905 19.006062
61.910 18.46014
61.915 18.020674
61.920 17.835802
61.925 17.674692
61.930 17.769096
61.935 17.830667
61.940 18.014359
61.945 18.151321
61.950 18.236141
61.955 18.186922
61.960 18.298504
61.965 17.536076
61.970 17.408499
61.975 17.654673
61.980 17.583744
61.985 17.190622
61.990 16.850428
61.995 16.773052
62.000 17.202225
62.005 16.724949
62.010 15.883373
62.015 15.765145
62.020 15.560683
62.025 15.525258
62.030 15.436089
62.035 15.00016
62.040 14.960485
62.045 15.318207
62.050 15.09177
62.055 15.706754
62.060 15.681342
62.065 16.022528
62.070 16.478487
62.075 16.496447
62.080 16.168575
62.085 16.237759
62.090 15.878424
62.095 15.814013
62.100 15.567115
62.105 15.961461
62.110 16.325109
62.115 16.795549
62.120 16.974855
62.125 16.991877
62.130 17.121433
62.135 17.478834
62.140 17.111576
62.145 17.2316
62.150 17.163229
62.155 16.826651
62.160 16.699118
62.165 17.103189
62.170 17.714499
62.175 18.009323
62.180 17.861364
62.185 17.753494
62.190 18.200508
62.195 18.437817
62.200 18.295801
62.205 17.654594
62.210 17.211449
62.215 17.017988
62.220 16.804451
62.225 16.604269
62.230 16.432476
62.235 16.19537
62.240 16.12487
62.245 16.175709
62.250 15.879493
62.255 16.249464
62.260 16.17178
62.265 16.256119
62.270 16.178797
62.275 16.266722
62.280 16.407803
62.285 16.955494
62.290 16.74085
62.295 16.620434
62.300 16.962587
62.305 17.054134
62.310 16.621086
62.315 16.165991
62.320 15.825666
62.325 15.262661
62.330 14.867043
62.335 14.341985
62.340 14.357756
62.345 14.974547
62.350 15.383363
62.355 15.627917
62.360 16.140764
62.365 17.227577
62.370 18.048883
62.375 17.818121
62.380 17.219067
62.385 17.114414
62.390 17.149693
62.395 17.744431
62.400 17.153889
62.405 16.597687
62.410 17.469715
62.415 18.060139
62.420 18.143177
62.425 17.870497
62.430 16.991888
62.435 16.928635
62.440 17.006729
62.445 17.074039
62.450 17.376143
62.455 17.943243
62.460 18.723783
62.465 19.305761
62.470 19.437283
62.475 19.623617
62.480 19.603981
62.485 19.490175
62.490 19.015427
62.495 18.258205
62.500 18.125677
62.505 18.02071
62.510 17.302866
62.515 16.851112
62.520 16.674166
62.525 17.12071
62.530 17.628994
62.535 17.484034
62.540 17.566084
62.545 17.688316
62.550 17.6423
62.555 17.088093
62.560 16.394539
62.565 16.01462
62.570 15.54469
62.575 15.173489
62.580 15.107551
62.585 14.614272
62.590 15.241017
62.595 15.633304
62.600 16.145073
62.605 16.499508
62.610 16.703449
62.615 16.807898
62.620 16.665533
62.625 16.335812
62.630 15.727108
62.635 15.736403
62.640 15.349617
62.645 15.100053
62.650 15.089449
62.655 15.321015
62.660 16.054407
62.665 16.626127
62.670 16.639669
62.675 17.080671
62.680 17.190861
62.685 17.200657
62.690 17.307402
62.695 16.970497
62.700 16.70657
62.705 16.544985
62.710 16.667809
62.715 16.950771
62.720 16.937511
62.725 16.611912
62.730 16.24954
62.735 16.374004
62.740 16.403994
62.745 16.33688
62.750 16.56472
62.755 16.790419
62.760 17.277496
62.765 17.624249
62.770 17.751137
62.775 17.712368
62.780 17.568628
62.785 17.147396
62.790 17.380211
62.795 17.334925
62.800 17.246141
62.805 17.207027
62.810 17.218075
62.815 16.964451
62.820 16.955175
62.825 17.016869
62.830 17.546659
62.835 18.123219
62.840 17.785965
62.845 17.478308
62.850 17.960249
62.855 18.186623
62.860 18.21216
62.865 17.233437
62.870 16.512669
62.875 16.924576
62.880 17.372753
62.885 17.184294
62.890 16.543951
62.895 16.12438
62.900 16.528261
62.905 16.853081
62.910 16.517811
62.915 16.634569
62.920 17.301025
62.925 18.08045
62.930 18.029648
62.935 18.436501
62.940 18.378494
62.945 18.718082
62.950 18.55555
62.955 18.534157
62.960 18.305174
62.965 18.291595
62.970 18.208002
62.975 18.645039
62.980 18.846849
62.985 18.638697
62.990 18.308529
62.995 18.489634
63.000 18.431515
63.005 17.708769
63.010 17.19739
63.015 16.376022
63.020 16.564054
63.025 16.213263
63.030 15.960171
63.035 16.305532
63.040 17.099705
63.045 17.320826
63.050 17.835367
63.055 18.006895
63.060 18.339262
63.065 18.157541
63.070 18.313913
63.075 17.695908
63.080 17.585194
63.085 18.022097
63.090 18.403738
63.095 19.069847
63.100 19.316298
63.105 18.953716
63.110 18.75588
63.115 19.0284
63.120 18.865118
63.125 17.696871
63.130 17.087168
63.135 17.029957
63.140 17.162306
63.145 17.68343
63.150 18.009945
63.155 18.325878
63.160 18.97373
63.165 18.883881
63.170 18.534761
63.175 18.977781
63.180 18.635481
63.185 18.419575
63.190 18.023369
63.195 17.699215
63.200 17.418404
63.205 17.433004
63.210 17.316936
63.215 17.44305
63.220 17.243813
63.225 17.319576
63.230 17.550827
63.235 17.802883
63.240 17.780468
63.245 17.160744
63.250 16.593361
63.255 16.367796
63.260 16.181999
63.265 16.000494
63.270 16.226374
63.275 16.294846
63.280 17.123535
63.285 17.573326
63.290 17.633835
63.295 18.12158
63.300 18.615719
63.305 18.12809
63.310 18.604746
63.315 18.758951
63.320 19.204929
63.325 19.459984
63.330 19.130836
63.335 18.856722
63.340 19.125246
63.345 18.395466
63.350 17.907677
63.355 17.296612
63.360 16.894405
63.365 17.243027
63.370 17.494644
63.375 17.616678
63.380 17.791656
63.385 17.365749
63.390 17.323389
63.395 17.399748
63.400 17.104858
63.405 16.852007
63.410 16.892784
63.415 17.152254
63.420 17.235931
63.425 17.663502
63.430 18.049374
63.435 18.021214
63.440 17.701563
63.445 17.44496
63.450 18.003809
63.455 18.679157
63.460 18.518129
63.465 18.242085
63.470 18.532976
63.475 18.905155
63.480 18.903093
63.485 18.409613
63.490 18.594545
63.495 18.596106
63.500 18.979679
63.505 19.152073
63.510 19.672876
63.515 19.730009
63.520 19.503778
63.525 19.175526
63.530 19.531086
63.535 19.024235
63.540 18.238132
63.545 18.19805
63.550 17.850334
63.555 17.633602
63.560 17.460157
63.565 17.137655
63.570 17.743248
63.575 18.662382
63.580 18.203993
63.585 18.503214
63.590 18.300274
63.595 18.706505
63.600 18.706959
63.605 18.172562
63.610 18.114725
63.615 18.948275
63.620 18.781347
63.625 18.958445
63.630 18.556053
63.635 18.078831
63.640 17.830448
63.645 17.585718
63.650 17.518051
63.655 18.125811
63.660 18.194435
63.665 18.270271
63.670 19.122364
63.675 19.596014
63.680 19.418695
63.685 19.012165
63.690 19.130693
63.695 19.166246
63.700 19.029135
63.705 18.720255
63.710 18.62887
63.715 18.727285
63.720 18.543671
63.725 18.301268
63.730 18.307177
63.735 18.711054
63.740 18.848433
63.745 18.764238
63.750 18.735706
63.755 18.536007
63.760 19.288515
63.765 19.175009
63.770 18.336966
63.775 17.886997
63.780 17.636482
63.785 17.727474
63.790 17.404291
63.795 16.482752
63.800 16.913731
63.805 17.234692
63.810 17.350233
63.815 17.479712
63.820 17.500059
63.825 17.727083
63.830 17.66165
63.835 17.623562
63.840 17.771067
63.845 17.623335
63.850 17.583509
63.855 17.929155
63.860 18.520103
63.865 18.851089
63.870 18.78266
63.875 18.476694
63.880 18.494499
63.885 18.229105
63.890 18.033377
63.895 17.989967
63.900 17.625727
63.905 17.098982
63.910 17.272451
63.915 17.883255
63.920 18.773563
63.925 18.594685
63.930 18.250305
63.935 18.620274
63.940 18.826054
63.945 19.081224
63.950 18.65893
63.955 17.896217
63.960 17.529875
63.965 17.264826
63.970 17.010029
63.975 16.877422
63.980 16.45627
63.985 16.741636
63.990 16.61272
63.995 16.950644
64.000 17.649645
64.005 17.957119
64.010 18.356939
64.015 19.241116
64.020 19.604259
64.025 20.28529
64.030 20.390816
64.035 20.073862
64.040 19.865274
64.045 20.040983
64.050 19.169266
64.055 18.85531
64.060 18.548306
64.065 18.705645
64.070 18.723001
64.075 19.079733
64.080 19.228771
64.085 20.090698
64.090 20.353937
64.095 20.290592
64.100 20.318121
64.105 20.013321
64.110 19.731722
64.115 19.021187
64.120 18.880516
64.125 18.207228
64.130 18.292208
64.135 18.110277
64.140 18.390936
64.145 18.332132
64.150 18.373558
64.155 18.197298
64.160 18.426046
64.165 18.715689
64.170 18.611189
64.175 18.494158
64.180 18.439125
64.185 18.612522
64.190 18.843651
64.195 18.824945
64.200 18.327339
64.205 18.34757
64.210 18.379528
64.215 17.882587
64.220 17.504019
64.225 17.132586
64.230 17.125677
64.235 17.228226
64.240 17.118334
64.245 17.601458
64.250 18.56477
64.255 19.048351
64.260 19.097637
64.265 19.228289
64.270 19.598419
64.275 20.510546
64.280 20.675495
64.285 20.382074
64.290 19.842373
64.295 19.85885
64.300 19.857206
64.305 19.085562
64.310 18.349463
64.315 18.162498
64.320 18.544903
64.325 19.64241
64.330 19.258453
64.335 19.317657
64.340 19.535254
64.345 19.651325
64.350 19.416315
64.355 18.685751
64.360 18.426411
64.365 18.772209
64.370 19.486525
64.375 19.652845
64.380 19.748314
64.385 19.852552
64.390 19.843098
64.395 19.851679
64.400 19.770115
64.405 19.637075
64.410 19.593454
64.415 19.353096
64.420 19.610878
64.425 19.82486
64.430 19.6157
64.435 19.769707
64.440 19.558527
64.445 19.877682
64.450 20.258179
64.455 20.011957
64.460 19.813641
64.465 19.699129
64.470 19.256117
64.475 19.368097
64.480 19.369081
64.485 19.117203
64.490 19.192493
64.495 19.537294
64.500 19.720209
64.505 19.79493
64.510 19.49268
64.515 19.397038
64.520 19.036015
64.525 19.085535
64.530 18.573696
64.535 18.7218
64.540 19.026276
64.545 18.67831
64.550 18.963591
64.555 19.239622
64.560 18.784042
64.565 19.024113
64.570 18.920807
64.575 19.141157
64.580 19.117756
64.585 18.358856
64.590 17.977427
64.595 18.107134
64.600 17.787741
64.605 17.22229
64.610 16.765709
64.615 16.98926
64.620 17.5184
64.625 18.038809
64.630 18.765942
64.635 19.064146
64.640 19.396217
64.645 19.541826
64.650 20.038664
64.655 19.888136
64.660 19.793814
64.665 19.233345
64.670 19.436932
64.675 19.365114
64.680 19.150055
64.685 18.731861
64.690 18.592129
64.695 18.643236
64.700 18.396114
64.705 18.21726
64.710 18.924667
64.715 19.498501
64.720 19.698484
64.725 20.028692
64.730 20.564329
64.735 20.864769
64.740 20.947222
64.745 20.562756
64.750 20.497047
64.755 20.263971
64.760 20.028927
64.765 19.870659
64.770 19.791119
64.775 19.474804
64.780 19.173742
64.785 19.392284
64.790 19.063105
64.795 18.644793
64.800 18.357065
64.805 18.466063
64.810 19.046602
64.815 18.919012
64.820 18.329233
64.825 18.495676
64.830 18.482454
64.835 18.697351
64.840 18.981462
64.845 18.388571
64.850 18.063784
64.855 18.104336
64.860 18.902437
64.865 18.938465
64.870 18.726753
64.875 18.575153
64.880 18.494461
64.885 18.596037
64.890 19.138083
64.895 18.943594
64.900 19.346935
64.905 19.354151
64.910 19.348063
64.915 20.44949
64.920 20.729372
64.925 20.710899
64.930 21.229654
64.935 21.155966
64.940 21.206932
64.945 21.10338
64.950 20.541754
64.955 21.25511
64.960 21.473589
64.965 20.977495
64.970 21.273479
64.975 21.158106
64.980 21.894659
64.985 21.84305
64.990 21.489887
64.995 21.52129
65.000 22.067343
65.005 22.247049
65.010 22.936815
65.015 22.511168
65.020 22.985003
65.025 22.724371
65.030 22.504698
65.035 22.157158
65.040 21.663717
65.045 21.59795
65.050 21.352844
65.055 21.464802
65.060 21.71277
65.065 21.600437
65.070 21.312153
65.075 21.345942
65.080 21.239328
65.085 21.151264
65.090 20.598433
65.095 21.014074
65.100 21.303055
65.105 21.900116
65.110 22.508011
65.115 22.862961
65.120 23.188848
65.125 23.839262
65.130 24.104725
65.135 24.320547
65.140 24.303434
65.145 24.210508
65.150 23.647963
65.155 23.391542
65.160 23.394159
65.165 23.171844
65.170 22.744263
65.175 22.292854
65.180 21.734838
65.185 22.176153
65.190 22.001663
65.195 21.497297
65.200 21.19421
65.205 21.444069
65.210 21.369949
65.215 21.751793
65.220 21.450918
65.225 21.9445
65.230 21.819553
65.235 22.139578
65.240 22.123442
65.245 22.008196
65.250 22.164967
65.255 22.472841
65.260 22.517426
65.265 22.743296
65.270 22.434402
65.275 22.427078
65.280 22.071808
65.285 21.938971
65.290 22.127377
65.295 22.04409
65.300 21.857893
65.305 22.154367
65.310 22.35709
65.315 23.267038
65.320 23.675598
65.325 23.896566
65.330 24.31069
65.335 25.155874
65.340 25.214466
65.345 25.247837
65.350 25.325066
65.355 25.144836
65.360 24.552944
65.365 23.985363
65.370 23.916201
65.375 23.459023
65.380 23.214592
65.385 22.174829
65.390 22.123909
65.395 22.416645
65.400 22.239061
65.405 21.854774
65.410 22.846943
65.415 23.558821
65.420 24.098263
65.425 24.502031
65.430 25.133682
65.435 26.210966
65.440 27.214571
65.445 26.816946
65.450 26.654161
65.455 27.160507
65.460 27.625238
65.465 27.508612
65.470 27.070642
65.475 26.26848
65.480 26.108265
65.485 26.367054
65.490 26.385597
65.495 25.808022
65.500 25.521782
65.505 25.144258
65.510 25.81855
65.515 26.188314
65.520 25.361816
65.525 25.278234
65.530 25.376114
65.535 25.924171
65.540 26.405653
65.545 26.816586
65.550 27.029911
65.555 28.454029
65.560 28.707939
65.565 28.672073
65.570 28.58555
65.575 28.454708
65.580 28.389828
65.585 28.890839
65.590 29.00174
65.595 29.154322
65.600 29.382158
65.605 29.781912
65.610 30.560427
65.615 30.435087
65.620 29.685564
65.625 29.196556
65.630 29.72789
65.635 30.054354
65.640 30.385551
65.645 31.264112
65.650 32.278168
65.655 33.039459
65.660 34.20628
65.665 34.431355
65.670 35.53574
65.675 35.842243
65.680 35.475636
65.685 35.466148
65.690 35.145107
65.695 34.310085
65.700 33.662998
65.705 33.117516
65.710 33.216763
65.715 33.116261
65.720 33.1408
65.725 33.572781
65.730 33.581226
65.735 33.836605
65.740 33.950687
65.745 33.558666
65.750 32.819458
65.755 32.604893
65.760 32.556492
65.765 33.152557
65.770 33.444332
65.775 32.518353
65.780 32.636395
65.785 33.751045
65.790 33.43338
65.795 33.690735
65.800 34.099377
65.805 34.828537
65.810 35.558708
65.815 34.968494
65.820 34.750492
65.825 34.787731
65.830 35.158943
65.835 35.379635
65.840 35.519249
65.845 35.210457
65.850 35.935711
65.855 37.098236
65.860 38.074928
65.865 38.618408
65.870 38.070713
65.875 38.013294
65.880 38.447361
65.885 38.585873
65.890 38.950768
65.895 38.055832
65.900 37.950726
65.905 38.60162
65.910 39.098354
65.915 38.897217
65.920 39.018246
65.925 38.78521
65.930 38.970757
65.935 39.384022
65.940 39.56498
65.945 39.092045
65.950 39.505035
65.955 38.993729
65.960 38.724968
65.965 39.303185
65.970 38.807812
65.975 38.278866
65.980 38.411213
65.985 38.394276
65.990 38.499065
65.995 38.276112
66.000 37.170773
66.005 36.861694
66.010 36.431671
66.015 36.182713
66.020 35.896053
66.025 35.83057
66.030 36.445583
66.035 36.516022
66.040 36.304333
66.045 36.591042
66.050 36.356285
66.055 36.42593
66.060 35.971928
66.065 35.75071
66.070 36.066673
66.075 35.619976
66.080 35.906414
66.085 36.515171
66.090 36.92289
66.095 37.299507
66.100 36.418369
66.105 36.710449
66.110 36.977207
66.115 36.813995
66.120 36.098324
66.125 35.883038
66.130 35.576401
66.135 36.18483
66.140 35.899647
66.145 35.244061
66.150 34.797413
66.155 34.797047
66.160 34.209362
66.165 34.179398
66.170 34.009731
66.175 33.067139
66.180 32.740707
66.185 33.350147
66.190 33.264214
66.195 33.809364
66.200 33.831059
66.205 33.206608
66.210 33.748348
66.215 33.925972
66.220 34.072712
66.225 34.334469
66.230 33.983429
66.235 33.619049
66.240 33.629421
66.245 33.204308
66.250 33.257172
66.255 33.280762
66.260 33.806316
66.265 34.304279
66.270 34.612869
66.275 34.291397
66.280 34.504868
66.285 33.977619
66.290 33.616749
66.295 32.852154
66.300 32.77301
66.305 32.768204
66.310 32.50845
66.315 33.403198
66.320 33.760612
66.325 33.188847
66.330 33.110886
66.335 32.521152
66.340 32.164227
66.345 32.568542
66.350 31.218748
66.355 30.701998
66.360 31.175817
66.365 31.330774
66.370 31.067192
66.375 31.200403
66.380 31.134903
66.385 30.315874
66.390 29.535419
66.395 28.81571
66.400 28.575514
66.405 28.694717
66.410 28.69047
66.415 29.031456
66.420 30.33666
66.425 31.690964
66.430 32.173481
66.435 31.357569
66.440 31.24098
66.445 30.252331
66.450 29.352457
66.455 28.605448
66.460 27.435843
66.465 26.806322
66.470 26.927486
66.475 26.56855
66.480 27.298704
66.485 28.315851
66.490 28.618937
66.495 28.697062
66.500 29.002069
66.505 29.344753
66.510 29.292103
66.515 28.203966
66.520 26.596981
66.525 26.32062
66.530 26.429932
66.535 26.868361
66.540 26.557022
66.545 26.89629
66.550 27.68627
66.555 28.132874
66.560 28.12365
66.565 28.21213
66.570 27.956232
66.575 27.773359
66.580 27.035847
66.585 26.972462
66.590 27.489902
66.595 27.311655
66.600 26.942169
66.605 26.851971
66.610 27.347923
66.615 27.293411
66.620 26.630419
66.625 26.087029
66.630 26.233082
66.635 25.87657
66.640 24.993093
66.645 24.461077
66.650 24.429562
66.655 23.935568
66.660 23.28079
66.665 22.838995
66.670 23.260221
66.675 23.811605
66.680 23.90914
66.685 23.394161
66.690 23.538841
66.695 24.196836
66.700 24.601971
66.705 23.967268
66.710 23.924225
66.715 24.046587
66.720 24.816677
66.725 25.265779
66.730 24.747089
66.735 24.318913
66.740 24.149151
66.745 23.361237
66.750 22.85401
66.755 23.233902
66.760 23.664635
66.765 24.228369
66.770 24.682096
66.775 24.905926
66.780 25.774271
66.785 25.926851
66.790 25.361559
66.795 25.176798
66.800 25.072922
66.805 25.446297
66.810 25.981087
66.815 25.638926
66.820 25.402117
66.825 25.460819
66.830 25.005009
66.835 25.120922
66.840 24.552607
66.845 24.316959
66.850 24.453829
66.855 24.276001
66.860 24.061255
66.865 24.228582
66.870 23.540426
66.875 23.231092
66.880 23.344257
66.885 23.504227
66.890 23.141579
66.895 23.231056
66.900 23.403643
66.905 23.302427
66.910 22.834009
66.915 22.604204
66.920 22.420355
66.925 23.205917
66.930 22.556046
66.935 22.09115
66.940 22.824842
66.945 22.91658
66.950 22.89382
66.955 23.138193
66.960 23.232729
66.965 23.531517
66.970 23.737597
66.975 23.429945
66.980 23.380463
66.985 23.20825
66.990 23.084328
66.995 23.224003
67.000 23.748493
67.005 23.42157
67.010 23.553068
67.015 24.072353
67.020 23.970263
67.025 24.090818
67.030 24.273872
67.035 24.331577
67.040 24.542395
67.045 24.869211
67.050 24.635763
67.055 24.838257
67.060 24.288664
67.065 23.803305
67.070 23.65509
67.075 23.569885
67.080 22.899078
67.085 22.848984
67.090 22.978809
67.095 22.840956
67.100 22.070576
67.105 21.010113
67.110 20.65019
67.115 20.599888
67.120 20.543291
67.125 20.566835
67.130 20.220324
67.135 20.589062
67.140 21.207424
67.145 21.038811
67.150 21.326126
67.155 21.529434
67.160 21.73558
67.165 22.427523
67.170 22.669088
67.175 22.786024
67.180 23.083086
67.185 22.65539
67.190 22.417976
67.195 22.192879
67.200 21.950245
67.205 21.918377
67.210 21.808146
67.215 22.372587
67.220 22.514324
67.225 22.438498
67.230 22.479155
67.235 22.392334
67.240 22.070354
67.245 22.141478
67.250 22.589834
67.255 22.77224
67.260 22.486605
67.265 22.925976
67.270 23.017855
67.275 23.003981
67.280 22.807026
67.285 22.244272
67.290 22.108089
67.295 22.413252
67.300 22.359032
67.305 22.29752
67.310 22.616123
67.315 22.324554
67.320 22.355604
67.325 22.519342
67.330 21.98543
67.335 21.646669
67.340 21.879227
67.345 21.400152
67.350 21.295219
67.355 21.075315
67.360 21.21559
67.365 21.300907
67.370 20.59808
67.375 20.712549
67.380 20.877254
67.385 20.990179
67.390 21.012554
67.395 20.869507
67.400 21.156689
67.405 21.212868
67.410 21.06284
67.415 21.393208
67.420 21.508421
67.425 21.383867
67.430 21.328075
67.435 21.372314
67.440 21.616306
67.445 21.3008
67.450 21.139128
67.455 21.492718
67.460 21.641752
67.465 21.373819
67.470 21.733492
67.475 21.656355
67.480 22.783312
67.485 22.906633
67.490 22.259975
67.495 22.258549
67.500 22.355377
67.505 22.236031
67.510 22.161978
67.515 22.110073
67.520 22.329926
67.525 22.704575
67.530 22.925903
67.535 23.280151
67.540 23.114697
67.545 22.58061
67.550 21.422125
67.555 21.243675
67.560 21.364796
67.565 20.984457
67.570 20.95717
67.575 21.441021
67.580 22.119703
67.585 22.735048
67.590 22.790428
67.595 22.100029
67.600 22.027971
67.605 21.74378
67.610 21.816149
67.615 21.436609
67.620 21.093004
67.625 21.052357
67.630 21.276955
67.635 21.039156
67.640 20.857941
67.645 20.316103
67.650 20.057692
67.655 20.527521
67.660 20.403938
67.665 20.223629
67.670 20.451551
67.675 20.42466
67.680 20.852873
67.685 21.711113
67.690 21.74272
67.695 22.001726
67.700 21.929596
67.705 21.955582
67.710 22.044537
67.715 21.991217
67.720 21.247686
67.725 21.057615
67.730 21.385599
67.735 22.063099
67.740 21.824181
67.745 21.550589
67.750 21.507462
67.755 21.677469
67.760 21.334772
67.765 20.957411
67.770 20.866915
67.775 21.338032
67.780 21.404631
67.785 21.729637
67.790 21.952049
67.795 22.164612
67.800 22.954073
67.805 22.565886
67.810 21.84091
67.815 21.467733
67.820 21.098066
67.825 20.748507
67.830 20.500662
67.835 20.177738
67.840 20.736542
67.845 21.759214
67.850 21.968494
67.855 22.15452
67.860 22.502029
67.865 21.67732
67.870 21.165163
67.875 21.320473
67.880 21.440752
67.885 22.348888
67.890 22.413952
67.895 22.568563
67.900 23.293758
67.905 23.471392
67.910 23.136425
67.915 22.830406
67.920 22.040655
67.925 21.766342
67.930 21.907391
67.935 21.553467
67.940 21.542288
67.945 21.235283
67.950 21.068241
67.955 21.514696
67.960 21.455774
67.965 21.703922
67.970 22.134268
67.975 22.065285
67.980 22.794611
67.985 22.773415
67.990 22.077368
67.995 21.618908
68.000 20.792736
68.005 20.604805
68.010 20.842514
68.015 20.590492
68.020 20.831205
68.025 20.827021
68.030 20.605486
68.035 20.900936
68.040 20.486361
68.045 20.518587
68.050 20.063854
68.055 19.907187
68.060 20.485918
68.065 20.499474
68.070 21.138596
68.075 21.173172
68.080 21.037117
68.085 21.356638
68.090 21.223886
68.095 20.807793
68.100 21.02
68.105 21.127991
68.110 21.767054
68.115 22.555298
68.120 22.276154
68.125 22.406506
68.130 22.373522
68.135 22.072712
68.140 21.245874
68.145 20.848307
68.150 20.994219
68.155 21.665728
68.160 21.803734
68.165 21.877934
68.170 22.148052
68.175 22.689655
68.180 22.895948
68.185 22.221869
68.190 22.326946
68.195 22.261168
68.200 22.219633
68.205 21.583059
68.210 21.32453
68.215 20.932724
68.220 20.772856
68.225 20.578133
68.230 20.895639
68.235 21.27355
68.240 21.88097
68.245 22.13567
68.250 22.329258
68.255 22.558828
68.260 22.341824
68.265 22.260967
68.270 22.66762
68.275 22.587059
68.280 22.297285
68.285 22.009176
68.290 22.073153
68.295 21.873964
68.300 21.227928
68.305 21.158529
68.310 20.677532
68.315 21.121197
68.320 21.352905
68.325 21.340416
68.330 20.942064
68.335 21.587439
68.340 21.86664
68.345 22.018805
68.350 21.833139
68.355 21.894005
68.360 21.845709
68.365 22.478041
68.370 21.807215
68.375 21.385939
68.380 21.183607
68.385 20.242834
68.390 19.74095
68.395 19.776588
68.400 19.461752
68.405 19.654785
68.410 19.463787
68.415 19.649582
68.420 19.871288
68.425 20.123669
68.430 20.282532
68.435 20.287552
68.440 19.990582
68.445 19.576817
68.450 19.900785
68.455 20.258932
68.460 19.586548
68.465 19.447138
68.470 19.896469
68.475 20.645626
68.480 21.093136
68.485 20.629883
68.490 20.827879
68.495 21.359377
68.500 21.667625
68.505 21.066902
68.510 20.77755
68.515 20.746695
68.520 20.455915
68.525 20.274576
68.530 20.128199
68.535 19.85412
68.540 19.857788
68.545 20.296648
68.550 20.314344
68.555 21.171637
68.560 21.064163
68.565 21.200285
68.570 21.718952
68.575 21.952591
68.580 21.502691
68.585 21.48428
68.590 21.754065
68.595 21.873203
68.600 22.178148
68.605 22.365803
68.610 22.372625
68.615 22.719482
68.620 22.513321
68.625 22.576925
68.630 22.490955
68.635 21.732752
68.640 20.82659
68.645 21.122417
68.650 21.199442
68.655 21.787783
68.660 21.483889
68.665 21.663868
68.670 22.319527
68.675 22.992884
68.680 23.059448
68.685 23.311403
68.690 23.210495
68.695 23.295353
68.700 22.553406
68.705 22.41235
68.710 22.030636
68.715 21.333855
68.720 21.350327
68.725 20.676928
68.730 20.79969
68.735 21.350275
68.740 21.148623
68.745 20.987392
68.750 20.984747
68.755 21.269577
68.760 21.415077
68.765 21.542006
68.770 21.820879
68.775 22.317537
68.780 22.89023
68.785 22.47143
68.790 21.83009
68.795 21.870239
68.800 21.46463
68.805 21.763779
68.810 21.478731
68.815 21.439684
68.820 21.653307
68.825 21.686159
68.830 22.240662
68.835 22.40666
68.840 21.871109
68.845 21.598463
68.850 22.144428
68.855 22.457296
68.860 22.916576
68.865 23.240103
68.870 23.563469
68.875 23.942501
68.880 24.165483
68.885 24.349098
68.890 24.414057
68.895 24.227749
68.900 23.508644
68.905 22.867556
68.910 23.149853
68.915 23.244814
68.920 22.604986
68.925 22.12339
68.930 22.046957
68.935 22.738483
68.940 23.484171
68.945 22.926743
68.950 23.010656
68.955 23.799459
68.960 24.755358
68.965 25.146492
68.970 24.485176
68.975 24.004614
68.980 24.349262
68.985 23.795565
68.990 23.343149
68.995 22.828131
69.000 22.374737
69.005 23.076488
69.010 23.119715
69.015 22.352468
69.020 22.260128
69.025 21.622124
69.030 22.396879
69.035 23.046396
69.040 22.454575
69.045 22.761877
69.050 23.777708
69.055 24.944256
69.060 25.292912
69.065 24.625305
69.070 24.694174
69.075 25.667555
69.080 26.031036
69.085 26.358177
69.090 26.168415
69.095 26.803162
69.100 27.103872
69.105 27.593668
69.110 26.598171
69.115 26.104483
69.120 25.246284
69.125 24.840849
69.130 24.737814
69.135 24.528891
69.140 23.575029
69.145 24.013882
69.150 24.099857
69.155 24.624573
69.160 24.811232
69.165 25.012917
69.170 25.204536
69.175 25.183601
69.180 25.200825
69.185 24.731371
69.190 24.399471
69.195 24.58222
69.200 24.382942
69.205 25.076571
69.210 26.206434
69.215 26.460621
69.220 27.155947
69.225 28.544701
69.230 28.170187
69.235 27.702322
69.240 27.256916
69.245 26.931988
69.250 27.204336
69.255 26.225586
69.260 25.712065
69.265 25.479971
69.270 25.651258
69.275 25.739803
69.280 25.993378
69.285 26.726046
69.290 27.142925
69.295 26.483017
69.300 26.752838
69.305 26.993721
69.310 27.323792
69.315 27.154032
69.320 26.235161
69.325 26.169376
69.330 26.442348
69.335 26.863617
69.340 26.5618
69.345 26.413095
69.350 27.081861
69.355 27.977783
69.360 29.003736
69.365 29.523319
69.370 29.585566
69.375 29.938011
69.380 29.489355
69.385 29.680012
69.390 29.426527
69.395 28.323853
69.400 28.534424
69.405 27.89175
69.410 28.197395
69.415 27.976402
69.420 27.272062
69.425 26.827776
69.430 26.847223
69.435 26.701094
69.440 26.958008
69.445 27.314495
69.450 27.174816
69.455 27.08288
69.460 27.876324
69.465 27.854212
69.470 27.910244
69.475 27.926804
69.480 27.838419
69.485 28.179602
69.490 28.624678
69.495 27.953148
69.500 27.336205
69.505 27.112244
69.510 26.836575
69.515 26.866446
69.520 27.002457
69.525 26.584249
69.530 27.171553
69.535 28.145187
69.540 28.994751
69.545 28.830639
69.550 29.009121
69.555 28.942472
69.560 29.048838
69.565 29.126511
69.570 29.297297
69.575 29.320032
69.580 29.427958
69.585 28.582766
69.590 28.422567
69.595 28.126722
69.600 27.52103
69.605 26.845007
69.610 26.566608
69.615 26.817183
69.620 27.123711
69.625 26.875235
69.630 27.653629
69.635 27.818777
69.640 27.86305
69.645 28.317236
69.650 28.54215
69.655 29.445147
69.660 29.947102
69.665 29.645077
69.670 30.217012
69.675 29.955717
69.680 29.512411
69.685 28.712788
69.690 27.549175
69.695 27.10548
69.700 26.390448
69.705 25.328104
69.710 25.069941
69.715 24.847261
69.720 24.954723
69.725 24.759644
69.730 25.618183
69.735 26.149723
69.740 26.076729
69.745 26.207245
69.750 26.142271
69.755 26.587297
69.760 26.864712
69.765 26.864285
69.770 26.787857
69.775 26.971008
69.780 26.583569
69.785 26.394875
69.790 26.287382
69.795 25.930813
69.800 25.410486
69.805 25.165173
69.810 25.304905
69.815 25.126375
69.820 24.887018
69.825 24.134401
69.830 23.917416
69.835 24.057865
69.840 23.813051
69.845 23.920786
69.850 24.322552
69.855 24.490938
69.860 25.061951
69.865 25.035831
69.870 24.688585
69.875 25.218369
69.880 24.399311
69.885 24.344805
69.890 24.421186
69.895 24.038479
69.900 23.928659
69.905 23.60058
69.910 22.746721
69.915 23.057228
69.920 23.146189
69.925 22.771166
69.930 22.624969
69.935 22.747303
69.940 22.308338
69.945 22.324438
69.950 22.22204
69.955 21.996328
69.960 22.015205
69.965 21.785852
69.970 22.198877
69.975 22.596008
69.980 22.403517
69.985 22.256781
69.990 22.045694
69.995 22.122509
70.000 21.979759
70.005 22.083023
70.010 22.297224
70.015 22.402874
70.020 22.103481
70.025 21.995281
70.030 21.943441
70.035 21.560581
70.040 21.416517
70.045 21.081852
70.050 21.397022
70.055 21.454523
70.060 21.625118
70.065 21.600681
70.070 21.948587
70.075 21.871311
70.080 22.159567
70.085 21.739077
70.090 22.008123
70.095 21.67786
70.100 21.562855
70.105 21.511154
70.110 20.974768
70.115 21.160379
70.120 21.459566
70.125 20.993601
70.130 21.444115
70.135 21.83622
70.140 21.535618
70.145 22.27907
70.150 22.453491
70.155 22.167786
70.160 22.049309
70.165 21.887812
70.170 21.341436
70.175 21.331182
70.180 20.654528
70.185 20.099785
70.190 20.103966
70.195 20.484409
70.200 20.762573
70.205 20.640968
70.210 20.908291
70.215 21.052462
70.220 21.412909
70.225 20.810272
70.230 20.192001
70.235 19.978909
70.240 20.099174
70.245 20.323069
70.250 20.451773
70.255 20.50539
70.260 21.098391
70.265 21.033218
70.270 21.279203
70.275 20.777992
70.280 20.275028
70.285 20.033579
70.290 20.291256
70.295 20.2556
70.300 20.259405
70.305 19.746443
70.310 20.608347
70.315 21.324406
70.320 21.775908
70.325 21.793098
70.330 21.680525
70.335 21.591621
70.340 21.65366
70.345 21.565256
70.350 21.395819
70.355 20.607937
70.360 20.1682
70.365 20.146839
70.370 19.578314
70.375 19.581783
70.380 19.430613
70.385 19.188927
70.390 19.504885
70.395 19.845968
70.400 20.176476
70.405 20.908318
70.410 21.238165
70.415 20.974836
70.420 21.14481
70.425 20.677074
70.430 20.31543
70.435 20.33675
70.440 20.100338
70.445 19.73332
70.450 19.755373
70.455 19.888586
70.460 20.202623
70.465 20.030493
70.470 19.815075
70.475 19.921143
70.480 19.758169
70.485 19.410049
70.490 19.109234
70.495 19.307682
70.500 19.715231
70.505 19.8673
70.510 19.43466
70.515 19.406136
70.520 19.531254
70.525 19.857546
70.530 19.624708
70.535 19.404705
70.540 19.527416
70.545 19.90517
70.550 19.586571
70.555 19.412451
70.560 19.461006
70.565 19.715654
70.570 20.17433
70.575 20.391512
70.580 20.249952
70.585 20.638075
70.590 20.608564
70.595 20.596977
70.600 20.311443
70.605 19.88253
70.610 19.803814
70.615 20.409985
70.620 19.973627
70.625 20.264385
70.630 20.245352
70.635 20.287577
70.640 20.037405
70.645 19.366034
70.650 19.513136
70.655 20.195978
70.660 20.323364
70.665 20.340939
70.670 20.323317
70.675 20.958197
70.680 21.325991
70.685 20.520334
70.690 20.848942
70.695 20.651796
70.700 20.813244
70.705 20.857382
70.710 20.522047
70.715 20.474619
70.720 20.491598
70.725 19.888489
70.730 19.572231
70.735 18.866829
70.740 19.288521
70.745 19.23134
70.750 19.374413
70.755 19.820091
70.760 20.017231
70.765 20.654661
70.770 20.800074
70.775 20.646809
70.780 20.15971
70.785 19.547905
70.790 19.701223
70.795 19.209427
70.800 18.527012
70.805 18.288811
70.810 18.133907
70.815 18.717169
70.820 19.164192
70.825 18.895716
70.830 19.559759
70.835 20.225618
70.840 20.259766
70.845 20.636236
70.850 20.063778
70.855 19.636074
70.860 19.34631
70.865 19.076424
70.870 19.00913
70.875 18.664898
70.880 18.893522
70.885 19.480103
70.890 20.04324
70.895 20.38784
70.900 20.128366
70.905 20.650719
70.910 21.280451
70.915 21.471466
70.920 21.436586
70.925 21.072939
70.930 20.679193
70.935 20.386055
70.940 20.123398
70.945 20.351748
70.950 20.177719
70.955 20.208235
70.960 20.003716
70.965 20.240042
70.970 20.835865
70.975 20.643286
70.980 19.610592
70.985 19.664595
70.990 19.749424
70.995 19.308807
71.000 19.214296
71.005 18.529827
71.010 18.193562
71.015 18.603533
71.020 18.173834
71.025 17.587618
71.030 17.667805
71.035 18.117178
71.040 18.332649
71.045 18.191439
71.050 18.108887
71.055 18.214165
71.060 18.780876
71.065 19.08359
71.070 18.779673
71.075 18.965227
71.080 19.042753
71.085 19.163877
71.090 18.742737
71.095 18.194782
71.100 17.591875
71.105 17.511467
71.110 17.558258
71.115 17.387051
71.120 16.955475
71.125 17.117479
71.130 17.454508
71.135 17.613592
71.140 17.171476
71.145 16.92429
71.150 17.09325
71.155 17.56885
71.160 17.576462
71.165 17.881989
71.170 18.125029
71.175 18.459852
71.180 19.127575
71.185 19.126926
71.190 19.303717
71.195 19.159731
71.200 18.81686
71.205 19.680685
71.210 20.275183
71.215 19.815943
71.220 19.829836
71.225 19.967096
71.230 20.24597
71.235 20.132277
71.240 19.214455
71.245 18.952229
71.250 19.177662
71.255 19.383652
71.260 19.450043
71.265 20.175926
71.270 20.055334
71.275 19.561735
71.280 18.71382
71.285 18.865166
71.290 18.854471
71.295 18.577164
71.300 17.420778
71.305 17.88607
71.310 18.459686
71.315 18.974384
71.320 18.197437
71.325 17.708548
71.330 17.824604
71.335 19.038818
71.340 19.309088
71.345 19.598314
71.350 19.486948
71.355 20.187973
71.360 20.515162
71.365 19.659794
71.370 18.720531
71.375 18.600828
71.380 18.480907
71.385 18.541071
71.390 18.406725
71.395 18.921076
71.400 19.280865
71.405 19.340319
71.410 18.744637
71.415 19.027922
71.420 18.939604
71.425 18.79644
71.430 18.616785
71.435 18.390635
71.440 18.462093
71.445 19.127148
71.450 19.031576
71.455 18.858242
71.460 18.697283
71.465 18.605356
71.470 18.968149
71.475 18.686583
71.480 17.994518
71.485 17.640533
71.490 17.504835
71.495 17.870581
71.500 17.840963
71.505 17.672823
71.510 17.677126
71.515 18.253902
71.520 19.114885
71.525 18.960541
71.530 18.832077
71.535 19.069988
71.540 19.301212
71.545 19.411726
71.550 19.877665
71.555 19.924559
71.560 20.290663
71.565 20.400232
71.570 20.120634
71.575 20.199368
71.580 20.327854
71.585 20.197054
71.590 19.853352
71.595 19.754644
71.600 19.82678
71.605 20.467543
71.610 20.188999
71.615 20.259598
71.620 20.754627
71.625 20.975393
71.630 21.040848
71.635 20.938763
71.640 21.149797
71.645 21.274632
71.650 21.104824
71.655 20.680758
71.660 20.135273
71.665 19.788626
71.670 19.523998
71.675 19.153257
71.680 18.66474
71.685 18.403589
71.690 18.83639
71.695 19.286083
71.700 19.266579
71.705 19.432108
71.710 19.538349
71.715 19.596748
71.720 19.390615
71.725 19.05027
71.730 18.987797
71.735 18.795216
71.740 19.069723
71.745 18.460501
71.750 18.266891
71.755 18.451883
71.760 19.069452
71.765 19.717602
71.770 20.118376
71.775 19.867466
71.780 20.745642
71.785 20.778683
71.790 20.038813
71.795 19.563951
71.800 19.167793
71.805 19.709324
71.810 19.728373
71.815 19.38599
71.820 19.678801
71.825 19.461561
71.830 19.305441
71.835 19.247158
71.840 18.80986
71.845 19.149914
71.850 19.140923
71.855 19.474274
71.860 19.792471
71.865 19.551004
71.870 19.187197
71.875 18.51001
71.880 17.902222
71.885 18.280371
71.890 18.294312
71.895 17.659618
71.900 17.776503
71.905 17.743654
71.910 18.547527
71.915 18.950102
71.920 18.778728
71.925 18.846718
71.930 19.656845
71.935 19.376167
71.940 19.086555
71.945 18.636959
71.950 18.114281
71.955 17.907276
71.960 17.526285
71.965 17.353691
71.970 17.724802
71.975 18.426683
71.980 18.817427
71.985 19.044336
71.990 18.940165
71.995 19.039484
72.000 18.887915
72.005 18.385939
72.010 18.018288
72.015 18.038168
72.020 17.739107
72.025 17.754192
72.030 17.696953
72.035 18.21578
72.040 18.387564
72.045 18.802114
72.050 19.84252
72.055 19.862291
72.060 19.753687
72.065 19.474419
72.070 19.068684
72.075 19.395947
72.080 19.448872
72.085 18.672596
72.090 19.151976
72.095 19.608452
72.100 20.156155
72.105 20.32749
72.110 19.377304
72.115 17.793232
72.120 17.658501
72.125 17.599609
72.130 17.273403
72.135 17.578529
72.140 18.013205
72.145 18.531517
72.150 19.476721
72.155 19.664799
72.160 19.830429
72.165 19.905775
72.170 19.640348
72.175 19.552298
72.180 19.733593
72.185 19.205095
72.190 19.357632
72.195 19.787094
72.200 20.005804
72.205 19.844915
72.210 19.140985
72.215 18.336952
72.220 18.645178
72.225 17.998316
72.230 17.724998
72.235 17.424129
72.240 17.026909
72.245 17.666597
72.250 18.183884
72.255 18.708241
72.260 19.020119
72.265 18.926594
72.270 19.664587
72.275 19.742405
72.280 20.054142
72.285 19.727482
72.290 19.478077
72.295 19.097893
72.300 18.784164
72.305 18.364065
72.310 18.333685
72.315 18.67638
72.320 18.371555
72.325 18.101774
72.330 18.257666
72.335 18.483616
72.340 18.68343
72.345 18.236813
72.350 18.163019
72.355 18.464161
72.360 18.498335
72.365 18.65325
72.370 18.550297
72.375 19.101208
72.380 19.235155
72.385 19.010143
72.390 19.092384
72.395 19.314375
72.400 19.131708
72.405 18.846525
72.410 18.450006
72.415 18.782028
72.420 19.211477
72.425 19.31621
72.430 19.570612
72.435 19.783657
72.440 20.037968
72.445 20.198845
72.450 19.962597
72.455 19.341396
72.460 18.588909
72.465 17.976189
72.470 17.931511
72.475 17.532759
72.480 17.452768
72.485 17.906404
72.490 17.729813
72.495 18.590139
72.500 19.120136
72.505 19.248301
72.510 19.480864
72.515 19.400883
72.520 19.600451
72.525 20.500317
72.530 19.781303
72.535 19.186356
72.540 19.657461
72.545 19.998098
72.550 20.181145
72.555 19.545521
72.560 18.62273
72.565 18.557966
72.570 17.790871
72.575 17.213282
72.580 16.777975
72.585 16.69486
72.590 17.458603
72.595 18.063614
72.600 18.336943
72.605 18.611937
72.610 18.350895
72.615 18.662062
72.620 18.406549
72.625 17.765175
72.630 17.775057
72.635 17.865871
72.640 17.886862
72.645 18.186317
72.650 17.787037
72.655 17.796789
72.660 17.760204
72.665 17.898485
72.670 18.346275
72.675 18.486589
72.680 18.316952
72.685 17.929125
72.690 18.414427
72.695 18.705996
72.700 19.07193
72.705 18.975899
72.710 19.010967
72.715 19.35894
72.720 18.928185
72.725 18.284464
72.730 18.194874
72.735 17.621561
72.740 17.667206
72.745 17.564304
72.750 17.272356
72.755 17.999475
72.760 18.428326
72.765 18.49262
72.770 18.607521
72.775 18.374874
72.780 17.958183
72.785 18.366943
72.790 18.204292
72.795 17.812759
72.800 17.951351
72.805 18.021526
72.810 17.818491
72.815 17.776539
72.820 17.161873
72.825 16.720875
72.830 16.638721
72.835 16.772026
72.840 16.786644
72.845 17.495827
72.850 17.47315
72.855 17.723045
72.860 17.942471
72.865 17.6908
72.870 17.744699
72.875 17.590027
72.880 17.631411
72.885 18.224718
72.890 18.199245
72.895 18.462458
72.900 17.837053
72.905 17.53087
72.910 17.664223
72.915 17.470119
72.920 16.986662
72.925 16.382025
72.930 16.158005
72.935 16.220795
72.940 16.381147
72.945 17.004387
72.950 16.758039
72.955 16.739023
72.960 17.093985
72.965 17.586794
72.970 17.853888
72.975 17.678856
72.980 17.212078
72.985 17.264402
72.990 17.687269
72.995 16.953459
73.000 16.706528
