!@!!GADDS PLOTSO FILE: Chi integration type
!@!!Title/SampleName: map-3a
!@!!Comment: ?
!@!!User: Bruker Instrument Administrator
!@!!Site: University of Illinois Chicago
!@!!Frame: map-3a_01_000.gfrm
!@!!Wavelengths    1.54184   1.54056   1.54439
!@!!Frame angles: 2Theta: 63.000 Omega: 50.000 Phi: 0.000 Chi: 90.000
!@!!Integration range: 2Theta: 53.000 to 73.000  Gamma: -105.000 to -75.000
!@!!Integration method: bin normalized
!@!N
!@!SS
!@!M
!@!L 0.0 0.0 0.0 0.0
!@!XDegrees
!@!YCounts
53.000 8.942014
53.005 9.080542
53.010 9.256693
53.015 9.214981
53.020 9.419686
53.025 9.58441
53.030 9.646492
53.035 9.855773
53.040 10.135237
53.045 10.501584
53.050 10.665502
53.055 10.413336
53.060 9.982842
53.065 10.101098
53.070 10.317161
53.075 9.89998
53.080 9.551341
53.085 9.798979
53.090 10.100245
53.095 10.085107
53.100 9.605509
53.105 9.595015
53.110 9.713717
53.115 9.451828
53.120 9.0449
53.125 8.59485
53.130 8.850105
53.135 8.605969
53.140 8.250678
53.145 8.059523
53.150 8.152149
53.155 8.142074
53.160 8.513284
53.165 8.639994
53.170 8.955221
53.175 9.197493
53.180 9.413965
53.185 9.80605
53.190 10.154896
53.195 10.248585
53.200 10.172197
53.205 9.979735
53.210 10.051729
53.215 10.339943
53.220 10.200886
53.225 9.911371
53.230 9.641816
53.235 9.701101
53.240 9.865648
53.245 9.430876
53.250 9.364202
53.255 9.259796
53.260 9.225474
53.265 9.540958
53.270 9.80639
53.275 9.819983
53.280 10.13456
53.285 9.930104
53.290 10.063266
53.295 10.107669
53.300 9.792128
53.305 9.532791
53.310 9.512356
53.315 9.812857
53.320 9.883763
53.325 9.898421
53.330 9.989305
53.335 10.039198
53.340 9.957809
53.345 9.824655
53.350 9.654556
53.355 9.726988
53.360 9.670738
53.365 9.616473
53.370 9.806806
53.375 9.698576
53.380 9.726089
53.385 9.567725
53.390 9.397738
53.395 9.586588
53.400 9.707517
53.405 9.799942
53.410 9.701097
53.415 9.73415
53.420 9.634065
53.425 9.603314
53.430 9.380299
53.435 9.016127
53.440 9.176247
53.445 9.094917
53.450 8.682693
53.455 8.797051
53.460 8.732068
53.465 8.876152
53.470 8.828719
53.475 8.887003
53.480 8.911936
53.485 9.340884
53.490 9.573588
53.495 10.015094
53.500 10.304046
53.505 10.631321
53.510 10.654777
53.515 11.104121
53.520 10.971218
53.525 10.724681
53.530 10.637926
53.535 10.243607
53.540 9.68829
53.545 9.367713
53.550 9.349896
53.555 9.434272
53.560 9.320032
53.565 9.024343
53.570 9.524783
53.575 10.359045
53.580 10.585341
53.585 10.286323
53.590 9.788324
53.595 9.715964
53.600 9.94848
53.605 9.69872
53.610 9.691845
53.615 9.789695
53.620 9.830412
53.625 10.155349
53.630 10.080267
53.635 9.64749
53.640 9.517047
53.645 9.179571
53.650 9.310677
53.655 9.697189
53.660 9.302167
53.665 9.367415
53.670 9.903564
53.675 9.807127
53.680 9.878819
53.685 9.77774
53.690 9.774438
53.695 10.106583
53.700 9.89471
53.705 9.7341
53.710 10.026283
53.715 10.018503
53.720 9.768799
53.725 9.464066
53.730 9.576389
53.735 9.961386
53.740 9.590024
53.745 9.63386
53.750 10.013741
53.755 10.080757
53.760 10.186659
53.765 10.376215
53.770 10.217755
53.775 10.338464
53.780 10.146198
53.785 10.105868
53.790 10.481044
53.795 10.936666
53.800 10.813869
53.805 10.558428
53.810 10.615155
53.815 10.662359
53.820 10.361444
53.825 10.327597
53.830 10.288196
53.835 10.48684
53.840 10.502323
53.845 10.494869
53.850 10.416472
53.855 10.219661
53.860 10.222
53.865 10.36824
53.870 10.516459
53.875 10.602798
53.880 10.857807
53.885 11.115316
53.890 11.304289
53.895 11.088862
53.900 10.589277
53.905 10.416932
53.910 10.514471
53.915 10.726162
53.920 10.409449
53.925 9.910061
53.930 9.481352
53.935 9.350557
53.940 9.845942
53.945 9.47614
53.950 9.136568
53.955 9.865161
53.960 10.484648
53.965 10.715126
53.970 10.828305
53.975 10.639328
53.980 10.50636
53.985 10.092215
53.990 10.077744
53.995 10.26438
54.000 10.838555
54.005 10.6994
54.010 10.732853
54.015 10.949935
54.020 11.242786
54.025 10.894283
54.030 10.847808
54.035 10.494298
54.040 10.099103
54.045 10.343435
54.050 10.522623
54.055 9.940109
54.060 9.828238
54.065 9.355086
54.070 9.988369
54.075 10.10966
54.080 9.517899
54.085 9.548806
54.090 9.825165
54.095 10.007821
54.100 10.48501
54.105 10.741202
54.110 11.163252
54.115 11.050769
54.120 10.597939
54.125 10.993553
54.130 10.644835
54.135 10.35858
54.140 10.292422
54.145 10.650238
54.150 11.485798
54.155 11.77529
54.160 11.725842
54.165 11.57977
54.170 11.755014
54.175 12.121303
54.180 12.29508
54.185 12.140751
54.190 12.275865
54.195 12.372557
54.200 12.613669
54.205 11.664041
54.210 11.062441
54.215 10.681284
54.220 10.432581
54.225 10.214849
54.230 10.322996
54.235 11.055145
54.240 11.866439
54.245 11.731124
54.250 11.612384
54.255 11.279665
54.260 11.194959
54.265 10.856815
54.270 10.682336
54.275 10.324433
54.280 10.555292
54.285 10.862084
54.290 11.34545
54.295 11.262665
54.300 10.59301
54.305 10.295732
54.310 10.574469
54.315 10.291768
54.320 9.578077
54.325 9.544736
54.330 9.78535
54.335 10.814233
54.340 10.662324
54.345 10.655629
54.350 11.501232
54.355 12.070496
54.360 11.88387
54.365 11.618638
54.370 11.237288
54.375 11.309498
54.380 10.834987
54.385 10.810909
54.390 11.039324
54.395 11.255365
54.400 11.479749
54.405 12.084507
54.410 12.4721
54.415 12.276684
54.420 11.653948
54.425 11.549808
54.430 11.604212
54.435 11.057096
54.440 10.464068
54.445 10.197187
54.450 10.69901
54.455 10.788655
54.460 10.789536
54.465 10.624918
54.470 10.505591
54.475 10.214453
54.480 10.040738
54.485 9.713435
54.490 9.816038
54.495 9.851768
54.500 9.85878
54.505 10.747653
54.510 11.408422
54.515 11.709359
54.520 11.823998
54.525 12.054491
54.530 12.20085
54.535 12.398391
54.540 12.210872
54.545 11.828255
54.550 11.978448
54.555 12.636128
54.560 12.881368
54.565 12.783353
54.570 12.629986
54.575 12.258466
54.580 12.273399
54.585 11.745651
54.590 10.591207
54.595 10.419509
54.600 10.49714
54.605 10.350943
54.610 10.862966
54.615 11.036852
54.620 11.664391
54.625 12.451576
54.630 12.490212
54.635 12.433463
54.640 12.238074
54.645 11.838016
54.650 12.068488
54.655 11.479431
54.660 11.341467
54.665 11.249096
54.670 10.927591
54.675 11.265738
54.680 11.566122
54.685 11.356922
54.690 11.233387
54.695 10.828709
54.700 10.842379
54.705 11.245525
54.710 10.720633
54.715 9.909364
54.720 9.761451
54.725 10.03312
54.730 10.352325
54.735 10.734678
54.740 10.6462
54.745 10.70527
54.750 10.955647
54.755 11.221016
54.760 11.187117
54.765 10.934376
54.770 10.953612
54.775 11.350414
54.780 11.869031
54.785 11.92304
54.790 12.402574
54.795 12.618353
54.800 12.653427
54.805 12.304803
54.810 12.035726
54.815 12.362049
54.820 12.681746
54.825 12.69527
54.830 12.585218
54.835 12.491231
54.840 12.500866
54.845 12.562121
54.850 12.028875
54.855 11.690812
54.860 11.44163
54.865 11.336719
54.870 11.630308
54.875 11.655119
54.880 11.873159
54.885 11.75397
54.890 11.751919
54.895 11.997477
54.900 12.152868
54.905 12.16322
54.910 12.006376
54.915 12.191396
54.920 12.248239
54.925 12.100699
54.930 12.233285
54.935 12.032881
54.940 12.053082
54.945 12.199657
54.950 12.281009
54.955 12.713378
54.960 12.50014
54.965 11.808858
54.970 11.689165
54.975 11.760861
54.980 11.752285
54.985 11.36605
54.990 11.134988
54.995 11.344798
55.000 11.579071
55.005 11.41819
55.010 11.3097
55.015 11.402746
55.020 11.55588
55.025 11.313471
55.030 11.119205
55.035 11.317833
55.040 11.34654
55.045 11.105066
55.050 10.446954
55.055 10.264676
55.060 10.671995
55.065 10.792351
55.070 10.61391
55.075 10.830431
55.080 10.902423
55.085 10.720998
55.090 10.725527
55.095 10.808416
55.100 11.592763
55.105 11.629712
55.110 11.781967
55.115 12.566993
55.120 13.00651
55.125 13.055839
55.130 12.772902
55.135 12.42998
55.140 12.768244
55.145 13.035634
55.150 13.065816
55.155 13.211638
55.160 12.840279
55.165 12.629776
55.170 12.225116
55.175 11.978209
55.180 11.345666
55.185 11.600965
55.190 11.923617
55.195 12.039968
55.200 11.896423
55.205 11.930167
55.210 11.649173
55.215 11.403928
55.220 11.263
55.225 11.488402
55.230 11.974562
55.235 12.388242
55.240 12.334763
55.245 12.205427
55.250 12.190533
55.255 11.416658
55.260 11.080602
55.265 10.108867
55.270 10.383874
55.275 10.773879
55.280 11.339185
55.285 11.774291
55.290 12.451388
55.295 12.642375
55.300 13.030384
55.305 12.689952
55.310 12.695807
55.315 12.706261
55.320 12.839293
55.325 12.40734
55.330 13.010713
55.335 13.279844
55.340 13.301231
55.345 13.525416
55.350 13.378203
55.355 12.759333
55.360 13.038065
55.365 12.838818
55.370 12.439748
55.375 12.126677
55.380 11.834192
55.385 11.7737
55.390 11.825438
55.395 11.586713
55.400 10.962122
55.405 10.97656
55.410 10.88347
55.415 10.935307
55.420 10.426933
55.425 10.571198
55.430 10.604711
55.435 10.674057
55.440 10.401013
55.445 10.757442
55.450 10.846488
55.455 11.666813
55.460 12.306045
55.465 12.584913
55.470 13.239121
55.475 13.796151
55.480 13.53755
55.485 13.569721
55.490 12.886683
55.495 12.437323
55.500 11.961432
55.505 11.514891
55.510 11.220928
55.515 11.248728
55.520 11.516355
55.525 11.982348
55.530 12.206709
55.535 12.890999
55.540 13.209328
55.545 13.252442
55.550 12.992307
55.555 12.720622
55.560 12.491157
55.565 11.844282
55.570 11.766802
55.575 12.038855
55.580 11.691004
55.585 12.079047
55.590 12.123678
55.595 12.288917
55.600 11.944675
55.605 11.632029
55.610 11.451767
55.615 11.347485
55.620 11.080257
55.625 11.369178
55.630 11.634775
55.635 11.909692
55.640 11.967643
55.645 12.534639
55.650 13.364705
55.655 13.494377
55.660 13.296561
55.665 13.031253
55.670 12.779093
55.675 12.81398
55.680 13.050614
55.685 12.879525
55.690 12.955842
55.695 12.641446
55.700 12.831581
55.705 12.888038
55.710 12.595439
55.715 12.269759
55.720 12.19125
55.725 11.960391
55.730 12.205156
55.735 12.746352
55.740 12.725874
55.745 12.515342
55.750 12.338821
55.755 12.687969
55.760 13.165006
55.765 12.78434
55.770 12.729092
55.775 12.793535
55.780 13.315508
55.785 13.288922
55.790 13.249511
55.795 13.38663
55.800 13.300564
55.805 13.514405
55.810 13.311766
55.815 13.161048
55.820 12.950752
55.825 12.539391
55.830 12.515669
55.835 12.453277
55.840 12.696475
55.845 13.064967
55.850 13.066723
55.855 13.656981
55.860 14.522983
55.865 14.578933
55.870 14.865101
55.875 14.493851
55.880 14.117888
55.885 13.892966
55.890 13.281737
55.895 12.649313
55.900 12.564365
55.905 12.391644
55.910 13.005731
55.915 13.570385
55.920 13.573678
55.925 13.397304
55.930 13.410491
55.935 13.385389
55.940 13.247766
55.945 12.713871
55.950 12.766535
55.955 13.33558
55.960 13.41384
55.965 13.452133
55.970 13.384275
55.975 13.681918
55.980 13.567205
55.985 13.318348
55.990 13.082295
55.995 12.554183
56.000 11.992798
56.005 11.82396
56.010 11.619507
56.015 11.354143
56.020 10.977838
56.025 11.069392
56.030 12.014615
56.035 12.673769
56.040 12.6658
56.045 12.283727
56.050 12.448485
56.055 12.743029
56.060 12.967877
56.065 12.866251
56.070 12.482477
56.075 12.398608
56.080 12.372151
56.085 12.054226
56.090 12.056444
56.095 11.963956
56.100 11.738805
56.105 11.452985
56.110 11.760268
56.115 12.426801
56.120 12.971236
56.125 12.451319
56.130 12.060604
56.135 12.512098
56.140 13.381917
56.145 13.648539
56.150 13.174897
56.155 13.176558
56.160 13.357746
56.165 13.717028
56.170 13.439924
56.175 13.03646
56.180 12.686619
56.185 12.961949
56.190 12.877707
56.195 13.116917
56.200 12.809707
56.205 12.938625
56.210 13.239023
56.215 13.480907
56.220 13.558287
56.225 13.956674
56.230 14.095646
56.235 14.429874
56.240 14.32659
56.245 14.17854
56.250 14.131112
56.255 13.988739
56.260 13.609678
56.265 13.225435
56.270 12.964568
56.275 13.319676
56.280 13.254043
56.285 13.122386
56.290 12.702045
56.295 12.706304
56.300 12.925092
56.305 13.445305
56.310 14.033485
56.315 14.581955
56.320 14.912674
56.325 14.966165
56.330 15.128973
56.335 15.316153
56.340 14.719643
56.345 13.919479
56.350 13.053033
56.355 12.939993
56.360 13.56156
56.365 13.501513
56.370 13.285351
56.375 13.242702
56.380 13.252162
56.385 14.167345
56.390 13.566615
56.395 13.292898
56.400 12.884295
56.405 12.915206
56.410 13.414254
56.415 12.981177
56.420 13.113282
56.425 13.729958
56.430 14.198271
56.435 14.228983
56.440 13.449547
56.445 13.036306
56.450 13.193101
56.455 13.364032
56.460 13.53999
56.465 13.055804
56.470 13.585397
56.475 14.549902
56.480 14.765602
56.485 14.484843
56.490 14.799357
56.495 14.975065
56.500 15.114796
56.505 14.901708
56.510 13.91259
56.515 14.196817
56.520 14.507474
56.525 13.681903
56.530 13.744761
56.535 13.793976
56.540 13.614563
56.545 13.707706
56.550 13.412218
56.555 13.3248
56.560 13.227814
56.565 12.9303
56.570 12.946566
56.575 13.347142
56.580 13.391146
56.585 13.645153
56.590 13.430079
56.595 13.541546
56.600 13.283638
56.605 13.271077
56.610 13.104436
56.615 13.332932
56.620 13.19501
56.625 13.38207
56.630 13.520732
56.635 13.571496
56.640 13.925854
56.645 14.175574
56.650 13.891998
56.655 13.995232
56.660 14.484757
56.665 14.322638
56.670 14.351676
56.675 14.067739
56.680 13.81292
56.685 13.495181
56.690 13.112846
56.695 13.10688
56.700 13.603215
56.705 13.951413
56.710 14.016613
56.715 14.26273
56.720 14.452274
56.725 14.924812
56.730 15.199827
56.735 15.08296
56.740 14.86098
56.745 14.873491
56.750 15.223635
56.755 15.463746
56.760 15.420362
56.765 15.052932
56.770 14.73536
56.775 14.813101
56.780 14.57185
56.785 14.032855
56.790 13.983095
56.795 13.782264
56.800 13.99884
56.805 14.265039
56.810 14.414487
56.815 14.541113
56.820 14.512718
56.825 14.758183
56.830 14.42418
56.835 14.153981
56.840 13.627171
56.845 13.466056
56.850 13.42927
56.855 13.699844
56.860 13.53139
56.865 14.089724
56.870 14.398369
56.875 14.863376
56.880 15.125628
56.885 15.372346
56.890 14.817816
56.895 14.215301
56.900 13.732637
56.905 13.794217
56.910 13.932636
56.915 13.303072
56.920 13.109985
56.925 13.865661
56.930 14.441511
56.935 14.49414
56.940 14.210954
56.945 14.256495
56.950 14.570316
56.955 14.783002
56.960 14.358867
56.965 13.834745
56.970 14.199075
56.975 14.914878
56.980 14.604941
56.985 14.348416
56.990 14.530917
56.995 14.871844
57.000 15.154832
57.005 14.535644
57.010 14.253575
57.015 14.425051
57.020 14.516797
57.025 14.487672
57.030 14.215493
57.035 14.20297
57.040 13.881701
57.045 13.746901
57.050 13.947933
57.055 14.327695
57.060 13.998949
57.065 13.776214
57.070 13.948879
57.075 14.41153
57.080 14.296835
57.085 14.226601
57.090 14.458712
57.095 14.636121
57.100 14.837896
57.105 14.421997
57.110 13.78581
57.115 13.416192
57.120 12.924427
57.125 12.203702
57.130 11.884706
57.135 11.575969
57.140 11.663857
57.145 12.560811
57.150 13.231447
57.155 13.454529
57.160 13.543945
57.165 13.645873
57.170 13.829829
57.175 13.884637
57.180 12.934079
57.185 12.731746
57.190 13.050565
57.195 13.084639
57.200 13.405416
57.205 13.973117
57.210 13.616926
57.215 13.922222
57.220 13.939429
57.225 13.869163
57.230 14.004169
57.235 14.169268
57.240 13.979177
57.245 14.572487
57.250 14.435384
57.255 14.219545
57.260 13.993987
57.265 14.212717
57.270 14.19461
57.275 14.283663
57.280 14.298155
57.285 14.392965
57.290 14.338884
57.295 15.082685
57.300 14.950257
57.305 15.336052
57.310 15.868744
57.315 15.753243
57.320 15.847181
57.325 16.270414
57.330 16.054104
57.335 16.239214
57.340 15.48141
57.345 15.321485
57.350 15.528807
57.355 15.374399
57.360 15.195971
57.365 15.304651
57.370 15.07054
57.375 15.054413
57.380 15.128091
57.385 15.361219
57.390 15.339961
57.395 15.630014
57.400 15.500465
57.405 15.476158
57.410 15.615316
57.415 15.656652
57.420 15.928544
57.425 15.773987
57.430 14.646877
57.435 14.344481
57.440 14.528267
57.445 14.187821
57.450 13.954866
57.455 13.792254
57.460 14.242123
57.465 14.578715
57.470 14.735696
57.475 14.277551
57.480 14.332619
57.485 14.409247
57.490 14.583495
57.495 14.832938
57.500 15.068407
57.505 15.079984
57.510 15.198091
57.515 15.037164
57.520 14.523141
57.525 14.458658
57.530 14.623897
57.535 14.591154
57.540 14.506372
57.545 14.768285
57.550 15.20922
57.555 15.794235
57.560 15.378028
57.565 14.854733
57.570 15.083748
57.575 15.25519
57.580 15.357721
57.585 15.095066
57.590 15.223683
57.595 15.567862
57.600 15.917872
57.605 16.275545
57.610 15.780889
57.615 15.632978
57.620 15.58321
57.625 15.53861
57.630 15.736488
57.635 15.18875
57.640 14.403158
57.645 14.555618
57.650 14.59647
57.655 14.650455
57.660 14.728224
57.665 14.570476
57.670 14.855515
57.675 15.29909
57.680 15.195404
57.685 15.233211
57.690 15.047332
57.695 14.949282
57.700 14.885262
57.705 15.08902
57.710 15.266346
57.715 15.554048
57.720 15.939115
57.725 16.165543
57.730 16.119192
57.735 16.194021
57.740 15.780455
57.745 16.010242
57.750 15.869339
57.755 15.715265
57.760 15.421337
57.765 15.231483
57.770 15.469959
57.775 15.650939
57.780 15.402393
57.785 15.343649
57.790 15.073626
57.795 15.309526
57.800 15.251798
57.805 15.379676
57.810 15.291378
57.815 15.998165
57.820 16.583658
57.825 17.033705
57.830 17.02659
57.835 16.757095
57.840 16.380541
57.845 16.072401
57.850 15.7314
57.855 15.008261
57.860 14.482252
57.865 14.123913
57.870 13.818528
57.875 13.542635
57.880 13.555712
57.885 13.144489
57.890 13.553374
57.895 13.619583
57.900 14.175483
57.905 14.866378
57.910 15.103722
57.915 14.967448
57.920 15.088445
57.925 14.815592
57.930 14.789653
57.935 14.56892
57.940 13.94801
57.945 13.955206
57.950 14.310348
57.955 14.476382
57.960 14.718801
57.965 14.673388
57.970 14.447154
57.975 14.929787
57.980 15.379143
57.985 15.014887
57.990 14.656134
57.995 14.610066
58.000 14.771564
58.005 14.915513
58.010 14.689641
58.015 14.419924
58.020 14.662173
58.025 15.098668
58.030 14.832344
58.035 14.790526
58.040 14.991401
58.045 15.361797
58.050 15.30131
58.055 15.399461
58.060 15.091356
58.065 14.983658
58.070 15.532549
58.075 15.481212
58.080 14.930888
58.085 14.821532
58.090 14.655899
58.095 14.815796
58.100 15.471353
58.105 15.116222
58.110 14.966117
58.115 15.243819
58.120 15.605842
58.125 16.199789
58.130 16.158663
58.135 15.927607
58.140 15.775249
58.145 15.88062
58.150 15.794614
58.155 15.187508
58.160 14.696874
58.165 14.911788
58.170 14.805046
58.175 15.204047
58.180 15.302542
58.185 16.004465
58.190 16.039495
58.195 16.381641
58.200 16.813316
58.205 16.885429
58.210 16.418051
58.215 16.229897
58.220 16.010479
58.225 16.271761
58.230 16.050222
58.235 15.578819
58.240 15.629442
58.245 15.557401
58.250 14.847476
58.255 14.714974
58.260 14.971917
58.265 14.444438
58.270 14.342603
58.275 14.382208
58.280 15.220407
58.285 16.18796
58.290 15.951853
58.295 15.524933
58.300 16.119331
58.305 16.072195
58.310 15.886022
58.315 15.678189
58.320 15.41126
58.325 15.237402
58.330 15.622346
58.335 15.609965
58.340 16.159948
58.345 15.905912
58.350 15.802865
58.355 16.375072
58.360 16.72584
58.365 16.763113
58.370 16.419191
58.375 16.05221
58.380 16.494787
58.385 16.476191
58.390 16.559673
58.395 16.774599
58.400 16.274071
58.405 16.367176
58.410 16.318007
58.415 16.406668
58.420 16.283638
58.425 15.698173
58.430 15.47954
58.435 15.565959
58.440 15.559421
58.445 15.965182
58.450 16.047689
58.455 15.713953
58.460 15.708286
58.465 15.721064
58.470 16.085369
58.475 16.690113
58.480 16.498802
58.485 16.313379
58.490 16.727449
58.495 16.948006
58.500 17.215895
58.505 17.324768
58.510 16.905754
58.515 16.660313
58.520 16.628204
58.525 16.46348
58.530 16.524036
58.535 16.206734
58.540 16.163708
58.545 16.323629
58.550 16.406509
58.555 16.629137
58.560 16.661119
58.565 17.256439
58.570 18.071245
58.575 18.083448
58.580 17.782131
58.585 18.110981
58.590 18.284481
58.595 18.494463
58.600 18.094282
58.605 17.667835
58.610 17.389219
58.615 17.186735
58.620 16.627272
58.625 16.629107
58.630 16.949862
58.635 16.91876
58.640 16.529503
58.645 16.958832
58.650 17.56739
58.655 17.774599
58.660 17.837217
58.665 17.39068
58.670 17.495361
58.675 17.844673
58.680 17.735847
58.685 18.175459
58.690 17.913912
58.695 18.115356
58.700 18.58214
58.705 18.48068
58.710 18.588745
58.715 18.84074
58.720 18.367945
58.725 18.71859
58.730 18.359968
58.735 18.246559
58.740 18.02334
58.745 17.834221
58.750 17.538813
58.755 17.290655
58.760 17.441965
58.765 17.094194
58.770 16.953529
58.775 17.085009
58.780 17.163088
58.785 17.165731
58.790 16.966188
58.795 17.00359
58.800 17.353331
58.805 16.849464
58.810 16.808353
58.815 16.529917
58.820 16.407143
58.825 17.216223
58.830 16.699007
58.835 16.314817
58.840 16.946663
58.845 17.525606
58.850 17.581575
58.855 17.350916
58.860 17.037594
58.865 17.08976
58.870 17.024729
58.875 16.983147
58.880 17.019306
58.885 17.489216
58.890 17.729391
58.895 17.792362
58.900 17.911922
58.905 17.853283
58.910 17.698433
58.915 17.226563
58.920 16.790443
58.925 16.860735
58.930 16.784069
58.935 17.197645
58.940 17.498379
58.945 17.098404
58.950 17.147247
58.955 17.264973
58.960 17.118277
58.965 17.277195
58.970 17.252562
58.975 16.911407
58.980 16.996618
58.985 17.057596
58.990 17.245249
58.995 17.090525
59.000 17.13792
59.005 17.356827
59.010 18.005726
59.015 18.200361
59.020 18.119083
59.025 17.780634
59.030 17.934576
59.035 17.37521
59.040 17.361317
59.045 17.475512
59.050 17.361195
59.055 17.136271
59.060 16.96788
59.065 16.797602
59.070 16.501564
59.075 16.552879
59.080 16.584532
59.085 16.972595
59.090 17.630135
59.095 18.150518
59.100 18.717674
59.105 19.290154
59.110 18.561186
59.115 18.467184
59.120 18.095768
59.125 18.014402
59.130 17.463655
59.135 17.467142
59.140 17.347084
59.145 17.562416
59.150 18.070858
59.155 18.179564
59.160 18.328135
59.165 18.630714
59.170 18.126057
59.175 18.224964
59.180 18.263414
59.185 18.43833
59.190 18.163465
59.195 18.366068
59.200 18.282684
59.205 18.307245
59.210 18.74848
59.215 19.107122
59.220 18.668764
59.225 18.71834
59.230 18.299492
59.235 18.005644
59.240 18.114695
59.245 18.218966
59.250 17.651501
59.255 17.382109
59.260 17.763346
59.265 18.357098
59.270 18.587149
59.275 18.654207
59.280 18.44165
59.285 18.734795
59.290 19.125727
59.295 18.84782
59.300 18.443222
59.305 18.357363
59.310 18.173155
59.315 17.900551
59.320 17.896132
59.325 17.929195
59.330 18.4013
59.335 18.402443
59.340 18.628162
59.345 18.923595
59.350 19.306927
59.355 19.530853
59.360 18.935453
59.365 18.171078
59.370 18.018847
59.375 17.97312
59.380 17.005922
59.385 16.765232
59.390 16.764336
59.395 16.921511
59.400 16.877487
59.405 16.559364
59.410 16.540676
59.415 16.555792
59.420 15.973649
59.425 17.258295
59.430 18.097921
59.435 18.347477
59.440 18.675388
59.445 19.063286
59.450 19.404955
59.455 19.540323
59.460 18.222486
59.465 17.246223
59.470 17.394424
59.475 17.414677
59.480 17.422132
59.485 17.999863
59.490 18.199167
59.495 18.611847
59.500 18.904844
59.505 18.861784
59.510 18.875381
59.515 19.269835
59.520 19.226236
59.525 18.894802
59.530 18.57526
59.535 18.637901
59.540 18.904631
59.545 18.599636
59.550 18.660734
59.555 19.06871
59.560 19.007
59.565 19.053591
59.570 18.631758
59.575 18.610771
59.580 18.81518
59.585 18.227659
59.590 17.721085
59.595 17.514959
59.600 17.228243
59.605 17.684986
59.610 17.968031
59.615 17.973999
59.620 18.179552
59.625 18.200731
59.630 19.642851
59.635 20.357872
59.640 20.093334
59.645 19.527056
59.650 19.54635
59.655 19.435905
59.660 19.105415
59.665 18.131916
59.670 17.488197
59.675 17.856258
59.680 18.378729
59.685 18.649416
59.690 19.311277
59.695 19.295887
59.700 19.400549
59.705 18.961609
59.710 18.752319
59.715 18.207886
59.720 17.621078
59.725 17.073246
59.730 17.601885
59.735 18.081753
59.740 18.742868
59.745 19.664972
59.750 20.245157
59.755 20.723389
59.760 21.113964
59.765 20.634909
59.770 20.991112
59.775 21.262413
59.780 21.213943
59.785 21.17564
59.790 21.166739
59.795 20.899969
59.800 21.56319
59.805 20.572788
59.810 20.156254
59.815 19.473944
59.820 19.60202
59.825 19.725258
59.830 19.687859
59.835 19.238302
59.840 19.728933
59.845 19.574392
59.850 19.539192
59.855 19.863829
59.860 19.504925
59.865 19.404219
59.870 19.598118
59.875 19.929108
59.880 20.163698
59.885 20.22991
59.890 19.292334
59.895 19.278913
59.900 19.568308
59.905 19.920746
59.910 19.824183
59.915 19.550398
59.920 19.610376
59.925 20.057674
59.930 19.811874
59.935 19.745089
59.940 19.37002
59.945 19.149948
59.950 19.256443
59.955 19.021778
59.960 19.426987
59.965 19.960714
59.970 20.090574
59.975 20.054714
59.980 20.610001
59.985 21.095615
59.990 21.90242
59.995 21.791134
60.000 21.394947
60.005 21.297773
60.010 21.42881
60.015 20.711853
60.020 20.335615
60.025 20.385653
60.030 20.481707
60.035 20.486168
60.040 20.618252
60.045 20.568132
60.050 21.203056
60.055 21.619085
60.060 20.833406
60.065 20.29701
60.070 20.331163
60.075 20.38755
60.080 20.581182
60.085 20.161354
60.090 19.803934
60.095 20.443546
60.100 21.386536
60.105 20.995113
60.110 20.695179
60.115 20.65394
60.120 21.07345
60.125 21.451782
60.130 21.256727
60.135 21.224428
60.140 22.74127
60.145 23.185297
60.150 23.464622
60.155 23.500883
60.160 23.596035
60.165 23.506235
60.170 23.062405
60.175 22.091217
60.180 21.328966
60.185 21.109743
60.190 20.722412
60.195 20.162544
60.200 19.634951
60.205 19.342693
60.210 19.421188
60.215 19.949049
60.220 19.932632
60.225 19.986969
60.230 20.039793
60.235 20.167385
60.240 20.507046
60.245 21.160343
60.250 21.388432
60.255 21.761042
60.260 22.037817
60.265 22.224918
60.270 22.407122
60.275 21.626978
60.280 21.078793
60.285 20.934992
60.290 20.760216
60.295 20.6474
60.300 20.569389
60.305 21.082428
60.310 21.457069
60.315 21.427834
60.320 21.162294
60.325 20.889088
60.330 21.042192
60.335 21.46726
60.340 22.002281
60.345 22.25835
60.350 22.057331
60.355 22.2631
60.360 22.482492
60.365 22.669687
60.370 22.569962
60.375 21.935635
60.380 22.065903
60.385 22.73772
60.390 22.589684
60.395 22.96946
60.400 22.804623
60.405 22.375786
60.410 22.592104
60.415 22.295532
60.420 21.961243
60.425 22.119406
60.430 21.392673
60.435 21.546274
60.440 21.640116
60.445 21.665159
60.450 21.594894
60.455 21.386969
60.460 21.477085
60.465 21.670694
60.470 20.930784
60.475 19.920055
60.480 20.00745
60.485 20.265617
60.490 20.206045
60.495 20.278433
60.500 20.868795
60.505 21.593342
60.510 22.595869
60.515 22.825235
60.520 22.404306
60.525 22.275284
60.530 21.973598
60.535 21.495901
60.540 21.363251
60.545 20.925083
60.550 20.466444
60.555 20.477512
60.560 20.352655
60.565 20.571697
60.570 20.580217
60.575 20.548582
60.580 20.677982
60.585 21.09276
60.590 21.240652
60.595 21.413168
60.600 21.350618
60.605 21.246326
60.610 20.465511
60.615 19.85026
60.620 19.545343
60.625 18.948034
60.630 18.974318
60.635 18.679188
60.640 18.773117
60.645 19.334455
60.650 19.175381
60.655 19.078287
60.660 19.864002
60.665 19.536011
60.670 19.629713
60.675 19.626032
60.680 19.470903
60.685 19.629578
60.690 19.678526
60.695 19.424032
60.700 19.401379
60.705 19.724539
60.710 19.838495
60.715 19.464622
60.720 19.114985
60.725 18.700712
60.730 18.130835
60.735 18.116356
60.740 17.285755
60.745 16.941311
60.750 17.185972
60.755 17.602919
60.760 18.06349
60.765 18.726824
60.770 18.667629
60.775 18.252089
60.780 18.110699
60.785 17.7878
60.790 17.203112
60.795 17.164761
60.800 16.904034
60.805 16.951412
60.810 17.582483
60.815 18.332834
60.820 18.89797
60.825 19.483265
60.830 19.695438
60.835 19.656103
60.840 19.735535
60.845 19.617517
60.850 19.449753
60.855 19.384851
60.860 18.973766
60.865 18.380066
60.870 18.760328
60.875 18.890984
60.880 18.463688
60.885 17.820211
60.890 17.683428
60.895 17.924927
60.900 18.042812
60.905 17.549822
60.910 17.30863
60.915 17.673313
60.920 17.800358
60.925 17.88287
60.930 17.780457
60.935 17.580256
60.940 17.262835
60.945 16.966974
60.950 16.621231
60.955 16.958702
60.960 17.383419
60.965 17.224798
60.970 17.227505
60.975 17.389376
60.980 17.523199
60.985 18.083723
60.990 18.86739
60.995 18.823191
61.000 19.343601
61.005 19.614206
61.010 19.801083
61.015 19.69611
61.020 19.120775
61.025 18.270712
61.030 17.455938
61.035 16.894835
61.040 16.712685
61.045 16.125265
61.050 16.038918
61.055 16.322229
61.060 16.579638
61.065 17.196939
61.070 17.583397
61.075 17.7747
61.080 18.541721
61.085 18.954285
61.090 18.755411
61.095 18.694555
61.100 18.622879
61.105 18.437042
61.110 18.326811
61.115 18.21287
61.120 17.856422
61.125 17.851988
61.130 17.865181
61.135 17.711987
61.140 17.262959
61.145 17.374382
61.150 17.662176
61.155 17.857521
61.160 17.413948
61.165 17.467432
61.170 17.231092
61.175 17.321011
61.180 17.652155
61.185 17.821148
61.190 17.293068
61.195 16.886673
61.200 16.877375
61.205 17.585333
61.210 17.826763
61.215 17.306595
61.220 16.863871
61.225 17.184519
61.230 17.724573
61.235 17.645102
61.240 17.198854
61.245 17.26087
61.250 17.743111
61.255 18.363798
61.260 18.947035
61.265 18.766712
61.270 18.711246
61.275 18.611687
61.280 18.214497
61.285 17.778879
61.290 17.640265
61.295 16.991953
61.300 16.51339
61.305 16.340967
61.310 16.462856
61.315 16.814894
61.320 16.724987
61.325 16.223879
61.330 16.251461
61.335 16.042608
61.340 15.873094
61.345 15.429802
61.350 15.310165
61.355 15.449021
61.360 15.975698
61.365 16.133425
61.370 16.928324
61.375 16.896662
61.380 17.155554
61.385 17.192976
61.390 17.002022
61.395 16.478523
61.400 16.90237
61.405 16.493841
61.410 16.732344
61.415 16.723368
61.420 16.758976
61.425 16.853891
61.430 16.917303
61.435 16.093065
61.440 16.012697
61.445 16.891855
61.450 16.935904
61.455 17.006376
61.460 17.171194
61.465 17.453903
61.470 17.587164
61.475 17.488335
61.480 17.002478
61.485 17.324135
61.490 17.673929
61.495 17.679367
61.500 17.996109
61.505 18.154856
61.510 17.790514
61.515 17.308205
61.520 17.038885
61.525 16.764832
61.530 16.92029
61.535 16.891481
61.540 17.182898
61.545 18.289484
61.550 18.796335
61.555 19.095339
61.560 19.058764
61.565 19.396999
61.570 19.311422
61.575 19.810055
61.580 19.623091
61.585 19.477131
61.590 19.452627
61.595 19.150042
61.600 18.887396
61.605 18.997143
61.610 18.632896
61.615 18.432219
61.620 18.217436
61.625 17.656593
61.630 17.424568
61.635 17.034599
61.640 16.380566
61.645 16.039806
61.650 15.918306
61.655 15.635324
61.660 16.280474
61.665 16.252029
61.670 16.177795
61.675 16.6035
61.680 16.680683
61.685 16.492426
61.690 16.49922
61.695 16.557423
61.700 16.736593
61.705 16.830475
61.710 16.73901
61.715 16.875988
61.720 17.171894
61.725 17.548859
61.730 17.076948
61.735 17.020937
61.740 16.856197
61.745 16.578249
61.750 17.02636
61.755 16.960217
61.760 16.680845
61.765 16.781488
61.770 16.673796
61.775 16.893757
61.780 16.772629
61.785 15.478391
61.790 15.22061
61.795 15.429447
61.800 15.589364
61.805 15.809077
61.810 16.020845
61.815 16.101463
61.820 17.017548
61.825 17.506039
61.830 17.165604
61.835 16.835447
61.840 16.667578
61.845 16.857618
61.850 17.249313
61.855 17.129469
61.860 16.781021
61.865 17.557526
61.870 17.836208
61.875 18.041101
61.880 17.800228
61.885 17.429186
61.890 17.706425
61.895 18.170862
61.900 18.192293
61.905 18.680956
61.910 18.947298
61.915 18.898996
61.920 19.320871
61.925 18.944885
61.930 18.626015
61.935 18.628996
61.940 18.387203
61.945 17.869471
61.950 17.451036
61.955 17.434483
61.960 17.37162
61.965 17.543732
61.970 17.216797
61.975 17.948828
61.980 18.388496
61.985 18.870672
61.990 18.967176
61.995 19.259624
62.000 18.848373
62.005 19.15624
62.010 18.857862
62.015 18.443453
62.020 18.0777
62.025 18.317886
62.030 18.250301
62.035 17.909571
62.040 16.903528
62.045 15.688205
62.050 15.577988
62.055 15.868989
62.060 15.16918
62.065 14.455767
62.070 14.770151
62.075 15.14005
62.080 15.875366
62.085 15.986952
62.090 15.697208
62.095 16.003773
62.100 16.654882
62.105 16.655037
62.110 17.065876
62.115 17.142046
62.120 17.876282
62.125 18.230104
62.130 18.148296
62.135 18.281235
62.140 18.319471
62.145 18.243027
62.150 18.469782
62.155 18.284319
62.160 18.354649
62.165 18.814301
62.170 18.744986
62.175 18.735575
62.180 18.536295
62.185 17.939306
62.190 17.630995
62.195 17.529097
62.200 17.035954
62.205 17.062784
62.210 17.179594
62.215 17.124689
62.220 17.139013
62.225 17.45207
62.230 17.600271
62.235 17.396706
62.240 16.782825
62.245 16.293894
62.250 16.47658
62.255 16.60499
62.260 15.999009
62.265 15.726071
62.270 15.945927
62.275 16.019802
62.280 16.308191
62.285 16.311708
62.290 16.193785
62.295 16.10203
62.300 16.18589
62.305 16.579735
62.310 17.446997
62.315 17.531546
62.320 17.423872
62.325 17.801107
62.330 18.348703
62.335 18.52562
62.340 18.404366
62.345 18.068455
62.350 18.011326
62.355 18.855726
62.360 19.226013
62.365 19.030161
62.370 18.460207
62.375 18.175215
62.380 18.709349
62.385 18.27319
62.390 17.452232
62.395 16.484591
62.400 16.66342
62.405 17.421583
62.410 17.394281
62.415 16.881456
62.420 17.268286
62.425 17.260347
62.430 18.150799
62.435 18.089582
62.440 17.560944
62.445 18.05493
62.450 18.495649
62.455 19.035946
62.460 19.723259
62.465 19.973701
62.470 20.064503
62.475 20.372545
62.480 19.75493
62.485 19.634966
62.490 19.490421
62.495 18.553083
62.500 17.633415
62.505 17.217264
62.510 17.257706
62.515 17.775288
62.520 17.896843
62.525 17.247398
62.530 17.889982
62.535 18.511082
62.540 18.878695
62.545 18.733015
62.550 18.077717
62.555 17.524603
62.560 17.851625
62.565 17.985231
62.570 17.769329
62.575 17.513256
62.580 17.633331
62.585 17.49445
62.590 17.723341
62.595 18.128973
62.600 18.155111
62.605 18.300426
62.610 18.084105
62.615 18.075666
62.620 18.226912
62.625 18.417454
62.630 18.811766
62.635 18.61463
62.640 18.750839
62.645 19.089169
62.650 19.185175
62.655 19.296797
62.660 19.234198
62.665 18.199293
62.670 17.716967
62.675 17.289696
62.680 17.045477
62.685 16.86949
62.690 17.641363
62.695 17.606579
62.700 17.885925
62.705 18.178932
62.710 18.357309
62.715 18.228397
62.720 18.527967
62.725 17.860289
62.730 18.092161
62.735 18.585543
62.740 18.586336
62.745 18.402111
62.750 18.632923
62.755 18.454874
62.760 18.639812
62.765 17.753836
62.770 16.887785
62.775 16.665508
62.780 16.757639
62.785 16.441835
62.790 16.428719
62.795 16.134251
62.800 16.598406
62.805 16.907175
62.810 16.885836
62.815 16.558687
62.820 16.77916
62.825 17.189507
62.830 17.463833
62.835 17.630257
62.840 17.344717
62.845 17.185852
62.850 17.475075
62.855 17.536968
62.860 16.947805
62.865 16.351763
62.870 16.637386
62.875 17.195414
62.880 17.693289
62.885 18.095692
62.890 18.045139
62.895 18.280994
62.900 18.988905
62.905 18.951216
62.910 18.750105
62.915 18.416237
62.920 18.260239
62.925 18.572966
62.930 18.042233
62.935 18.067509
62.940 17.794907
62.945 17.493895
62.950 17.543545
62.955 17.581446
62.960 17.092524
62.965 16.981707
62.970 16.734632
62.975 17.751097
62.980 17.829403
62.985 17.656233
62.990 17.815111
62.995 18.719883
63.000 19.166307
63.005 18.755911
63.010 18.006115
63.015 18.530054
63.020 18.818901
63.025 18.670191
63.030 18.020105
63.035 18.290371
63.040 18.650318
63.045 18.863012
63.050 19.26475
63.055 19.33213
63.060 19.244726
63.065 19.358137
63.070 19.379562
63.075 19.25297
63.080 18.857542
63.085 18.468054
63.090 18.398626
63.095 18.920563
63.100 19.021345
63.105 18.574516
63.110 18.536673
63.115 18.906397
63.120 18.287251
63.125 18.77207
63.130 18.649002
63.135 18.772959
63.140 19.162237
63.145 19.068293
63.150 18.986462
63.155 19.288576
63.160 18.798763
63.165 18.882629
63.170 19.010155
63.175 18.783396
63.180 18.837786
63.185 18.984781
63.190 18.553101
63.195 18.426823
63.200 18.402533
63.205 18.246277
63.210 17.813665
63.215 17.556335
63.220 17.641657
63.225 17.876154
63.230 17.268064
63.235 16.832518
63.240 17.105459
63.245 17.685188
63.250 17.843374
63.255 18.008528
63.260 18.081411
63.265 18.091709
63.270 18.353283
63.275 18.350683
63.280 18.453785
63.285 18.670567
63.290 18.006628
63.295 17.926525
63.300 18.328966
63.305 18.511433
63.310 18.507616
63.315 18.989508
63.320 18.8472
63.325 18.773468
63.330 19.578856
63.335 19.620132
63.340 18.679558
63.345 18.413025
63.350 18.269602
63.355 18.457092
63.360 18.454231
63.365 17.969439
63.370 18.413357
63.375 19.035057
63.380 19.004246
63.385 18.373449
63.390 18.80924
63.395 19.300957
63.400 18.822311
63.405 17.888632
63.410 17.820471
63.415 17.718594
63.420 17.951946
63.425 17.963924
63.430 17.887222
63.435 17.748171
63.440 18.604784
63.445 18.566315
63.450 18.741669
63.455 18.033163
63.460 17.448921
63.465 16.841366
63.470 17.663038
63.475 17.202017
63.480 17.45904
63.485 16.912134
63.490 16.867163
63.495 16.588224
63.500 17.28907
63.505 16.758345
63.510 16.741791
63.515 16.836176
63.520 17.408998
63.525 18.273005
63.530 18.402998
63.535 18.479071
63.540 18.895618
63.545 19.584688
63.550 19.340256
63.555 19.269785
63.560 19.692772
63.565 19.53924
63.570 18.701014
63.575 18.382296
63.580 17.861588
63.585 17.992579
63.590 17.571661
63.595 16.85454
63.600 17.564308
63.605 17.978168
63.610 18.005056
63.615 18.218443
63.620 18.134432
63.625 18.302483
63.630 18.096415
63.635 17.61219
63.640 17.81308
63.645 17.767693
63.650 17.387495
63.655 17.24229
63.660 17.68786
63.665 18.134867
63.670 18.374342
63.675 18.450335
63.680 18.828833
63.685 18.572552
63.690 18.583727
63.695 18.50337
63.700 18.420183
63.705 17.949141
63.710 17.522264
63.715 17.038399
63.720 17.931614
63.725 17.783712
63.730 18.040699
63.735 18.61993
63.740 18.787008
63.745 18.590607
63.750 18.229033
63.755 18.241453
63.760 18.316835
63.765 18.005381
63.770 17.285957
63.775 17.471966
63.780 17.903774
63.785 18.124823
63.790 17.730995
63.795 17.60449
63.800 17.454292
63.805 17.221619
63.810 17.170927
63.815 17.667139
63.820 18.123964
63.825 17.753796
63.830 17.578957
63.835 17.711609
63.840 17.798151
63.845 17.637627
63.850 17.233072
63.855 16.905443
63.860 17.451454
63.865 18.695787
63.870 18.678263
63.875 18.464178
63.880 18.099812
63.885 17.738255
63.890 17.698521
63.895 17.541811
63.900 16.517534
63.905 16.517612
63.910 17.402546
63.915 18.124861
63.920 18.390108
63.925 18.405994
63.930 18.463606
63.935 18.375937
63.940 18.933542
63.945 18.581102
63.950 18.081219
63.955 17.986166
63.960 18.363497
63.965 18.274891
63.970 17.988771
63.975 17.656609
63.980 18.377518
63.985 18.833277
63.990 19.217882
63.995 19.160728
64.000 19.491304
64.005 20.367292
64.010 20.39447
64.015 20.021284
64.020 20.184242
64.025 20.321987
64.030 20.548811
64.035 20.726685
64.040 20.57247
64.045 20.907711
64.050 20.999126
64.055 21.051872
64.060 20.536879
64.065 20.639215
64.070 21.192488
64.075 21.629816
64.080 21.04405
64.085 20.479116
64.090 20.612337
64.095 21.108063
64.100 20.85644
64.105 20.328241
64.110 19.755178
64.115 19.83428
64.120 20.037964
64.125 19.541138
64.130 18.964647
64.135 18.68947
64.140 18.12396
64.145 17.757643
64.150 17.718987
64.155 17.928238
64.160 17.961121
64.165 17.962326
64.170 18.194351
64.175 18.791119
64.180 19.246866
64.185 20.54496
64.190 21.074484
64.195 21.333086
64.200 21.607372
64.205 21.28404
64.210 21.12991
64.215 21.222214
64.220 20.458527
64.225 19.927507
64.230 20.246729
64.235 20.359718
64.240 20.525833
64.245 20.892965
64.250 20.798265
64.255 20.274496
64.260 20.216574
64.265 19.543018
64.270 19.626738
64.275 19.251869
64.280 19.042294
64.285 18.393688
64.290 18.389578
64.295 18.716484
64.300 19.428473
64.305 18.731661
64.310 18.697571
64.315 19.12044
64.320 19.876476
64.325 20.275488
64.330 19.985603
64.335 19.793381
64.340 19.89929
64.345 20.117956
64.350 19.827761
64.355 20.09553
64.360 20.071568
64.365 20.122303
64.370 20.344893
64.375 20.762098
64.380 20.756344
64.385 20.759457
64.390 20.30715
64.395 20.49276
64.400 20.884604
64.405 21.183018
64.410 21.84054
64.415 22.559206
64.420 22.993769
64.425 23.043978
64.430 23.237677
64.435 23.349472
64.440 23.314936
64.445 23.01685
64.450 22.883011
64.455 22.57942
64.460 22.885988
64.465 22.158852
64.470 21.512127
64.475 20.684343
64.480 20.035704
64.485 20.157251
64.490 20.414213
64.495 20.161842
64.500 20.594063
64.505 20.962475
64.510 21.274464
64.515 21.634697
64.520 21.249361
64.525 20.753902
64.530 21.015625
64.535 21.581705
64.540 21.370092
64.545 21.480244
64.550 21.421009
64.555 21.449635
64.560 22.067532
64.565 21.630466
64.570 20.931013
64.575 20.941698
64.580 21.424736
64.585 22.048933
64.590 21.787769
64.595 21.674339
64.600 21.630028
64.605 21.91861
64.610 21.669516
64.615 20.562664
64.620 20.357796
64.625 20.550138
64.630 20.384281
64.635 20.604603
64.640 20.211224
64.645 20.719971
64.650 21.507481
64.655 20.818645
64.660 20.615631
64.665 20.980076
64.670 20.671984
64.675 20.786312
64.680 20.56147
64.685 20.334028
64.690 20.293953
64.695 20.353542
64.700 20.287016
64.705 20.496447
64.710 19.849497
64.715 19.703745
64.720 19.270149
64.725 19.711266
64.730 19.963209
64.735 19.988592
64.740 20.238754
64.745 21.115808
64.750 21.369835
64.755 22.112595
64.760 21.851059
64.765 21.268753
64.770 21.173626
64.775 20.979822
64.780 21.251795
64.785 21.057545
64.790 20.70488
64.795 21.084183
64.800 21.318613
64.805 21.289301
64.810 20.98229
64.815 21.035965
64.820 22.317101
64.825 22.456209
64.830 21.749662
64.835 21.874207
64.840 22.548056
64.845 22.830763
64.850 22.948809
64.855 22.474892
64.860 22.473812
64.865 23.201542
64.870 22.98208
64.875 22.30249
64.880 21.560379
64.885 19.933517
64.890 20.000986
64.895 20.516556
64.900 20.200813
64.905 20.045454
64.910 20.165232
64.915 20.472515
64.920 20.736359
64.925 19.970045
64.930 19.936674
64.935 19.973139
64.940 19.779148
64.945 19.950644
64.950 21.125305
64.955 21.939135
64.960 21.988379
64.965 21.572001
64.970 21.704144
64.975 22.245781
64.980 22.604116
64.985 22.712883
64.990 22.976263
64.995 23.313753
65.000 23.298037
65.005 23.580635
65.010 23.150957
65.015 23.13479
65.020 23.910494
65.025 23.82128
65.030 24.047663
65.035 24.365614
65.040 23.938492
65.045 24.106163
65.050 23.942148
65.055 23.481104
65.060 23.614508
65.065 23.567743
65.070 23.067225
65.075 23.394594
65.080 24.081505
65.085 23.604509
65.090 23.257179
65.095 23.02844
65.100 22.334221
65.105 22.699879
65.110 22.271034
65.115 21.951761
65.120 22.055353
65.125 22.209423
65.130 22.66066
65.135 23.510628
65.140 24.094988
65.145 24.734091
65.150 24.276335
65.155 24.464798
65.160 24.24193
65.165 23.950377
65.170 23.870508
65.175 23.51704
65.180 22.717091
65.185 22.901306
65.190 22.934958
65.195 23.476089
65.200 23.707085
65.205 23.517792
65.210 23.318007
65.215 23.321342
65.220 23.059877
65.225 22.782419
65.230 22.013292
65.235 21.971161
65.240 21.885889
65.245 22.443672
65.250 23.120188
65.255 23.078627
65.260 22.673048
65.265 22.713383
65.270 23.627752
65.275 23.634806
65.280 23.697386
65.285 23.948963
65.290 24.462677
65.295 25.313742
65.300 25.398287
65.305 24.646805
65.310 24.355965
65.315 23.723099
65.320 23.481863
65.325 23.176584
65.330 22.959206
65.335 23.14456
65.340 23.392906
65.345 23.557316
65.350 23.85251
65.355 23.514048
65.360 23.892084
65.365 23.610455
65.370 24.056282
65.375 24.176479
65.380 24.205173
65.385 24.299221
65.390 24.642782
65.395 24.737537
65.400 24.773836
65.405 23.445702
65.410 23.309944
65.415 24.067934
65.420 24.751839
65.425 25.366705
65.430 25.764479
65.435 26.148083
65.440 26.718145
65.445 26.806589
65.450 26.370754
65.455 25.928837
65.460 25.979523
65.465 26.230314
65.470 27.005596
65.475 27.237436
65.480 27.75782
65.485 28.167282
65.490 28.050922
65.495 28.056011
65.500 27.374641
65.505 27.022141
65.510 27.196568
65.515 27.382885
65.520 27.383404
65.525 27.474768
65.530 27.247467
65.535 28.108971
65.540 28.359303
65.545 28.636402
65.550 28.568487
65.555 28.753515
65.560 29.135853
65.565 29.306322
65.570 28.985939
65.575 28.777981
65.580 29.000486
65.585 29.063471
65.590 29.603472
65.595 29.940437
65.600 30.004486
65.605 29.911583
65.610 30.276291
65.615 30.099583
65.620 30.479235
65.625 30.331593
65.630 30.149645
65.635 29.792458
65.640 30.396828
65.645 31.286636
65.650 31.587807
65.655 31.37018
65.660 32.19006
65.665 32.918526
65.670 33.970779
65.675 33.982769
65.680 33.848465
65.685 33.362179
65.690 33.681149
65.695 34.00145
65.700 34.471081
65.705 34.270393
65.710 34.289417
65.715 35.069195
65.720 36.900013
65.725 36.775494
65.730 35.577881
65.735 34.938869
65.740 35.614639
65.745 35.043495
65.750 34.37574
65.755 33.334034
65.760 33.714489
65.765 34.104698
65.770 34.555691
65.775 34.339859
65.780 34.792831
65.785 34.940853
65.790 35.244949
65.795 35.284027
65.800 35.841766
65.805 35.475628
65.810 35.268627
65.815 35.709442
65.820 36.53054
65.825 37.009712
65.830 38.179424
65.835 38.534798
65.840 39.317009
65.845 40.331642
65.850 40.805126
65.855 40.421894
65.860 40.103497
65.865 39.393452
65.870 38.732224
65.875 37.628338
65.880 36.108017
65.885 34.861908
65.890 34.955917
65.895 35.887474
65.900 35.855957
65.905 36.157661
65.910 37.168823
65.915 37.6954
65.920 38.561886
65.925 38.53458
65.930 37.65921
65.935 37.120857
65.940 37.115391
65.945 37.241993
65.950 37.53091
65.955 37.446674
65.960 37.172634
65.965 37.026718
65.970 37.607903
65.975 37.550674
65.980 37.357086
65.985 37.439117
65.990 37.527538
65.995 37.471844
66.000 37.27906
66.005 37.488644
66.010 37.907528
66.015 37.517551
66.020 37.511524
66.025 37.228233
66.030 37.719036
66.035 37.594677
66.040 36.852749
66.045 36.739605
66.050 36.888756
66.055 37.256001
66.060 37.9692
66.065 38.8125
66.070 38.933319
66.075 38.777878
66.080 38.995369
66.085 39.858822
66.090 39.670067
66.095 39.250664
66.100 38.79567
66.105 38.773014
66.110 39.055008
66.115 38.46254
66.120 38.072689
66.125 38.180004
66.130 38.385605
66.135 37.595661
66.140 38.41716
66.145 38.460117
66.150 38.741066
66.155 38.74609
66.160 38.564625
66.165 38.04554
66.170 38.536808
66.175 37.912823
66.180 37.419838
66.185 36.835247
66.190 36.744987
66.195 36.32217
66.200 36.179165
66.205 35.619961
66.210 35.601215
66.215 35.703697
66.220 35.540222
66.225 35.819202
66.230 36.060852
66.235 36.317616
66.240 36.247581
66.245 35.641376
66.250 35.352875
66.255 35.418346
66.260 35.157211
66.265 34.998863
66.270 34.539238
66.275 34.449684
66.280 33.985943
66.285 33.477463
66.290 32.726841
66.295 32.15979
66.300 31.863716
66.305 31.800268
66.310 31.616468
66.315 32.68507
66.320 33.34375
66.325 33.371532
66.330 32.892586
66.335 32.887493
66.340 33.046417
66.345 33.661911
66.350 33.843945
66.355 33.77924
66.360 33.947964
66.365 34.123501
66.370 33.751976
66.375 33.710178
66.380 33.434681
66.385 32.56876
66.390 31.740213
66.395 31.778622
66.400 31.899147
66.405 32.408085
66.410 31.389338
66.415 30.64537
66.420 30.790785
66.425 30.892109
66.430 30.857018
66.435 30.502201
66.440 30.249668
66.445 29.694902
66.450 28.992441
66.455 28.783237
66.460 28.674274
66.465 29.12895
66.470 29.639725
66.475 29.748089
66.480 30.380821
66.485 31.31352
66.490 31.763594
66.495 31.361452
66.500 30.330471
66.505 28.880716
66.510 28.580391
66.515 28.521601
66.520 27.859873
66.525 28.256008
66.530 28.569204
66.535 28.502731
66.540 28.766644
66.545 28.731785
66.550 28.460638
66.555 28.038336
66.560 27.38217
66.565 27.522163
66.570 28.058453
66.575 28.130842
66.580 28.178713
66.585 27.29064
66.590 27.246077
66.595 27.627403
66.600 27.17481
66.605 26.570045
66.610 26.377037
66.615 26.351093
66.620 27.954813
66.625 28.042442
66.630 26.874569
66.635 26.990786
66.640 27.044605
66.645 27.016932
66.650 26.653492
66.655 25.341429
66.660 24.966909
66.665 24.842779
66.670 24.273085
66.675 24.09796
66.680 23.439295
66.685 22.890507
66.690 22.574669
66.695 22.600389
66.700 23.439331
66.705 23.61698
66.710 24.017818
66.715 24.987188
66.720 25.45496
66.725 26.268633
66.730 26.417898
66.735 26.158216
66.740 26.373371
66.745 25.977541
66.750 25.260696
66.755 25.59684
66.760 25.416906
66.765 24.997284
66.770 24.482094
66.775 23.891394
66.780 24.049831
66.785 24.389612
66.790 23.394732
66.795 22.931595
66.800 23.044678
66.805 22.644846
66.810 22.889889
66.815 22.469452
66.820 21.97554
66.825 22.977497
66.830 23.758268
66.835 24.462202
66.840 24.908487
66.845 25.329935
66.850 25.327003
66.855 25.002707
66.860 24.59742
66.865 24.014608
66.870 23.320374
66.875 22.998695
66.880 22.64518
66.885 23.225561
66.890 23.08209
66.895 23.109756
66.900 23.450089
66.905 24.198986
66.910 24.649084
66.915 24.356695
66.920 24.505983
66.925 24.5912
66.930 23.669899
66.935 22.999384
66.940 23.055546
66.945 23.168621
66.950 23.156862
66.955 22.914341
66.960 23.223049
66.965 23.772488
66.970 23.75865
66.975 23.221012
66.980 23.437244
66.985 23.375069
66.990 23.350672
66.995 23.166384
67.000 23.022842
67.005 23.206955
67.010 23.213963
67.015 23.126844
67.020 22.933224
67.025 23.046213
67.030 23.52833
67.035 23.729002
67.040 23.746771
67.045 23.227066
67.050 23.529146
67.055 23.325121
67.060 23.580849
67.065 23.399385
67.070 23.473831
67.075 24.273577
67.080 25.08927
67.085 25.28245
67.090 24.634201
67.095 23.876743
67.100 23.705328
67.105 22.960831
67.110 22.075844
67.115 21.516262
67.120 21.094366
67.125 21.776276
67.130 21.787207
67.135 22.018248
67.140 22.566879
67.145 22.526932
67.150 22.564333
67.155 23.28447
67.160 23.834101
67.165 24.110888
67.170 23.949286
67.175 23.680525
67.180 23.9611
67.185 24.167917
67.190 23.868742
67.195 23.377138
67.200 23.302973
67.205 23.37809
67.210 23.807522
67.215 24.484762
67.220 24.644733
67.225 23.880985
67.230 23.611048
67.235 23.266653
67.240 23.043724
67.245 22.104755
67.250 20.831057
67.255 20.348394
67.260 20.784845
67.265 20.345636
67.270 20.204081
67.275 20.638496
67.280 20.69368
67.285 20.561186
67.290 20.874252
67.295 21.572222
67.300 21.94166
67.305 22.362307
67.310 22.086836
67.315 22.434046
67.320 22.677891
67.325 21.725008
67.330 21.52486
67.335 22.272331
67.340 22.272232
67.345 22.607832
67.350 22.333851
67.355 22.754087
67.360 23.430204
67.365 23.19677
67.370 22.099937
67.375 21.078886
67.380 20.465824
67.385 20.544106
67.390 19.963528
67.395 19.999546
67.400 20.228775
67.405 20.822496
67.410 20.919647
67.415 21.662294
67.420 21.969393
67.425 22.368231
67.430 22.227657
67.435 21.694185
67.440 21.365797
67.445 22.328545
67.450 21.844387
67.455 21.946636
67.460 21.41481
67.465 21.441755
67.470 22.032782
67.475 22.298849
67.480 22.23395
67.485 21.779585
67.490 21.821724
67.495 22.223946
67.500 22.625158
67.505 22.207045
67.510 22.364979
67.515 22.078297
67.520 21.663668
67.525 21.218925
67.530 20.249495
67.535 19.402132
67.540 19.754417
67.545 19.768456
67.550 19.713783
67.555 19.891895
67.560 19.631718
67.565 19.826502
67.570 20.249418
67.575 19.867237
67.580 19.755014
67.585 20.253374
67.590 21.169365
67.595 21.93857
67.600 22.458033
67.605 22.503815
67.610 23.281864
67.615 23.021049
67.620 23.288395
67.625 22.785313
67.630 22.552101
67.635 22.343893
67.640 22.405264
67.645 21.767601
67.650 21.351841
67.655 20.924797
67.660 20.96768
67.665 21.193293
67.670 21.065805
67.675 20.801334
67.680 20.965698
67.685 21.367807
67.690 21.462263
67.695 21.09786
67.700 20.619865
67.705 20.787397
67.710 21.12583
67.715 21.487373
67.720 21.478727
67.725 20.793776
67.730 21.033236
67.735 20.989437
67.740 20.819609
67.745 20.537548
67.750 20.056393
67.755 20.381582
67.760 20.808334
67.765 20.546671
67.770 21.156141
67.775 21.158648
67.780 21.406824
67.785 21.279783
67.790 21.159611
67.795 21.117287
67.800 21.459806
67.805 21.317989
67.810 21.443026
67.815 21.420822
67.820 21.567764
67.825 21.594263
67.830 22.036604
67.835 22.051807
67.840 21.62825
67.845 21.146852
67.850 21.145405
67.855 21.214911
67.860 21.042002
67.865 21.071993
67.870 20.424356
67.875 20.22883
67.880 20.70809
67.885 20.720846
67.890 20.411394
67.895 20.334562
67.900 20.556631
67.905 21.185556
67.910 21.681089
67.915 21.677509
67.920 21.616022
67.925 21.163122
67.930 20.895641
67.935 20.904869
67.940 20.786001
67.945 20.238308
67.950 19.759636
67.955 19.908833
67.960 20.839907
67.965 20.880512
67.970 20.957247
67.975 21.206633
67.980 21.61581
67.985 22.070442
67.990 21.96229
67.995 21.939873
68.000 21.728008
68.005 21.009699
68.010 21.108473
68.015 21.150608
68.020 20.977251
68.025 20.713455
68.030 20.240824
68.035 20.372856
68.040 20.609198
68.045 20.459089
68.050 20.63773
68.055 20.879
68.060 21.58124
68.065 21.790588
68.070 22.070763
68.075 21.667751
68.080 21.039923
68.085 20.343376
68.090 19.637966
68.095 19.233879
68.100 19.528156
68.105 20.090004
68.110 20.623571
68.115 21.018787
68.120 21.143499
68.125 21.554649
68.130 21.099154
68.135 20.474327
68.140 19.580238
68.145 19.501123
68.150 19.363279
68.155 19.609844
68.160 19.546438
68.165 20.385002
68.170 20.54854
68.175 20.59417
68.180 20.906097
68.185 20.764563
68.190 21.002552
68.195 21.382643
68.200 20.934555
68.205 21.258192
68.210 21.753176
68.215 21.511892
68.220 21.550383
68.225 21.308744
68.230 21.144423
68.235 21.423189
68.240 21.660866
68.245 21.354382
68.250 21.25857
68.255 21.585337
68.260 21.958567
68.265 22.213781
68.270 22.430567
68.275 22.831423
68.280 23.162582
68.285 23.229216
68.290 22.931522
68.295 22.54896
68.300 22.685282
68.305 22.241589
68.310 21.964399
68.315 22.158791
68.320 22.634972
68.325 22.203493
68.330 21.9911
68.335 21.782341
68.340 21.765299
68.345 21.726473
68.350 21.680067
68.355 21.608219
68.360 22.214117
68.365 22.365332
68.370 21.970547
68.375 21.716894
68.380 21.14484
68.385 21.088959
68.390 20.686522
68.395 20.806389
68.400 20.960924
68.405 21.14938
68.410 20.91276
68.415 21.078077
68.420 21.301519
68.425 21.404337
68.430 21.045235
68.435 20.839975
68.440 21.463778
68.445 22.314157
68.450 21.922251
68.455 21.967249
68.460 22.098831
68.465 22.239885
68.470 22.279886
68.475 21.651594
68.480 21.102142
68.485 21.990507
68.490 22.223886
68.495 22.773882
68.500 23.305794
68.505 23.337423
68.510 23.293789
68.515 22.921364
68.520 21.933258
68.525 21.330158
68.530 20.544258
68.535 19.860695
68.540 19.92976
68.545 19.852655
68.550 19.797386
68.555 20.148722
68.560 20.454819
68.565 20.822226
68.570 21.033737
68.575 21.120644
68.580 21.398407
68.585 21.658039
68.590 21.607296
68.595 21.919397
68.600 22.394371
68.605 22.078053
68.610 22.132673
68.615 22.054859
68.620 22.088495
68.625 21.890053
68.630 21.704861
68.635 21.216879
68.640 21.532209
68.645 21.184362
68.650 21.669977
68.655 21.897215
68.660 21.408665
68.665 20.97504
68.670 20.688578
68.675 20.261257
68.680 20.527584
68.685 20.061775
68.690 19.797144
68.695 20.242935
68.700 20.710009
68.705 21.458584
68.710 22.250547
68.715 22.566557
68.720 22.845356
68.725 23.227646
68.730 23.946947
68.735 24.045364
68.740 23.549887
68.745 23.037077
68.750 23.127808
68.755 22.865177
68.760 22.926147
68.765 22.079659
68.770 21.873575
68.775 22.071156
68.780 22.521072
68.785 22.650017
68.790 22.875675
68.795 22.595407
68.800 22.423468
68.805 22.649652
68.810 22.71314
68.815 22.506056
68.820 21.920622
68.825 22.048546
68.830 21.831049
68.835 22.039165
68.840 22.417393
68.845 22.433905
68.850 22.585258
68.855 23.190075
68.860 23.284496
68.865 24.078938
68.870 24.235683
68.875 23.570526
68.880 23.948111
68.885 23.656431
68.890 23.181547
68.895 23.415575
68.900 23.537868
68.905 24.231739
68.910 24.973289
68.915 25.088491
68.920 25.696104
68.925 25.828285
68.930 25.638742
68.935 25.05518
68.940 24.846275
68.945 24.628294
68.950 24.225742
68.955 24.055923
68.960 24.2425
68.965 24.491491
68.970 24.463175
68.975 24.215403
68.980 23.848146
68.985 23.994196
68.990 24.314415
68.995 24.344357
69.000 25.127974
69.005 25.309958
69.010 25.143259
69.015 25.398123
69.020 25.118139
69.025 24.845463
69.030 24.742689
69.035 23.947897
69.040 23.688583
69.045 23.957367
69.050 23.634005
69.055 23.97419
69.060 23.893999
69.065 24.196896
69.070 24.132395
69.075 24.661989
69.080 24.482922
69.085 24.795376
69.090 25.543884
69.095 26.447788
69.100 26.851223
69.105 27.683205
69.110 27.355732
69.115 27.585905
69.120 27.622719
69.125 27.534679
69.130 27.407042
69.135 27.284426
69.140 27.114695
69.145 27.82449
69.150 28.497698
69.155 28.455515
69.160 27.144854
69.165 26.990591
69.170 27.072819
69.175 26.97843
69.180 26.507603
69.185 26.470303
69.190 27.260756
69.195 28.270382
69.200 28.254772
69.205 27.95414
69.210 28.263807
69.215 28.338512
69.220 28.665916
69.225 28.889153
69.230 29.055187
69.235 28.650137
69.240 28.996752
69.245 29.080187
69.250 29.185837
69.255 28.705114
69.260 28.082527
69.265 27.95919
69.270 28.561134
69.275 29.099043
69.280 29.778408
69.285 29.784306
69.290 29.848438
69.295 29.714893
69.300 29.681479
69.305 29.332945
69.310 28.358541
69.315 28.081394
69.320 27.867891
69.325 27.70219
69.330 28.28957
69.335 28.225504
69.340 28.311123
69.345 28.86166
69.350 28.545616
69.355 28.82233
69.360 28.389818
69.365 27.882786
69.370 28.314276
69.375 28.433392
69.380 28.04048
69.385 28.614225
69.390 29.224987
69.395 29.767481
69.400 29.750303
69.405 29.557753
69.410 29.769125
69.415 29.437735
69.420 28.957109
69.425 28.621805
69.430 29.347094
69.435 29.550856
69.440 30.084435
69.445 30.510845
69.450 32.109768
69.455 32.397598
69.460 31.894066
69.465 31.27932
69.470 31.143211
69.475 30.417213
69.480 29.94714
69.485 29.722902
69.490 30.229597
69.495 30.503103
69.500 30.710085
69.505 31.24967
69.510 31.409245
69.515 31.535378
69.520 31.158163
69.525 30.730122
69.530 30.685827
69.535 30.273127
69.540 30.263561
69.545 30.774237
69.550 30.515793
69.555 30.011833
69.560 30.553223
69.565 30.898027
69.570 31.069685
69.575 31.766153
69.580 32.324894
69.585 32.454556
69.590 32.112694
69.595 31.722141
69.600 31.696882
69.605 31.523659
69.610 29.934057
69.615 29.453218
69.620 29.554024
69.625 28.903433
69.630 28.760813
69.635 28.75358
69.640 29.338169
69.645 29.788879
69.650 29.195751
69.655 30.513065
69.660 31.440584
69.665 31.314688
69.670 30.699457
69.675 30.006767
69.680 30.309628
69.685 30.415354
69.690 29.584543
69.695 28.833572
69.700 28.49441
69.705 28.559519
69.710 28.660629
69.715 28.07267
69.720 28.014801
69.725 27.925556
69.730 27.759226
69.735 27.836529
69.740 27.946285
69.745 27.894997
69.750 28.22176
69.755 28.170059
69.760 28.236284
69.765 29.074377
69.770 29.849369
69.775 30.184771
69.780 30.003853
69.785 30.100153
69.790 30.118803
69.795 29.831352
69.800 28.883963
69.805 27.991402
69.810 27.587843
69.815 28.100674
69.820 27.481585
69.825 26.642195
69.830 26.761049
69.835 27.048588
69.840 26.217443
69.845 25.708094
69.850 25.527876
69.855 25.688042
69.860 25.790871
69.865 24.937141
69.870 25.411913
69.875 26.481808
69.880 26.385509
69.885 25.480509
69.890 25.05994
69.895 25.48741
69.900 25.285851
69.905 24.799917
69.910 24.230856
69.915 24.401875
69.920 24.756435
69.925 25.220909
69.930 24.925142
69.935 24.829205
69.940 24.79981
69.945 23.911364
69.950 23.852274
69.955 23.320688
69.960 22.859997
69.965 23.27215
69.970 23.13983
69.975 23.343277
69.980 23.460686
69.985 23.033752
69.990 22.906368
69.995 22.428614
70.000 22.450193
70.005 22.304493
70.010 21.70743
70.015 21.806757
70.020 22.30979
70.025 22.636518
70.030 21.824333
70.035 21.075781
70.040 21.187447
70.045 21.241035
70.050 20.702847
70.055 20.009701
70.060 20.141394
70.065 21.084887
70.070 21.365026
70.075 21.172558
70.080 21.245911
70.085 21.540567
70.090 22.118107
70.095 21.616003
70.100 21.534733
70.105 21.344961
70.110 21.45085
70.115 21.648233
70.120 22.26004
70.125 22.269621
70.130 22.67643
70.135 22.05863
70.140 22.112766
70.145 22.485323
70.150 22.138615
70.155 21.766253
70.160 21.742847
70.165 21.886433
70.170 22.055748
70.175 21.950487
70.180 21.600868
70.185 21.798529
70.190 21.790079
70.195 21.856567
70.200 21.688356
70.205 20.928907
70.210 20.899809
70.215 21.234936
70.220 20.716515
70.225 20.276365
70.230 19.934101
70.235 20.646723
70.240 21.631544
70.245 21.399265
70.250 21.415985
70.255 21.932598
70.260 21.915554
70.265 21.826639
70.270 20.865534
70.275 21.071291
70.280 21.123413
70.285 20.651239
70.290 20.97916
70.295 21.027781
70.300 20.454424
70.305 20.331017
70.310 19.820156
70.315 19.3356
70.320 19.595913
70.325 18.999166
70.330 19.27437
70.335 19.293077
70.340 19.016966
70.345 18.659857
70.350 18.859644
70.355 18.424152
70.360 18.510075
70.365 18.104559
70.370 18.16765
70.375 18.452913
70.380 18.526844
70.385 18.695936
70.390 18.928988
70.395 19.467825
70.400 19.68021
70.405 19.842628
70.410 20.252804
70.415 20.532766
70.420 20.553316
70.425 20.251352
70.430 19.856422
70.435 20.226706
70.440 20.065228
70.445 19.381653
70.450 19.142849
70.455 19.250681
70.460 19.71781
70.465 20.097477
70.470 19.782301
70.475 20.254114
70.480 20.823612
70.485 20.764267
70.490 20.888165
70.495 20.710936
70.500 21.037094
70.505 21.430159
70.510 21.517666
70.515 21.391127
70.520 21.451565
70.525 21.513718
70.530 20.902172
70.535 20.69858
70.540 20.282856
70.545 19.262911
70.550 19.704418
70.555 19.314087
70.560 19.162321
70.565 19.766279
70.570 20.204117
70.575 20.213249
70.580 20.611635
70.585 21.118641
70.590 21.009975
70.595 21.196882
70.600 20.384706
70.605 19.971489
70.610 19.881454
70.615 19.520985
70.620 19.627243
70.625 19.764946
70.630 19.261852
70.635 19.035315
70.640 19.034611
70.645 19.95993
70.650 20.137886
70.655 19.667057
70.660 19.750462
70.665 19.954901
70.670 20.076105
70.675 20.305994
70.680 19.797462
70.685 19.358799
70.690 20.026659
70.695 20.604614
70.700 20.785969
70.705 21.076458
70.710 20.874372
70.715 21.016903
70.720 20.427103
70.725 19.611891
70.730 19.130568
70.735 18.802452
70.740 18.878185
70.745 18.408728
70.750 18.453133
70.755 19.03825
70.760 19.014259
70.765 18.704613
70.770 18.595915
70.775 18.400826
70.780 18.749647
70.785 18.930702
70.790 18.787416
70.795 19.135284
70.800 19.444126
70.805 19.180578
70.810 19.378309
70.815 18.815905
70.820 19.016207
70.825 19.096937
70.830 18.685911
70.835 18.832897
70.840 18.965763
70.845 18.956989
70.850 19.180105
70.855 19.2367
70.860 19.426571
70.865 19.426743
70.870 19.604177
70.875 19.602989
70.880 19.437853
70.885 19.522232
70.890 18.986317
70.895 19.257969
70.900 20.071114
70.905 20.353672
70.910 20.905123
70.915 20.983101
70.920 20.773697
70.925 20.799812
70.930 20.265491
70.935 19.664545
70.940 18.825233
70.945 18.667603
70.950 18.928326
70.955 19.469727
70.960 19.325537
70.965 19.63043
70.970 20.309208
70.975 20.679981
70.980 20.41074
70.985 20.479256
70.990 19.993505
70.995 19.480268
71.000 18.835196
71.005 18.716604
71.010 19.254442
71.015 19.221424
71.020 18.976679
71.025 18.786943
71.030 18.853765
71.035 18.975885
71.040 18.814539
71.045 18.750462
71.050 18.717793
71.055 18.8613
71.060 19.612055
71.065 20.187021
71.070 20.122671
71.075 20.001112
71.080 19.675856
71.085 19.654039
71.090 19.637169
71.095 19.42536
71.100 18.89994
71.105 18.997669
71.110 18.990286
71.115 19.848919
71.120 20.24724
71.125 20.14362
71.130 20.05085
71.135 20.327724
71.140 20.233891
71.145 19.573217
71.150 18.923424
71.155 18.372711
71.160 18.605797
71.165 18.447353
71.170 18.251629
71.175 18.576469
71.180 19.141529
71.185 19.805243
71.190 20.352022
71.195 20.683954
71.200 20.966549
71.205 21.200853
71.210 21.600803
71.215 21.294409
71.220 20.829897
71.225 20.221298
71.230 20.259613
71.235 20.067575
71.240 19.963472
71.245 19.502855
71.250 19.568745
71.255 19.554819
71.260 19.53857
71.265 19.572016
71.270 19.370037
71.275 19.297766
71.280 19.038162
71.285 18.885616
71.290 18.832857
71.295 18.49177
71.300 18.561277
71.305 18.689362
71.310 18.488647
71.315 18.415827
71.320 18.849489
71.325 19.558577
71.330 19.740534
71.335 20.071365
71.340 19.642992
71.345 19.829168
71.350 19.936615
71.355 19.142704
71.360 18.488148
71.365 18.029484
71.370 18.200075
71.375 18.25116
71.380 18.110243
71.385 17.700836
71.390 17.779608
71.395 17.426298
71.400 17.303318
71.405 17.401611
71.410 17.756536
71.415 18.191271
71.420 19.018286
71.425 19.551483
71.430 20.266161
71.435 20.50374
71.440 20.794399
71.445 20.501204
71.450 20.567856
71.455 20.462677
71.460 20.220861
71.465 20.24407
71.470 20.125854
71.475 19.814396
71.480 20.232347
71.485 20.659344
71.490 20.693684
71.495 20.466648
71.500 19.651707
71.505 18.875763
71.510 18.267572
71.515 17.462048
71.520 17.282396
71.525 17.485973
71.530 17.416912
71.535 18.23333
71.540 19.148123
71.545 19.238279
71.550 19.416464
71.555 19.395554
71.560 19.683641
71.565 19.971418
71.570 19.821913
71.575 20.159224
71.580 20.256138
71.585 19.47814
71.590 19.160755
71.595 19.167984
71.600 19.314297
71.605 18.644506
71.610 18.317987
71.615 18.93482
71.620 19.740604
71.625 19.397522
71.630 19.327765
71.635 19.006111
71.640 19.055845
71.645 18.66391
71.650 18.745022
71.655 18.198473
71.660 18.660439
71.665 18.844669
71.670 18.895355
71.675 19.262547
71.680 18.361383
71.685 18.248188
71.690 17.952768
71.695 17.096403
71.700 16.70566
71.705 16.432426
71.710 16.663799
71.715 17.035181
71.720 17.461792
71.725 17.652857
71.730 18.468607
71.735 18.965864
71.740 19.259436
71.745 19.498341
71.750 19.757469
71.755 19.348398
71.760 19.238413
71.765 19.561403
71.770 19.144522
71.775 19.313761
71.780 18.803226
71.785 18.923059
71.790 19.370476
71.795 19.377821
71.800 19.313498
71.805 19.719387
71.810 20.223961
71.815 20.356989
71.820 20.038599
71.825 20.111172
71.830 19.899496
71.835 19.506098
71.840 18.880682
71.845 18.838667
71.850 19.122826
71.855 18.746616
71.860 18.547878
71.865 18.784161
71.870 19.418055
71.875 19.837217
71.880 19.18152
71.885 19.157253
71.890 18.970238
71.895 19.362516
71.900 19.430571
71.905 19.152187
71.910 18.754934
71.915 18.569103
71.920 18.765968
71.925 18.934492
71.930 18.460463
71.935 18.261414
71.940 18.099974
71.945 18.044582
71.950 18.164291
71.955 17.809187
71.960 17.988419
71.965 17.901657
71.970 17.904741
71.975 17.570427
71.980 17.361809
71.985 17.524572
71.990 18.235834
71.995 18.044359
72.000 17.722532
72.005 18.12499
72.010 18.899042
72.015 19.296835
72.020 19.196653
72.025 18.821434
72.030 19.293945
72.035 19.305433
72.040 19.17988
72.045 19.052076
72.050 18.789249
72.055 18.195135
72.060 18.301117
72.065 18.973848
72.070 19.200153
72.075 19.055254
72.080 19.179186
72.085 19.689234
72.090 19.872746
72.095 19.385448
72.100 18.927067
72.105 18.880571
72.110 18.731291
72.115 18.477217
72.120 18.570957
72.125 18.64271
72.130 18.855404
72.135 19.053759
72.140 19.433731
72.145 19.88825
72.150 19.645899
72.155 19.640926
72.160 19.791382
72.165 19.704908
72.170 19.655849
72.175 19.292908
72.180 18.514399
72.185 18.258682
72.190 18.218374
72.195 18.550718
72.200 18.609631
72.205 18.583826
72.210 18.555241
72.215 19.057184
72.220 19.070635
72.225 18.763702
72.230 18.419937
72.235 18.001101
72.240 17.97127
72.245 18.418234
72.250 19.157162
72.255 19.666437
72.260 19.903164
72.265 20.181013
72.270 20.027153
72.275 19.978878
72.280 19.980886
72.285 19.80361
72.290 19.730019
72.295 19.503124
72.300 19.448309
72.305 19.648331
72.310 19.663752
72.315 19.745207
72.320 18.891865
72.325 18.596704
72.330 18.471209
72.335 18.023968
72.340 17.723038
72.345 17.562489
72.350 17.664774
72.355 18.392477
72.360 18.365641
72.365 18.377678
72.370 19.200621
72.375 19.428507
72.380 19.094852
72.385 18.986225
72.390 19.00569
72.395 19.109255
72.400 19.174959
72.405 18.870127
72.410 18.86441
72.415 19.295488
72.420 18.619368
72.425 18.274141
72.430 18.30427
72.435 17.906536
72.440 18.047092
72.445 18.72016
72.450 18.721092
72.455 18.817232
72.460 18.781269
72.465 18.974741
72.470 18.998268
72.475 18.5077
72.480 18.396282
72.485 18.494349
72.490 18.530489
72.495 18.26973
72.500 18.393488
72.505 18.565649
72.510 18.27187
72.515 17.677622
72.520 17.723085
72.525 17.397915
72.530 17.454065
72.535 17.698219
72.540 17.351486
72.545 17.640619
72.550 17.755941
72.555 18.457705
72.560 19.24568
72.565 18.94401
72.570 18.752237
72.575 19.08544
72.580 18.869574
72.585 19.1919
72.590 18.433035
72.595 18.311417
72.600 18.721401
72.605 18.892191
72.610 18.977053
72.615 18.473549
72.620 18.433435
72.625 18.940783
72.630 18.628523
72.635 18.611294
72.640 18.359617
72.645 18.151012
72.650 17.998146
72.655 17.194113
72.660 17.101913
72.665 17.003822
72.670 16.803101
72.675 16.641317
72.680 16.506861
72.685 17.242352
72.690 17.782887
72.695 18.080681
72.700 17.846245
72.705 17.50363
72.710 17.827379
72.715 17.648157
72.720 17.442726
72.725 17.356882
72.730 17.286581
72.735 17.926895
72.740 18.097036
72.745 17.941389
72.750 18.52564
72.755 18.485224
72.760 18.052446
72.765 17.822708
72.770 17.700876
72.775 17.885887
72.780 18.253569
72.785 17.50725
72.790 16.90764
72.795 17.483162
72.800 17.606001
72.805 17.989796
72.810 18.255543
72.815 18.344404
72.820 18.731359
72.825 19.289906
72.830 18.228176
72.835 18.364731
72.840 17.619221
72.845 17.438206
72.850 17.379652
72.855 16.707861
72.860 16.490248
72.865 16.567842
72.870 16.677141
72.875 16.67897
72.880 15.872008
72.885 16.280893
72.890 17.085871
72.895 17.333645
72.900 17.825949
72.905 17.983633
72.910 18.374441
72.915 18.517912
72.920 18.793192
72.925 19.045652
72.930 18.967712
72.935 18.743109
72.940 18.491884
72.945 18.40604
72.950 18.013653
72.955 17.287851
72.960 17.469419
72.965 17.215097
72.970 16.844456
72.975 16.824486
72.980 16.920385
72.985 17.150349
72.990 17.07933
72.995 17.273643
73.000 17.249981
