!@!!GADDS PLOTSO FILE: Chi integration type
!@!!Title/SampleName: map-117
!@!!Comment: ?
!@!!User: Bruker Instrument Administrator
!@!!Site: University of Illinois Chicago
!@!!Frame: map-117_01_000.gfrm
!@!!Wavelengths    1.54184   1.54056   1.54439
!@!!Frame angles: 2Theta: 63.000 Omega: 50.000 Phi: 0.000 Chi: 90.000
!@!!Integration range: 2Theta: 53.000 to 73.000  Gamma: -105.000 to -75.000
!@!!Integration method: bin normalized
!@!N
!@!SS
!@!M
!@!L 0.0 0.0 0.0 0.0
!@!XDegrees
!@!YCounts
53.000 9.302047
53.005 8.878216
53.010 8.725138
53.015 8.779038
53.020 8.812259
53.025 8.900272
53.030 9.142759
53.035 9.294699
53.040 9.502973
53.045 8.95429
53.050 8.700107
53.055 8.38669
53.060 8.104545
53.065 7.780211
53.070 7.837407
53.075 7.92485
53.080 8.112318
53.085 8.514518
53.090 8.67844
53.095 9.050211
53.100 9.239173
53.105 9.181437
53.110 9.061924
53.115 8.603295
53.120 8.636717
53.125 8.907688
53.130 8.975972
53.135 9.142946
53.140 9.226338
53.145 9.640358
53.150 10.091732
53.155 9.506364
53.160 9.054214
53.165 8.842252
53.170 8.873904
53.175 8.456511
53.180 7.953749
53.185 7.834015
53.190 8.03881
53.195 8.011248
53.200 7.496768
53.205 7.250882
53.210 7.384622
53.215 7.331881
53.220 7.260154
53.225 7.181187
53.230 7.688565
53.235 8.123005
53.240 8.317613
53.245 8.683451
53.250 8.760022
53.255 9.126208
53.260 9.095421
53.265 9.3775
53.270 9.41693
53.275 9.171153
53.280 9.291759
53.285 9.388514
53.290 9.708771
53.295 9.412689
53.300 9.023028
53.305 8.923086
53.310 8.818057
53.315 8.644845
53.320 8.800213
53.325 8.706959
53.330 9.022552
53.335 8.539175
53.340 8.3072
53.345 8.269904
53.350 8.096079
53.355 7.395274
53.360 7.112516
53.365 6.885746
53.370 7.382739
53.375 7.635526
53.380 7.774028
53.385 7.8971
53.390 8.351895
53.395 8.206046
53.400 8.462775
53.405 8.265942
53.410 7.770294
53.415 7.593539
53.420 7.794315
53.425 7.794106
53.430 7.725429
53.435 7.869102
53.440 8.696671
53.445 9.616008
53.450 10.080671
53.455 10.35745
53.460 10.643416
53.465 10.785243
53.470 10.383313
53.475 10.004535
53.480 9.286232
53.485 8.715477
53.490 8.413298
53.495 8.474442
53.500 8.96313
53.505 8.725595
53.510 8.512689
53.515 8.745376
53.520 8.566931
53.525 8.333493
53.530 8.010151
53.535 8.037263
53.540 8.426721
53.545 8.414919
53.550 8.239276
53.555 8.49094
53.560 8.599568
53.565 8.574801
53.570 8.398246
53.575 8.190432
53.580 8.350425
53.585 8.234995
53.590 7.71432
53.595 7.794133
53.600 7.848954
53.605 8.043404
53.610 8.149148
53.615 8.647839
53.620 8.971784
53.625 9.210769
53.630 9.014529
53.635 9.006991
53.640 9.099005
53.645 9.259343
53.650 9.192139
53.655 9.217525
53.660 9.690545
53.665 9.816813
53.670 9.10063
53.675 8.48071
53.680 8.262684
53.685 7.769777
53.690 7.543656
53.695 7.483442
53.700 7.822872
53.705 8.347937
53.710 8.758059
53.715 8.649596
53.720 8.76619
53.725 8.825081
53.730 8.601004
53.735 8.256575
53.740 8.271336
53.745 8.136682
53.750 8.333162
53.755 8.413215
53.760 8.163972
53.765 8.173685
53.770 8.455453
53.775 8.617328
53.780 8.757005
53.785 8.95634
53.790 9.33672
53.795 9.745801
53.800 9.763359
53.805 9.419448
53.810 9.002557
53.815 9.007339
53.820 8.964653
53.825 9.05918
53.830 8.896405
53.835 8.880637
53.840 8.922282
53.845 9.061626
53.850 8.876042
53.855 8.789508
53.860 8.303946
53.865 8.193059
53.870 8.478393
53.875 8.361894
53.880 8.520593
53.885 8.590816
53.890 8.408372
53.895 8.70528
53.900 9.2951
53.905 9.823645
53.910 10.108282
53.915 10.112641
53.920 10.133922
53.925 9.885235
53.930 9.470786
53.935 8.837819
53.940 8.789942
53.945 8.320401
53.950 8.243531
53.955 8.662319
53.960 9.121279
53.965 9.523768
53.970 9.076148
53.975 8.783912
53.980 8.854247
53.985 8.593201
53.990 8.383155
53.995 7.861367
54.000 7.819638
54.005 8.016677
54.010 8.347625
54.015 8.536045
54.020 8.694679
54.025 8.597404
54.030 9.055754
54.035 9.129818
54.040 9.047303
54.045 8.614202
54.050 8.412433
54.055 8.509591
54.060 8.695036
54.065 8.194733
54.070 7.862709
54.075 8.092483
54.080 8.551813
54.085 8.830039
54.090 8.650459
54.095 8.724679
54.100 8.995956
54.105 9.478131
54.110 9.799447
54.115 9.895573
54.120 9.962469
54.125 10.158166
54.130 10.524245
54.135 10.685222
54.140 10.087867
54.145 9.700171
54.150 9.716931
54.155 9.663546
54.160 9.395205
54.165 9.13808
54.170 9.203225
54.175 9.060586
54.180 8.860699
54.185 8.389094
54.190 8.519192
54.195 8.441004
54.200 8.600076
54.205 8.511849
54.210 8.816154
54.215 8.915072
54.220 9.042702
54.225 9.13805
54.230 9.234445
54.235 9.014556
54.240 8.769053
54.245 8.815627
54.250 8.689697
54.255 8.212234
54.260 8.177098
54.265 8.179661
54.270 8.338233
54.275 8.194535
54.280 8.298058
54.285 8.865023
54.290 9.435742
54.295 9.5984
54.300 9.762325
54.305 9.743181
54.310 10.418857
54.315 10.3746
54.320 10.070602
54.325 9.929122
54.330 9.618602
54.335 10.247699
54.340 10.295224
54.345 9.587483
54.350 9.032548
54.355 8.392066
54.360 7.985208
54.365 7.284817
54.370 6.522319
54.375 6.435416
54.380 6.818488
54.385 7.022689
54.390 7.690978
54.395 7.904681
54.400 8.183983
54.405 8.340899
54.410 8.620772
54.415 9.177653
54.420 9.604251
54.425 9.284307
54.430 9.431242
54.435 9.863311
54.440 9.785547
54.445 9.438938
54.450 8.793491
54.455 8.355515
54.460 8.37439
54.465 8.195884
54.470 7.861939
54.475 8.217587
54.480 8.502833
54.485 8.648999
54.490 8.936504
54.495 9.160676
54.500 9.251509
54.505 9.247197
54.510 8.755758
54.515 8.76207
54.520 9.079334
54.525 8.850364
54.530 8.594604
54.535 8.312558
54.540 8.239779
54.545 8.585197
54.550 8.263227
54.555 8.367713
54.560 8.508189
54.565 8.433795
54.570 8.535812
54.575 8.542641
54.580 8.60238
54.585 9.103599
54.590 9.095551
54.595 9.369667
54.600 9.633971
54.605 9.876581
54.610 9.621174
54.615 8.852462
54.620 8.443071
54.625 8.062924
54.630 8.030152
54.635 8.030396
54.640 7.746939
54.645 7.75516
54.650 8.050087
54.655 8.472115
54.660 8.853277
54.665 8.666788
54.670 8.675435
54.675 8.7489
54.680 9.330843
54.685 8.999563
54.690 8.603546
54.695 8.49022
54.700 8.255604
54.705 8.412965
54.710 8.825337
54.715 8.915075
54.720 8.925756
54.725 8.524423
54.730 8.405198
54.735 8.238082
54.740 8.187179
54.745 8.168689
54.750 8.29805
54.755 8.955376
54.760 9.829185
54.765 10.219937
54.770 10.573636
54.775 10.592949
54.780 10.363648
54.785 10.301544
54.790 10.173351
54.795 9.663568
54.800 9.897813
54.805 9.992812
54.810 9.842815
54.815 9.834267
54.820 9.90242
54.825 9.528087
54.830 9.444599
54.835 9.405658
54.840 9.185719
54.845 9.399075
54.850 9.007471
54.855 9.200301
54.860 9.450533
54.865 9.373818
54.870 9.252268
54.875 9.566121
54.880 9.670559
54.885 10.093645
54.890 10.089115
54.895 10.129501
54.900 10.35085
54.905 10.388604
54.910 10.328429
54.915 10.149496
54.920 9.41663
54.925 8.97331
54.930 8.679102
54.935 8.515047
54.940 8.413877
54.945 8.898658
54.950 9.390378
54.955 9.633104
54.960 9.805377
54.965 9.930565
54.970 10.012426
54.975 9.707069
54.980 9.225231
54.985 9.267927
54.990 9.401601
54.995 9.849937
55.000 9.715712
55.005 9.49977
55.010 9.771724
55.015 9.803802
55.020 9.772102
55.025 9.846974
55.030 9.640713
55.035 10.015256
55.040 10.464434
55.045 10.313806
55.050 9.991371
55.055 9.878696
55.060 9.782024
55.065 9.589007
55.070 9.493935
55.075 9.101398
55.080 9.190117
55.085 9.75152
55.090 9.774671
55.095 10.20962
55.100 10.258638
55.105 10.052978
55.110 10.391409
55.115 10.432812
55.120 10.357164
55.125 10.494649
55.130 10.471681
55.135 10.66045
55.140 10.655713
55.145 10.523297
55.150 10.274587
55.155 9.74704
55.160 10.058743
55.165 9.694305
55.170 9.426448
55.175 9.767904
55.180 10.267085
55.185 10.59725
55.190 11.079102
55.195 10.805085
55.200 11.157814
55.205 11.258281
55.210 10.888227
55.215 10.637761
55.220 9.889405
55.225 9.241308
55.230 8.605246
55.235 8.18031
55.240 8.300955
55.245 8.374391
55.250 8.5277
55.255 9.401251
55.260 9.655965
55.265 10.292509
55.270 10.071714
55.275 9.754696
55.280 9.623592
55.285 9.435669
55.290 8.695193
55.295 8.418484
55.300 8.155066
55.305 8.688859
55.310 8.831269
55.315 9.071675
55.320 9.532677
55.325 9.779636
55.330 9.91513
55.335 10.217811
55.340 10.062144
55.345 9.73174
55.350 9.284946
55.355 8.986819
55.360 9.205445
55.365 9.39401
55.370 9.22197
55.375 9.075369
55.380 9.31646
55.385 9.314861
55.390 9.624609
55.395 9.530622
55.400 9.561093
55.405 10.014036
55.410 10.248799
55.415 10.19015
55.420 9.986332
55.425 9.830793
55.430 9.376707
55.435 9.116552
55.440 8.748787
55.445 8.950953
55.450 9.04446
55.455 9.325672
55.460 9.498594
55.465 10.034203
55.470 10.18098
55.475 10.312201
55.480 10.107598
55.485 9.934278
55.490 10.029986
55.495 9.818595
55.500 9.382856
55.505 9.59381
55.510 9.516851
55.515 9.419044
55.520 9.30407
55.525 8.952532
55.530 8.901415
55.535 9.417795
55.540 9.313378
55.545 9.530321
55.550 9.879295
55.555 10.153218
55.560 10.497371
55.565 10.996456
55.570 10.687067
55.575 10.235695
55.580 9.964897
55.585 9.390844
55.590 9.23851
55.595 8.876857
55.600 8.580501
55.605 8.53994
55.610 8.959352
55.615 9.519303
55.620 10.069033
55.625 10.203674
55.630 10.252192
55.635 10.559292
55.640 10.684913
55.645 10.707932
55.650 10.579657
55.655 10.172553
55.660 9.993029
55.665 10.089308
55.670 9.695899
55.675 9.563024
55.680 9.140295
55.685 9.231245
55.690 9.422454
55.695 9.629902
55.700 9.4354
55.705 9.542162
55.710 9.194536
55.715 9.1538
55.720 9.050439
55.725 9.073442
55.730 8.660566
55.735 8.550703
55.740 8.664608
55.745 8.798841
55.750 9.126476
55.755 8.951898
55.760 8.971702
55.765 9.205112
55.770 9.259165
55.775 9.295231
55.780 9.326507
55.785 9.291919
55.790 9.417265
55.795 9.365891
55.800 9.830981
55.805 10.349051
55.810 10.452824
55.815 10.780626
55.820 10.999968
55.825 10.916135
55.830 10.760131
55.835 9.78601
55.840 9.560372
55.845 9.994953
55.850 9.869201
55.855 9.388643
55.860 9.615535
55.865 9.697151
55.870 9.820027
55.875 9.658145
55.880 8.958782
55.885 8.945451
55.890 9.176949
55.895 9.097839
55.900 9.046046
55.905 8.668071
55.910 8.398337
55.915 8.670544
55.920 8.99512
55.925 9.021713
55.930 9.714077
55.935 10.076198
55.940 10.30108
55.945 10.446648
55.950 10.619237
55.955 10.306746
55.960 9.872251
55.965 9.340425
55.970 9.423141
55.975 9.578328
55.980 9.262793
55.985 8.886185
55.990 8.979197
55.995 9.103485
56.000 9.454745
56.005 9.325138
56.010 9.573281
56.015 10.209502
56.020 10.427754
56.025 10.068794
56.030 9.865705
56.035 9.300793
56.040 9.177148
56.045 8.393265
56.050 7.434818
56.055 7.130108
56.060 7.334077
56.065 7.608785
56.070 7.643451
56.075 7.900158
56.080 8.296596
56.085 8.250894
56.090 8.307806
56.095 8.37462
56.100 8.336447
56.105 8.64287
56.110 8.461595
56.115 8.605453
56.120 8.995968
56.125 9.157012
56.130 9.029136
56.135 8.862367
56.140 8.455746
56.145 8.708612
56.150 8.480105
56.155 8.524177
56.160 8.886379
56.165 9.030045
56.170 9.032495
56.175 9.038668
56.180 9.063492
56.185 9.157162
56.190 8.736522
56.195 8.521914
56.200 8.695856
56.205 8.896387
56.210 9.072888
56.215 9.373386
56.220 9.676753
56.225 10.014653
56.230 9.990733
56.235 9.952205
56.240 10.046926
56.245 9.977365
56.250 9.223918
56.255 8.700406
56.260 8.886563
56.265 9.661114
56.270 9.68886
56.275 9.749981
56.280 9.863442
56.285 10.474797
56.290 10.933611
56.295 10.413857
56.300 9.748179
56.305 9.943057
56.310 10.106368
56.315 9.995727
56.320 9.780526
56.325 9.244636
56.330 9.310955
56.335 9.219247
56.340 9.201539
56.345 8.92821
56.350 9.016179
56.355 8.877663
56.360 9.341042
56.365 9.411246
56.370 9.695258
56.375 9.570686
56.380 9.307199
56.385 9.331258
56.390 9.412352
56.395 9.148056
56.400 9.583969
56.405 9.865908
56.410 10.160458
56.415 10.779714
56.420 11.322719
56.425 12.060704
56.430 12.321062
56.435 12.115331
56.440 12.053266
56.445 11.999583
56.450 11.900036
56.455 11.242222
56.460 11.56007
56.465 11.15142
56.470 10.806855
56.475 10.827491
56.480 10.535104
56.485 10.471697
56.490 10.911565
56.495 10.579102
56.500 10.913308
56.505 11.175748
56.510 11.129482
56.515 11.574374
56.520 11.466587
56.525 11.361665
56.530 11.409236
56.535 11.227134
56.540 11.1309
56.545 11.11375
56.550 10.668765
56.555 10.846525
56.560 10.818193
56.565 10.826992
56.570 10.889416
56.575 10.933958
56.580 11.27027
56.585 11.444609
56.590 11.20751
56.595 10.935549
56.600 10.829727
56.605 10.593505
56.610 10.518064
56.615 10.712659
56.620 11.062799
56.625 11.386836
56.630 11.58005
56.635 11.717903
56.640 11.651103
56.645 11.191704
56.650 10.489964
56.655 10.309938
56.660 10.332265
56.665 10.25768
56.670 10.537534
56.675 11.102924
56.680 11.421054
56.685 11.610234
56.690 11.488983
56.695 11.078869
56.700 10.967224
56.705 11.01898
56.710 11.042016
56.715 11.358802
56.720 11.396689
56.725 11.460231
56.730 11.942426
56.735 12.064973
56.740 11.401215
56.745 11.033428
56.750 10.80583
56.755 10.690581
56.760 10.607855
56.765 9.975352
56.770 10.064461
56.775 10.459277
56.780 10.189369
56.785 10.146744
56.790 10.319974
56.795 10.267912
56.800 10.512946
56.805 10.288538
56.810 10.159944
56.815 10.043384
56.820 10.273705
56.825 10.280113
56.830 10.485575
56.835 10.434808
56.840 10.648882
56.845 10.636819
56.850 10.891382
56.855 10.69022
56.860 10.405805
56.865 10.247604
56.870 10.653404
56.875 10.192831
56.880 10.259774
56.885 9.925322
56.890 9.96324
56.895 10.017097
56.900 9.804589
56.905 9.914006
56.910 10.653096
56.915 11.011368
56.920 11.2239
56.925 11.197625
56.930 11.048057
56.935 10.764735
56.940 10.132917
56.945 9.947632
56.950 9.708678
56.955 9.79549
56.960 9.921041
56.965 10.431224
56.970 10.547601
56.975 10.196548
56.980 9.661459
56.985 9.959129
56.990 10.029343
56.995 9.62957
57.000 9.312397
57.005 9.290956
57.010 9.764362
57.015 9.672444
57.020 9.378267
57.025 9.09543
57.030 9.411706
57.035 9.256178
57.040 9.603174
57.045 9.827729
57.050 10.218251
57.055 10.014668
57.060 10.047104
57.065 10.081522
57.070 10.695867
57.075 10.826643
57.080 10.595339
57.085 10.882979
57.090 11.075207
57.095 11.215096
57.100 10.674768
57.105 10.054082
57.110 9.774644
57.115 9.361294
57.120 9.061585
57.125 9.021378
57.130 8.938998
57.135 9.558699
57.140 10.029684
57.145 10.587637
57.150 10.677896
57.155 10.81442
57.160 10.934175
57.165 11.004341
57.170 10.266827
57.175 9.756837
57.180 9.45953
57.185 9.293842
57.190 9.086144
57.195 9.182857
57.200 9.775083
57.205 9.902927
57.210 10.158686
57.215 10.370742
57.220 10.85534
57.225 10.724566
57.230 10.589043
57.235 10.372571
57.240 10.962843
57.245 10.599193
57.250 10.418952
57.255 10.516215
57.260 10.670048
57.265 10.52151
57.270 10.194718
57.275 9.635361
57.280 9.396365
57.285 9.284027
57.290 9.078062
57.295 9.210154
57.300 9.458519
57.305 9.934312
57.310 10.743251
57.315 11.01556
57.320 11.067982
57.325 11.042901
57.330 10.611382
57.335 10.15274
57.340 9.574482
57.345 8.968126
57.350 8.762883
57.355 8.755424
57.360 8.952383
57.365 9.407825
57.370 9.920053
57.375 10.134321
57.380 10.796638
57.385 11.03125
57.390 11.163671
57.395 10.946066
57.400 10.704683
57.405 10.796253
57.410 10.647272
57.415 10.455186
57.420 10.505713
57.425 10.553014
57.430 10.962855
57.435 10.798991
57.440 10.943302
57.445 10.949908
57.450 11.061123
57.455 11.251065
57.460 11.078233
57.465 10.628756
57.470 10.453502
57.475 10.011659
57.480 10.016938
57.485 10.082405
57.490 9.8507
57.495 9.890288
57.500 10.118841
57.505 9.891739
57.510 9.727593
57.515 9.652344
57.520 8.837895
57.525 8.614138
57.530 8.459939
57.535 8.511629
57.540 8.673837
57.545 9.019614
57.550 9.241938
57.555 9.933204
57.560 10.253412
57.565 10.672542
57.570 10.565145
57.575 10.574563
57.580 10.670256
57.585 10.198888
57.590 10.526387
57.595 10.517444
57.600 10.039363
57.605 10.153369
57.610 10.277243
57.615 10.202664
57.620 10.441463
57.625 10.576656
57.630 10.755247
57.635 11.176293
57.640 11.127601
57.645 11.385564
57.650 11.425123
57.655 10.985556
57.660 10.058777
57.665 9.690712
57.670 9.359495
57.675 9.101307
57.680 8.965979
57.685 9.320241
57.690 9.806016
57.695 10.022522
57.700 10.352144
57.705 10.925812
57.710 11.142272
57.715 11.445525
57.720 11.361032
57.725 11.183915
57.730 10.948659
57.735 10.727977
57.740 10.831848
57.745 11.031532
57.750 10.840859
57.755 10.846977
57.760 11.225129
57.765 12.248915
57.770 11.710785
57.775 11.231955
57.780 10.451323
57.785 10.774406
57.790 10.865995
57.795 10.147815
57.800 9.30337
57.805 9.851366
57.810 10.262683
57.815 10.888411
57.820 10.510776
57.825 10.503852
57.830 10.755057
57.835 10.849264
57.840 10.4463
57.845 10.367604
57.850 10.453907
57.855 10.216617
57.860 10.134358
57.865 10.45647
57.870 10.532924
57.875 10.484059
57.880 10.071568
57.885 9.56403
57.890 9.832155
57.895 9.872218
57.900 9.525308
57.905 9.295865
57.910 9.184265
57.915 9.490617
57.920 9.76809
57.925 9.706991
57.930 9.277836
57.935 9.206177
57.940 9.509563
57.945 9.734573
57.950 9.664493
57.955 9.468472
57.960 9.407009
57.965 10.079
57.970 10.089028
57.975 9.90719
57.980 9.9583
57.985 9.944369
57.990 10.07767
57.995 10.267587
58.000 10.027989
58.005 9.993605
58.010 10.247217
58.015 10.543118
58.020 10.515748
58.025 9.994298
58.030 9.618929
58.035 9.994992
58.040 9.621459
58.045 9.2847
58.050 8.908941
58.055 8.833425
58.060 9.424614
58.065 9.287886
58.070 9.161058
58.075 9.723248
58.080 10.008183
58.085 9.841224
58.090 9.920167
58.095 9.586205
58.100 9.88245
58.105 10.186713
58.110 9.809092
58.115 9.301729
58.120 9.140696
58.125 8.96162
58.130 9.183975
58.135 9.26935
58.140 9.318476
58.145 9.937753
58.150 10.385303
58.155 10.934831
58.160 11.201331
58.165 11.22605
58.170 11.274466
58.175 11.131216
58.180 11.378149
58.185 11.420273
58.190 11.056282
58.195 10.550433
58.200 10.265373
58.205 9.885133
58.210 9.925332
58.215 9.533236
58.220 9.733585
58.225 10.307243
58.230 11.429836
58.235 12.049856
58.240 11.850029
58.245 11.673736
58.250 11.791896
58.255 11.377979
58.260 10.86794
58.265 9.996176
58.270 9.576112
58.275 9.657864
58.280 9.661284
58.285 9.693385
58.290 10.462929
58.295 10.810426
58.300 11.442585
58.305 12.015415
58.310 12.22192
58.315 11.968456
58.320 12.252672
58.325 11.871651
58.330 11.404555
58.335 11.111938
58.340 10.87686
58.345 11.014136
58.350 11.195475
58.355 10.994819
58.360 11.235759
58.365 11.604616
58.370 12.001793
58.375 12.420379
58.380 12.194113
58.385 12.925998
58.390 13.765949
58.395 13.957169
58.400 14.101531
58.405 13.61313
58.410 13.242621
58.415 13.468344
58.420 12.802397
58.425 11.65824
58.430 11.662391
58.435 11.513004
58.440 11.518294
58.445 11.670914
58.450 11.937286
58.455 12.229847
58.460 12.364703
58.465 11.841557
58.470 11.835422
58.475 12.215111
58.480 12.263156
58.485 11.925457
58.490 11.774468
58.495 12.218807
58.500 12.79048
58.505 13.020894
58.510 12.53671
58.515 12.894703
58.520 13.346106
58.525 13.837054
58.530 13.918615
58.535 13.911811
58.540 13.569264
58.545 14.059321
58.550 13.802449
58.555 13.430298
58.560 13.191865
58.565 13.018246
58.570 13.19779
58.575 13.254321
58.580 12.840308
58.585 12.682993
58.590 12.45182
58.595 12.340974
58.600 12.03465
58.605 11.572754
58.610 11.602392
58.615 11.745428
58.620 11.827177
58.625 12.120648
58.630 12.563865
58.635 12.786786
58.640 13.038939
58.645 12.786977
58.650 12.493787
58.655 12.757486
58.660 12.809039
58.665 12.229115
58.670 11.904692
58.675 11.756985
58.680 12.08592
58.685 12.195098
58.690 11.980704
58.695 12.332749
58.700 12.824869
58.705 13.325946
58.710 13.262016
58.715 13.409879
58.720 13.739281
58.725 13.723228
58.730 13.036695
58.735 12.432316
58.740 11.866429
58.745 11.852992
58.750 11.970997
58.755 11.688011
58.760 11.217474
58.765 10.886055
58.770 10.630132
58.775 10.629549
58.780 10.770233
58.785 10.651998
58.790 10.268723
58.795 10.709752
58.800 11.157139
58.805 11.035756
58.810 11.233558
58.815 11.071434
58.820 10.936738
58.825 11.198302
58.830 10.953795
58.835 10.767906
58.840 10.490415
58.845 10.367017
58.850 10.838441
58.855 11.233185
58.860 11.499564
58.865 11.437032
58.870 11.847276
58.875 12.30718
58.880 12.470901
58.885 11.926062
58.890 11.450504
58.895 11.1226
58.900 11.042882
58.905 10.556413
58.910 10.624114
58.915 10.938354
58.920 10.951886
58.925 10.895023
58.930 11.493398
58.935 11.837008
58.940 12.142828
58.945 12.108861
58.950 11.403519
58.955 11.59798
58.960 11.111629
58.965 10.583758
58.970 10.071078
58.975 9.900391
58.980 9.812959
58.985 9.820844
58.990 9.843109
58.995 10.23319
59.000 10.234694
59.005 10.842253
59.010 10.936019
59.015 11.057363
59.020 11.457247
59.025 10.638594
59.030 10.483356
59.035 10.697249
59.040 10.830248
59.045 10.787187
59.050 9.855646
59.055 9.378957
59.060 10.101174
59.065 10.169902
59.070 10.359309
59.075 9.955147
59.080 10.224327
59.085 10.637752
59.090 10.78579
59.095 10.727552
59.100 10.502008
59.105 10.04752
59.110 9.782886
59.115 9.426421
59.120 9.208471
59.125 8.769753
59.130 8.470268
59.135 8.650669
59.140 8.514139
59.145 8.571545
59.150 8.727091
59.155 8.961582
59.160 9.088129
59.165 9.55606
59.170 9.869243
59.175 10.294629
59.180 10.324923
59.185 10.217612
59.190 10.462561
59.195 10.292269
59.200 9.806029
59.205 9.492564
59.210 9.26974
59.215 9.284966
59.220 9.460273
59.225 8.958598
59.230 9.240344
59.235 9.403228
59.240 9.163593
59.245 9.170337
59.250 9.266116
59.255 9.600524
59.260 10.36297
59.265 10.393535
59.270 10.237347
59.275 10.808485
59.280 10.770838
59.285 11.186527
59.290 11.179245
59.295 11.355467
59.300 11.250644
59.305 11.394871
59.310 11.2067
59.315 11.078582
59.320 10.602104
59.325 10.338642
59.330 9.942185
59.335 9.313314
59.340 9.186392
59.345 9.297116
59.350 9.464587
59.355 9.311433
59.360 8.94198
59.365 8.87596
59.370 9.494714
59.375 9.368024
59.380 9.164186
59.385 9.198425
59.390 9.504116
59.395 9.882031
59.400 9.890566
59.405 9.792022
59.410 10.079233
59.415 10.153827
59.420 10.162524
59.425 9.674435
59.430 9.141468
59.435 9.158932
59.440 9.195616
59.445 9.235137
59.450 9.178777
59.455 9.116602
59.460 9.388885
59.465 10.049579
59.470 10.384434
59.475 10.129704
59.480 9.911314
59.485 9.906614
59.490 9.75696
59.495 9.932909
59.500 10.059169
59.505 10.268241
59.510 10.425127
59.515 10.184194
59.520 10.249804
59.525 10.247385
59.530 9.880539
59.535 9.414044
59.540 9.145034
59.545 9.38189
59.550 9.662358
59.555 9.745266
59.560 9.704986
59.565 9.83819
59.570 9.983033
59.575 10.278775
59.580 9.94095
59.585 9.727385
59.590 9.421521
59.595 9.829195
59.600 9.695892
59.605 9.183777
59.610 8.986154
59.615 8.927518
59.620 8.663307
59.625 9.105702
59.630 8.988542
59.635 9.037855
59.640 9.211504
59.645 9.178615
59.650 9.263565
59.655 9.825028
59.660 9.978763
59.665 10.739139
59.670 11.304655
59.675 12.234553
59.680 12.313508
59.685 12.436462
59.690 12.006064
59.695 11.618856
59.700 10.71642
59.705 10.367717
59.710 9.528964
59.715 9.458577
59.720 10.029431
59.725 10.508437
59.730 10.603767
59.735 11.155073
59.740 11.186756
59.745 11.555356
59.750 11.811657
59.755 11.403787
59.760 11.410738
59.765 11.74891
59.770 11.624361
59.775 11.902379
59.780 11.935491
59.785 12.078109
59.790 12.493839
59.795 12.25028
59.800 11.707723
59.805 11.535778
59.810 11.316342
59.815 11.032528
59.820 10.667309
59.825 10.162798
59.830 10.13621
59.835 10.24837
59.840 10.290396
59.845 10.100114
59.850 9.772514
59.855 9.571343
59.860 9.711306
59.865 9.700148
59.870 9.984555
59.875 9.366878
59.880 9.413851
59.885 9.802825
59.890 10.276379
59.895 10.303395
59.900 9.866476
59.905 9.686725
59.910 9.876581
59.915 9.902643
59.920 9.87155
59.925 9.33779
59.930 9.283009
59.935 9.583126
59.940 9.588053
59.945 9.524433
59.950 10.095441
59.955 10.141729
59.960 10.376006
59.965 10.605394
59.970 10.880515
59.975 10.839377
59.980 10.707168
59.985 10.12861
59.990 10.255896
59.995 10.290128
60.000 10.155031
60.005 10.292646
60.010 10.612404
60.015 10.561811
60.020 10.609642
60.025 10.135154
60.030 9.801204
60.035 9.608849
60.040 9.334888
60.045 9.420968
60.050 9.857017
60.055 10.125365
60.060 10.292706
60.065 10.40635
60.070 10.225754
60.075 10.217059
60.080 9.983066
60.085 9.908887
60.090 10.035697
60.095 10.209628
60.100 10.535963
60.105 10.973007
60.110 11.273332
60.115 11.692342
60.120 11.666944
60.125 11.347798
60.130 11.065736
60.135 10.838273
60.140 10.967018
60.145 10.669612
60.150 10.217116
60.155 10.009027
60.160 9.88814
60.165 9.925694
60.170 10.236798
60.175 10.42415
60.180 10.367362
60.185 10.229504
60.190 10.293149
60.195 10.598932
60.200 10.994398
60.205 10.772681
60.210 10.259593
60.215 10.126255
60.220 10.301619
60.225 10.031143
60.230 9.763557
60.235 9.281393
60.240 9.404968
60.245 9.408358
60.250 10.025899
60.255 10.223561
60.260 10.322297
60.265 10.393394
60.270 10.269659
60.275 10.15648
60.280 10.11393
60.285 9.510167
60.290 8.761442
60.295 9.021865
60.300 9.111592
60.305 9.183998
60.310 9.433693
60.315 9.722797
60.320 9.532841
60.325 9.760115
60.330 9.585638
60.335 9.68344
60.340 9.664336
60.345 9.263865
60.350 8.911474
60.355 8.859806
60.360 9.006567
60.365 8.983215
60.370 8.930623
60.375 9.19721
60.380 9.945518
60.385 10.481494
60.390 10.705806
60.395 10.860064
60.400 10.639637
60.405 11.276496
60.410 10.816594
60.415 9.990356
60.420 10.065464
60.425 10.402117
60.430 10.409156
60.435 10.1051
60.440 9.525521
60.445 9.855732
60.450 10.024568
60.455 10.062605
60.460 9.971729
60.465 10.032658
60.470 10.430616
60.475 10.752547
60.480 10.663719
60.485 10.643085
60.490 10.578257
60.495 10.652332
60.500 10.936625
60.505 10.836463
60.510 10.434707
60.515 10.612849
60.520 10.706215
60.525 10.872635
60.530 10.717507
60.535 10.812115
60.540 10.821828
60.545 10.643874
60.550 10.478197
60.555 10.397724
60.560 9.924424
60.565 9.865116
60.570 9.923878
60.575 10.058731
60.580 10.379324
60.585 10.586449
60.590 10.626991
60.595 11.082413
60.600 11.157846
60.605 10.901881
60.610 10.816318
60.615 10.692756
60.620 10.377872
60.625 9.759517
60.630 9.571167
60.635 9.81953
60.640 10.166427
60.645 10.531271
60.650 10.354418
60.655 10.378931
60.660 10.642261
60.665 10.631561
60.670 10.39311
60.675 9.716734
60.680 9.23323
60.685 9.048639
60.690 8.781986
60.695 8.775654
60.700 8.820651
60.705 8.927162
60.710 9.1445
60.715 9.19642
60.720 9.901412
60.725 10.346869
60.730 10.388887
60.735 10.587712
60.740 10.319665
60.745 10.524473
60.750 10.757834
60.755 10.790935
60.760 10.772255
60.765 10.791425
60.770 10.432318
60.775 10.4271
60.780 10.263
60.785 10.07254
60.790 9.611458
60.795 9.553041
60.800 9.670628
60.805 9.845243
60.810 10.131546
60.815 10.570346
60.820 10.908219
60.825 11.484365
60.830 11.873202
60.835 11.870116
60.840 11.857193
60.845 11.729239
60.850 11.249268
60.855 10.998654
60.860 10.435109
60.865 10.333624
60.870 10.317735
60.875 10.263668
60.880 9.937181
60.885 9.792451
60.890 9.604656
60.895 9.479165
60.900 9.43733
60.905 9.452128
60.910 9.687819
60.915 9.975504
60.920 10.376034
60.925 10.476306
60.930 10.447242
60.935 10.067719
60.940 10.123529
60.945 9.976885
60.950 10.498233
60.955 10.340591
60.960 10.639387
60.965 11.052279
60.970 11.23279
60.975 10.913397
60.980 10.69114
60.985 9.591464
60.990 9.091915
60.995 8.923585
61.000 8.732408
61.005 8.757258
61.010 8.793905
61.015 8.904323
61.020 9.744348
61.025 10.074152
61.030 9.738359
61.035 9.534183
61.040 9.645661
61.045 9.644732
61.050 9.662148
61.055 9.318243
61.060 9.009419
61.065 9.153485
61.070 9.286224
61.075 9.305506
61.080 9.422859
61.085 9.50118
61.090 9.626134
61.095 9.465946
61.100 9.597538
61.105 9.494748
61.110 9.356692
61.115 9.429478
61.120 9.504368
61.125 10.064963
61.130 10.970927
61.135 10.996468
61.140 10.914446
61.145 10.856964
61.150 10.736486
61.155 10.754178
61.160 10.283686
61.165 9.695978
61.170 9.61
61.175 10.05454
61.180 10.111942
61.185 10.23035
61.190 10.038404
61.195 10.34226
61.200 10.92655
61.205 10.999183
61.210 10.620231
61.215 10.386668
61.220 10.306108
61.225 10.54453
61.230 10.577663
61.235 10.287271
61.240 10.106244
61.245 10.410444
61.250 11.082481
61.255 11.189326
61.260 10.961995
61.265 10.811532
61.270 11.087937
61.275 11.47682
61.280 11.23652
61.285 10.599517
61.290 10.404929
61.295 10.622527
61.300 10.155727
61.305 9.858307
61.310 9.224349
61.315 9.055875
61.320 9.353441
61.325 9.051284
61.330 9.062686
61.335 9.175718
61.340 9.3668
61.345 9.474479
61.350 9.384009
61.355 9.064485
61.360 9.01451
61.365 8.870992
61.370 9.07872
61.375 9.077707
61.380 9.348808
61.385 9.541262
61.390 9.67296
61.395 9.773812
61.400 9.976161
61.405 9.959764
61.410 9.854033
61.415 9.569322
61.420 9.744462
61.425 9.482063
61.430 9.527313
61.435 9.59376
61.440 9.629724
61.445 9.401407
61.450 9.345121
61.455 8.80501
61.460 8.744917
61.465 8.743063
61.470 8.920004
61.475 8.473433
61.480 8.449473
61.485 8.88849
61.490 9.548701
61.495 9.81887
61.500 9.646609
61.505 9.310258
61.510 9.691368
61.515 9.911952
61.520 9.565014
61.525 9.49684
61.530 9.822577
61.535 9.768947
61.540 9.90698
61.545 10.274515
61.550 10.288282
61.555 10.482321
61.560 10.594901
61.565 10.462012
61.570 10.62534
61.575 10.465856
61.580 9.775867
61.585 9.934224
61.590 9.941936
61.595 9.461422
61.600 9.322797
61.605 9.155384
61.610 9.334347
61.615 9.520058
61.620 9.084533
61.625 8.935562
61.630 8.876679
61.635 8.975189
61.640 8.678963
61.645 8.909382
61.650 9.432613
61.655 9.591833
61.660 9.668004
61.665 10.028193
61.670 10.203156
61.675 10.501031
61.680 10.269184
61.685 10.491405
61.690 10.867689
61.695 10.658319
61.700 10.144032
61.705 9.946107
61.710 10.054526
61.715 10.291525
61.720 9.969118
61.725 9.881485
61.730 10.613603
61.735 11.015712
61.740 11.226832
61.745 11.274206
61.750 11.038761
61.755 10.703401
61.760 10.542934
61.765 10.359498
61.770 10.46764
61.775 10.782557
61.780 10.510588
61.785 10.880504
61.790 11.149297
61.795 11.215315
61.800 10.910199
61.805 10.713679
61.810 10.572513
61.815 10.59064
61.820 10.305724
61.825 10.53663
61.830 10.699368
61.835 10.973653
61.840 10.892748
61.845 10.651756
61.850 10.623208
61.855 10.278498
61.860 10.039886
61.865 9.89539
61.870 9.977148
61.875 10.348161
61.880 10.716901
61.885 11.135814
61.890 11.415633
61.895 11.532178
61.900 11.713507
61.905 11.509371
61.910 11.163032
61.915 10.868141
61.920 10.811916
61.925 10.496996
61.930 10.056146
61.935 10.247403
61.940 10.572868
61.945 10.777753
61.950 10.160312
61.955 9.69472
61.960 10.089102
61.965 10.03499
61.970 9.705733
61.975 9.496621
61.980 9.329219
61.985 9.602962
61.990 9.798725
61.995 9.373468
62.000 9.713631
62.005 9.890686
62.010 9.455969
62.015 9.331125
62.020 9.40976
62.025 9.047507
62.030 9.131727
62.035 8.880078
62.040 8.960189
62.045 9.247457
62.050 9.348486
62.055 9.431923
62.060 9.631386
62.065 10.106067
62.070 10.065358
62.075 9.958743
62.080 10.275017
62.085 10.594451
62.090 11.106451
62.095 11.541507
62.100 11.605539
62.105 11.24739
62.110 11.457566
62.115 11.581978
62.120 11.2734
62.125 10.968605
62.130 10.700969
62.135 10.64137
62.140 11.381627
62.145 11.562966
62.150 11.504536
62.155 11.58802
62.160 11.724931
62.165 11.712962
62.170 11.786125
62.175 11.559939
62.180 10.882852
62.185 10.794374
62.190 10.881988
62.195 11.211031
62.200 11.041819
62.205 10.520602
62.210 10.11097
62.215 10.458592
62.220 10.36561
62.225 10.119034
62.230 9.823958
62.235 9.979143
62.240 10.828182
62.245 11.066236
62.250 10.606894
62.255 10.526986
62.260 10.400571
62.265 10.169696
62.270 9.537755
62.275 9.292903
62.280 9.368919
62.285 9.714697
62.290 10.060935
62.295 10.393123
62.300 11.005942
62.305 11.677259
62.310 11.652894
62.315 12.315768
62.320 12.697474
62.325 12.594994
62.330 12.570747
62.335 12.009535
62.340 11.329638
62.345 10.940376
62.350 10.354249
62.355 10.141186
62.360 10.004689
62.365 10.227737
62.370 10.381141
62.375 10.691648
62.380 11.108993
62.385 10.966157
62.390 11.014817
62.395 11.061148
62.400 10.766523
62.405 10.558496
62.410 10.7317
62.415 10.395202
62.420 10.107634
62.425 9.981288
62.430 9.840895
62.435 9.988966
62.440 10.222402
62.445 10.146147
62.450 10.969418
62.455 11.566642
62.460 12.116023
62.465 12.320816
62.470 12.42996
62.475 12.345551
62.480 12.116426
62.485 11.685997
62.490 11.278624
62.495 10.878448
62.500 10.715028
62.505 10.191826
62.510 10.472773
62.515 10.487602
62.520 10.462333
62.525 10.384281
62.530 10.097787
62.535 10.135969
62.540 10.466906
62.545 10.623981
62.550 10.192689
62.555 10.363074
62.560 10.792902
62.565 11.178861
62.570 11.383009
62.575 11.45252
62.580 11.243683
62.585 11.935901
62.590 11.681151
62.595 11.319415
62.600 11.207607
62.605 10.885308
62.610 10.613391
62.615 10.641602
62.620 10.761592
62.625 10.85562
62.630 11.504005
62.635 11.759605
62.640 12.104424
62.645 12.472709
62.650 12.261087
62.655 11.796382
62.660 11.612732
62.665 11.17935
62.670 10.876573
62.675 10.995507
62.680 11.144809
62.685 11.603898
62.690 12.342817
62.695 12.432764
62.700 12.583023
62.705 12.908086
62.710 13.285982
62.715 13.184971
62.720 12.731158
62.725 12.702518
62.730 12.908872
62.735 12.9175
62.740 12.937031
62.745 12.147673
62.750 12.390291
62.755 12.697723
62.760 12.342699
62.765 12.253601
62.770 11.958502
62.775 11.528928
62.780 11.920361
62.785 11.547679
62.790 11.153445
62.795 11.044906
62.800 11.367422
62.805 11.606169
62.810 11.587446
62.815 11.699976
62.820 11.942325
62.825 12.443527
62.830 11.997683
62.835 11.129688
62.840 11.058229
62.845 11.184099
62.850 11.241055
62.855 11.483483
62.860 11.680378
62.865 12.334592
62.870 13.034698
62.875 13.177562
62.880 12.994371
62.885 12.417403
62.890 11.714181
62.895 11.147457
62.900 11.149269
62.905 10.623955
62.910 10.790752
62.915 10.755038
62.920 11.118951
62.925 11.590455
62.930 11.586601
62.935 11.068718
62.940 11.736531
62.945 11.650535
62.950 11.851011
62.955 11.799483
62.960 11.804183
62.965 11.720231
62.970 11.718338
62.975 11.361542
62.980 11.47911
62.985 11.419284
62.990 11.313474
62.995 11.281186
63.000 11.826679
63.005 11.696247
63.010 11.101454
63.015 10.41829
63.020 10.226903
63.025 10.52183
63.030 10.760047
63.035 10.675626
63.040 10.957235
63.045 11.365552
63.050 11.197836
63.055 11.387166
63.060 11.244341
63.065 11.055342
63.070 11.038551
63.075 11.0503
63.080 11.460746
63.085 11.957408
63.090 11.825573
63.095 11.666783
63.100 11.711304
63.105 11.490479
63.110 11.459362
63.115 11.507984
63.120 11.802527
63.125 12.029955
63.130 12.142469
63.135 12.093324
63.140 12.231677
63.145 11.867188
63.150 11.320145
63.155 10.806081
63.160 10.373684
63.165 10.197876
63.170 10.097637
63.175 10.38377
63.180 11.012562
63.185 11.178082
63.190 11.37118
63.195 11.490878
63.200 11.608253
63.205 11.73996
63.210 11.3074
63.215 10.774187
63.220 10.417585
63.225 10.380095
63.230 10.676724
63.235 10.53049
63.240 10.835069
63.245 11.023668
63.250 11.012488
63.255 11.411905
63.260 11.878292
63.265 12.350032
63.270 12.630335
63.275 12.755669
63.280 13.528454
63.285 14.068462
63.290 14.077707
63.295 13.64581
63.300 12.858325
63.305 12.584685
63.310 12.086658
63.315 11.767335
63.320 12.022202
63.325 11.871373
63.330 11.77574
63.335 11.903426
63.340 11.543937
63.345 11.566039
63.350 11.504626
63.355 11.01361
63.360 11.03109
63.365 11.036258
63.370 11.044989
63.375 11.983121
63.380 12.2216
63.385 11.575163
63.390 12.077031
63.395 12.569066
63.400 12.534739
63.405 12.381927
63.410 11.645588
63.415 11.265553
63.420 11.470469
63.425 10.658518
63.430 10.272765
63.435 10.314937
63.440 10.356567
63.445 10.656749
63.450 10.627865
63.455 10.804092
63.460 10.96951
63.465 11.085967
63.470 11.214184
63.475 11.488022
63.480 11.400448
63.485 11.552869
63.490 11.391082
63.495 11.660577
63.500 11.945327
63.505 11.790806
63.510 11.171511
63.515 11.095339
63.520 11.011191
63.525 11.178664
63.530 11.209053
63.535 11.022288
63.540 11.063547
63.545 11.593423
63.550 11.872915
63.555 11.885845
63.560 11.437879
63.565 11.07214
63.570 10.972373
63.575 10.956205
63.580 10.602259
63.585 10.258524
63.590 10.502354
63.595 10.997303
63.600 11.267936
63.605 11.203333
63.610 11.017624
63.615 11.367435
63.620 11.716111
63.625 11.72635
63.630 11.231814
63.635 11.545507
63.640 11.816157
63.645 12.204182
63.650 11.828729
63.655 11.933658
63.660 11.762049
63.665 11.986359
63.670 11.543614
63.675 11.701995
63.680 11.531835
63.685 11.624887
63.690 11.447299
63.695 11.361381
63.700 11.170877
63.705 11.255713
63.710 11.018123
63.715 11.081807
63.720 11.244328
63.725 11.2045
63.730 11.204749
63.735 11.352934
63.740 11.12383
63.745 11.082759
63.750 10.882553
63.755 10.437417
63.760 10.159789
63.765 10.284732
63.770 10.039216
63.775 10.299275
63.780 10.289856
63.785 10.13465
63.790 10.758064
63.795 11.079725
63.800 10.564522
63.805 10.775126
63.810 10.50043
63.815 11.090176
63.820 11.238387
63.825 11.335709
63.830 11.536779
63.835 12.464582
63.840 12.665886
63.845 12.782027
63.850 12.235141
63.855 11.906974
63.860 11.685371
63.865 11.414641
63.870 11.184295
63.875 11.846748
63.880 11.880936
63.885 12.392596
63.890 12.844186
63.895 12.649731
63.900 12.72978
63.905 12.361236
63.910 11.627949
63.915 11.656672
63.920 11.327731
63.925 11.589031
63.930 11.758099
63.935 12.129234
63.940 12.525395
63.945 12.921175
63.950 13.297254
63.955 13.803708
63.960 14.148694
63.965 14.277194
63.970 14.420682
63.975 14.542131
63.980 14.837207
63.985 14.97478
63.990 14.785871
63.995 14.399261
64.000 14.477487
64.005 14.452152
64.010 14.477371
64.015 14.480261
64.020 14.707426
64.025 14.769914
64.030 14.812331
64.035 14.876847
64.040 14.95891
64.045 14.888457
64.050 14.822871
64.055 14.81317
64.060 14.548556
64.065 14.693394
64.070 14.950816
64.075 15.225471
64.080 15.261735
64.085 15.50804
64.090 15.053529
64.095 15.203207
64.100 15.183211
64.105 14.51098
64.110 14.120878
64.115 14.037311
64.120 13.725463
64.125 13.666309
64.130 13.717983
64.135 13.326214
64.140 13.586603
64.145 13.901433
64.150 14.266611
64.155 14.392391
64.160 15.04792
64.165 15.11593
64.170 15.962464
64.175 15.898791
64.180 15.572448
64.185 15.641438
64.190 15.380357
64.195 14.40551
64.200 14.110728
64.205 14.125222
64.210 14.187421
64.215 13.961606
64.220 13.421508
64.225 13.940845
64.230 14.751863
64.235 14.869296
64.240 14.672594
64.245 14.905083
64.250 15.444564
64.255 15.577344
64.260 15.111082
64.265 14.646465
64.270 14.430393
64.275 14.145029
64.280 14.033414
64.285 13.845846
64.290 13.98215
64.295 13.892612
64.300 14.314502
64.305 14.372407
64.310 14.181874
64.315 14.200327
64.320 14.02603
64.325 14.020125
64.330 13.798122
64.335 13.25962
64.340 13.111647
64.345 13.280303
64.350 13.428965
64.355 13.395703
64.360 13.074499
64.365 13.680136
64.370 14.38111
64.375 14.618255
64.380 14.696098
64.385 14.375381
64.390 14.256695
64.395 14.683506
64.400 14.482588
64.405 14.404033
64.410 14.195595
64.415 13.936048
64.420 13.593693
64.425 13.289165
64.430 12.858257
64.435 12.895844
64.440 13.047083
64.445 13.361748
64.450 13.479635
64.455 13.515056
64.460 13.626497
64.465 13.870448
64.470 13.58691
64.475 12.688468
64.480 11.979832
64.485 11.936339
64.490 12.175767
64.495 12.580755
64.500 12.874734
64.505 12.983865
64.510 13.181873
64.515 13.361341
64.520 13.531454
64.525 13.565967
64.530 13.402614
64.535 13.462694
64.540 13.317303
64.545 13.668923
64.550 13.707955
64.555 13.542469
64.560 13.574668
64.565 13.489985
64.570 13.043049
64.575 12.973406
64.580 13.133188
64.585 13.249598
64.590 13.305629
64.595 13.463176
64.600 13.554301
64.605 14.121603
64.610 14.348764
64.615 14.016144
64.620 14.03142
64.625 14.067114
64.630 13.90045
64.635 13.35111
64.640 12.512733
64.645 12.567163
64.650 12.540759
64.655 12.19361
64.660 12.111881
64.665 12.286504
64.670 12.50408
64.675 13.035948
64.680 12.525385
64.685 13.070052
64.690 13.809864
64.695 13.767926
64.700 13.246344
64.705 12.991343
64.710 12.926308
64.715 12.996255
64.720 12.613534
64.725 11.981608
64.730 11.983751
64.735 12.439362
64.740 12.458977
64.745 12.133695
64.750 12.175224
64.755 11.958293
64.760 12.470425
64.765 12.967091
64.770 13.297682
64.775 13.700683
64.780 14.568702
64.785 15.012704
64.790 15.007074
64.795 14.506709
64.800 14.24505
64.805 14.517145
64.810 14.766259
64.815 14.885626
64.820 14.654655
64.825 14.960006
64.830 14.868937
64.835 14.707891
64.840 14.771058
64.845 14.71668
64.850 14.415916
64.855 14.92234
64.860 15.388671
64.865 15.941776
64.870 15.896106
64.875 15.507245
64.880 15.577039
64.885 15.330645
64.890 15.013567
64.895 14.618509
64.900 14.653946
64.905 15.177464
64.910 15.174918
64.915 15.060964
64.920 15.529519
64.925 15.853297
64.930 16.013773
64.935 15.776205
64.940 15.698349
64.945 15.422383
64.950 15.382662
64.955 15.713038
64.960 15.545965
64.965 15.389
64.970 15.31119
64.975 15.117138
64.980 15.736164
64.985 16.207102
64.990 15.906443
64.995 16.069256
65.000 16.254282
65.005 15.99171
65.010 16.294928
65.015 16.221176
65.020 16.112448
65.025 15.990914
65.030 16.26771
65.035 16.709288
65.040 17.13171
65.045 16.843063
65.050 17.075953
65.055 17.341902
65.060 17.68519
65.065 17.418089
65.070 17.504286
65.075 17.35549
65.080 17.239431
65.085 16.909086
65.090 16.636444
65.095 17.294447
65.100 17.322273
65.105 17.324286
65.110 17.938869
65.115 18.079962
65.120 18.358179
65.125 17.853428
65.130 16.861547
65.135 16.861938
65.140 16.933773
65.145 17.309849
65.150 17.539644
65.155 17.375261
65.160 17.67375
65.165 18.038458
65.170 17.757566
65.175 17.345558
65.180 16.346815
65.185 16.569172
65.190 16.917402
65.195 16.48407
65.200 16.000654
65.205 15.840333
65.210 15.563343
65.215 15.254877
65.220 14.794188
65.225 14.268699
65.230 14.320619
65.235 14.462604
65.240 14.73466
65.245 14.613502
65.250 14.336568
65.255 13.878628
65.260 13.717555
65.265 13.425794
65.270 13.744034
65.275 13.160622
65.280 13.397845
65.285 13.361557
65.290 13.467361
65.295 13.246475
65.300 13.014592
65.305 12.874567
65.310 12.969242
65.315 13.027709
65.320 13.234237
65.325 13.327329
65.330 13.497881
65.335 13.47177
65.340 13.083123
65.345 12.702364
65.350 12.72253
65.355 13.049722
65.360 13.171736
65.365 13.356042
65.370 13.21084
65.375 13.115159
65.380 13.322195
65.385 13.060524
65.390 12.820901
65.395 12.414454
65.400 11.885388
65.405 11.755421
65.410 12.026493
65.415 12.080471
65.420 11.967251
65.425 11.912708
65.430 11.884138
65.435 12.160589
65.440 11.943456
65.445 11.264129
65.450 11.051546
65.455 11.299691
65.460 11.428997
65.465 11.771015
65.470 11.896249
65.475 11.834899
65.480 12.445309
65.485 12.469859
65.490 12.246584
65.495 12.247212
65.500 12.236131
65.505 12.309227
65.510 12.841286
65.515 12.570635
65.520 12.560554
65.525 12.782877
65.530 12.664221
65.535 12.639844
65.540 12.642646
65.545 12.466562
65.550 12.383915
65.555 12.67443
65.560 12.374722
65.565 12.422967
65.570 12.227559
65.575 12.155499
65.580 11.917207
65.585 11.867225
65.590 11.795089
65.595 11.864473
65.600 11.528745
65.605 11.827675
65.610 12.178942
65.615 12.90975
65.620 13.025599
65.625 13.171597
65.630 13.1277
65.635 13.339844
65.640 13.341971
65.645 13.020803
65.650 12.927948
65.655 13.337738
65.660 13.888709
65.665 14.631429
65.670 14.798977
65.675 14.931695
65.680 15.642767
65.685 15.630596
65.690 15.636198
65.695 15.021032
65.700 14.788603
65.705 15.35535
65.710 15.560923
65.715 15.260932
65.720 15.030151
65.725 14.821328
65.730 14.943075
65.735 14.944331
65.740 14.13532
65.745 13.973537
65.750 14.140083
65.755 14.329194
65.760 14.361817
65.765 14.568521
65.770 14.356717
65.775 14.729677
65.780 14.531945
65.785 14.411424
65.790 14.779589
65.795 15.263568
65.800 15.487497
65.805 16.052809
65.810 16.335543
65.815 16.540049
65.820 17.291012
65.825 17.08646
65.830 16.811089
65.835 16.41782
65.840 16.193909
65.845 16.151472
65.850 16.121572
65.855 15.804973
65.860 15.84352
65.865 16.192774
65.870 16.397507
65.875 16.425911
65.880 16.825607
65.885 17.308771
65.890 17.473166
65.895 17.61327
65.900 17.503067
65.905 17.609154
65.910 17.808558
65.915 17.568251
65.920 17.248104
65.925 16.646242
65.930 16.405807
65.935 15.984696
65.940 15.859455
65.945 15.336448
65.950 15.167528
65.955 15.109615
65.960 16.041973
65.965 15.913501
65.970 16.082022
65.975 15.829969
65.980 15.837187
65.985 15.820101
65.990 15.249454
65.995 14.856321
66.000 15.391847
66.005 15.847733
66.010 16.122814
66.015 16.063934
66.020 16.030117
66.025 16.556881
66.030 16.507912
66.035 15.779174
66.040 14.988031
66.045 14.665493
66.050 14.757659
66.055 15.113308
66.060 15.001575
66.065 14.905846
66.070 15.560195
66.075 16.076822
66.080 16.050159
66.085 15.893735
66.090 15.667788
66.095 15.886527
66.100 16.390705
66.105 15.593421
66.110 15.3246
66.115 15.120872
66.120 14.82396
66.125 14.150414
66.130 13.533474
66.135 12.844818
66.140 13.427761
66.145 13.434416
66.150 13.844961
66.155 14.066796
66.160 14.718307
66.165 14.628678
66.170 14.996689
66.175 14.432749
66.180 14.174671
66.185 14.334503
66.190 14.2913
66.195 14.127991
66.200 14.524016
66.205 14.296956
66.210 14.407348
66.215 14.35261
66.220 14.401622
66.225 14.337669
66.230 14.157627
66.235 13.753822
66.240 13.240866
66.245 13.346341
66.250 13.502236
66.255 13.285691
66.260 13.716778
66.265 14.050867
66.270 13.887074
66.275 13.910921
66.280 13.97437
66.285 14.004253
66.290 13.611082
66.295 13.340475
66.300 12.66066
66.305 12.61011
66.310 12.691613
66.315 12.606881
66.320 12.584241
66.325 12.818775
66.330 12.823351
66.335 13.629575
66.340 13.791518
66.345 14.065931
66.350 13.919618
66.355 13.690403
66.360 13.222542
66.365 12.6682
66.370 12.096259
66.375 12.227774
66.380 11.967731
66.385 11.909648
66.390 11.326328
66.395 11.498502
66.400 11.666925
66.405 11.635778
66.410 11.526493
66.415 11.232765
66.420 11.042929
66.425 11.37646
66.430 11.441675
66.435 11.598562
66.440 11.706718
66.445 11.206237
66.450 11.242233
66.455 11.246758
66.460 11.401323
66.465 11.664225
66.470 12.113902
66.475 11.968724
66.480 12.105865
66.485 12.209569
66.490 12.267357
66.495 12.151212
66.500 11.81587
66.505 11.728655
66.510 11.859446
66.515 11.978022
66.520 11.838446
66.525 11.542383
66.530 11.286422
66.535 10.943545
66.540 10.874645
66.545 11.257924
66.550 11.514026
66.555 11.539869
66.560 11.706771
66.565 12.151734
66.570 12.397184
66.575 12.264115
66.580 11.768247
66.585 11.680399
66.590 11.86821
66.595 11.953983
66.600 11.475643
66.605 11.471695
66.610 11.105728
66.615 10.61708
66.620 9.984961
66.625 9.878299
66.630 9.556014
66.635 9.737672
66.640 9.922139
66.645 9.965416
66.650 10.323677
66.655 10.698869
66.660 11.052351
66.665 10.986184
66.670 10.886278
66.675 10.78727
66.680 11.184496
66.685 11.484754
66.690 11.480496
66.695 11.075302
66.700 10.969209
66.705 10.627766
66.710 10.078078
66.715 9.833065
66.720 10.155939
66.725 10.135429
66.730 10.123347
66.735 10.221239
66.740 10.33728
66.745 10.40755
66.750 10.550312
66.755 10.235495
66.760 10.435061
66.765 10.536062
66.770 10.637333
66.775 10.930989
66.780 11.38493
66.785 11.22969
66.790 10.786858
66.795 10.846842
66.800 11.142365
66.805 11.467659
66.810 11.273282
66.815 10.689692
66.820 10.769004
66.825 11.524592
66.830 11.243394
66.835 10.998257
66.840 10.635735
66.845 10.656941
66.850 11.041292
66.855 10.545749
66.860 10.185808
66.865 10.017221
66.870 10.29263
66.875 10.983544
66.880 10.765534
66.885 10.296336
66.890 10.537554
66.895 10.251779
66.900 10.810587
66.905 10.378615
66.910 9.697265
66.915 10.139565
66.920 10.502247
66.925 10.702391
66.930 10.970516
66.935 10.865206
66.940 11.32762
66.945 11.46
66.950 11.267938
66.955 11.13768
66.960 11.421424
66.965 11.435088
66.970 11.475919
66.975 10.947988
66.980 10.770998
66.985 10.663383
66.990 10.431664
66.995 9.912357
67.000 9.909839
67.005 9.780249
67.010 10.194454
67.015 10.410189
67.020 10.383887
67.025 10.866301
67.030 10.729668
67.035 10.261297
67.040 10.17179
67.045 9.873012
67.050 10.026007
67.055 10.183901
67.060 10.168037
67.065 10.143301
67.070 10.146243
67.075 10.118285
67.080 10.262586
67.085 10.404915
67.090 10.570994
67.095 10.57971
67.100 10.974705
67.105 10.959399
67.110 10.877043
67.115 10.652771
67.120 10.430002
67.125 10.321104
67.130 10.384748
67.135 10.141861
67.140 9.703883
67.145 9.519793
67.150 9.6547
67.155 9.541928
67.160 9.639936
67.165 9.678591
67.170 10.467404
67.175 11.47135
67.180 11.986744
67.185 12.634101
67.190 12.550121
67.195 11.78996
67.200 11.315626
67.205 10.897982
67.210 10.620432
67.215 10.502922
67.220 10.644036
67.225 10.990547
67.230 11.157766
67.235 11.316849
67.240 11.561254
67.245 11.609856
67.250 11.765391
67.255 11.93307
67.260 12.026084
67.265 12.216543
67.270 12.168601
67.275 11.826454
67.280 11.652306
67.285 11.588277
67.290 10.850705
67.295 10.578482
67.300 10.37234
67.305 10.332695
67.310 10.949102
67.315 11.141041
67.320 10.77056
67.325 11.309771
67.330 11.705963
67.335 12.252308
67.340 12.450874
67.345 12.137193
67.350 11.763658
67.355 11.937128
67.360 11.41752
67.365 11.323638
67.370 11.020217
67.375 10.610105
67.380 10.61547
67.385 10.841385
67.390 11.05028
67.395 11.39364
67.400 11.238603
67.405 11.135663
67.410 11.197
67.415 11.025425
67.420 11.115401
67.425 10.487343
67.430 10.011093
67.435 9.787316
67.440 9.799655
67.445 9.984818
67.450 9.792454
67.455 9.781455
67.460 10.163295
67.465 10.766683
67.470 11.437729
67.475 11.646358
67.480 11.550364
67.485 11.772875
67.490 11.834871
67.495 11.898715
67.500 11.964957
67.505 11.924397
67.510 12.138375
67.515 12.20025
67.520 11.959893
67.525 11.75688
67.530 11.528111
67.535 11.044108
67.540 10.504864
67.545 9.843693
67.550 9.846444
67.555 10.471169
67.560 10.632494
67.565 10.758311
67.570 10.948717
67.575 11.312899
67.580 11.591836
67.585 11.725155
67.590 11.260791
67.595 11.149314
67.600 10.921326
67.605 11.364921
67.610 11.426029
67.615 11.724143
67.620 11.281913
67.625 11.132038
67.630 11.700374
67.635 12.042019
67.640 11.61653
67.645 11.721565
67.650 11.717819
67.655 12.348577
67.660 12.633239
67.665 12.187222
67.670 11.770518
67.675 11.588238
67.680 11.263573
67.685 11.332636
67.690 11.206862
67.695 10.55607
67.700 10.367881
67.705 10.597226
67.710 11.105685
67.715 11.324526
67.720 11.394172
67.725 11.2827
67.730 11.783625
67.735 12.068297
67.740 11.88143
67.745 11.757296
67.750 11.375194
67.755 11.323535
67.760 11.395385
67.765 11.603031
67.770 11.478297
67.775 11.543431
67.780 11.566088
67.785 11.890596
67.790 12.126928
67.795 12.328626
67.800 12.189764
67.805 11.979955
67.810 11.93944
67.815 11.632669
67.820 11.302568
67.825 10.687716
67.830 10.779891
67.835 10.865167
67.840 10.929226
67.845 10.808896
67.850 10.466104
67.855 10.558131
67.860 10.533945
67.865 10.067795
67.870 9.909381
67.875 9.933122
67.880 10.070273
67.885 10.373069
67.890 10.324469
67.895 10.701972
67.900 11.249429
67.905 11.663495
67.910 11.765998
67.915 11.808803
67.920 12.057495
67.925 12.023227
67.930 12.173414
67.935 12.21839
67.940 12.255668
67.945 12.365996
67.950 12.132003
67.955 11.736373
67.960 11.506068
67.965 11.142884
67.970 10.842109
67.975 10.903433
67.980 11.357446
67.985 11.838329
67.990 12.19501
67.995 12.25489
68.000 12.413604
68.005 12.92503
68.010 13.032686
68.015 12.9324
68.020 12.923901
68.025 13.277083
68.030 13.590733
68.035 13.794669
68.040 13.564716
68.045 13.335014
68.050 13.767906
68.055 13.936903
68.060 13.434324
68.065 13.408547
68.070 13.017458
68.075 13.128611
68.080 13.123483
68.085 12.611957
68.090 12.454056
68.095 12.260483
68.100 12.57317
68.105 12.57853
68.110 12.273158
68.115 11.846869
68.120 12.03078
68.125 12.067054
68.130 12.334251
68.135 11.724874
68.140 11.170489
68.145 11.045719
68.150 11.15737
68.155 11.123452
68.160 11.201403
68.165 11.089651
68.170 11.198882
68.175 11.783636
68.180 11.57103
68.185 11.640161
68.190 11.849638
68.195 11.494743
68.200 11.314404
68.205 11.325503
68.210 10.851462
68.215 10.783772
68.220 10.517644
68.225 10.282302
68.230 10.886868
68.235 11.029768
68.240 10.811175
68.245 10.753551
68.250 10.789944
68.255 10.602052
68.260 10.459201
68.265 10.513121
68.270 10.685475
68.275 10.7705
68.280 11.034608
68.285 11.397643
68.290 11.398522
68.295 11.113552
68.300 10.856052
68.305 10.638301
68.310 10.507369
68.315 10.432023
68.320 10.354143
68.325 10.662485
68.330 10.536535
68.335 10.338354
68.340 10.581773
68.345 11.006796
68.350 11.60009
68.355 11.56949
68.360 11.358838
68.365 11.254869
68.370 11.158645
68.375 10.901451
68.380 11.027528
68.385 10.587532
68.390 10.657099
68.395 11.208542
68.400 11.388906
68.405 12.193707
68.410 12.538172
68.415 12.528772
68.420 12.2034
68.425 11.845863
68.430 11.820567
68.435 11.642365
68.440 11.005644
68.445 10.929746
68.450 10.71981
68.455 11.029448
68.460 11.290801
68.465 11.14508
68.470 11.373302
68.475 11.767885
68.480 11.598714
68.485 12.102633
68.490 12.483106
68.495 12.498075
68.500 12.35285
68.505 12.264102
68.510 11.489424
68.515 11.238384
68.520 10.698933
68.525 10.231055
68.530 10.471938
68.535 10.416735
68.540 10.546253
68.545 11.216469
68.550 11.122232
68.555 10.996885
68.560 10.703225
68.565 10.344028
68.570 10.129539
68.575 10.039571
68.580 9.661773
68.585 9.531877
68.590 9.549611
68.595 10.122491
68.600 10.546422
68.605 10.697824
68.610 10.858138
68.615 11.182252
68.620 11.52862
68.625 11.775509
68.630 11.801084
68.635 11.597274
68.640 11.632847
68.645 11.537545
68.650 11.703692
68.655 11.9812
68.660 12.256251
68.665 12.560122
68.670 12.146066
68.675 12.045738
68.680 12.29835
68.685 12.649028
68.690 13.067564
68.695 13.022229
68.700 13.149849
68.705 13.958327
68.710 13.875583
68.715 13.450161
68.720 12.643117
68.725 12.418603
68.730 12.315846
68.735 11.957004
68.740 12.099848
68.745 12.062679
68.750 11.740351
68.755 11.81153
68.760 11.313511
68.765 11.01743
68.770 10.680836
68.775 10.934115
68.780 11.099317
68.785 11.513535
68.790 11.636788
68.795 11.953993
68.800 12.451655
68.805 12.630995
68.810 12.587087
68.815 12.92377
68.820 13.30225
68.825 13.52148
68.830 13.470791
68.835 13.556664
68.840 13.477385
68.845 13.273273
68.850 13.238927
68.855 12.972301
68.860 13.086826
68.865 12.965065
68.870 12.776501
68.875 13.025051
68.880 13.175649
68.885 13.209025
68.890 13.448358
68.895 13.500825
68.900 13.428063
68.905 13.336859
68.910 13.378423
68.915 13.633677
68.920 13.657267
68.925 13.66171
68.930 13.942715
68.935 13.9722
68.940 13.900744
68.945 13.786874
68.950 13.849281
68.955 13.889322
68.960 13.369831
68.965 13.460574
68.970 14.186615
68.975 14.566621
68.980 14.748135
68.985 14.862336
68.990 15.186421
68.995 15.522799
69.000 15.314925
69.005 15.115111
69.010 15.509754
69.015 15.265536
69.020 15.108492
69.025 15.05001
69.030 15.351166
69.035 15.612062
69.040 15.749482
69.045 16.001608
69.050 15.612206
69.055 16.081186
69.060 16.157907
69.065 15.961511
69.070 16.411955
69.075 16.247803
69.080 16.351
69.085 16.825169
69.090 16.415478
69.095 16.271103
69.100 16.017389
69.105 15.321978
69.110 14.967697
69.115 14.868943
69.120 15.292198
69.125 15.482582
69.130 15.44443
69.135 15.35631
69.140 15.645193
69.145 15.399764
69.150 15.020638
69.155 15.136186
69.160 15.344783
69.165 15.649009
69.170 15.617754
69.175 15.294736
69.180 15.590623
69.185 15.39839
69.190 14.554019
69.195 13.892537
69.200 13.808143
69.205 14.200273
69.210 14.558804
69.215 14.532392
69.220 14.392488
69.225 14.954113
69.230 14.932884
69.235 14.705923
69.240 14.333766
69.245 14.036943
69.250 13.828332
69.255 13.585946
69.260 13.584684
69.265 13.77975
69.270 13.870813
69.275 13.486236
69.280 13.512523
69.285 13.657427
69.290 14.15539
69.295 13.811023
69.300 14.24205
69.305 14.693528
69.310 15.417159
69.315 15.104464
69.320 14.567038
69.325 13.908625
69.330 13.775607
69.335 13.451076
69.340 12.613256
69.345 12.509553
69.350 13.083617
69.355 13.317671
69.360 13.112741
69.365 12.751181
69.370 12.858256
69.375 13.222693
69.380 12.687259
69.385 12.329932
69.390 12.593736
69.395 12.84562
69.400 12.906878
69.405 12.241763
69.410 11.789038
69.415 12.226947
69.420 11.987332
69.425 11.645895
69.430 11.390284
69.435 11.666177
69.440 12.087315
69.445 12.30884
69.450 12.458626
69.455 12.836204
69.460 13.052085
69.465 13.740093
69.470 13.730989
69.475 13.742663
69.480 13.226104
69.485 12.405928
69.490 12.345183
69.495 12.2712
69.500 11.696015
69.505 11.517262
69.510 11.634188
69.515 11.935805
69.520 12.394508
69.525 12.339818
69.530 12.409394
69.535 12.226024
69.540 12.050583
69.545 12.010077
69.550 11.975665
69.555 11.936143
69.560 11.885297
69.565 11.496916
69.570 11.543689
69.575 11.502649
69.580 11.612943
69.585 11.766706
69.590 11.607273
69.595 11.471083
69.600 11.516912
69.605 11.703494
69.610 11.837244
69.615 11.588134
69.620 11.154639
69.625 11.025649
69.630 11.014887
69.635 11.126553
69.640 11.210504
69.645 11.187481
69.650 11.176898
69.655 11.109191
69.660 11.251964
69.665 11.270003
69.670 10.981013
69.675 11.384169
69.680 11.944341
69.685 11.97363
69.690 11.96871
69.695 11.633283
69.700 11.441513
69.705 11.271111
69.710 10.695283
69.715 10.38099
69.720 10.594273
69.725 11.301152
69.730 11.071498
69.735 11.280372
69.740 11.494987
69.745 11.909164
69.750 11.839356
69.755 11.246964
69.760 11.011096
69.765 11.500587
69.770 11.871934
69.775 11.645298
69.780 11.431011
69.785 11.580104
69.790 11.617267
69.795 12.012308
69.800 12.183383
69.805 11.480107
69.810 11.013379
69.815 10.501751
69.820 10.716204
69.825 10.799786
69.830 10.300122
69.835 9.823472
69.840 10.018753
69.845 10.440327
69.850 10.418994
69.855 10.197896
69.860 10.179052
69.865 10.259763
69.870 10.874681
69.875 10.917507
69.880 11.073523
69.885 11.221658
69.890 11.076209
69.895 10.988174
69.900 10.528201
69.905 10.233909
69.910 10.340246
69.915 10.221798
69.920 10.59957
69.925 10.959677
69.930 11.004618
69.935 11.104836
69.940 11.394332
69.945 11.133614
69.950 11.07932
69.955 10.721996
69.960 10.541584
69.965 10.779985
69.970 10.965879
69.975 10.4849
69.980 10.205416
69.985 10.204333
69.990 10.15505
69.995 10.69289
70.000 10.805943
70.005 10.951426
70.010 11.449916
70.015 12.009731
70.020 11.828251
70.025 11.66853
70.030 11.383717
70.035 11.040195
70.040 10.801838
70.045 10.665556
70.050 10.524731
70.055 10.927204
70.060 11.262915
70.065 11.24335
70.070 11.686311
70.075 11.9594
70.080 11.564708
70.085 11.460886
70.090 11.164145
70.095 11.068567
70.100 11.240774
70.105 11.25718
70.110 11.201112
70.115 11.550238
70.120 11.456701
70.125 11.241174
70.130 11.169721
70.135 11.051599
70.140 11.212018
70.145 11.352143
70.150 11.584308
70.155 11.644943
70.160 11.727909
70.165 11.539897
70.170 11.06673
70.175 10.9137
70.180 10.674203
70.185 10.552459
70.190 10.880445
70.195 11.189382
70.200 11.4876
70.205 11.658652
70.210 11.571753
70.215 11.803711
70.220 11.595248
70.225 11.132369
70.230 10.771265
70.235 10.904578
70.240 10.74543
70.245 10.606309
70.250 10.965796
70.255 11.184671
70.260 11.682587
70.265 12.020992
70.270 11.970559
70.275 12.471993
70.280 12.806383
70.285 12.438337
70.290 12.269765
70.295 12.14741
70.300 11.98529
70.305 11.923594
70.310 11.750909
70.315 11.782987
70.320 11.937526
70.325 11.91996
70.330 11.591606
70.335 11.613628
70.340 11.500316
70.345 11.735729
70.350 12.011737
70.355 12.317824
70.360 12.832184
70.365 12.932063
70.370 13.021444
70.375 12.898053
70.380 12.486807
70.385 12.367182
70.390 12.087543
70.395 11.576067
70.400 11.945591
70.405 11.915868
70.410 12.066558
70.415 11.919821
70.420 11.423449
70.425 11.595546
70.430 11.938594
70.435 12.008067
70.440 12.264854
70.445 12.423784
70.450 12.872521
70.455 13.402143
70.460 13.189758
70.465 13.066804
70.470 13.028273
70.475 12.861784
70.480 12.708661
70.485 12.288862
70.490 12.114686
70.495 12.542089
70.500 12.403059
70.505 12.234887
70.510 12.393736
70.515 12.614223
70.520 12.683038
70.525 12.659184
70.530 12.571763
70.535 12.393324
70.540 12.509007
70.545 12.785305
70.550 12.984023
70.555 13.01521
70.560 12.973816
70.565 13.115173
70.570 13.262916
70.575 13.214349
70.580 12.873389
70.585 12.476794
70.590 12.704097
70.595 12.674818
70.600 12.639115
70.605 12.52354
70.610 12.911198
70.615 13.041723
70.620 13.156978
70.625 12.914653
70.630 12.809304
70.635 12.33411
70.640 12.076969
70.645 11.409553
70.650 10.818818
70.655 10.810017
70.660 10.869883
70.665 10.887667
70.670 10.996748
70.675 10.771736
70.680 10.668215
70.685 10.7977
70.690 11.11909
70.695 11.150748
70.700 11.083625
70.705 11.309869
70.710 11.631451
70.715 11.552368
70.720 11.294271
70.725 11.181695
70.730 11.045346
70.735 10.853461
70.740 10.866006
70.745 10.816869
70.750 10.984626
70.755 10.866701
70.760 10.811947
70.765 11.017695
70.770 11.245285
70.775 11.054412
70.780 11.060997
70.785 11.392872
70.790 11.462144
70.795 11.384356
70.800 11.194758
70.805 11.179723
70.810 11.120592
70.815 10.886134
70.820 10.747481
70.825 10.045589
70.830 9.316154
70.835 9.582685
70.840 10.069619
70.845 10.459196
70.850 10.577589
70.855 10.784594
70.860 11.672478
70.865 12.390179
70.870 12.246513
70.875 11.898211
70.880 11.851317
70.885 11.815727
70.890 11.653656
70.895 11.685103
70.900 11.674355
70.905 11.203793
70.910 11.119648
70.915 11.327024
70.920 11.472867
70.925 11.744377
70.930 11.524916
70.935 11.149381
70.940 11.284416
70.945 11.525878
70.950 11.349819
70.955 10.980402
70.960 10.527735
70.965 10.290751
70.970 10.424352
70.975 10.603552
70.980 10.788697
70.985 10.963706
70.990 11.555216
70.995 11.880489
71.000 11.918517
71.005 11.810599
71.010 11.804283
71.015 11.780158
71.020 11.877856
71.025 12.115083
71.030 11.947246
71.035 12.134021
71.040 12.028871
71.045 11.977431
71.050 12.049422
71.055 11.74968
71.060 11.815343
71.065 11.945487
71.070 11.876616
71.075 11.748405
71.080 11.378175
71.085 11.05896
71.090 10.8852
71.095 10.680079
71.100 10.67897
71.105 10.409533
71.110 10.62684
71.115 10.877712
71.120 10.784901
71.125 10.226068
71.130 9.638453
71.135 10.060501
71.140 10.628166
71.145 10.371014
71.150 10.217352
71.155 10.526761
71.160 11.173774
71.165 11.795485
71.170 11.435829
71.175 11.132585
71.180 10.979012
71.185 10.728837
71.190 10.62394
71.195 10.104363
71.200 9.765758
71.205 9.720342
71.210 10.238275
71.215 10.329501
71.220 10.390791
71.225 10.288267
71.230 10.39714
71.235 10.153911
71.240 10.031544
71.245 9.930006
71.250 10.873683
71.255 11.028915
71.260 11.608127
71.265 12.017256
71.270 12.628624
71.275 12.285692
71.280 11.865738
71.285 10.956174
71.290 10.812554
71.295 10.291287
71.300 9.795856
71.305 9.7942
71.310 10.578193
71.315 10.64675
71.320 10.600838
71.325 10.970907
71.330 11.543787
71.335 11.752761
71.340 11.457636
71.345 11.526446
71.350 11.8394
71.355 12.221684
71.360 11.954494
71.365 11.71243
71.370 11.228986
71.375 11.299644
71.380 10.864964
71.385 10.684809
71.390 10.41306
71.395 10.174922
71.400 10.2361
71.405 10.644335
71.410 10.987234
71.415 11.419685
71.420 11.29633
71.425 11.596671
71.430 11.917068
71.435 11.807656
71.440 12.007704
71.445 11.641595
71.450 11.503119
71.455 11.856321
71.460 11.460233
71.465 11.090031
71.470 11.340423
71.475 11.316903
71.480 11.247151
71.485 11.227578
71.490 11.254278
71.495 11.561591
71.500 11.140034
71.505 10.679358
71.510 10.557794
71.515 10.802889
71.520 10.578132
71.525 10.537811
71.530 10.408098
71.535 10.801236
71.540 10.900761
71.545 10.439898
71.550 10.524536
71.555 10.502985
71.560 10.58857
71.565 10.330911
71.570 10.217219
71.575 10.764492
71.580 10.856285
71.585 10.710273
71.590 10.449906
71.595 10.665787
71.600 10.847543
71.605 10.830516
71.610 10.191821
71.615 10.195743
71.620 9.874332
71.625 9.857327
71.630 9.750694
71.635 9.573877
71.640 9.375483
71.645 9.496044
71.650 9.694598
71.655 9.849762
71.660 9.496882
71.665 9.547681
71.670 9.826906
71.675 10.350129
71.680 10.342141
71.685 10.492301
71.690 10.831673
71.695 10.965505
71.700 11.104836
71.705 10.881736
71.710 10.667136
71.715 10.605572
71.720 10.647223
71.725 10.637512
71.730 10.409834
71.735 10.565355
71.740 10.933341
71.745 10.577195
71.750 10.340272
71.755 9.913625
71.760 10.294551
71.765 10.304859
71.770 10.066807
71.775 10.122703
71.780 10.597277
71.785 10.659221
71.790 10.478213
71.795 10.364358
71.800 10.703958
71.805 10.877718
71.810 10.842103
71.815 10.717256
71.820 10.702955
71.825 11.254346
71.830 11.512675
71.835 11.382097
71.840 11.427477
71.845 11.655293
71.850 11.755797
71.855 11.974596
71.860 11.797499
71.865 11.299266
71.870 10.999187
71.875 11.248548
71.880 11.062145
71.885 10.957815
71.890 10.898931
71.895 10.753863
71.900 10.742058
71.905 10.69045
71.910 10.779693
71.915 10.801266
71.920 11.165149
71.925 11.324831
71.930 11.370886
71.935 11.423763
71.940 11.403234
71.945 11.493839
71.950 11.534675
71.955 11.307898
71.960 11.076115
71.965 11.166762
71.970 11.385173
71.975 10.779305
71.980 10.629798
71.985 10.981413
71.990 10.980658
71.995 11.446479
72.000 11.696715
72.005 11.589923
72.010 11.738977
72.015 11.586415
72.020 11.57471
72.025 11.239758
72.030 10.749231
72.035 11.184541
72.040 11.781401
72.045 12.050393
72.050 11.888288
72.055 11.905237
72.060 12.387918
72.065 11.923401
72.070 11.273838
72.075 10.728092
72.080 10.038492
72.085 9.709511
72.090 9.507613
72.095 9.485198
72.100 9.988935
72.105 10.16383
72.110 10.447657
72.115 10.810146
72.120 11.016505
72.125 11.238153
72.130 11.03747
72.135 10.568576
72.140 10.407221
72.145 10.49201
72.150 10.643507
72.155 11.131042
72.160 11.003014
72.165 11.110328
72.170 11.590495
72.175 11.746949
72.180 11.826865
72.185 11.560577
72.190 11.380186
72.195 11.636584
72.200 11.729622
72.205 11.546477
72.210 11.900712
72.215 11.545017
72.220 11.732275
72.225 11.619136
72.230 11.384953
72.235 11.626523
72.240 11.406129
72.245 11.351251
72.250 12.263446
72.255 12.366598
72.260 12.02559
72.265 11.954869
72.270 11.708591
72.275 11.940197
72.280 12.161802
72.285 12.245342
72.290 12.563165
72.295 12.491305
72.300 12.687855
72.305 13.000739
72.310 13.152666
72.315 12.665805
72.320 11.764303
72.325 11.466047
72.330 11.468598
72.335 11.502134
72.340 11.166052
72.345 11.025649
72.350 10.645039
72.355 10.775993
72.360 11.209415
72.365 11.221375
72.370 11.293248
72.375 11.142511
72.380 11.070518
72.385 11.834508
72.390 11.437628
72.395 11.215971
72.400 10.870616
72.405 10.770962
72.410 10.652491
72.415 10.649887
72.420 10.079331
72.425 10.433253
72.430 10.614383
72.435 10.62553
72.440 11.221466
72.445 11.721148
72.450 12.059325
72.455 12.044948
72.460 11.826952
72.465 11.876978
72.470 11.622521
72.475 11.341886
72.480 11.111578
72.485 10.888083
72.490 11.126441
72.495 11.220332
72.500 10.831769
72.505 10.455205
72.510 9.657828
72.515 9.062589
72.520 9.192922
72.525 9.39773
72.530 9.257629
72.535 9.617452
72.540 9.732332
72.545 10.277857
72.550 11.02286
72.555 11.440939
72.560 11.340662
72.565 11.665528
72.570 11.971601
72.575 12.03925
72.580 12.092613
72.585 11.475115
72.590 10.704482
72.595 11.194902
72.600 11.028617
72.605 11.627193
72.610 12.069088
72.615 11.367628
72.620 10.971197
72.625 10.858827
72.630 10.44201
72.635 10.511679
72.640 9.783222
72.645 9.534317
72.650 10.13564
72.655 10.756764
72.660 10.590887
72.665 10.376685
72.670 10.040959
72.675 10.272507
72.680 10.005994
72.685 9.887262
72.690 9.78661
72.695 9.860737
72.700 10.022793
72.705 9.8233
72.710 10.160411
72.715 10.328065
72.720 10.380332
72.725 9.894898
72.730 9.688898
72.735 9.267447
72.740 9.188182
72.745 9.244314
72.750 9.597436
72.755 9.87952
72.760 10.503963
72.765 11.036021
72.770 11.546924
72.775 11.625593
72.780 11.360838
72.785 11.345526
72.790 11.02606
72.795 10.773396
72.800 10.759302
72.805 10.44709
72.810 10.057825
72.815 9.828847
72.820 9.549433
72.825 9.878828
72.830 9.753776
72.835 9.889085
72.840 9.868097
72.845 10.13955
72.850 9.906145
72.855 9.986058
72.860 9.854319
72.865 9.516302
72.870 9.255428
72.875 9.865279
72.880 9.99008
72.885 10.450278
72.890 10.657856
72.895 10.676255
72.900 10.966331
72.905 10.899612
72.910 10.439941
72.915 10.591221
72.920 10.868071
72.925 10.477844
72.930 10.392532
72.935 9.772625
72.940 10.050505
72.945 10.044334
72.950 9.891069
72.955 10.074841
72.960 11.000769
72.965 11.552736
72.970 11.852985
72.975 11.904762
72.980 12.006333
72.985 11.789931
72.990 11.828882
72.995 10.994116
73.000 10.728865
