!@!!GADDS PLOTSO FILE: Chi integration type
!@!!Title/SampleName: map-30
!@!!Comment: ?
!@!!User: Bruker Instrument Administrator
!@!!Site: University of Illinois Chicago
!@!!Frame: map-30_01_000.gfrm
!@!!Wavelengths    1.54184   1.54056   1.54439
!@!!Frame angles: 2Theta: 63.000 Omega: 50.000 Phi: 0.000 Chi: 90.000
!@!!Integration range: 2Theta: 53.000 to 73.000  Gamma: -105.000 to -75.000
!@!!Integration method: bin normalized
!@!N
!@!SS
!@!M
!@!L 0.0 0.0 0.0 0.0
!@!XDegrees
!@!YCounts
53.000 10.48555
53.005 10.503896
53.010 10.783624
53.015 10.709366
53.020 10.750832
53.025 10.910697
53.030 10.862433
53.035 10.648847
53.040 10.459538
53.045 10.195479
53.050 10.231218
53.055 10.231113
53.060 10.477619
53.065 10.473857
53.070 10.427411
53.075 10.91324
53.080 10.999982
53.085 11.201555
53.090 11.220941
53.095 10.437931
53.100 10.294895
53.105 10.742683
53.110 10.830078
53.115 11.139118
53.120 11.169928
53.125 10.969136
53.130 11.148999
53.135 11.27647
53.140 11.273097
53.145 11.217929
53.150 10.692437
53.155 10.320663
53.160 10.19343
53.165 10.001081
53.170 9.94795
53.175 9.822322
53.180 9.902318
53.185 10.258886
53.190 10.615288
53.195 10.871515
53.200 10.759093
53.205 10.176299
53.210 9.524137
53.215 9.602756
53.220 9.652447
53.225 9.76305
53.230 10.022252
53.235 10.238056
53.240 10.599855
53.245 10.731745
53.250 10.219299
53.255 9.59753
53.260 9.136379
53.265 8.999658
53.270 8.785564
53.275 9.001385
53.280 9.148577
53.285 9.463862
53.290 9.98998
53.295 9.991983
53.300 9.966623
53.305 10.120522
53.310 9.740677
53.315 9.875751
53.320 10.333609
53.325 10.556023
53.330 10.240008
53.335 10.042022
53.340 10.010554
53.345 10.349563
53.350 10.215481
53.355 9.930745
53.360 10.415271
53.365 11.199947
53.370 11.628925
53.375 11.506281
53.380 11.401197
53.385 11.438613
53.390 11.24813
53.395 10.78092
53.400 10.49751
53.405 10.266571
53.410 10.394767
53.415 10.625145
53.420 10.488702
53.425 10.522243
53.430 10.672896
53.435 11.01109
53.440 11.413196
53.445 11.263813
53.450 11.250957
53.455 11.403644
53.460 11.613905
53.465 11.535502
53.470 11.313019
53.475 11.235203
53.480 11.084313
53.485 11.329593
53.490 11.664469
53.495 11.894106
53.500 11.897953
53.505 12.182693
53.510 12.194215
53.515 11.764364
53.520 11.985722
53.525 12.1392
53.530 12.227118
53.535 11.985818
53.540 11.882449
53.545 12.019265
53.550 11.952955
53.555 10.997392
53.560 10.751869
53.565 11.028116
53.570 11.125867
53.575 11.184929
53.580 10.794073
53.585 11.478811
53.590 11.624661
53.595 11.433699
53.600 11.39756
53.605 11.468024
53.610 12.145968
53.615 12.643291
53.620 12.476296
53.625 12.416636
53.630 12.536485
53.635 12.024967
53.640 11.742951
53.645 11.311759
53.650 11.273335
53.655 10.857521
53.660 11.001916
53.665 11.134553
53.670 11.705186
53.675 12.014662
53.680 12.020257
53.685 11.880315
53.690 12.338904
53.695 12.273591
53.700 12.332182
53.705 12.151175
53.710 12.070796
53.715 12.036822
53.720 12.110864
53.725 11.962198
53.730 11.541343
53.735 11.837684
53.740 12.096057
53.745 12.170895
53.750 12.620399
53.755 12.317609
53.760 12.418563
53.765 12.646075
53.770 11.68229
53.775 11.310805
53.780 10.917623
53.785 10.901469
53.790 11.233227
53.795 10.764861
53.800 10.72708
53.805 10.79313
53.810 11.034684
53.815 10.691569
53.820 10.350738
53.825 10.525988
53.830 10.928649
53.835 10.916418
53.840 11.28394
53.845 11.322204
53.850 11.234124
53.855 11.310705
53.860 11.228595
53.865 11.115116
53.870 11.474736
53.875 11.661118
53.880 12.503117
53.885 12.780107
53.890 12.637176
53.895 12.554969
53.900 12.397782
53.905 11.895619
53.910 11.408043
53.915 11.376949
53.920 11.595818
53.925 11.761548
53.930 11.843997
53.935 12.029374
53.940 12.147384
53.945 11.82517
53.950 11.377622
53.955 11.170882
53.960 11.19709
53.965 10.887521
53.970 10.599209
53.975 10.762755
53.980 11.120472
53.985 11.497827
53.990 11.615453
53.995 11.068176
54.000 10.910622
54.005 10.995321
54.010 11.055916
54.015 11.030455
54.020 11.140427
54.025 11.555406
54.030 11.922424
54.035 12.421335
54.040 12.735679
54.045 13.014374
54.050 12.990841
54.055 12.29146
54.060 11.92312
54.065 11.905154
54.070 11.531381
54.075 11.453226
54.080 11.092864
54.085 10.708646
54.090 11.316858
54.095 11.333634
54.100 11.720362
54.105 11.793129
54.110 11.70546
54.115 12.071866
54.120 12.16214
54.125 11.646851
54.130 11.739903
54.135 11.893707
54.140 12.103549
54.145 12.075163
54.150 11.93821
54.155 11.754984
54.160 11.860598
54.165 11.898747
54.170 12.001873
54.175 11.839445
54.180 11.966434
54.185 12.441532
54.190 12.925523
54.195 13.062651
54.200 13.276265
54.205 13.479705
54.210 13.446313
54.215 13.246113
54.220 13.167906
54.225 13.341013
54.230 13.261561
54.235 12.950645
54.240 12.246545
54.245 12.047075
54.250 11.888183
54.255 11.854401
54.260 12.133043
54.265 12.207148
54.270 12.232985
54.275 12.534683
54.280 12.275554
54.285 11.663376
54.290 11.304974
54.295 10.693855
54.300 11.175329
54.305 11.932082
54.310 11.973329
54.315 12.511963
54.320 13.23976
54.325 13.195416
54.330 13.531062
54.335 12.854087
54.340 12.128287
54.345 12.258813
54.350 11.993663
54.355 11.646379
54.360 11.504247
54.365 10.988036
54.370 11.142683
54.375 11.460149
54.380 11.365634
54.385 11.4168
54.390 11.874371
54.395 12.098816
54.400 12.037777
54.405 11.555985
54.410 11.772619
54.415 12.653069
54.420 12.582903
54.425 12.156446
54.430 12.264229
54.435 12.655506
54.440 12.425684
54.445 11.61684
54.450 11.171192
54.455 11.606384
54.460 11.80303
54.465 11.836808
54.470 11.719004
54.475 12.303948
54.480 13.023958
54.485 13.269067
54.490 13.260837
54.495 13.0759
54.500 12.938397
54.505 12.974732
54.510 12.721203
54.515 12.171505
54.520 11.464911
54.525 10.812093
54.530 10.533721
54.535 10.740145
54.540 10.653172
54.545 10.533864
54.550 10.663506
54.555 10.842371
54.560 11.230184
54.565 11.319931
54.570 10.73132
54.575 10.944122
54.580 11.203198
54.585 11.467214
54.590 11.876076
54.595 12.355801
54.600 12.305021
54.605 12.569884
54.610 12.301772
54.615 12.289703
54.620 12.085714
54.625 11.521803
54.630 11.621111
54.635 11.891006
54.640 11.696643
54.645 11.862149
54.650 11.695135
54.655 11.918376
54.660 11.90027
54.665 11.844285
54.670 11.960939
54.675 12.335253
54.680 12.148636
54.685 11.995231
54.690 12.099488
54.695 12.268306
54.700 11.959233
54.705 11.865
54.710 11.978818
54.715 12.458205
54.720 12.535801
54.725 12.226409
54.730 12.729423
54.735 12.62121
54.740 12.346055
54.745 11.73693
54.750 11.482275
54.755 11.44846
54.760 11.468852
54.765 11.558026
54.770 12.096739
54.775 12.361703
54.780 12.640469
54.785 12.4299
54.790 12.604015
54.795 12.959276
54.800 12.576882
54.805 12.549899
54.810 12.681987
54.815 12.891818
54.820 12.686901
54.825 12.543259
54.830 12.992574
54.835 13.352885
54.840 13.232137
54.845 13.382681
54.850 13.434148
54.855 13.461333
54.860 13.312797
54.865 12.814269
54.870 12.796577
54.875 12.992859
54.880 12.822495
54.885 13.000761
54.890 13.306732
54.895 13.111891
54.900 12.472301
54.905 12.083069
54.910 11.868747
54.915 11.486259
54.920 11.220647
54.925 11.17518
54.930 11.660027
54.935 12.248705
54.940 12.888507
54.945 13.31974
54.950 13.687506
54.955 13.859541
54.960 13.934444
54.965 13.612756
54.970 13.333359
54.975 12.934073
54.980 12.819937
54.985 12.95263
54.990 13.262613
54.995 13.161922
55.000 13.246203
55.005 13.038267
55.010 13.090428
55.015 13.346711
55.020 13.913838
55.025 13.858999
55.030 13.521523
55.035 13.569317
55.040 13.624327
55.045 13.462112
55.050 12.457029
55.055 11.898907
55.060 11.714838
55.065 11.727862
55.070 11.823738
55.075 11.6738
55.080 11.90841
55.085 12.365846
55.090 12.179463
55.095 12.328918
55.100 12.264708
55.105 12.335004
55.110 12.503056
55.115 12.600536
55.120 12.783085
55.125 12.784429
55.130 12.596121
55.135 12.297583
55.140 12.071799
55.145 12.641084
55.150 12.569713
55.155 12.328391
55.160 12.151618
55.165 12.015971
55.170 12.361834
55.175 12.190642
55.180 11.505414
55.185 11.330397
55.190 10.980043
55.195 11.148621
55.200 11.504774
55.205 11.633884
55.210 11.98299
55.215 11.954843
55.220 12.424681
55.225 12.938988
55.230 13.108855
55.235 13.006142
55.240 12.76921
55.245 12.757242
55.250 12.986346
55.255 12.947216
55.260 13.000064
55.265 12.969284
55.270 13.466731
55.275 13.567389
55.280 13.32891
55.285 13.141726
55.290 12.870529
55.295 13.064303
55.300 13.123532
55.305 12.370441
55.310 12.085454
55.315 12.13254
55.320 12.237024
55.325 12.216818
55.330 11.814125
55.335 11.845447
55.340 12.512697
55.345 12.782016
55.350 13.120718
55.355 13.31577
55.360 13.324216
55.365 13.72511
55.370 13.715847
55.375 13.794222
55.380 14.064139
55.385 13.625479
55.390 13.346789
55.395 13.40153
55.400 13.135105
55.405 12.904033
55.410 13.120312
55.415 13.121689
55.420 13.174553
55.425 12.719716
55.430 12.33887
55.435 12.743755
55.440 12.805031
55.445 12.067371
55.450 12.156749
55.455 12.373796
55.460 12.631748
55.465 13.247469
55.470 13.086746
55.475 13.40297
55.480 12.996472
55.485 12.639573
55.490 12.870757
55.495 13.001759
55.500 12.581876
55.505 12.711362
55.510 12.543255
55.515 12.932997
55.520 13.108397
55.525 13.006773
55.530 13.181831
55.535 13.335281
55.540 13.016312
55.545 12.920183
55.550 13.041119
55.555 13.089737
55.560 13.566413
55.565 13.423123
55.570 13.804943
55.575 14.123653
55.580 14.337946
55.585 14.618008
55.590 14.575996
55.595 14.080964
55.600 13.35974
55.605 12.786592
55.610 13.058396
55.615 13.106072
55.620 13.091708
55.625 13.084665
55.630 13.255545
55.635 14.185781
55.640 14.349832
55.645 13.597878
55.650 13.253751
55.655 13.178065
55.660 13.266387
55.665 13.167044
55.670 13.003517
55.675 13.207965
55.680 13.826704
55.685 14.64159
55.690 14.654663
55.695 14.445452
55.700 14.214749
55.705 13.49205
55.710 12.996562
55.715 12.591959
55.720 11.780089
55.725 11.722173
55.730 11.886992
55.735 11.749968
55.740 11.465001
55.745 11.428914
55.750 11.447291
55.755 11.436028
55.760 11.533628
55.765 11.758148
55.770 12.018766
55.775 12.641505
55.780 13.387013
55.785 13.714829
55.790 13.829075
55.795 13.926147
55.800 13.940533
55.805 14.362664
55.810 14.056412
55.815 13.806927
55.820 14.160793
55.825 14.444681
55.830 14.25891
55.835 14.889068
55.840 15.068165
55.845 15.74977
55.850 15.736454
55.855 15.34455
55.860 14.989483
55.865 14.613062
55.870 13.811152
55.875 13.469446
55.880 12.946809
55.885 12.908136
55.890 12.785841
55.895 12.834361
55.900 12.99702
55.905 12.676078
55.910 12.886258
55.915 12.910957
55.920 12.936271
55.925 13.421341
55.930 13.605327
55.935 13.889575
55.940 14.258647
55.945 14.530968
55.950 14.752831
55.955 14.740269
55.960 14.276808
55.965 13.895325
55.970 13.741712
55.975 13.94272
55.980 13.910375
55.985 13.382611
55.990 13.16202
55.995 13.416196
56.000 14.032531
56.005 14.339233
56.010 14.29932
56.015 14.06986
56.020 14.449695
56.025 14.710185
56.030 14.669997
56.035 14.522112
56.040 14.002173
56.045 14.065001
56.050 13.911057
56.055 13.44647
56.060 13.046515
56.065 12.691898
56.070 12.545185
56.075 12.698177
56.080 12.96372
56.085 13.03795
56.090 12.998498
56.095 12.896373
56.100 12.670064
56.105 13.13615
56.110 13.266606
56.115 13.015687
56.120 12.946347
56.125 12.813608
56.130 13.062255
56.135 13.196517
56.140 12.759065
56.145 12.575567
56.150 12.620654
56.155 13.468117
56.160 14.180459
56.165 14.682343
56.170 14.977133
56.175 14.62051
56.180 13.852718
56.185 13.443304
56.190 12.995688
56.195 12.138052
56.200 11.805601
56.205 11.729785
56.210 12.330719
56.215 13.159383
56.220 13.755056
56.225 14.11083
56.230 14.882178
56.235 14.961492
56.240 14.885277
56.245 15.279279
56.250 14.769118
56.255 13.620132
56.260 13.040671
56.265 12.783922
56.270 12.711643
56.275 12.622985
56.280 12.016243
56.285 12.310968
56.290 12.979084
56.295 13.429027
56.300 12.971762
56.305 13.088542
56.310 13.624128
56.315 13.729045
56.320 14.125645
56.325 14.093699
56.330 13.714082
56.335 14.023897
56.340 13.300475
56.345 12.754268
56.350 12.834882
56.355 13.074173
56.360 13.010663
56.365 13.442204
56.370 13.914942
56.375 14.718709
56.380 14.612055
56.385 14.013142
56.390 13.903095
56.395 14.015973
56.400 14.12295
56.405 13.776619
56.410 13.743808
56.415 14.224492
56.420 14.188517
56.425 13.753623
56.430 13.696642
56.435 13.420601
56.440 13.215247
56.445 12.797402
56.450 12.79207
56.455 12.945015
56.460 12.971891
56.465 13.170314
56.470 13.310555
56.475 13.109898
56.480 13.332213
56.485 13.387362
56.490 13.627558
56.495 14.147964
56.500 13.373879
56.505 13.009201
56.510 13.15609
56.515 12.731915
56.520 12.592629
56.525 12.364983
56.530 11.957891
56.535 12.695828
56.540 13.014572
56.545 12.571976
56.550 12.659466
56.555 12.642135
56.560 12.981006
56.565 13.017985
56.570 12.579147
56.575 12.999374
56.580 13.915958
56.585 14.441961
56.590 14.321657
56.595 13.960158
56.600 14.38407
56.605 14.855731
56.610 14.735758
56.615 14.536205
56.620 14.241284
56.625 14.090186
56.630 14.147355
56.635 14.114705
56.640 14.691959
56.645 14.431872
56.650 14.094315
56.655 14.192066
56.660 14.197635
56.665 14.426824
56.670 14.362138
56.675 14.150714
56.680 14.482558
56.685 14.635577
56.690 14.929169
56.695 15.157077
56.700 14.969882
56.705 14.838869
56.710 14.525509
56.715 14.533292
56.720 14.438774
56.725 13.970116
56.730 13.952316
56.735 14.178901
56.740 14.075575
56.745 14.03672
56.750 13.827303
56.755 13.975041
56.760 14.852338
56.765 15.601723
56.770 15.57059
56.775 15.622464
56.780 15.886773
56.785 16.816242
56.790 16.74375
56.795 16.482586
56.800 16.462246
56.805 16.412237
56.810 16.526533
56.815 16.564253
56.820 16.124712
56.825 15.714664
56.830 15.294741
56.835 14.984418
56.840 15.217506
56.845 15.259438
56.850 15.54649
56.855 15.798779
56.860 16.242468
56.865 16.552284
56.870 16.254967
56.875 15.427351
56.880 14.919663
56.885 14.044898
56.890 13.919181
56.895 13.945513
56.900 13.750465
56.905 13.915582
56.910 14.576642
56.915 14.903469
56.920 15.227958
56.925 15.040436
56.930 14.752391
56.935 14.658717
56.940 14.808035
56.945 15.065935
56.950 15.10382
56.955 15.291378
56.960 15.546838
56.965 15.660937
56.970 16.140144
56.975 15.854398
56.980 15.297341
56.985 14.714524
56.990 13.976044
56.995 13.691442
57.000 13.680424
57.005 13.18368
57.010 13.330778
57.015 13.950239
57.020 14.538964
57.025 14.745191
57.030 14.583909
57.035 14.327861
57.040 14.638169
57.045 14.406377
57.050 14.407354
57.055 14.31688
57.060 14.796512
57.065 15.049272
57.070 14.761505
57.075 14.64976
57.080 14.953715
57.085 14.947229
57.090 14.84869
57.095 14.208912
57.100 14.093214
57.105 14.631327
57.110 14.219357
57.115 13.861207
57.120 13.926811
57.125 14.371527
57.130 15.109573
57.135 15.705444
57.140 15.558974
57.145 15.649782
57.150 15.75949
57.155 15.724065
57.160 15.595172
57.165 15.221512
57.170 15.044913
57.175 14.771461
57.180 15.082477
57.185 14.896833
57.190 15.027883
57.195 15.060084
57.200 14.928837
57.205 14.635014
57.210 15.133452
57.215 14.568209
57.220 14.812563
57.225 14.695788
57.230 14.48462
57.235 14.521975
57.240 14.849038
57.245 15.2542
57.250 15.585857
57.255 14.546693
57.260 13.760549
57.265 13.567133
57.270 13.461046
57.275 13.018633
57.280 12.631906
57.285 12.777616
57.290 13.73881
57.295 14.506049
57.300 14.573535
57.305 14.763429
57.310 14.836803
57.315 15.313066
57.320 15.434714
57.325 15.096384
57.330 14.527103
57.335 14.677056
57.340 14.642469
57.345 14.535005
57.350 14.088465
57.355 14.274106
57.360 14.689733
57.365 15.427641
57.370 15.759627
57.375 16.041702
57.380 16.406427
57.385 15.991987
57.390 15.900734
57.395 15.665738
57.400 15.370335
57.405 15.293416
57.410 15.325405
57.415 14.782782
57.420 15.161301
57.425 14.62371
57.430 14.265643
57.435 14.506777
57.440 14.243601
57.445 14.019499
57.450 14.414272
57.455 14.514489
57.460 14.459674
57.465 14.736406
57.470 14.480863
57.475 14.653434
57.480 14.992633
57.485 14.569532
57.490 14.867653
57.495 15.328857
57.500 15.454716
57.505 15.603514
57.510 15.39259
57.515 15.219196
57.520 15.189503
57.525 14.941571
57.530 14.489564
57.535 14.349821
57.540 13.903983
57.545 14.360991
57.550 15.218369
57.555 15.845038
57.560 15.97372
57.565 16.554876
57.570 16.71694
57.575 16.862368
57.580 16.328409
57.585 16.099756
57.590 16.111477
57.595 16.012217
57.600 15.599475
57.605 15.706564
57.610 15.990853
57.615 16.452459
57.620 16.372272
57.625 16.306013
57.630 16.475769
57.635 15.930648
57.640 15.878937
57.645 15.452912
57.650 14.876703
57.655 14.832543
57.660 14.603719
57.665 14.437946
57.670 14.726166
57.675 14.487102
57.680 14.668231
57.685 14.5509
57.690 14.425067
57.695 13.979341
57.700 14.070741
57.705 14.20724
57.710 14.459508
57.715 14.79117
57.720 15.061729
57.725 15.667953
57.730 17.591034
57.735 18.395756
57.740 18.681978
57.745 19.095015
57.750 19.547318
57.755 19.196842
57.760 18.752066
57.765 17.967625
57.770 17.754446
57.775 17.734434
57.780 17.385366
57.785 16.882626
57.790 16.522846
57.795 15.753659
57.800 14.853167
57.805 15.411278
57.810 15.774078
57.815 15.959643
57.820 16.243948
57.825 16.868097
57.830 17.818844
57.835 18.252882
57.840 18.10383
57.845 17.806799
57.850 17.58954
57.855 17.259098
57.860 17.071747
57.865 16.432028
57.870 15.877651
57.875 15.520504
57.880 15.758489
57.885 16.210466
57.890 16.313099
57.895 16.514814
57.900 16.614536
57.905 16.747272
57.910 17.034889
57.915 16.778641
57.920 17.123522
57.925 17.064939
57.930 17.04143
57.935 17.441284
57.940 17.656313
57.945 17.471361
57.950 17.618622
57.955 17.477968
57.960 17.703033
57.965 17.495237
57.970 16.95871
57.975 16.887947
57.980 17.339556
57.985 17.273598
57.990 17.045691
57.995 17.052172
58.000 17.112415
58.005 17.582407
58.010 17.642265
58.015 17.072121
58.020 17.199453
58.025 17.4037
58.030 17.170128
58.035 17.427567
58.040 17.884537
58.045 17.991051
58.050 18.00013
58.055 18.510147
58.060 18.855288
58.065 18.796179
58.070 18.573421
58.075 18.092234
58.080 17.974945
58.085 18.015518
58.090 17.025066
58.095 16.772654
58.100 16.867836
58.105 16.566088
58.110 16.763067
58.115 16.9174
58.120 16.597107
58.125 16.839001
58.130 16.78367
58.135 16.942242
58.140 17.413382
58.145 17.942307
58.150 17.858845
58.155 17.90423
58.160 17.559818
58.165 18.012701
58.170 18.141516
58.175 17.952839
58.180 17.196159
58.185 18.086971
58.190 18.166162
58.195 18.640373
58.200 18.702749
58.205 18.953096
58.210 19.18808
58.215 19.665493
58.220 18.949858
58.225 19.218899
58.230 19.300486
58.235 19.007711
58.240 18.993736
58.245 18.854734
58.250 18.451836
58.255 19.060835
58.260 19.623316
58.265 19.347139
58.270 19.318575
58.275 18.967577
58.280 19.240072
58.285 19.54283
58.290 19.178713
58.295 19.25242
58.300 19.496
58.305 20.109035
58.310 19.903492
58.315 20.06671
58.320 20.48151
58.325 21.390272
58.330 21.283144
58.335 21.986109
58.340 22.451706
58.345 23.357889
58.350 23.265615
58.355 23.425106
58.360 23.249567
58.365 23.570454
58.370 23.907536
58.375 23.787037
58.380 23.870325
58.385 25.125553
58.390 26.76862
58.395 27.428631
58.400 27.860392
58.405 27.808584
58.410 28.472811
58.415 28.826426
58.420 28.492826
58.425 27.426022
58.430 27.959316
58.435 28.110987
58.440 28.255491
58.445 28.26438
58.450 28.455948
58.455 28.985476
58.460 28.984016
58.465 28.676702
58.470 29.217667
58.475 29.539753
58.480 29.746244
58.485 30.136429
58.490 29.895901
58.495 29.851439
58.500 29.736467
58.505 29.784971
58.510 29.758106
58.515 29.574366
58.520 30.022999
58.525 31.512321
58.530 32.685211
58.535 32.813049
58.540 33.168427
58.545 34.538567
58.550 35.410786
58.555 36.049053
58.560 35.550659
58.565 35.530777
58.570 36.675018
58.575 37.112411
58.580 36.178757
58.585 35.219578
58.590 34.62294
58.595 36.000526
58.600 36.752037
58.605 36.460732
58.610 37.012714
58.615 38.351021
58.620 39.513626
58.625 40.464966
58.630 39.51228
58.635 39.113995
58.640 38.946518
58.645 38.312695
58.650 37.743824
58.655 37.336494
58.660 37.920597
58.665 38.026821
58.670 37.951672
58.675 37.698513
58.680 37.01326
58.685 36.690453
58.690 36.537586
58.695 35.445133
58.700 34.93026
58.705 34.840054
58.710 34.376671
58.715 34.017998
58.720 34.489674
58.725 33.840488
58.730 32.783245
58.735 32.666851
58.740 32.709106
58.745 32.69207
58.750 32.783718
58.755 32.509716
58.760 32.696217
58.765 33.165928
58.770 32.191719
58.775 31.642349
58.780 31.691881
58.785 31.396448
58.790 30.803722
58.795 29.927368
58.800 28.749638
58.805 28.562525
58.810 27.5674
58.815 26.564106
58.820 26.365595
58.825 26.548473
58.830 26.186792
58.835 26.276613
58.840 26.315962
58.845 26.404427
58.850 26.090816
58.855 25.336246
58.860 24.899717
58.865 25.078518
58.870 24.551725
58.875 23.52104
58.880 22.893579
58.885 23.046515
58.890 23.511936
58.895 23.831057
58.900 23.784313
58.905 23.896826
58.910 24.289396
58.915 24.634047
58.920 24.730429
58.925 24.402388
58.930 24.166388
58.935 23.819447
58.940 23.741409
58.945 23.717249
58.950 23.128111
58.955 22.573463
58.960 21.682884
58.965 21.483036
58.970 21.923836
58.975 21.630022
58.980 22.382189
58.985 22.511789
58.990 22.571562
58.995 22.760656
59.000 22.117014
59.005 21.45056
59.010 21.725382
59.015 20.741098
59.020 20.54311
59.025 20.297613
59.030 20.442566
59.035 20.600864
59.040 20.846756
59.045 20.707291
59.050 20.735764
59.055 20.675974
59.060 20.444363
59.065 20.541561
59.070 20.27264
59.075 20.137018
59.080 20.110352
59.085 19.510141
59.090 19.116955
59.095 18.839373
59.100 18.75799
59.105 18.579548
59.110 18.089512
59.115 17.21278
59.120 17.454214
59.125 17.931227
59.130 18.109011
59.135 18.273083
59.140 18.358332
59.145 18.496498
59.150 19.13446
59.155 19.437492
59.160 19.382196
59.165 19.212149
59.170 19.08214
59.175 19.301397
59.180 19.307568
59.185 18.939766
59.190 18.829493
59.195 18.514162
59.200 18.551485
59.205 17.983076
59.210 17.950218
59.215 17.742428
59.220 17.544878
59.225 17.339308
59.230 17.251537
59.235 17.220675
59.240 17.879766
59.245 18.023535
59.250 17.917309
59.255 17.507994
59.260 17.833031
59.265 18.279751
59.270 18.428999
59.275 18.697687
59.280 18.404268
59.285 18.704309
59.290 19.343218
59.295 19.542606
59.300 19.66197
59.305 19.906073
59.310 19.517063
59.315 19.896706
59.320 20.039145
59.325 19.560337
59.330 19.376341
59.335 19.293457
59.340 18.932013
59.345 18.572426
59.350 18.105778
59.355 18.383617
59.360 18.748241
59.365 18.798553
59.370 18.575747
59.375 18.770039
59.380 19.467846
59.385 19.554033
59.390 19.677839
59.395 19.386765
59.400 19.024588
59.405 18.81089
59.410 18.717579
59.415 17.893726
59.420 17.416325
59.425 16.822309
59.430 17.528622
59.435 17.404036
59.440 17.395128
59.445 17.319176
59.450 17.119835
59.455 17.901588
59.460 18.470274
59.465 17.514193
59.470 17.93185
59.475 18.394936
59.480 18.245632
59.485 18.239342
59.490 17.304386
59.495 16.856886
59.500 17.46982
59.505 17.07929
59.510 16.513727
59.515 16.673859
59.520 17.237833
59.525 17.476728
59.530 17.646399
59.535 17.022224
59.540 16.409119
59.545 16.264326
59.550 16.242428
59.555 15.899401
59.560 15.666115
59.565 15.171938
59.570 14.762402
59.575 15.178082
59.580 15.005172
59.585 14.850442
59.590 14.534831
59.595 14.942658
59.600 15.667693
59.605 16.275171
59.610 16.41909
59.615 17.350651
59.620 17.46232
59.625 18.288574
59.630 18.194136
59.635 17.482489
59.640 17.673655
59.645 18.096827
59.650 17.824478
59.655 17.203367
59.660 16.933863
59.665 16.876722
59.670 17.256769
59.675 16.921965
59.680 16.771873
59.685 16.235151
59.690 16.089767
59.695 15.288196
59.700 16.024122
59.705 16.022261
59.710 16.23567
59.715 16.087057
59.720 16.457991
59.725 17.080156
59.730 18.035219
59.735 17.69429
59.740 17.816002
59.745 17.219229
59.750 16.869656
59.755 16.322865
59.760 16.290089
59.765 15.755509
59.770 14.825002
59.775 14.957646
59.780 15.172634
59.785 15.198853
59.790 15.309289
59.795 15.129954
59.800 15.506383
59.805 15.820202
59.810 15.46083
59.815 15.989928
59.820 16.166325
59.825 16.164299
59.830 16.770031
59.835 16.840889
59.840 17.20504
59.845 17.238537
59.850 16.726902
59.855 16.813442
59.860 17.261978
59.865 16.685801
59.870 16.124804
59.875 15.567831
59.880 15.819067
59.885 15.639044
59.890 15.452455
59.895 15.316087
59.900 15.64889
59.905 15.529146
59.910 15.437398
59.915 15.09048
59.920 15.066176
59.925 15.117844
59.930 14.636323
59.935 14.274746
59.940 13.84397
59.945 13.705623
59.950 13.94593
59.955 14.062996
59.960 14.088716
59.965 14.440077
59.970 14.573755
59.975 15.247188
59.980 15.973119
59.985 15.94324
59.990 15.747239
59.995 15.866014
60.000 15.716215
60.005 16.363504
60.010 16.857906
60.015 17.385201
60.020 17.396259
60.025 17.778362
60.030 18.10704
60.035 18.236307
60.040 17.819818
60.045 17.641476
60.050 17.192327
60.055 17.605019
60.060 17.62771
60.065 17.260929
60.070 17.157549
60.075 16.911697
60.080 16.399342
60.085 16.359591
60.090 16.409037
60.095 16.446024
60.100 16.63743
60.105 16.671198
60.110 16.65094
60.115 16.707867
60.120 16.612112
60.125 16.790768
60.130 16.942324
60.135 16.965399
60.140 17.098959
60.145 16.870495
60.150 16.97583
60.155 16.952377
60.160 16.649418
60.165 16.315859
60.170 16.643364
60.175 16.792511
60.180 17.198347
60.185 17.70837
60.190 17.541496
60.195 17.775408
60.200 18.368057
60.205 17.976419
60.210 18.073488
60.215 17.880812
60.220 17.288553
60.225 17.446365
60.230 17.174145
60.235 16.86948
60.240 16.933416
60.245 17.559277
60.250 18.231871
60.255 18.733923
60.260 17.973221
60.265 17.398294
60.270 16.980042
60.275 16.982529
60.280 16.406649
60.285 15.940557
60.290 15.894121
60.295 16.308283
60.300 16.578226
60.305 16.753273
60.310 16.170879
60.315 16.477327
60.320 16.48719
60.325 16.685081
60.330 16.818413
60.335 17.083408
60.340 17.051319
60.345 17.587648
60.350 17.466959
60.355 16.997839
60.360 16.220928
60.365 16.612
60.370 16.970556
60.375 17.194006
60.380 16.571398
60.385 16.063557
60.390 16.510296
60.395 17.409113
60.400 16.656448
60.405 16.45508
60.410 16.543673
60.415 16.803564
60.420 16.926914
60.425 17.033422
60.430 16.924187
60.435 17.542227
60.440 17.483137
60.445 17.549513
60.450 17.119974
60.455 17.473902
60.460 16.748013
60.465 15.696521
60.470 15.244797
60.475 15.225736
60.480 15.201399
60.485 15.614029
60.490 15.401735
60.495 16.220797
60.500 16.975864
60.505 16.950928
60.510 16.305605
60.515 16.281065
60.520 16.211687
60.525 16.836252
60.530 16.552994
60.535 16.303514
60.540 16.766565
60.545 16.998091
60.550 17.102201
60.555 16.973352
60.560 16.56785
60.565 16.390762
60.570 16.094042
60.575 16.204832
60.580 16.119442
60.585 15.490669
60.590 15.248651
60.595 15.422924
60.600 15.70032
60.605 16.102734
60.610 16.238966
60.615 17.333656
60.620 18.236115
60.625 18.607201
60.630 18.243092
60.635 18.267357
60.640 18.766684
60.645 18.3074
60.650 17.808672
60.655 17.287659
60.660 17.50635
60.665 17.55957
60.670 17.323484
60.675 17.272528
60.680 17.239559
60.685 16.614695
60.690 16.761154
60.695 16.643749
60.700 16.676041
60.705 17.355801
60.710 17.819181
60.715 18.26812
60.720 18.494225
60.725 18.388277
60.730 18.604967
60.735 18.836391
60.740 17.732883
60.745 16.79372
60.750 16.697863
60.755 17.765093
60.760 18.175837
60.765 17.929811
60.770 17.796515
60.775 17.759821
60.780 17.653444
60.785 17.76499
60.790 17.627275
60.795 17.290077
60.800 17.057074
60.805 17.032366
60.810 17.910229
60.815 18.452026
60.820 18.470964
60.825 18.304462
60.830 18.842833
60.835 19.649124
60.840 19.701357
60.845 19.145157
60.850 18.527493
60.855 17.890129
60.860 17.804302
60.865 17.462936
60.870 17.375795
60.875 17.467363
60.880 17.607859
60.885 18.092262
60.890 17.782442
60.895 17.451494
60.900 16.818966
60.905 16.333397
60.910 16.037273
60.915 16.28389
60.920 16.353588
60.925 16.935991
60.930 17.333967
60.935 17.440605
60.940 17.49065
60.945 17.596533
60.950 17.179857
60.955 16.872341
60.960 17.164322
60.965 17.273483
60.970 17.571371
60.975 17.644262
60.980 17.702038
60.985 17.484007
60.990 17.310421
60.995 17.275558
61.000 16.960108
61.005 16.702166
61.010 16.669849
61.015 16.761623
61.020 16.935785
61.025 17.124538
61.030 17.238089
61.035 16.965117
61.040 17.354628
61.045 17.271578
61.050 16.933718
61.055 16.558113
61.060 16.513695
61.065 16.025768
61.070 15.78131
61.075 15.66501
61.080 15.854456
61.085 16.130777
61.090 16.227612
61.095 15.519342
61.100 15.608949
61.105 16.118168
61.110 16.279125
61.115 16.559694
61.120 16.311701
61.125 16.352369
61.130 16.578573
61.135 16.69936
61.140 16.758806
61.145 16.190416
61.150 16.035162
61.155 16.200312
61.160 16.446133
61.165 16.966198
61.170 17.32193
61.175 17.427313
61.180 17.386211
61.185 17.085594
61.190 17.283213
61.195 17.572195
61.200 17.48562
61.205 16.929291
61.210 16.997591
61.215 17.675186
61.220 17.619366
61.225 18.374361
61.230 18.386782
61.235 18.330019
61.240 18.660482
61.245 18.854252
61.250 18.578257
61.255 18.450996
61.260 17.426653
61.265 17.168425
61.270 17.144808
61.275 16.8631
61.280 16.490845
61.285 16.33353
61.290 16.530317
61.295 17.482054
61.300 17.924238
61.305 17.624838
61.310 17.494711
61.315 17.184456
61.320 17.103533
61.325 16.900988
61.330 15.899815
61.335 14.935838
61.340 15.110098
61.345 14.947758
61.350 14.959365
61.355 15.297309
61.360 15.227939
61.365 15.315766
61.370 15.951838
61.375 16.040142
61.380 17.116583
61.385 17.543175
61.390 17.65904
61.395 17.728979
61.400 18.081141
61.405 18.096535
61.410 17.477633
61.415 17.046963
61.420 16.975794
61.425 16.946205
61.430 16.85655
61.435 16.249943
61.440 16.507717
61.445 17.138813
61.450 17.387438
61.455 18.014372
61.460 18.034723
61.465 17.450317
61.470 18.213465
61.475 18.411366
61.480 18.600965
61.485 18.369507
61.490 17.420477
61.495 18.039665
61.500 19.126104
61.505 19.302607
61.510 19.488033
61.515 19.500805
61.520 19.837862
61.525 20.448584
61.530 19.720736
61.535 19.287489
61.540 18.816828
61.545 18.594931
61.550 18.584124
61.555 18.055925
61.560 17.863466
61.565 18.264046
61.570 18.547861
61.575 18.45866
61.580 17.975428
61.585 18.001919
61.590 18.670971
61.595 18.330446
61.600 18.185734
61.605 17.46559
61.610 17.087112
61.615 17.661444
61.620 17.205341
61.625 16.839283
61.630 17.335501
61.635 17.572363
61.640 18.221554
61.645 18.741171
61.650 18.005293
61.655 17.647709
61.660 17.780811
61.665 17.386211
61.670 16.930407
61.675 16.425699
61.680 16.003714
61.685 15.950871
61.690 15.974014
61.695 16.216444
61.700 16.190325
61.705 16.030701
61.710 15.965388
61.715 16.31559
61.720 16.713064
61.725 16.739336
61.730 16.417496
61.735 16.269535
61.740 16.189426
61.745 16.450886
61.750 16.325621
61.755 16.295286
61.760 16.575249
61.765 16.902502
61.770 17.617792
61.775 17.579094
61.780 17.544172
61.785 17.111446
61.790 17.68918
61.795 17.249418
61.800 16.650537
61.805 16.738943
61.810 17.171568
61.815 17.321564
61.820 18.156046
61.825 17.804552
61.830 18.412239
61.835 18.303642
61.840 17.739475
61.845 17.481911
61.850 17.198606
61.855 16.662224
61.860 16.902025
61.865 16.702177
61.870 17.300678
61.875 17.396111
61.880 17.861542
61.885 18.350748
61.890 18.931532
61.895 18.839149
61.900 18.819111
61.905 18.326183
61.910 18.905046
61.915 18.819221
61.920 18.005999
61.925 17.493259
61.930 17.090351
61.935 16.946461
61.940 17.41177
61.945 17.018888
61.950 17.124241
61.955 17.103315
61.960 17.454073
61.965 17.767824
61.970 18.171482
61.975 18.867546
61.980 19.361307
61.985 19.479719
61.990 19.641012
61.995 19.49415
62.000 20.065519
62.005 19.428255
62.010 18.445326
62.015 17.94709
62.020 17.055058
62.025 16.905725
62.030 16.785015
62.035 16.647886
62.040 16.730646
62.045 16.507875
62.050 16.195648
62.055 16.772606
62.060 17.18189
62.065 16.879381
62.070 16.721428
62.075 16.871063
62.080 17.243608
62.085 17.679613
62.090 17.7395
62.095 17.565525
62.100 17.684828
62.105 17.599373
62.110 17.552015
62.115 17.54911
62.120 17.294794
62.125 17.139524
62.130 16.775974
62.135 16.781328
62.140 17.242043
62.145 17.383144
62.150 17.061108
62.155 17.277611
62.160 17.44701
62.165 18.162649
62.170 18.337166
62.175 18.01219
62.180 18.04866
62.185 18.000977
62.190 17.972881
62.195 18.396444
62.200 18.503607
62.205 18.157267
62.210 17.695442
62.215 17.531631
62.220 18.077917
62.225 18.125425
62.230 17.597631
62.235 17.563969
62.240 17.946323
62.245 18.505856
62.250 18.173927
62.255 17.564156
62.260 16.946701
62.265 17.219687
62.270 17.513165
62.275 17.212326
62.280 16.723511
62.285 16.750828
62.290 17.018715
62.295 17.294331
62.300 16.879679
62.305 16.464746
62.310 16.747793
62.315 17.157583
62.320 17.713799
62.325 18.395409
62.330 18.899975
62.335 19.140184
62.340 18.869717
62.345 19.009262
62.350 19.211828
62.355 18.581703
62.360 17.931196
62.365 17.877317
62.370 17.896717
62.375 17.734936
62.380 17.797979
62.385 17.70927
62.390 17.71476
62.395 18.040709
62.400 17.952976
62.405 17.941854
62.410 18.548563
62.415 18.30781
62.420 18.231594
62.425 18.527107
62.430 18.577192
62.435 18.331711
62.440 18.446665
62.445 18.670713
62.450 19.574017
62.455 19.81723
62.460 19.55501
62.465 19.052217
62.470 19.096447
62.475 19.286818
62.480 18.686735
62.485 17.840778
62.490 17.266701
62.495 17.303978
62.500 17.483545
62.505 17.104813
62.510 16.782824
62.515 16.177776
62.520 15.366203
62.525 15.504543
62.530 15.111687
62.535 15.010324
62.540 15.690787
62.545 15.878159
62.550 16.181036
62.555 16.452482
62.560 16.549923
62.565 16.618603
62.570 17.305176
62.575 17.233124
62.580 16.964102
62.585 17.098139
62.590 17.424639
62.595 17.817894
62.600 18.129097
62.605 17.870266
62.610 17.450451
62.615 17.302914
62.620 17.202435
62.625 17.283934
62.630 16.802359
62.635 16.669304
62.640 16.233257
62.645 16.14776
62.650 16.329203
62.655 16.539917
62.660 15.938272
62.665 16.214474
62.670 16.33736
62.675 16.852097
62.680 17.435242
62.685 17.469505
62.690 17.640047
62.695 18.365175
62.700 18.144526
62.705 18.325542
62.710 18.578619
62.715 18.19029
62.720 18.176804
62.725 18.411764
62.730 18.208843
62.735 18.52519
62.740 18.299913
62.745 17.993464
62.750 18.320484
62.755 18.066135
62.760 17.662935
62.765 17.239344
62.770 17.080435
62.775 17.228588
62.780 17.178391
62.785 17.184093
62.790 17.551216
62.795 17.76605
62.800 18.149082
62.805 18.899265
62.810 19.052891
62.815 19.203987
62.820 19.281441
62.825 18.890112
62.830 18.350924
62.835 17.7913
62.840 16.902884
62.845 16.272856
62.850 15.872815
62.855 16.161463
62.860 16.527775
62.865 17.113001
62.870 16.985695
62.875 16.989971
62.880 17.355268
62.885 16.790375
62.890 15.946157
62.895 15.48596
62.900 14.996041
62.905 15.592586
62.910 15.62711
62.915 15.80086
62.920 16.293768
62.925 16.292894
62.930 16.174114
62.935 15.780803
62.940 16.230705
62.945 16.54015
62.950 16.415339
62.955 16.441469
62.960 16.519855
62.965 17.129044
62.970 18.260647
62.975 18.427378
62.980 18.189331
62.985 17.953316
62.990 18.397011
62.995 18.785858
63.000 18.585781
63.005 17.693529
63.010 17.095926
63.015 17.4562
63.020 17.7939
63.025 17.754356
63.030 17.488663
63.035 17.476793
63.040 17.823776
63.045 18.176815
63.050 17.694481
63.055 17.676504
63.060 18.031778
63.065 18.463621
63.070 18.722015
63.075 18.875029
63.080 19.100523
63.085 19.051556
63.090 19.064428
63.095 18.653799
63.100 18.309206
63.105 18.022289
63.110 17.699987
63.115 17.86994
63.120 18.420671
63.125 18.163198
63.130 18.278503
63.135 18.466015
63.140 18.955194
63.145 19.144192
63.150 18.597532
63.155 18.265141
63.160 18.786991
63.165 18.989496
63.170 19.025446
63.175 18.971584
63.180 19.459948
63.185 19.830608
63.190 20.112787
63.195 19.673243
63.200 19.738625
63.205 19.550156
63.210 19.333916
63.215 18.483761
63.220 17.857124
63.225 17.74729
63.230 17.650454
63.235 17.443886
63.240 18.008497
63.245 18.268837
63.250 18.790297
63.255 19.376698
63.260 19.46987
63.265 19.222963
63.270 19.107126
63.275 18.629576
63.280 18.654482
63.285 18.581705
63.290 18.711342
63.295 19.027651
63.300 19.810188
63.305 19.878201
63.310 20.14584
63.315 20.515434
63.320 20.655863
63.325 20.294977
63.330 19.87175
63.335 18.987843
63.340 18.773502
63.345 18.377819
63.350 17.568996
63.355 16.784365
63.360 16.825373
63.365 16.953373
63.370 17.070856
63.375 17.307327
63.380 17.888151
63.385 17.996975
63.390 18.447495
63.395 18.082937
63.400 17.812304
63.405 18.168591
63.410 17.780109
63.415 17.477551
63.420 17.590567
63.425 17.625519
63.430 18.234245
63.435 18.857033
63.440 18.916328
63.445 19.186148
63.450 19.135094
63.455 19.388048
63.460 19.994478
63.465 19.792397
63.470 19.789858
63.475 20.161619
63.480 19.922447
63.485 19.433617
63.490 19.289707
63.495 18.684765
63.500 18.686178
63.505 18.690123
63.510 18.686457
63.515 19.013887
63.520 19.369604
63.525 19.282438
63.530 19.229517
63.535 19.080456
63.540 18.465725
63.545 17.853493
63.550 17.195505
63.555 16.84709
63.560 17.260208
63.565 18.223051
63.570 18.565332
63.575 18.601332
63.580 19.126801
63.585 19.852236
63.590 20.009092
63.595 19.621916
63.600 19.275723
63.605 19.371161
63.610 19.920828
63.615 20.373158
63.620 20.43503
63.625 20.555878
63.630 20.212263
63.635 19.559645
63.640 18.919415
63.645 18.701061
63.650 17.842575
63.655 17.572609
63.660 17.43247
63.665 18.297554
63.670 18.73373
63.675 19.353441
63.680 20.120766
63.685 20.632524
63.690 20.784269
63.695 20.840117
63.700 20.690449
63.705 20.389803
63.710 20.350273
63.715 19.82443
63.720 19.991703
63.725 20.215103
63.730 19.964176
63.735 19.227526
63.740 19.140606
63.745 18.633129
63.750 18.903383
63.755 19.253702
63.760 19.662273
63.765 20.573309
63.770 20.49472
63.775 20.662298
63.780 20.674339
63.785 19.673584
63.790 19.388477
63.795 18.933783
63.800 18.739208
63.805 19.17695
63.810 19.002136
63.815 18.858982
63.820 19.18401
63.825 18.963142
63.830 18.581997
63.835 18.823484
63.840 18.645309
63.845 19.292038
63.850 19.893158
63.855 19.91733
63.860 20.125559
63.865 20.284805
63.870 19.916058
63.875 20.370686
63.880 20.192362
63.885 20.701208
63.890 21.443806
63.895 21.2698
63.900 20.749714
63.905 20.679739
63.910 20.696821
63.915 21.101519
63.920 21.734081
63.925 22.05941
63.930 22.869987
63.935 23.905182
63.940 24.150881
63.945 24.07872
63.950 24.310354
63.955 23.663322
63.960 22.856873
63.965 22.904213
63.970 23.267286
63.975 23.551113
63.980 23.929756
63.985 23.645248
63.990 24.304977
63.995 24.67079
64.000 24.817944
64.005 24.702768
64.010 25.358841
64.015 25.676905
64.020 26.073479
64.025 26.024754
64.030 26.201941
64.035 25.932711
64.040 26.232304
64.045 26.647348
64.050 26.787706
64.055 26.707647
64.060 26.420654
64.065 27.016512
64.070 27.661652
64.075 28.120821
64.080 27.853907
64.085 27.716444
64.090 28.027327
64.095 28.761431
64.100 28.998869
64.105 29.109346
64.110 29.24151
64.115 29.813492
64.120 31.101274
64.125 32.053272
64.130 33.132591
64.135 34.286476
64.140 34.385727
64.145 34.753597
64.150 34.877724
64.155 34.723637
64.160 34.187794
64.165 33.66996
64.170 33.507957
64.175 34.253056
64.180 34.3536
64.185 34.681808
64.190 35.469582
64.195 36.486164
64.200 36.336987
64.205 36.154045
64.210 36.319653
64.215 37.005852
64.220 37.828083
64.225 38.083969
64.230 38.740971
64.235 39.525223
64.240 40.46035
64.245 40.962303
64.250 40.584541
64.255 41.60836
64.260 41.922009
64.265 41.340405
64.270 41.323509
64.275 41.02879
64.280 41.46637
64.285 42.871166
64.290 42.287525
64.295 41.935257
64.300 42.478008
64.305 43.481556
64.310 43.986942
64.315 44.256653
64.320 44.017822
64.325 43.534184
64.330 43.616943
64.335 43.326408
64.340 43.53899
64.345 43.931087
64.350 43.247696
64.355 43.235607
64.360 44.07711
64.365 44.554195
64.370 44.816444
64.375 43.741913
64.380 43.59655
64.385 43.577126
64.390 43.398338
64.395 42.827095
64.400 42.560406
64.405 42.860531
64.410 43.667976
64.415 43.201534
64.420 43.173012
64.425 43.506027
64.430 43.720119
64.435 43.252647
64.440 41.898041
64.445 40.729206
64.450 40.089695
64.455 39.779156
64.460 39.172165
64.465 38.717728
64.470 38.61417
64.475 38.605717
64.480 38.541626
64.485 38.372894
64.490 38.417549
64.495 38.34399
64.500 38.237209
64.505 38.395786
64.510 38.053379
64.515 37.628445
64.520 37.40205
64.525 36.742924
64.530 36.33094
64.535 35.589878
64.540 34.921421
64.545 35.219563
64.550 35.169342
64.555 35.446438
64.560 35.282742
64.565 35.079132
64.570 34.630081
64.575 33.691101
64.580 32.666103
64.585 32.126865
64.590 31.383844
64.595 31.394985
64.600 30.609024
64.605 29.869423
64.610 30.047615
64.615 30.279284
64.620 30.188578
64.625 29.476831
64.630 28.496811
64.635 28.322153
64.640 29.343418
64.645 29.201784
64.650 28.552519
64.655 28.063078
64.660 27.769505
64.665 27.956944
64.670 28.983507
64.675 28.380941
64.680 28.547821
64.685 28.389767
64.690 28.177011
64.695 28.427219
64.700 27.415821
64.705 26.315163
64.710 25.971146
64.715 25.106802
64.720 24.509993
64.725 24.237617
64.730 24.414057
64.735 24.258986
64.740 24.039434
64.745 24.136021
64.750 23.815948
64.755 24.034985
64.760 24.410021
64.765 24.317862
64.770 24.598932
64.775 24.00894
64.780 22.769445
64.785 22.907297
64.790 23.124805
64.795 22.992016
64.800 22.485765
64.805 22.469051
64.810 23.288088
64.815 24.212841
64.820 24.274851
64.825 23.687971
64.830 23.572317
64.835 24.048471
64.840 24.17008
64.845 23.330816
64.850 22.406521
64.855 22.251627
64.860 22.177147
64.865 21.620024
64.870 21.307444
64.875 21.301952
64.880 22.180477
64.885 22.978985
64.890 23.045656
64.895 23.598282
64.900 23.806908
64.905 24.032763
64.910 23.55213
64.915 22.764585
64.920 22.588833
64.925 22.403103
64.930 22.041187
64.935 22.635927
64.940 22.907808
64.945 23.18758
64.950 23.583048
64.955 23.724289
64.960 24.4746
64.965 24.661879
64.970 24.033653
64.975 23.974615
64.980 24.133734
64.985 24.129982
64.990 24.438919
64.995 24.430683
65.000 25.026608
65.005 25.975861
65.010 26.261164
65.015 26.537508
65.020 27.072298
65.025 27.042974
65.030 26.770922
65.035 26.97945
65.040 26.553885
65.045 26.396715
65.050 26.536669
65.055 26.7276
65.060 27.55879
65.065 27.420668
65.070 27.28158
65.075 28.371063
65.080 28.843895
65.085 29.210157
65.090 29.778673
65.095 29.610147
65.100 29.835062
65.105 29.590073
65.110 29.433432
65.115 29.350632
65.120 28.939842
65.125 28.537546
65.130 27.817844
65.135 27.906633
65.140 28.048414
65.145 27.951689
65.150 28.110895
65.155 28.716742
65.160 28.514048
65.165 29.100685
65.170 29.733543
65.175 29.286392
65.180 29.062225
65.185 29.485659
65.190 29.637466
65.195 30.932478
65.200 32.17841
65.205 32.250877
65.210 33.108398
65.215 33.21373
65.220 32.959644
65.225 32.797218
65.230 32.068481
65.235 31.385136
65.240 31.704718
65.245 31.512709
65.250 31.28966
65.255 31.286942
65.260 30.987249
65.265 31.724632
65.270 31.863205
65.275 31.147974
65.280 30.719526
65.285 31.218695
65.290 31.362659
65.295 31.415281
65.300 30.621908
65.305 30.563675
65.310 31.227121
65.315 32.105938
65.320 31.774614
65.325 31.843115
65.330 32.254272
65.335 32.589264
65.340 33.106789
65.345 33.937279
65.350 34.499874
65.355 35.09219
65.360 35.487076
65.365 35.76244
65.370 36.26075
65.375 35.253975
65.380 34.07983
65.385 33.379993
65.390 32.884781
65.395 32.714176
65.400 32.180061
65.405 32.058334
65.410 32.586834
65.415 33.173702
65.420 33.52227
65.425 34.229549
65.430 34.395962
65.435 34.664246
65.440 34.606621
65.445 34.425354
65.450 34.467438
65.455 34.824623
65.460 35.51786
65.465 36.154381
65.470 36.454227
65.475 36.402306
65.480 36.430916
65.485 36.194481
65.490 36.400047
65.495 35.07156
65.500 34.70874
65.505 33.874577
65.510 33.863438
65.515 34.359356
65.520 34.482185
65.525 33.421303
65.530 33.216904
65.535 32.646427
65.540 33.404758
65.545 33.876324
65.550 33.196159
65.555 32.864304
65.560 33.457443
65.565 33.672943
65.570 33.358215
65.575 33.493767
65.580 33.63686
65.585 34.690533
65.590 34.940166
65.595 35.078598
65.600 35.579117
65.605 36.376781
65.610 36.347885
65.615 36.13026
65.620 36.042007
65.625 36.209496
65.630 36.938534
65.635 37.427723
65.640 37.231651
65.645 37.351974
65.650 37.420116
65.655 36.389618
65.660 35.694351
65.665 34.760025
65.670 34.73317
65.675 34.982063
65.680 35.773834
65.685 35.670101
65.690 35.788445
65.695 36.2589
65.700 36.711853
65.705 36.60603
65.710 36.932796
65.715 36.74646
65.720 38.108425
65.725 38.424911
65.730 38.34333
65.735 37.062187
65.740 36.090557
65.745 35.724178
65.750 34.607922
65.755 33.663162
65.760 33.44545
65.765 33.807053
65.770 34.968464
65.775 35.539524
65.780 34.892315
65.785 34.38858
65.790 34.148514
65.795 34.02351
65.800 34.579941
65.805 34.993832
65.810 34.831451
65.815 35.428368
65.820 35.614727
65.825 35.423176
65.830 35.906311
65.835 34.699966
65.840 34.051708
65.845 33.653835
65.850 33.7117
65.855 33.640289
65.860 33.928097
65.865 33.918224
65.870 34.032333
65.875 33.994366
65.880 34.043079
65.885 33.579823
65.890 33.481476
65.895 33.179684
65.900 32.707283
65.905 32.063728
65.910 31.748459
65.915 31.49869
65.920 31.341936
65.925 31.853241
65.930 32.405399
65.935 32.901512
65.940 33.279263
65.945 32.928165
65.950 32.70718
65.955 32.542515
65.960 31.904203
65.965 31.000603
65.970 30.745682
65.975 30.09894
65.980 30.147758
65.985 30.795446
65.990 30.643244
65.995 30.12606
66.000 29.715082
66.005 29.669073
66.010 30.356211
66.015 30.562881
66.020 29.717308
66.025 29.805878
66.030 29.906763
66.035 29.561762
66.040 28.641279
66.045 27.324558
66.050 26.721478
66.055 26.971914
66.060 26.403301
66.065 25.575027
66.070 25.014746
66.075 24.728228
66.080 24.947525
66.085 25.020067
66.090 25.309013
66.095 25.863329
66.100 26.392576
66.105 26.704931
66.110 26.777485
66.115 27.020052
66.120 27.266064
66.125 26.972397
66.130 26.980505
66.135 27.256706
66.140 27.567093
66.145 27.973904
66.150 27.685707
66.155 27.737246
66.160 27.57268
66.165 27.07765
66.170 27.06971
66.175 27.040537
66.180 26.922522
66.185 26.356451
66.190 26.047215
66.195 25.77496
66.200 25.812904
66.205 25.573936
66.210 25.843954
66.215 25.894409
66.220 25.931213
66.225 26.326111
66.230 26.709963
66.235 26.568748
66.240 25.865965
66.245 24.90851
66.250 25.087151
66.255 25.349094
66.260 25.114891
66.265 24.883566
66.270 25.399866
66.275 25.82523
66.280 25.686197
66.285 25.867575
66.290 25.717697
66.295 25.567102
66.300 25.503723
66.305 25.116604
66.310 24.765566
66.315 24.468365
66.320 24.218576
66.325 24.667227
66.330 24.318888
66.335 24.495312
66.340 24.788383
66.345 25.256269
66.350 26.159168
66.355 25.287807
66.360 24.775517
66.365 24.577507
66.370 24.653852
66.375 23.762129
66.380 23.367218
66.385 23.471956
66.390 24.358009
66.395 24.384975
66.400 24.564453
66.405 24.33177
66.410 24.749437
66.415 24.372637
66.420 23.632324
66.425 23.090923
66.430 23.469538
66.435 23.362335
66.440 23.233891
66.445 22.491146
66.450 22.026459
66.455 21.783091
66.460 21.297434
66.465 21.442287
66.470 21.535084
66.475 21.650843
66.480 22.23889
66.485 22.771389
66.490 22.751219
66.495 22.853355
66.500 22.050455
66.505 21.852077
66.510 21.993622
66.515 22.16321
66.520 22.425617
66.525 22.132256
66.530 22.146593
66.535 22.302299
66.540 22.383945
66.545 22.232504
66.550 21.527454
66.555 20.731369
66.560 21.387144
66.565 21.335876
66.570 20.8925
66.575 20.864544
66.580 20.993675
66.585 21.220446
66.590 21.573185
66.595 21.526457
66.600 21.299109
66.605 21.751719
66.610 21.949104
66.615 22.062983
66.620 22.303679
66.625 22.480339
66.630 22.320084
66.635 22.554628
66.640 22.041191
66.645 21.434904
66.650 20.493534
66.655 19.489521
66.660 19.26354
66.665 19.083487
66.670 18.91214
66.675 19.369263
66.680 19.478708
66.685 19.601978
66.690 19.890238
66.695 19.883745
66.700 20.228905
66.705 20.000092
66.710 19.904495
66.715 20.229851
66.720 21.371679
66.725 21.710791
66.730 21.562187
66.735 21.321518
66.740 21.230156
66.745 20.969198
66.750 20.33176
66.755 19.160353
66.760 19.016651
66.765 18.684872
66.770 18.193195
66.775 18.379786
66.780 17.964039
66.785 17.64303
66.790 18.159798
66.795 17.672136
66.800 18.010683
66.805 18.157001
66.810 17.675167
66.815 18.121729
66.820 18.343004
66.825 17.999365
66.830 18.249084
66.835 18.129339
66.840 18.309345
66.845 18.567774
66.850 18.592173
66.855 18.659672
66.860 18.529543
66.865 19.080645
66.870 18.916344
66.875 18.907578
66.880 18.935083
66.885 19.042685
66.890 19.194204
66.895 19.459948
66.900 20.047468
66.905 20.269157
66.910 20.109066
66.915 20.029125
66.920 19.566626
66.925 19.600565
66.930 20.051228
66.935 20.046223
66.940 20.293478
66.945 20.821426
66.950 20.813391
66.955 20.595671
66.960 20.680336
66.965 20.201698
66.970 19.671509
66.975 19.762032
66.980 19.801018
66.985 20.471083
66.990 20.797235
66.995 20.145649
67.000 20.507788
67.005 20.770323
67.010 20.910028
67.015 20.783123
67.020 20.003334
67.025 20.30052
67.030 20.458609
67.035 19.29538
67.040 19.254103
67.045 18.861824
67.050 18.951424
67.055 19.625458
67.060 20.023245
67.065 19.893339
67.070 19.587738
67.075 18.981541
67.080 19.006016
67.085 18.731743
67.090 18.342215
67.095 18.285383
67.100 18.609444
67.105 19.123568
67.110 19.584681
67.115 19.560715
67.120 19.746241
67.125 20.055386
67.130 20.222078
67.135 20.316069
67.140 19.85935
67.145 19.924858
67.150 20.391363
67.155 20.953911
67.160 20.872942
67.165 21.120684
67.170 21.234386
67.175 20.83387
67.180 20.504135
67.185 19.540192
67.190 19.071192
67.195 18.777872
67.200 18.562773
67.205 18.495829
67.210 18.962803
67.215 19.153959
67.220 20.020555
67.225 20.414145
67.230 20.598473
67.235 20.666512
67.240 21.06053
67.245 20.991142
67.250 20.42206
67.255 20.23167
67.260 19.854012
67.265 19.52693
67.270 19.476801
67.275 18.844809
67.280 19.045616
67.285 18.966364
67.290 18.226379
67.295 17.908056
67.300 18.061449
67.305 18.048285
67.310 18.1612
67.315 18.094742
67.320 18.985371
67.325 19.669495
67.330 20.104519
67.335 19.599817
67.340 19.437178
67.345 19.44939
67.350 18.926722
67.355 18.925402
67.360 19.484785
67.365 19.467394
67.370 20.067198
67.375 20.247105
67.380 19.763588
67.385 20.380295
67.390 19.813927
67.395 19.216454
67.400 18.916275
67.405 18.392677
67.410 18.539669
67.415 19.379465
67.420 18.888523
67.425 19.353952
67.430 19.251772
67.435 19.316401
67.440 19.279783
67.445 18.746948
67.450 18.227501
67.455 18.540489
67.460 18.355938
67.465 18.381168
67.470 18.413504
67.475 18.783735
67.480 19.479355
67.485 20.135168
67.490 19.928789
67.495 19.596237
67.500 20.056852
67.505 20.357185
67.510 20.012051
67.515 19.997452
67.520 19.451216
67.525 19.455603
67.530 19.60364
67.535 19.785816
67.540 19.824907
67.545 19.565744
67.550 19.298094
67.555 19.916378
67.560 19.535805
67.565 19.447495
67.570 18.945734
67.575 18.890974
67.580 19.441364
67.585 19.754461
67.590 19.69179
67.595 20.259165
67.600 20.689535
67.605 20.803703
67.610 20.916046
67.615 20.43895
67.620 19.870485
67.625 19.091927
67.630 18.681807
67.635 18.349543
67.640 18.264853
67.645 18.069622
67.650 17.896353
67.655 18.253445
67.660 19.074709
67.665 18.958714
67.670 18.919136
67.675 18.653688
67.680 18.63051
67.685 18.741884
67.690 18.625357
67.695 18.510681
67.700 18.888302
67.705 19.218981
67.710 19.437416
67.715 19.398458
67.720 20.088272
67.725 19.958412
67.730 19.300005
67.735 19.16102
67.740 18.884344
67.745 18.954315
67.750 19.141701
67.755 18.17474
67.760 18.745235
67.765 19.472557
67.770 19.254553
67.775 19.700596
67.780 19.452557
67.785 19.504389
67.790 19.905964
67.795 20.271198
67.800 20.645046
67.805 20.482496
67.810 19.869179
67.815 20.256012
67.820 20.233927
67.825 19.763693
67.830 18.483051
67.835 17.883492
67.840 18.032459
67.845 18.171267
67.850 17.883392
67.855 17.86418
67.860 18.288599
67.865 18.770283
67.870 18.952852
67.875 19.028963
67.880 18.451181
67.885 18.516092
67.890 18.703667
67.895 18.617765
67.900 18.539219
67.905 18.863842
67.910 19.266006
67.915 20.195259
67.920 19.777851
67.925 19.418325
67.930 19.497648
67.935 19.894829
67.940 19.941748
67.945 20.244507
67.950 20.460293
67.955 20.703373
67.960 20.72617
67.965 20.727575
67.970 19.937578
67.975 19.822596
67.980 19.530697
67.985 19.383738
67.990 19.745161
67.995 20.112648
68.000 20.275366
68.005 20.738991
68.010 21.046093
68.015 20.929859
68.020 21.193853
68.025 20.929733
68.030 20.914091
68.035 20.677511
68.040 20.459412
68.045 20.067657
68.050 20.01087
68.055 20.032438
68.060 20.755693
68.065 20.734589
68.070 21.244783
68.075 21.123463
68.080 21.126949
68.085 21.022957
68.090 21.261419
68.095 20.578632
68.100 20.423027
68.105 20.534271
68.110 20.935612
68.115 21.680113
68.120 21.563808
68.125 21.817217
68.130 22.631824
68.135 22.876751
68.140 22.783535
68.145 22.86458
68.150 22.385735
68.155 22.619942
68.160 22.270611
68.165 21.902477
68.170 21.346899
68.175 20.322016
68.180 19.935551
68.185 20.134365
68.190 20.023815
68.195 19.665104
68.200 19.576628
68.205 19.832998
68.210 20.206587
68.215 20.536272
68.220 20.6373
68.225 20.811579
68.230 21.180851
68.235 21.643429
68.240 21.787634
68.245 21.950123
68.250 22.520859
68.255 22.639553
68.260 22.349207
68.265 21.936386
68.270 21.461254
68.275 21.481855
68.280 21.205666
68.285 20.605343
68.290 20.249557
68.295 20.065243
68.300 20.317055
68.305 20.656382
68.310 21.263393
68.315 21.799965
68.320 21.977205
68.325 22.367126
68.330 22.987925
68.335 23.019083
68.340 23.303101
68.345 23.306746
68.350 23.08013
68.355 23.282631
68.360 22.800674
68.365 22.545235
68.370 22.722944
68.375 23.245827
68.380 23.88793
68.385 24.591787
68.390 24.634901
68.395 25.680862
68.400 25.885952
68.405 26.03348
68.410 25.719364
68.415 25.270998
68.420 24.53944
68.425 24.13196
68.430 23.931231
68.435 24.433453
68.440 24.642426
68.445 24.555449
68.450 25.658094
68.455 26.623384
68.460 26.845888
68.465 26.597555
68.470 26.449804
68.475 26.597668
68.480 26.569794
68.485 26.638935
68.490 26.891142
68.495 27.889969
68.500 28.773886
68.505 28.582113
68.510 28.692041
68.515 28.598984
68.520 28.046436
68.525 28.081575
68.530 27.727463
68.535 28.074484
68.540 27.994915
68.545 27.863136
68.550 27.670532
68.555 27.530544
68.560 27.505369
68.565 27.257326
68.570 27.436451
68.575 28.057808
68.580 28.039022
68.585 28.116634
68.590 29.178787
68.595 30.103195
68.600 30.308283
68.605 30.670712
68.610 30.955429
68.615 31.435347
68.620 31.975204
68.625 31.883253
68.630 31.104031
68.635 31.625998
68.640 30.832973
68.645 30.702312
68.650 30.574158
68.655 30.554928
68.660 30.155317
68.665 29.977789
68.670 29.755905
68.675 29.584097
68.680 29.848698
68.685 30.339655
68.690 29.934755
68.695 30.776546
68.700 31.669792
68.705 32.042892
68.710 32.082661
68.715 31.482986
68.720 31.010445
68.725 31.509531
68.730 30.732986
68.735 29.876259
68.740 29.79056
68.745 29.753935
68.750 30.332172
68.755 30.776968
68.760 30.187323
68.765 30.359837
68.770 30.635836
68.775 30.538321
68.780 30.309269
68.785 29.814898
68.790 29.373468
68.795 29.406462
68.800 29.661638
68.805 30.117714
68.810 31.014191
68.815 31.540321
68.820 31.693712
68.825 31.716541
68.830 31.840618
68.835 31.965961
68.840 31.89715
68.845 31.165606
68.850 30.822193
68.855 31.487226
68.860 31.846928
68.865 33.479874
68.870 33.419022
68.875 33.136768
68.880 33.583092
68.885 33.834579
68.890 33.714794
68.895 33.689201
68.900 33.321602
68.905 33.905663
68.910 34.205391
68.915 34.364838
68.920 35.001305
68.925 35.314503
68.930 35.219547
68.935 34.285271
68.940 33.881149
68.945 33.537159
68.950 33.633793
68.955 32.68568
68.960 32.878868
68.965 33.131432
68.970 34.06786
68.975 34.094593
68.980 33.750393
68.985 34.004498
68.990 34.79126
68.995 34.323582
69.000 33.092972
69.005 32.709843
69.010 32.490799
69.015 32.449524
69.020 31.716185
69.025 30.985039
69.030 30.97266
69.035 31.618803
69.040 31.661045
69.045 32.021629
69.050 31.768314
69.055 31.949348
69.060 32.268696
69.065 32.025726
69.070 32.189354
69.075 31.502567
69.080 31.021772
69.085 31.067236
69.090 30.46673
69.095 29.554655
69.100 30.072163
69.105 29.770071
69.110 29.990765
69.115 29.958668
69.120 29.519966
69.125 29.89394
69.130 30.272005
69.135 29.812901
69.140 29.213871
69.145 29.127415
69.150 29.667976
69.155 30.006418
69.160 30.032721
69.165 29.871927
69.170 30.169563
69.175 29.860527
69.180 29.443226
69.185 29.431314
69.190 28.998943
69.195 28.906534
69.200 28.530846
69.205 28.435732
69.210 28.936663
69.215 29.040937
69.220 29.448734
69.225 30.340153
69.230 29.980904
69.235 30.071268
69.240 29.897959
69.245 29.648981
69.250 29.006086
69.255 28.794264
69.260 28.091904
69.265 28.490849
69.270 28.578644
69.275 28.01067
69.280 27.459906
69.285 27.658308
69.290 27.278593
69.295 27.644806
69.300 27.18243
69.305 26.76516
69.310 27.12302
69.315 26.911549
69.320 26.468445
69.325 26.246645
69.330 26.088612
69.335 25.958698
69.340 26.418024
69.345 26.746099
69.350 26.802313
69.355 26.518473
69.360 25.862381
69.365 25.613913
69.370 25.107985
69.375 24.664927
69.380 24.126966
69.385 23.912312
69.390 24.597462
69.395 24.779707
69.400 24.455267
69.405 23.92782
69.410 23.893896
69.415 24.347569
69.420 24.337696
69.425 24.250582
69.430 24.170303
69.435 24.879646
69.440 25.372826
69.445 25.611843
69.450 24.726189
69.455 24.2213
69.460 23.181976
69.465 22.964989
69.470 22.33815
69.475 21.663343
69.480 21.020884
69.485 21.164124
69.490 21.285912
69.495 21.871107
69.500 22.22014
69.505 22.866501
69.510 23.353807
69.515 23.926741
69.520 24.607843
69.525 24.703697
69.530 24.957052
69.535 24.217466
69.540 23.516109
69.545 23.682713
69.550 23.607246
69.555 22.903685
69.560 22.749458
69.565 22.593756
69.570 22.972807
69.575 23.502581
69.580 22.857681
69.585 22.920282
69.590 23.46299
69.595 23.18318
69.600 22.842319
69.605 22.985699
69.610 23.280249
69.615 23.446215
69.620 22.626549
69.625 22.510561
69.630 22.921152
69.635 23.402201
69.640 23.440308
69.645 22.878572
69.650 22.644087
69.655 23.218765
69.660 23.038305
69.665 22.778656
69.670 22.464344
69.675 21.804737
69.680 21.574726
69.685 21.556234
69.690 21.931065
69.695 22.952755
69.700 23.142458
69.705 22.820742
69.710 23.113239
69.715 22.969725
69.720 23.282486
69.725 22.735962
69.730 21.893299
69.735 21.54237
69.740 21.834375
69.745 22.381733
69.750 22.338461
69.755 21.99814
69.760 21.815672
69.765 21.507608
69.770 21.720167
69.775 21.223055
69.780 20.790913
69.785 21.42285
69.790 21.091196
69.795 20.820932
69.800 21.062107
69.805 21.137756
69.810 21.089546
69.815 21.479017
69.820 20.907467
69.825 21.26935
69.830 21.517494
69.835 21.869007
69.840 22.144344
69.845 22.112223
69.850 21.153078
69.855 20.817894
69.860 20.019644
69.865 19.414644
69.870 18.503437
69.875 18.441339
69.880 18.808289
69.885 18.997829
69.890 19.018528
69.895 19.639093
69.900 19.856873
69.905 19.510216
69.910 18.808939
69.915 18.310507
69.920 18.322849
69.925 18.939457
69.930 18.653362
69.935 19.011751
69.940 19.3274
69.945 19.366795
69.950 19.612335
69.955 19.531466
69.960 19.560551
69.965 19.817703
69.970 20.067135
69.975 20.69014
69.980 20.952101
69.985 21.309927
69.990 21.682182
69.995 21.524885
70.000 21.171059
70.005 20.799784
70.010 20.452099
70.015 20.534737
70.020 20.244793
70.025 20.027472
70.030 19.566975
70.035 20.146267
70.040 19.939939
70.045 20.021793
70.050 19.729248
70.055 19.463919
70.060 19.304165
70.065 19.665218
70.070 19.49758
70.075 19.871498
70.080 19.677214
70.085 19.625957
70.090 20.110289
70.095 19.865408
70.100 20.084215
70.105 19.872263
70.110 19.949423
70.115 19.820433
70.120 19.300385
70.125 18.724138
70.130 18.446098
70.135 18.168476
70.140 18.548199
70.145 19.053757
70.150 19.100649
70.155 19.710945
70.160 20.069426
70.165 20.76659
70.170 20.00128
70.175 19.724821
70.180 19.461876
70.185 19.650963
70.190 19.341148
70.195 19.275309
70.200 19.273447
70.205 19.160162
70.210 18.46805
70.215 18.669321
70.220 18.828814
70.225 18.556307
70.230 17.936855
70.235 18.114923
70.240 18.50305
70.245 18.728104
70.250 18.600887
70.255 19.054646
70.260 19.513336
70.265 20.158197
70.270 20.121443
70.275 19.893372
70.280 19.513792
70.285 19.219803
70.290 18.500797
70.295 18.344435
70.300 18.405485
70.305 18.136324
70.310 18.562759
70.315 18.596167
70.320 18.741455
70.325 18.686199
70.330 18.273098
70.335 18.022137
70.340 18.565163
70.345 18.226803
70.350 18.655022
70.355 18.860277
70.360 18.988958
70.365 19.576069
70.370 20.036459
70.375 20.024179
70.380 20.442446
70.385 19.81251
70.390 19.497602
70.395 19.596518
70.400 19.562012
70.405 18.654285
70.410 18.331663
70.415 18.026596
70.420 17.792221
70.425 17.788721
70.430 17.797546
70.435 17.577251
70.440 18.056902
70.445 17.281572
70.450 16.999441
70.455 17.206314
70.460 16.971153
70.465 17.038017
70.470 17.491095
70.475 17.429289
70.480 18.186272
70.485 18.470314
70.490 19.019274
70.495 19.601835
70.500 19.504175
70.505 19.319027
70.510 19.560066
70.515 19.43446
70.520 19.497438
70.525 19.357031
70.530 19.060678
70.535 18.74733
70.540 18.749323
70.545 18.392578
70.550 18.258474
70.555 18.801073
70.560 18.969614
70.565 18.806269
70.570 19.042385
70.575 19.224573
70.580 20.146885
70.585 20.229567
70.590 19.714935
70.595 19.448338
70.600 19.482685
70.605 19.454437
70.610 19.874914
70.615 19.978867
70.620 20.113529
70.625 20.042303
70.630 19.800697
70.635 20.030699
70.640 19.56163
70.645 18.40888
70.650 17.624638
70.655 17.541452
70.660 17.797096
70.665 18.08918
70.670 17.775455
70.675 17.907074
70.680 17.892067
70.685 17.850988
70.690 18.394665
70.695 18.017313
70.700 18.044464
70.705 17.567076
70.710 17.702829
70.715 17.812603
70.720 18.070646
70.725 18.142635
70.730 18.73773
70.735 18.721905
70.740 19.16538
70.745 18.750458
70.750 19.474731
70.755 19.499115
70.760 18.674425
70.765 18.658792
70.770 18.910822
70.775 18.702709
70.780 19.039524
70.785 18.31366
70.790 17.910551
70.795 17.914095
70.800 17.127007
70.805 16.917524
70.810 17.017307
70.815 16.483812
70.820 16.285059
70.825 16.410145
70.830 16.8027
70.835 17.35837
70.840 17.70351
70.845 18.264503
70.850 18.790047
70.855 19.022934
70.860 19.155092
70.865 19.235182
70.870 18.857065
70.875 18.730568
70.880 18.536131
70.885 18.371944
70.890 18.02416
70.895 17.895863
70.900 17.689178
70.905 17.645638
70.910 17.679018
70.915 17.65056
70.920 17.93482
70.925 18.499222
70.930 19.018064
70.935 19.794886
70.940 19.882889
70.945 20.297281
70.950 20.159216
70.955 20.158363
70.960 19.664221
70.965 18.779978
70.970 18.722811
70.975 18.825336
70.980 18.335375
70.985 18.407019
70.990 18.203369
70.995 18.051752
71.000 18.066772
71.005 17.868753
71.010 17.295952
71.015 17.394697
71.020 18.115534
71.025 18.942348
71.030 19.430809
71.035 19.202898
71.040 19.607737
71.045 19.702301
71.050 19.545633
71.055 18.833977
71.060 18.589676
71.065 18.5578
71.070 18.285582
71.075 18.387508
71.080 18.972376
71.085 19.353209
71.090 19.131618
71.095 18.328848
71.100 17.832415
71.105 18.054577
71.110 17.839153
71.115 17.100849
71.120 17.166033
71.125 18.025297
71.130 19.238232
71.135 19.694324
71.140 19.479736
71.145 19.881472
71.150 20.225069
71.155 19.840931
71.160 18.706572
71.165 18.374718
71.170 18.361753
71.175 18.355185
71.180 18.122667
71.185 17.46797
71.190 17.892828
71.195 18.86487
71.200 19.213783
71.205 18.603395
71.210 18.823915
71.215 18.990202
71.220 19.697899
71.225 19.1066
71.230 18.477032
71.235 18.653475
71.240 19.550495
71.245 19.654945
71.250 19.779467
71.255 19.42104
71.260 19.778917
71.265 20.729645
71.270 20.564259
71.275 20.517986
71.280 20.508236
71.285 20.684917
71.290 20.492676
71.295 19.791958
71.300 19.101963
71.305 18.642605
71.310 18.86544
71.315 18.786016
71.320 18.655653
71.325 19.262634
71.330 19.350485
71.335 18.887068
71.340 18.825665
71.345 18.5509
71.350 19.03215
71.355 19.093208
71.360 18.944447
71.365 19.406614
71.370 19.822811
71.375 20.082844
71.380 19.8606
71.385 19.548687
71.390 19.352297
71.395 19.549725
71.400 19.736788
71.405 20.147551
71.410 20.5161
71.415 20.52928
71.420 20.52425
71.425 19.962786
71.430 20.682444
71.435 21.162537
71.440 21.027491
71.445 20.110542
71.450 19.958313
71.455 20.302011
71.460 20.537886
71.465 18.917175
71.470 18.749762
71.475 19.001232
71.480 19.155718
71.485 19.489267
71.490 19.171206
71.495 19.526459
71.500 19.492397
71.505 18.885174
71.510 18.907619
71.515 19.168205
71.520 19.416803
71.525 19.869038
71.530 19.928392
71.535 20.293627
71.540 20.334391
71.545 20.315147
71.550 20.324223
71.555 19.984333
71.560 19.635536
71.565 19.605892
71.570 19.730097
71.575 19.606901
71.580 19.539373
71.585 19.366308
71.590 18.966639
71.595 19.697704
71.600 20.173462
71.605 19.98415
71.610 20.261646
71.615 20.436953
71.620 20.500099
71.625 20.341656
71.630 19.806051
71.635 19.232502
71.640 19.143972
71.645 19.288355
71.650 19.014442
71.655 18.857847
71.660 18.770603
71.665 18.508467
71.670 18.071142
71.675 17.898363
71.680 17.589252
71.685 18.112814
71.690 18.215878
71.695 18.442896
71.700 18.874569
71.705 19.170338
71.710 18.428534
71.715 17.827309
71.720 17.548122
71.725 17.56468
71.730 17.630959
71.735 16.943853
71.740 17.472267
71.745 18.150045
71.750 18.454111
71.755 18.713495
71.760 18.490915
71.765 18.431042
71.770 18.535227
71.775 18.722309
71.780 19.128847
71.785 18.874796
71.790 18.243237
71.795 18.495157
71.800 18.566875
71.805 18.4496
71.810 17.965137
71.815 17.843643
71.820 18.149656
71.825 18.033066
71.830 17.575968
71.835 17.591892
71.840 17.409128
71.845 18.207581
71.850 18.536837
71.855 18.237343
71.860 18.329998
71.865 18.670908
71.870 18.383364
71.875 18.313189
71.880 17.258348
71.885 16.659563
71.890 17.245657
71.895 17.34374
71.900 17.111872
71.905 17.711889
71.910 18.14782
71.915 18.8542
71.920 19.034838
71.925 19.197702
71.930 19.456541
71.935 20.333944
71.940 20.011761
71.945 19.740007
71.950 19.116365
71.955 18.757641
71.960 18.283794
71.965 18.251265
71.970 17.732691
71.975 17.617119
71.980 17.621752
71.985 17.975786
71.990 18.03429
71.995 18.071236
72.000 17.658861
72.005 17.617342
72.010 17.892035
72.015 17.857162
72.020 18.367903
72.025 18.816004
72.030 18.96184
72.035 18.699791
72.040 18.928864
72.045 18.910652
72.050 18.979622
72.055 18.627317
72.060 18.436863
72.065 18.486673
72.070 18.59374
72.075 18.894506
72.080 19.132359
72.085 18.952606
72.090 18.701088
72.095 19.012093
72.100 19.056913
72.105 19.199312
72.110 18.521133
72.115 18.347012
72.120 17.781235
72.125 18.208485
72.130 18.274584
72.135 18.424381
72.140 18.306463
72.145 18.780695
72.150 18.957369
72.155 19.158939
72.160 18.951929
72.165 18.805866
72.170 19.527262
72.175 20.094147
72.180 19.957294
72.185 19.920982
72.190 19.831173
72.195 19.859528
72.200 19.781023
72.205 19.291994
72.210 18.937574
72.215 18.624756
72.220 19.256453
72.225 19.369703
72.230 19.605089
72.235 19.13373
72.240 18.847832
72.245 19.022219
72.250 18.984259
72.255 18.53933
72.260 18.456606
72.265 17.96159
72.270 18.238522
72.275 17.895266
72.280 17.662836
72.285 18.22883
72.290 18.445921
72.295 18.218737
72.300 18.126692
72.305 18.256907
72.310 18.288895
72.315 18.254034
72.320 17.766047
72.325 17.757643
72.330 17.558399
72.335 17.955942
72.340 18.116655
72.345 18.366796
72.350 18.526768
72.355 17.908747
72.360 17.814672
72.365 17.772554
72.370 17.495363
72.375 17.428759
72.380 16.880026
72.385 16.564499
72.390 17.175215
72.395 17.245117
72.400 17.382326
72.405 17.605822
72.410 17.601267
72.415 18.495203
72.420 18.847231
72.425 18.67597
72.430 18.528269
72.435 18.327936
72.440 18.021416
72.445 17.923706
72.450 17.567532
72.455 17.403419
72.460 17.046888
72.465 17.082033
72.470 17.077034
72.475 17.279461
72.480 17.556168
72.485 17.853298
72.490 17.823652
72.495 17.916893
72.500 18.326834
72.505 18.361149
72.510 18.202452
72.515 18.221758
72.520 18.339338
72.525 17.911694
72.530 17.915642
72.535 17.897026
72.540 17.950129
72.545 17.844919
72.550 17.633429
72.555 17.993149
72.560 18.20281
72.565 18.114326
72.570 17.882778
72.575 17.933968
72.580 18.674978
72.585 18.745226
72.590 18.783131
72.595 18.914505
72.600 19.184261
72.605 19.258183
72.610 19.400852
72.615 18.491957
72.620 17.800573
72.625 17.318651
72.630 17.536287
72.635 17.050652
72.640 16.74069
72.645 16.552902
72.650 16.588875
72.655 16.630402
72.660 17.326984
72.665 17.198307
72.670 17.283644
72.675 16.766842
72.680 16.765503
72.685 17.161041
72.690 17.818308
72.695 17.687658
72.700 17.736851
72.705 17.841133
72.710 18.146595
72.715 17.956047
72.720 17.590324
72.725 16.577822
72.730 16.565737
72.735 16.754498
72.740 17.247206
72.745 16.931711
72.750 16.920696
72.755 17.259453
72.760 17.497944
72.765 17.431459
72.770 17.176872
72.775 16.895109
72.780 16.703882
72.785 17.029667
72.790 17.252256
72.795 17.279779
72.800 17.547314
72.805 18.034121
72.810 17.960081
72.815 18.092663
72.820 17.553625
72.825 17.361032
72.830 17.232609
72.835 17.133089
72.840 16.94425
72.845 17.372568
72.850 17.719088
72.855 17.800003
72.860 17.768427
72.865 17.693146
72.870 17.115473
72.875 17.360846
72.880 17.272001
72.885 16.860716
72.890 16.76893
72.895 17.148155
72.900 17.16803
72.905 16.662254
72.910 16.210911
72.915 16.059124
72.920 16.102329
72.925 16.166952
72.930 15.857827
72.935 16.128345
72.940 16.837267
72.945 16.98485
72.950 16.627108
72.955 16.873943
72.960 16.475626
72.965 16.329994
72.970 16.336473
72.975 16.309175
72.980 16.86805
72.985 16.964403
72.990 17.072701
72.995 17.671963
73.000 17.788738
