!@!!GADDS PLOTSO FILE: Chi integration type
!@!!Title/SampleName: map-3c
!@!!Comment: ?
!@!!User: Bruker Instrument Administrator
!@!!Site: University of Illinois Chicago
!@!!Frame: map-3c_01_000.gfrm
!@!!Wavelengths    1.54184   1.54056   1.54439
!@!!Frame angles: 2Theta: 63.000 Omega: 50.000 Phi: 0.000 Chi: 90.000
!@!!Integration range: 2Theta: 53.000 to 73.000  Gamma: -105.000 to -75.000
!@!!Integration method: bin normalized
!@!N
!@!SS
!@!M
!@!L 0.0 0.0 0.0 0.0
!@!XDegrees
!@!YCounts
53.000 6.694209
53.005 6.891792
53.010 6.686866
53.015 7.200519
53.020 7.123741
53.025 6.719773
53.030 6.551634
53.035 6.220745
53.040 6.031954
53.045 5.937862
53.050 5.688094
53.055 5.69722
53.060 5.752331
53.065 5.426371
53.070 5.383099
53.075 5.420451
53.080 5.367995
53.085 5.327661
53.090 5.815444
53.095 6.645086
53.100 7.123673
53.105 7.204848
53.110 7.448858
53.115 8.188815
53.120 7.988891
53.125 7.405131
53.130 6.997006
53.135 6.572856
53.140 6.763511
53.145 6.375811
53.150 6.018833
53.155 5.789347
53.160 5.695227
53.165 5.454241
53.170 5.4562
53.175 5.508662
53.180 5.790602
53.185 5.950455
53.190 6.457038
53.195 6.579308
53.200 7.048129
53.205 7.145236
53.210 7.048979
53.215 7.457445
53.220 7.540332
53.225 7.563377
53.230 7.516585
53.235 7.603593
53.240 7.739067
53.245 7.827158
53.250 7.073047
53.255 6.831081
53.260 6.973365
53.265 6.978863
53.270 6.795948
53.275 6.935532
53.280 6.791575
53.285 7.071767
53.290 7.286705
53.295 6.923087
53.300 6.742322
53.305 6.424034
53.310 5.991617
53.315 6.260606
53.320 6.028923
53.325 5.910134
53.330 6.082157
53.335 6.454236
53.340 6.780985
53.345 7.184959
53.350 7.493705
53.355 8.382735
53.360 8.557256
53.365 9.077869
53.370 9.166551
53.375 9.425307
53.380 9.141398
53.385 8.390031
53.390 7.899665
53.395 7.800911
53.400 7.329325
53.405 7.292322
53.410 7.510659
53.415 7.647485
53.420 7.489813
53.425 7.549662
53.430 7.36322
53.435 7.514751
53.440 7.112427
53.445 6.853083
53.450 6.98627
53.455 7.300458
53.460 7.703101
53.465 8.20368
53.470 8.291651
53.475 8.296839
53.480 8.404788
53.485 8.068624
53.490 7.860805
53.495 7.773383
53.500 7.297176
53.505 7.042121
53.510 7.013023
53.515 7.112175
53.520 7.570457
53.525 7.353477
53.530 6.787967
53.535 6.697346
53.540 6.672475
53.545 6.773883
53.550 6.849301
53.555 6.473693
53.560 6.884441
53.565 7.785857
53.570 8.350462
53.575 8.274722
53.580 7.976343
53.585 7.920546
53.590 8.13208
53.595 7.761663
53.600 7.110836
53.605 6.985651
53.610 7.245666
53.615 7.664048
53.620 7.67783
53.625 7.827976
53.630 8.065758
53.635 8.148866
53.640 8.085214
53.645 7.775462
53.650 7.761883
53.655 7.595363
53.660 7.755735
53.665 7.957531
53.670 7.951354
53.675 7.903681
53.680 7.816493
53.685 7.697346
53.690 7.788166
53.695 7.467305
53.700 7.512447
53.705 7.574361
53.710 7.299077
53.715 7.582398
53.720 7.444104
53.725 7.187077
53.730 7.094131
53.735 6.800126
53.740 6.834697
53.745 7.02749
53.750 7.039513
53.755 7.03962
53.760 7.263431
53.765 7.541974
53.770 8.069313
53.775 8.17513
53.780 8.074886
53.785 7.852698
53.790 7.989552
53.795 7.973182
53.800 7.921905
53.805 7.883144
53.810 7.950732
53.815 7.718135
53.820 7.866279
53.825 7.867606
53.830 7.831946
53.835 7.793794
53.840 7.581585
53.845 7.804452
53.850 7.994958
53.855 7.829999
53.860 8.090117
53.865 7.866847
53.870 7.648154
53.875 7.478843
53.880 7.269753
53.885 7.335717
53.890 7.183782
53.895 7.523226
53.900 7.810692
53.905 8.194563
53.910 8.491566
53.915 8.711303
53.920 9.160447
53.925 9.307969
53.930 9.157383
53.935 8.569399
53.940 8.338975
53.945 8.109407
53.950 7.743279
53.955 7.680855
53.960 7.316637
53.965 7.530297
53.970 7.626007
53.975 7.742807
53.980 7.870885
53.985 7.802533
53.990 7.802133
53.995 7.669589
54.000 7.571228
54.005 7.480052
54.010 7.205969
54.015 7.423959
54.020 7.45547
54.025 7.641122
54.030 8.040214
54.035 8.248817
54.040 8.58264
54.045 8.595895
54.050 8.594593
54.055 8.421704
54.060 8.199206
54.065 8.071686
54.070 8.0162
54.075 8.008996
54.080 8.129931
54.085 8.480662
54.090 8.634452
54.095 8.715349
54.100 8.62639
54.105 8.683635
54.110 8.22509
54.115 8.220467
54.120 8.129833
54.125 8.472909
54.130 8.418691
54.135 7.936885
54.140 8.132285
54.145 8.552989
54.150 8.32831
54.155 8.196841
54.160 7.697229
54.165 7.549167
54.170 8.087498
54.175 8.105879
54.180 7.985479
54.185 8.268317
54.190 8.422984
54.195 8.51748
54.200 9.04567
54.205 8.491604
54.210 8.396717
54.215 8.243966
54.220 7.74393
54.225 7.769704
54.230 8.074621
54.235 8.319341
54.240 8.237723
54.245 8.397795
54.250 8.651887
54.255 9.083165
54.260 8.825602
54.265 8.660169
54.270 8.679155
54.275 8.930213
54.280 8.808994
54.285 8.80261
54.290 8.936097
54.295 8.794524
54.300 8.422195
54.305 8.64615
54.310 8.828507
54.315 9.11789
54.320 9.160096
54.325 9.123258
54.330 9.166879
54.335 9.37284
54.340 9.028499
54.345 8.778773
54.350 8.492103
54.355 8.484553
54.360 8.553139
54.365 8.882095
54.370 9.228755
54.375 9.202765
54.380 9.342552
54.385 9.318274
54.390 9.0336
54.395 8.646879
54.400 8.378529
54.405 7.631711
54.410 7.977751
54.415 7.878204
54.420 7.823171
54.425 8.142119
54.430 8.195929
54.435 8.161828
54.440 8.355399
54.445 8.163527
54.450 8.159176
54.455 8.120331
54.460 8.015948
54.465 8.237287
54.470 8.241415
54.475 8.46804
54.480 8.669227
54.485 8.582711
54.490 8.516468
54.495 8.438549
54.500 8.312281
54.505 8.74472
54.510 8.830064
54.515 8.581224
54.520 8.67678
54.525 8.860522
54.530 8.823789
54.535 8.699803
54.540 8.264625
54.545 8.447535
54.550 8.602494
54.555 8.420381
54.560 8.38329
54.565 8.354778
54.570 8.177769
54.575 8.482528
54.580 8.456771
54.585 8.417878
54.590 8.356368
54.595 8.433188
54.600 8.40333
54.605 8.500975
54.610 8.315373
54.615 8.192292
54.620 8.059267
54.625 7.915859
54.630 7.894982
54.635 8.016381
54.640 8.035835
54.645 7.505666
54.650 7.75812
54.655 7.980522
54.660 8.115233
54.665 7.894538
54.670 7.816981
54.675 7.985158
54.680 8.035649
54.685 7.416452
54.690 7.448483
54.695 7.42175
54.700 7.6714
54.705 7.73521
54.710 7.28489
54.715 7.303568
54.720 7.611809
54.725 7.473269
54.730 7.56355
54.735 7.704389
54.740 8.005129
54.745 8.062304
54.750 8.33019
54.755 8.562467
54.760 8.588892
54.765 8.656718
54.770 8.586437
54.775 8.514002
54.780 8.888824
54.785 8.957201
54.790 9.079447
54.795 9.366742
54.800 9.176411
54.805 9.099546
54.810 9.129917
54.815 9.061152
54.820 8.674158
54.825 8.480178
54.830 8.3112
54.835 8.899392
54.840 9.137312
54.845 9.409506
54.850 9.432641
54.855 9.945657
54.860 10.246112
54.865 10.313583
54.870 9.694228
54.875 9.381042
54.880 8.764338
54.885 8.847621
54.890 8.781307
54.895 8.829322
54.900 8.568623
54.905 8.65354
54.910 9.1432
54.915 9.585316
54.920 9.530692
54.925 9.362573
54.930 9.424109
54.935 9.44988
54.940 9.491134
54.945 9.229629
54.950 9.025896
54.955 8.951538
54.960 8.828012
54.965 8.433678
54.970 8.518994
54.975 8.447827
54.980 7.951868
54.985 7.999251
54.990 7.726973
54.995 8.060022
55.000 8.664347
55.005 8.824183
55.010 8.846576
55.015 8.972795
55.020 9.349146
55.025 9.887012
55.030 9.306744
55.035 8.847189
55.040 8.54515
55.045 8.692132
55.050 9.379277
55.055 9.491561
55.060 9.203623
55.065 9.509459
55.070 9.887531
55.075 10.490355
55.080 10.513761
55.085 9.873507
55.090 9.685797
55.095 9.605976
55.100 9.757645
55.105 9.369016
55.110 9.235103
55.115 9.201279
55.120 9.173554
55.125 9.070051
55.130 10.019241
55.135 10.209329
55.140 10.279374
55.145 9.950838
55.150 9.667022
55.155 9.681755
55.160 9.632565
55.165 8.863562
55.170 8.748313
55.175 8.648573
55.180 8.710166
55.185 8.834889
55.190 8.712357
55.195 8.582562
55.200 8.227306
55.205 7.906897
55.210 8.025006
55.215 8.201883
55.220 9.334885
55.225 9.556262
55.230 9.825475
55.235 10.013984
55.240 10.219329
55.245 10.410254
55.250 9.78143
55.255 9.239614
55.260 9.563995
55.265 9.693597
55.270 9.896959
55.275 9.468516
55.280 9.430442
55.285 9.878875
55.290 9.510512
55.295 9.25347
55.300 8.930638
55.305 8.829137
55.310 9.248479
55.315 9.177883
55.320 9.139183
55.325 8.818772
55.330 8.523603
55.335 8.764972
55.340 8.651073
55.345 8.758202
55.350 8.787749
55.355 8.574348
55.360 9.121976
55.365 9.376972
55.370 9.585326
55.375 9.813303
55.380 9.897647
55.385 10.200503
55.390 10.567089
55.395 10.146621
55.400 9.973463
55.405 9.797087
55.410 9.552606
55.415 9.067334
55.420 8.536057
55.425 8.763332
55.430 8.802451
55.435 8.637316
55.440 9.133093
55.445 9.224212
55.450 9.406822
55.455 9.669769
55.460 9.209979
55.465 9.806554
55.470 9.76146
55.475 9.664124
55.480 9.634862
55.485 9.93191
55.490 10.070059
55.495 9.673551
55.500 9.682294
55.505 9.95643
55.510 10.139251
55.515 10.349325
55.520 10.091888
55.525 10.212127
55.530 10.397469
55.535 10.006538
55.540 9.769889
55.545 9.380539
55.550 9.459764
55.555 9.799125
55.560 9.284182
55.565 9.379032
55.570 9.359682
55.575 9.567814
55.580 9.778007
55.585 9.877688
55.590 9.815312
55.595 10.284553
55.600 10.249965
55.605 9.856175
55.610 9.525152
55.615 9.781832
55.620 9.963247
55.625 10.086688
55.630 9.7064
55.635 9.746333
55.640 10.422174
55.645 10.423728
55.650 10.217575
55.655 9.678086
55.660 9.690495
55.665 10.377926
55.670 10.479938
55.675 10.234505
55.680 10.254162
55.685 10.478299
55.690 11.163461
55.695 11.03574
55.700 10.185089
55.705 9.82768
55.710 9.7705
55.715 9.909362
55.720 9.474393
55.725 8.753877
55.730 8.777972
55.735 9.185926
55.740 9.483741
55.745 9.412549
55.750 9.018272
55.755 8.969753
55.760 9.260557
55.765 9.304983
55.770 9.111265
55.775 9.184197
55.780 9.304475
55.785 9.464272
55.790 9.118169
55.795 8.971566
55.800 8.908091
55.805 8.849848
55.810 9.166409
55.815 9.56971
55.820 9.985391
55.825 10.304673
55.830 10.382479
55.835 11.220537
55.840 11.386775
55.845 10.839899
55.850 10.213931
55.855 9.987121
55.860 10.045323
55.865 9.861696
55.870 9.216795
55.875 9.466371
55.880 9.511254
55.885 10.178359
55.890 10.338472
55.895 10.730356
55.900 10.998302
55.905 10.791232
55.910 10.497316
55.915 10.471498
55.920 10.46567
55.925 10.179974
55.930 9.401873
55.935 9.47968
55.940 9.711318
55.945 10.215062
55.950 10.768275
55.955 10.875381
55.960 11.221403
55.965 11.121216
55.970 10.514729
55.975 10.566219
55.980 10.225037
55.985 9.457459
55.990 9.137918
55.995 9.170352
56.000 9.909857
56.005 10.419182
56.010 9.943343
56.015 9.79098
56.020 9.774617
56.025 9.875726
56.030 9.907139
56.035 9.879993
56.040 9.825691
56.045 9.904869
56.050 10.315104
56.055 10.261963
56.060 10.142115
56.065 10.117571
56.070 10.292169
56.075 10.64141
56.080 10.647491
56.085 10.337646
56.090 10.261195
56.095 10.018854
56.100 10.01883
56.105 9.778693
56.110 9.649345
56.115 9.407569
56.120 9.751581
56.125 10.288833
56.130 10.536419
56.135 10.3596
56.140 10.219022
56.145 10.334834
56.150 10.95405
56.155 10.44543
56.160 10.280541
56.165 10.3729
56.170 10.848236
56.175 10.638568
56.180 10.297127
56.185 9.930948
56.190 10.040845
56.195 10.105572
56.200 9.538358
56.205 9.439689
56.210 9.921234
56.215 10.40868
56.220 10.576207
56.225 10.673553
56.230 11.35063
56.235 11.915465
56.240 11.789776
56.245 11.685773
56.250 11.226995
56.255 11.151685
56.260 11.240401
56.265 10.222749
56.270 9.738789
56.275 9.496244
56.280 9.201245
56.285 9.364854
56.290 9.615857
56.295 9.574489
56.300 9.971376
56.305 9.834028
56.310 10.071721
56.315 10.914012
56.320 11.053754
56.325 10.835387
56.330 10.961588
56.335 10.923297
56.340 11.149939
56.345 10.767791
56.350 10.965488
56.355 11.205406
56.360 11.193726
56.365 10.911472
56.370 10.958633
56.375 11.19624
56.380 11.382403
56.385 10.819566
56.390 10.774381
56.395 10.929214
56.400 10.91297
56.405 10.835237
56.410 11.061646
56.415 10.768996
56.420 10.829131
56.425 10.815426
56.430 11.041142
56.435 11.253625
56.440 11.369255
56.445 11.230777
56.450 11.72188
56.455 11.673513
56.460 11.420928
56.465 11.336786
56.470 11.271245
56.475 11.056376
56.480 11.402089
56.485 10.985188
56.490 10.534612
56.495 10.388356
56.500 9.93681
56.505 10.15324
56.510 10.075485
56.515 9.824161
56.520 10.112216
56.525 10.797718
56.530 11.045898
56.535 11.302563
56.540 11.068623
56.545 10.981025
56.550 11.640297
56.555 11.62191
56.560 11.711897
56.565 11.527364
56.570 11.342833
56.575 11.261876
56.580 11.300301
56.585 10.349579
56.590 10.251125
56.595 10.143826
56.600 10.84435
56.605 11.147609
56.610 11.065943
56.615 11.205095
56.620 11.208076
56.625 10.475198
56.630 10.052291
56.635 9.526042
56.640 9.568611
56.645 9.847477
56.650 9.529759
56.655 9.878749
56.660 10.56325
56.665 11.384985
56.670 11.584582
56.675 11.515052
56.680 11.388272
56.685 11.73609
56.690 11.87428
56.695 11.606836
56.700 10.905003
56.705 11.030996
56.710 11.026761
56.715 10.473253
56.720 10.333323
56.725 10.755287
56.730 10.759892
56.735 11.263281
56.740 11.467132
56.745 11.483934
56.750 12.505003
56.755 12.883534
56.760 12.674792
56.765 12.913944
56.770 12.436584
56.775 12.246847
56.780 12.374841
56.785 12.500705
56.790 12.616088
56.795 12.619437
56.800 12.508388
56.805 12.730094
56.810 12.392543
56.815 12.388058
56.820 11.628521
56.825 11.248976
56.830 11.424975
56.835 11.727654
56.840 11.391878
56.845 11.460964
56.850 11.768543
56.855 11.333122
56.860 11.280477
56.865 11.121819
56.870 10.967469
56.875 10.944605
56.880 10.96209
56.885 10.990239
56.890 11.835809
56.895 12.032972
56.900 11.519565
56.905 11.275286
56.910 11.564614
56.915 11.744143
56.920 11.831139
56.925 11.656956
56.930 11.908514
56.935 12.54579
56.940 12.859661
56.945 12.894104
56.950 12.471424
56.955 12.216899
56.960 12.192778
56.965 12.301478
56.970 11.886606
56.975 11.599421
56.980 11.630754
56.985 11.952278
56.990 12.284829
56.995 12.368457
57.000 12.490516
57.005 13.14703
57.010 13.774427
57.015 13.966822
57.020 14.167527
57.025 14.116857
57.030 13.953152
57.035 13.666068
57.040 13.715258
57.045 13.214874
57.050 12.996887
57.055 12.369421
57.060 12.16716
57.065 11.818402
57.070 11.644907
57.075 11.093402
57.080 10.959779
57.085 10.575989
57.090 10.490028
57.095 10.294949
57.100 10.599289
57.105 10.795549
57.110 11.381251
57.115 11.616961
57.120 11.549269
57.125 11.233695
57.130 11.12896
57.135 11.308555
57.140 11.276361
57.145 11.4253
57.150 11.204443
57.155 11.411075
57.160 12.01601
57.165 12.511812
57.170 12.200162
57.175 12.128
57.180 12.056354
57.185 12.87427
57.190 13.150885
57.195 12.840535
57.200 12.919927
57.205 13.18034
57.210 12.920137
57.215 12.310812
57.220 11.681529
57.225 11.67401
57.230 11.777138
57.235 11.214664
57.240 11.581264
57.245 11.898969
57.250 12.320681
57.255 12.792313
57.260 13.166781
57.265 12.836398
57.270 12.621716
57.275 12.512251
57.280 12.665594
57.285 12.426864
57.290 12.742221
57.295 12.36231
57.300 12.528307
57.305 12.864263
57.310 12.859033
57.315 13.182905
57.320 13.405216
57.325 12.849166
57.330 13.126927
57.335 12.808256
57.340 12.278868
57.345 11.70943
57.350 11.106926
57.355 10.76276
57.360 10.916737
57.365 11.149333
57.370 11.589509
57.375 11.93201
57.380 12.18324
57.385 12.057095
57.390 12.148564
57.395 12.457262
57.400 12.620034
57.405 12.50802
57.410 12.25414
57.415 12.573699
57.420 12.831221
57.425 12.552246
57.430 12.025195
57.435 11.775445
57.440 11.874557
57.445 12.060834
57.450 11.289683
57.455 11.214926
57.460 10.98681
57.465 11.137296
57.470 10.574006
57.475 10.717621
57.480 10.68499
57.485 10.532727
57.490 10.678081
57.495 11.098816
57.500 11.046554
57.505 11.411448
57.510 11.333062
57.515 11.736862
57.520 12.27274
57.525 12.652422
57.530 12.438573
57.535 12.696693
57.540 12.581124
57.545 12.523103
57.550 12.661208
57.555 12.259143
57.560 11.845391
57.565 12.078173
57.570 12.147667
57.575 11.781877
57.580 11.041427
57.585 10.685848
57.590 11.234981
57.595 11.64455
57.600 11.351417
57.605 11.133359
57.610 12.036639
57.615 12.645937
57.620 12.425731
57.625 11.99181
57.630 12.511803
57.635 12.624435
57.640 12.771486
57.645 12.397866
57.650 12.726586
57.655 12.93402
57.660 12.464823
57.665 11.79675
57.670 11.731893
57.675 11.839635
57.680 11.98586
57.685 11.790109
57.690 11.968351
57.695 12.043109
57.700 11.818317
57.705 11.63243
57.710 11.54669
57.715 11.175204
57.720 11.179787
57.725 11.628537
57.730 11.926379
57.735 12.440419
57.740 12.617464
57.745 12.596026
57.750 12.797389
57.755 12.611944
57.760 12.669915
57.765 12.784941
57.770 12.454181
57.775 12.459986
57.780 12.493988
57.785 12.673525
57.790 12.255502
57.795 12.283451
57.800 12.353992
57.805 12.748199
57.810 12.954851
57.815 13.311556
57.820 13.407678
57.825 13.985703
57.830 14.033292
57.835 14.112135
57.840 13.884317
57.845 14.123217
57.850 13.880529
57.855 13.759232
57.860 13.358162
57.865 13.151561
57.870 12.902151
57.875 12.963334
57.880 12.112297
57.885 11.938941
57.890 12.066733
57.895 12.442103
57.900 12.770018
57.905 13.101966
57.910 12.844496
57.915 13.026441
57.920 13.564182
57.925 13.222075
57.930 12.746847
57.935 12.468761
57.940 12.55073
57.945 12.272196
57.950 12.234401
57.955 11.569712
57.960 12.167851
57.965 12.351595
57.970 11.649465
57.975 11.622913
57.980 12.1732
57.985 12.411993
57.990 12.53337
57.995 11.875862
58.000 12.120997
58.005 12.487988
58.010 12.531775
58.015 12.423822
58.020 11.926402
58.025 12.181236
58.030 12.261893
58.035 12.152847
58.040 12.812709
58.045 12.779475
58.050 12.959397
58.055 13.082106
58.060 13.271451
58.065 13.636202
58.070 13.491156
58.075 13.064933
58.080 12.954452
58.085 13.112528
58.090 13.085135
58.095 12.944748
58.100 12.743093
58.105 12.723546
58.110 12.716828
58.115 12.658308
58.120 12.573627
58.125 12.586625
58.130 12.665788
58.135 12.951005
58.140 13.401074
58.145 13.231996
58.150 13.148742
58.155 13.36454
58.160 13.592537
58.165 13.751893
58.170 13.901649
58.175 13.184555
58.180 12.783673
58.185 13.136288
58.190 13.388699
58.195 13.584784
58.200 13.256942
58.205 13.357335
58.210 13.821134
58.215 14.330301
58.220 14.721846
58.225 14.303672
58.230 13.98258
58.235 13.893616
58.240 13.389642
58.245 13.47646
58.250 13.323712
58.255 12.85299
58.260 12.959284
58.265 12.85619
58.270 12.904151
58.275 13.459485
58.280 13.88848
58.285 13.561935
58.290 13.757656
58.295 13.730191
58.300 14.090202
58.305 14.660569
58.310 14.144806
58.315 13.25268
58.320 13.19074
58.325 12.803582
58.330 12.428262
58.335 12.296281
58.340 11.735295
58.345 11.951751
58.350 12.524734
58.355 12.961646
58.360 13.069633
58.365 13.318336
58.370 12.8658
58.375 13.186738
58.380 13.408186
58.385 12.979531
58.390 12.772105
58.395 12.792586
58.400 12.520557
58.405 12.491646
58.410 11.862016
58.415 12.092909
58.420 12.649912
58.425 12.361901
58.430 12.396084
58.435 12.701531
58.440 13.165822
58.445 13.480374
58.450 13.507989
58.455 13.619578
58.460 13.999152
58.465 14.24871
58.470 14.664862
58.475 14.718273
58.480 15.312713
58.485 14.991845
58.490 14.546531
58.495 14.813538
58.500 14.343458
58.505 13.895793
58.510 13.354321
58.515 12.976478
58.520 13.575383
58.525 13.962604
58.530 14.021298
58.535 14.099444
58.540 13.89732
58.545 13.754352
58.550 13.255226
58.555 12.535122
58.560 12.413341
58.565 12.009966
58.570 11.916586
58.575 12.237536
58.580 12.476744
58.585 12.414594
58.590 12.979294
58.595 12.72388
58.600 12.670395
58.605 13.407113
58.610 13.308578
58.615 13.548145
58.620 13.816854
58.625 13.947573
58.630 14.402648
58.635 14.679269
58.640 14.392585
58.645 14.91338
58.650 14.954985
58.655 14.526922
58.660 14.000194
58.665 13.764386
58.670 13.914254
58.675 13.583301
58.680 13.445567
58.685 13.849845
58.690 14.119226
58.695 14.45021
58.700 14.529441
58.705 14.297889
58.710 14.286634
58.715 14.098662
58.720 14.027207
58.725 14.04861
58.730 14.032043
58.735 14.634543
58.740 14.514296
58.745 14.563293
58.750 14.446616
58.755 13.843768
58.760 13.992932
58.765 13.800475
58.770 13.135787
58.775 13.754807
58.780 14.144753
58.785 14.310457
58.790 14.254422
58.795 14.139549
58.800 13.872786
58.805 13.876858
58.810 13.472708
58.815 13.147285
58.820 12.831953
58.825 13.284469
58.830 13.066181
58.835 12.668385
58.840 12.920218
58.845 12.853528
58.850 12.992836
58.855 13.767749
58.860 13.585351
58.865 14.241571
58.870 14.930573
58.875 15.059331
58.880 15.381433
58.885 15.155049
58.890 14.294088
58.895 13.714131
58.900 13.351234
58.905 13.191176
58.910 13.08046
58.915 13.101096
58.920 13.455362
58.925 13.583694
58.930 14.170287
58.935 14.023839
58.940 13.753263
58.945 13.738774
58.950 13.601501
58.955 13.405087
58.960 14.003545
58.965 14.077835
58.970 14.136589
58.975 13.920831
58.980 14.274029
58.985 14.016068
58.990 14.161764
58.995 13.997687
59.000 14.390131
59.005 14.864572
59.010 15.675051
59.015 15.256215
59.020 15.331652
59.025 15.328256
59.030 15.335967
59.035 15.11599
59.040 15.220288
59.045 14.757016
59.050 14.709443
59.055 14.744757
59.060 14.662413
59.065 15.052034
59.070 15.323572
59.075 15.650055
59.080 15.525267
59.085 15.807533
59.090 16.380093
59.095 15.914516
59.100 15.512024
59.105 15.447284
59.110 14.759812
59.115 14.817722
59.120 14.822337
59.125 14.536893
59.130 14.910187
59.135 14.149833
59.140 13.759893
59.145 14.477624
59.150 14.123179
59.155 13.247838
59.160 13.133677
59.165 13.056894
59.170 13.802478
59.175 13.524309
59.180 13.62061
59.185 14.355768
59.190 15.073877
59.195 15.277798
59.200 14.81875
59.205 14.445668
59.210 14.554752
59.215 13.625624
59.220 13.548202
59.225 13.528184
59.230 13.02769
59.235 13.258564
59.240 13.621603
59.245 13.659162
59.250 13.947178
59.255 13.628985
59.260 13.717227
59.265 14.124367
59.270 14.613033
59.275 14.507567
59.280 14.988039
59.285 15.549362
59.290 16.069557
59.295 16.297785
59.300 16.573282
59.305 16.249113
59.310 16.26297
59.315 15.981566
59.320 15.701537
59.325 15.474348
59.330 15.286624
59.335 15.193956
59.340 15.592656
59.345 15.243718
59.350 14.986518
59.355 14.863397
59.360 15.183091
59.365 15.247937
59.370 14.884677
59.375 14.713114
59.380 15.127892
59.385 15.700374
59.390 15.76786
59.395 15.663307
59.400 15.784984
59.405 16.445583
59.410 16.664694
59.415 16.549196
59.420 16.791826
59.425 16.854731
59.430 16.969957
59.435 16.671938
59.440 16.462082
59.445 16.322653
59.450 16.414476
59.455 15.993742
59.460 16.085917
59.465 15.936932
59.470 16.078669
59.475 15.719824
59.480 15.761177
59.485 15.705539
59.490 15.737083
59.495 15.087953
59.500 15.23686
59.505 15.321748
59.510 15.646353
59.515 15.554169
59.520 15.533174
59.525 15.641882
59.530 16.284153
59.535 16.047241
59.540 16.393784
59.545 16.348886
59.550 16.636751
59.555 16.754261
59.560 16.690954
59.565 16.848083
59.570 16.636019
59.575 16.195862
59.580 16.193159
59.585 15.47955
59.590 15.279974
59.595 15.479862
59.600 15.407441
59.605 15.311721
59.610 15.560803
59.615 15.691351
59.620 16.101974
59.625 16.232557
59.630 16.389194
59.635 16.590153
59.640 17.117887
59.645 17.188435
59.650 17.254433
59.655 17.161263
59.660 17.327658
59.665 17.001698
59.670 16.280535
59.675 15.965576
59.680 15.582917
59.685 15.428543
59.690 15.318979
59.695 15.494315
59.700 16.297108
59.705 17.183439
59.710 17.436996
59.715 17.481966
59.720 17.577894
59.725 17.814606
59.730 17.475233
59.735 16.934765
59.740 16.458704
59.745 16.070017
59.750 16.122118
59.755 16.038664
59.760 16.472919
59.765 16.733986
59.770 16.677879
59.775 17.973751
59.780 18.31605
59.785 18.552845
59.790 18.411346
59.795 18.437832
59.800 18.222147
59.805 17.9858
59.810 16.857641
59.815 17.035725
59.820 17.514231
59.825 17.606081
59.830 16.979267
59.835 17.221663
59.840 17.422649
59.845 17.729023
59.850 17.806025
59.855 17.142927
59.860 17.340742
59.865 17.427813
59.870 17.34935
59.875 17.479799
59.880 17.754068
59.885 17.308393
59.890 17.785614
59.895 18.345514
59.900 18.761383
59.905 19.459871
59.910 19.372377
59.915 19.107937
59.920 19.283512
59.925 19.175539
59.930 19.094738
59.935 19.137609
59.940 18.134504
59.945 18.255423
59.950 18.71032
59.955 18.580664
59.960 18.453806
59.965 17.644495
59.970 17.958561
59.975 18.588112
59.980 18.191481
59.985 17.616512
59.990 17.541334
59.995 18.038113
60.000 18.713886
60.005 18.299685
60.010 18.46196
60.015 18.853119
60.020 19.361805
60.025 19.53406
60.030 19.686464
60.035 19.587456
60.040 19.314316
60.045 19.251289
60.050 19.526514
60.055 19.817427
60.060 19.859283
60.065 19.194956
60.070 19.107899
60.075 19.542673
60.080 19.230711
60.085 18.620628
60.090 18.518723
60.095 18.788525
60.100 19.441278
60.105 19.982695
60.110 19.578588
60.115 19.811899
60.120 20.479189
60.125 20.689404
60.130 20.211645
60.135 20.016371
60.140 19.452208
60.145 19.90547
60.150 20.186378
60.155 20.37228
60.160 19.583323
60.165 19.634962
60.170 19.17675
60.175 19.157604
60.180 19.238028
60.185 18.857441
60.190 18.743565
60.195 18.526773
60.200 18.477671
60.205 18.804071
60.210 19.086308
60.215 19.435591
60.220 19.227427
60.225 19.228563
60.230 19.903273
60.235 20.348858
60.240 20.625908
60.245 20.562477
60.250 20.770262
60.255 21.209921
60.260 20.841358
60.265 20.552601
60.270 20.131821
60.275 20.163332
60.280 20.14855
60.285 19.619665
60.290 19.596546
60.295 19.73793
60.300 19.222404
60.305 19.118324
60.310 18.547318
60.315 18.152355
60.320 18.020584
60.325 17.998137
60.330 18.81744
60.335 19.943178
60.340 20.585951
60.345 20.995979
60.350 21.334757
60.355 21.445347
60.360 21.024635
60.365 20.72035
60.370 20.607132
60.375 20.269886
60.380 20.322405
60.385 20.080517
60.390 19.667664
60.395 20.164097
60.400 19.81411
60.405 19.564541
60.410 19.298212
60.415 18.819201
60.420 18.833527
60.425 19.057581
60.430 18.765215
60.435 18.575489
60.440 18.509617
60.445 18.735607
60.450 18.930569
60.455 19.123686
60.460 18.770082
60.465 18.396595
60.470 18.812778
60.475 19.108036
60.480 19.443611
60.485 19.53817
60.490 19.356329
60.495 19.805317
60.500 19.779242
60.505 19.286369
60.510 18.988501
60.515 18.897972
60.520 19.011045
60.525 19.118908
60.530 19.421673
60.535 19.934906
60.540 20.080853
60.545 20.024527
60.550 19.520012
60.555 19.495605
60.560 18.982594
60.565 18.962545
60.570 19.086409
60.575 18.902266
60.580 19.179228
60.585 19.551928
60.590 19.487024
60.595 19.736866
60.600 19.491074
60.605 19.733906
60.610 19.894053
60.615 19.110668
60.620 18.766441
60.625 18.884129
60.630 19.025249
60.635 18.799931
60.640 18.138636
60.645 18.267141
60.650 18.123486
60.655 17.829147
60.660 17.323095
60.665 16.772444
60.670 16.325899
60.675 16.047665
60.680 15.616579
60.685 16.062262
60.690 15.736255
60.695 15.86293
60.700 16.346401
60.705 16.722275
60.710 16.697065
60.715 16.534727
60.720 16.309929
60.725 17.183186
60.730 17.120956
60.735 16.945444
60.740 17.07888
60.745 17.759058
60.750 17.980591
60.755 18.156454
60.760 17.727949
60.765 17.538166
60.770 17.743874
60.775 17.351929
60.780 16.219463
60.785 16.028105
60.790 16.151871
60.795 16.087229
60.800 16.07062
60.805 15.807856
60.810 16.11985
60.815 16.495323
60.820 16.57777
60.825 16.803192
60.830 16.893833
60.835 16.954035
60.840 16.678709
60.845 16.229586
60.850 16.488176
60.855 16.779612
60.860 16.32073
60.865 15.730997
60.870 15.958055
60.875 16.676802
60.880 16.81258
60.885 16.722872
60.890 16.231575
60.895 16.325531
60.900 16.701908
60.905 16.156368
60.910 15.344452
60.915 14.623496
60.920 14.288194
60.925 14.469174
60.930 14.807668
60.935 14.817081
60.940 14.749306
60.945 14.986506
60.950 15.587938
60.955 16.060091
60.960 16.036491
60.965 15.596169
60.970 15.848311
60.975 16.067801
60.980 16.224367
60.985 16.331203
60.990 15.879359
60.995 15.760614
61.000 16.14176
61.005 16.334372
61.010 16.261028
61.015 15.857834
61.020 15.592632
61.025 15.418033
61.030 15.103316
61.035 14.553708
61.040 14.265192
61.045 14.767235
61.050 14.806959
61.055 14.820789
61.060 15.208916
61.065 15.830042
61.070 15.987165
61.075 15.842653
61.080 15.737807
61.085 16.15062
61.090 15.873845
61.095 15.77784
61.100 15.822281
61.105 16.270401
61.110 16.563379
61.115 16.534563
61.120 16.748571
61.125 17.292568
61.130 16.889513
61.135 16.385708
61.140 16.032284
61.145 15.679502
61.150 15.466536
61.155 15.073131
61.160 14.855607
61.165 15.134506
61.170 15.028908
61.175 14.622981
61.180 14.235527
61.185 14.357054
61.190 14.473686
61.195 15.00379
61.200 15.637041
61.205 15.811746
61.210 16.202639
61.215 16.704052
61.220 16.585247
61.225 16.834209
61.230 16.045635
61.235 15.972005
61.240 15.959357
61.245 16.066355
61.250 15.779411
61.255 15.41409
61.260 15.301373
61.265 16.113255
61.270 15.745565
61.275 15.909349
61.280 16.443361
61.285 17.062031
61.290 17.080288
61.295 16.663853
61.300 15.884212
61.305 15.601134
61.310 15.43823
61.315 14.596186
61.320 14.221572
61.325 14.09491
61.330 14.640651
61.335 15.167508
61.340 15.296196
61.345 14.645071
61.350 14.787097
61.355 14.91216
61.360 15.401843
61.365 15.646867
61.370 15.608028
61.375 15.604962
61.380 16.255526
61.385 16.634386
61.390 16.523394
61.395 16.50153
61.400 15.51906
61.405 15.081491
61.410 15.179236
61.415 14.845542
61.420 14.583046
61.425 14.942365
61.430 14.923799
61.435 15.447145
61.440 16.075359
61.445 16.168642
61.450 16.403908
61.455 16.240093
61.460 15.644675
61.465 14.885096
61.470 14.535196
61.475 13.940386
61.480 13.932693
61.485 13.717428
61.490 13.573286
61.495 13.803878
61.500 14.421248
61.505 14.93614
61.510 14.839459
61.515 14.428918
61.520 14.664154
61.525 14.596204
61.530 14.692622
61.535 14.44541
61.540 14.427144
61.545 15.22542
61.550 15.707652
61.555 15.762703
61.560 16.086042
61.565 16.305147
61.570 16.596611
61.575 16.677967
61.580 16.51638
61.585 16.950132
61.590 16.662176
61.595 16.176075
61.600 15.846156
61.605 15.803019
61.610 16.114155
61.615 15.725087
61.620 15.490018
61.625 15.715017
61.630 15.94444
61.635 16.059433
61.640 15.770285
61.645 14.793272
61.650 14.377841
61.655 14.205833
61.660 14.673377
61.665 14.6111
61.670 14.652522
61.675 14.845674
61.680 15.38242
61.685 16.113243
61.690 15.609923
61.695 14.914956
61.700 15.038749
61.705 15.440184
61.710 15.841525
61.715 15.995928
61.720 16.450758
61.725 17.063896
61.730 17.924829
61.735 17.913832
61.740 17.152515
61.745 16.778711
61.750 16.686687
61.755 16.417301
61.760 16.202953
61.765 16.006237
61.770 15.995359
61.775 16.349394
61.780 16.332018
61.785 16.015959
61.790 15.208263
61.795 15.242926
61.800 14.636126
61.805 14.418217
61.810 14.029749
61.815 13.941624
61.820 13.717472
61.825 14.400819
61.830 14.490187
61.835 14.483593
61.840 14.660536
61.845 15.179561
61.850 15.163554
61.855 15.807707
61.860 16.070047
61.865 16.036114
61.870 16.295984
61.875 16.945692
61.880 17.166697
61.885 17.427879
61.890 17.54566
61.895 17.474783
61.900 17.566959
61.905 17.233343
61.910 16.982868
61.915 16.399401
61.920 16.458715
61.925 16.398514
61.930 15.77534
61.935 15.578237
61.940 15.748517
61.945 15.676089
61.950 15.703905
61.955 15.047555
61.960 14.530161
61.965 14.227952
61.970 14.802908
61.975 15.049226
61.980 14.886758
61.985 14.799997
61.990 14.94336
61.995 15.098167
62.000 15.190591
62.005 14.82549
62.010 14.686467
62.015 14.669444
62.020 14.598786
62.025 15.206194
62.030 14.990652
62.035 15.236479
62.040 15.315299
62.045 15.47681
62.050 16.192951
62.055 16.553677
62.060 16.354265
62.065 16.532375
62.070 16.305243
62.075 16.002314
62.080 15.932002
62.085 15.748444
62.090 15.508534
62.095 15.322909
62.100 15.781442
62.105 15.988628
62.110 16.356045
62.115 16.405321
62.120 16.886679
62.125 17.155489
62.130 17.076763
62.135 16.318886
62.140 16.607761
62.145 16.917679
62.150 16.546427
62.155 16.137527
62.160 16.467575
62.165 16.6394
62.170 17.011236
62.175 17.235979
62.180 16.735041
62.185 16.781416
62.190 16.330383
62.195 16.138203
62.200 16.036343
62.205 15.940023
62.210 15.611217
62.215 15.602496
62.220 15.637824
62.225 15.862955
62.230 15.17738
62.235 15.296836
62.240 15.107609
62.245 14.790208
62.250 15.048444
62.255 15.151365
62.260 15.09248
62.265 15.896787
62.270 16.086084
62.275 16.057102
62.280 15.768204
62.285 15.373626
62.290 15.102631
62.295 15.209153
62.300 15.396568
62.305 15.067436
62.310 15.325253
62.315 15.365627
62.320 15.714965
62.325 16.266882
62.330 15.993971
62.335 15.149844
62.340 14.804855
62.345 14.946251
62.350 15.452122
62.355 15.265231
62.360 15.377071
62.365 15.349012
62.370 15.748627
62.375 16.492495
62.380 16.937553
62.385 16.481619
62.390 16.615959
62.395 16.559923
62.400 16.469913
62.405 15.938347
62.410 15.820897
62.415 15.66971
62.420 15.618345
62.425 15.21622
62.430 14.91745
62.435 14.92965
62.440 15.434285
62.445 15.385219
62.450 15.816951
62.455 16.155817
62.460 16.300882
62.465 16.402901
62.470 17.088423
62.475 17.721703
62.480 17.97089
62.485 17.562368
62.490 17.577923
62.495 17.505524
62.500 17.257084
62.505 16.575481
62.510 15.817615
62.515 15.168707
62.520 14.706336
62.525 14.425806
62.530 14.583328
62.535 14.764098
62.540 15.033699
62.545 15.215397
62.550 15.058575
62.555 15.250775
62.560 15.227353
62.565 15.011844
62.570 14.924421
62.575 15.099847
62.580 14.766235
62.585 14.903511
62.590 14.769528
62.595 14.548313
62.600 14.744321
62.605 15.201779
62.610 14.959153
62.615 15.086029
62.620 14.899976
62.625 15.08772
62.630 15.402663
62.635 15.216318
62.640 14.755422
62.645 14.945028
62.650 15.028624
62.655 15.655333
62.660 15.396136
62.665 15.488153
62.670 15.562332
62.675 15.936033
62.680 15.846075
62.685 15.690104
62.690 15.673173
62.695 15.701216
62.700 15.604923
62.705 15.180035
62.710 14.958667
62.715 15.292865
62.720 15.493412
62.725 15.311215
62.730 16.239326
62.735 16.552246
62.740 16.518509
62.745 16.270073
62.750 16.418194
62.755 16.807585
62.760 16.656971
62.765 16.314989
62.770 16.495043
62.775 16.908005
62.780 17.109873
62.785 17.092747
62.790 16.957371
62.795 17.280146
62.800 16.808838
62.805 16.522242
62.810 16.624062
62.815 16.398787
62.820 16.164778
62.825 16.091253
62.830 15.494246
62.835 15.635931
62.840 16.03842
62.845 16.210762
62.850 16.325871
62.855 16.059685
62.860 16.037689
62.865 16.728703
62.870 16.854872
62.875 15.971703
62.880 15.737401
62.885 15.558822
62.890 15.678228
62.895 15.693764
62.900 15.600073
62.905 15.373974
62.910 15.723867
62.915 15.675008
62.920 15.657067
62.925 15.259315
62.930 14.741648
62.935 14.105589
62.940 14.128476
62.945 13.994814
62.950 13.814788
62.955 14.20508
62.960 14.434782
62.965 14.710479
62.970 15.278322
62.975 15.624806
62.980 16.582685
62.985 16.824545
62.990 16.652876
62.995 16.678806
63.000 16.855095
63.005 16.996262
63.010 16.736467
63.015 16.510073
63.020 16.610531
63.025 16.304457
63.030 16.094116
63.035 16.003582
63.040 16.090326
63.045 16.294682
63.050 15.915644
63.055 15.795624
63.060 16.184408
63.065 16.49332
63.070 16.376356
63.075 15.862506
63.080 15.698157
63.085 15.501997
63.090 15.828201
63.095 15.954733
63.100 16.004038
63.105 16.32873
63.110 17.328161
63.115 17.872667
63.120 18.032358
63.125 18.408379
63.130 18.442427
63.135 18.411995
63.140 18.001657
63.145 17.607067
63.150 17.396748
63.155 17.433376
63.160 17.149923
63.165 17.134674
63.170 17.347298
63.175 17.457308
63.180 17.29097
63.185 17.342291
63.190 17.271435
63.195 17.185278
63.200 17.204163
63.205 16.94923
63.210 16.76807
63.215 16.584732
63.220 16.427063
63.225 15.892051
63.230 15.452754
63.235 15.362972
63.240 15.429734
63.245 15.392939
63.250 15.435717
63.255 15.448501
63.260 15.692216
63.265 15.522663
63.270 15.647218
63.275 15.335843
63.280 15.794588
63.285 15.817113
63.290 16.049809
63.295 16.331547
63.300 16.580502
63.305 16.517017
63.310 16.90484
63.315 17.033058
63.320 17.241585
63.325 17.327766
63.330 17.61842
63.335 17.481432
63.340 17.159285
63.345 16.59877
63.350 16.313
63.355 16.126423
63.360 15.929148
63.365 15.441648
63.370 15.65361
63.375 16.734711
63.380 17.467781
63.385 17.483318
63.390 16.901173
63.395 16.813494
63.400 17.44179
63.405 17.094395
63.410 16.130138
63.415 15.475801
63.420 15.689596
63.425 16.133991
63.430 16.356287
63.435 16.126013
63.440 16.389511
63.445 16.843512
63.450 17.281399
63.455 17.437193
63.460 18.171762
63.465 18.063002
63.470 18.403561
63.475 18.178764
63.480 17.872801
63.485 17.766481
63.490 17.698471
63.495 17.079046
63.500 17.198643
63.505 16.737988
63.510 16.867596
63.515 16.715096
63.520 16.644836
63.525 16.300003
63.530 15.951312
63.535 15.200412
63.540 14.974176
63.545 14.725478
63.550 14.768836
63.555 14.504427
63.560 14.345824
63.565 15.473034
63.570 15.839537
63.575 16.281431
63.580 16.430271
63.585 16.779873
63.590 16.991135
63.595 17.301783
63.600 16.893547
63.605 17.630518
63.610 17.62858
63.615 18.148884
63.620 18.586012
63.625 18.528519
63.630 17.933563
63.635 16.820717
63.640 16.166338
63.645 16.484486
63.650 16.482191
63.655 15.898473
63.660 15.704299
63.665 16.014025
63.670 16.816036
63.675 16.848722
63.680 15.979823
63.685 15.609598
63.690 15.634816
63.695 15.56771
63.700 15.1953
63.705 14.783837
63.710 14.781181
63.715 14.942156
63.720 14.861911
63.725 14.506124
63.730 15.094762
63.735 15.508553
63.740 16.283646
63.745 16.505096
63.750 16.631516
63.755 16.857914
63.760 17.480921
63.765 17.468227
63.770 18.10293
63.775 18.05348
63.780 17.810358
63.785 17.97658
63.790 18.241529
63.795 17.633747
63.800 17.227694
63.805 16.539001
63.810 16.393419
63.815 16.324329
63.820 15.81457
63.825 15.737396
63.830 16.435328
63.835 16.745438
63.840 16.663918
63.845 17.028376
63.850 17.489065
63.855 18.1546
63.860 17.771078
63.865 17.223419
63.870 16.83777
63.875 17.10113
63.880 17.130829
63.885 17.073067
63.890 17.167566
63.895 17.303432
63.900 17.163944
63.905 17.529612
63.910 17.414476
63.915 16.909294
63.920 16.928812
63.925 16.60178
63.930 16.888151
63.935 17.474361
63.940 17.680046
63.945 17.920321
63.950 17.836681
63.955 17.75955
63.960 18.128553
63.965 18.335146
63.970 18.330938
63.975 18.006592
63.980 17.712324
63.985 17.566505
63.990 17.132221
63.995 16.893831
64.000 16.762337
64.005 16.560093
64.010 17.159512
64.015 17.90625
64.020 18.484285
64.025 18.408073
64.030 18.388939
64.035 18.398142
64.040 18.371168
64.045 17.904789
64.050 17.289167
64.055 16.992817
64.060 17.054823
64.065 16.813768
64.070 16.764223
64.075 16.567703
64.080 16.636978
64.085 16.7299
64.090 16.786589
64.095 17.424425
64.100 17.471436
64.105 17.225256
64.110 17.842991
64.115 17.769648
64.120 17.592157
64.125 17.453495
64.130 16.771053
64.135 16.513506
64.140 16.353071
64.145 15.961604
64.150 15.965705
64.155 15.473412
64.160 15.755413
64.165 16.339376
64.170 17.123142
64.175 16.998871
64.180 16.625454
64.185 16.900829
64.190 17.177639
64.195 16.869535
64.200 16.557049
64.205 15.986509
64.210 16.749737
64.215 17.166212
64.220 17.318781
64.225 17.626163
64.230 17.550844
64.235 17.179426
64.240 16.792171
64.245 16.336479
64.250 15.797588
64.255 15.928952
64.260 16.210493
64.265 17.326389
64.270 18.354019
64.275 19.321781
64.280 19.343884
64.285 19.429588
64.290 18.802687
64.295 18.416887
64.300 17.422167
64.305 16.37858
64.310 16.141314
64.315 16.582088
64.320 16.916832
64.325 16.783697
64.330 16.984623
64.335 16.903221
64.340 17.01931
64.345 16.927505
64.350 17.469494
64.355 17.304167
64.360 17.866241
64.365 17.974821
64.370 18.28858
64.375 18.384113
64.380 18.243099
64.385 17.500948
64.390 17.147234
64.395 16.606733
64.400 16.384674
64.405 16.37895
64.410 16.738935
64.415 17.340153
64.420 17.393045
64.425 18.021198
64.430 18.02879
64.435 17.925287
64.440 18.246469
64.445 18.104609
64.450 17.977829
64.455 18.331631
64.460 18.28117
64.465 18.722948
64.470 18.76643
64.475 17.851107
64.480 17.472328
64.485 17.441214
64.490 17.216875
64.495 17.717928
64.500 17.8822
64.505 17.817518
64.510 18.774668
64.515 19.368896
64.520 19.226728
64.525 19.481457
64.530 18.839043
64.535 19.102015
64.540 19.706291
64.545 19.787121
64.550 19.532013
64.555 19.547853
64.560 19.018435
64.565 18.817371
64.570 18.230709
64.575 18.016663
64.580 17.573755
64.585 17.422977
64.590 16.83337
64.595 16.485773
64.600 16.543961
64.605 16.688885
64.610 16.675125
64.615 15.963884
64.620 16.137157
64.625 16.730085
64.630 17.178921
64.635 17.578484
64.640 17.050825
64.645 16.760338
64.650 17.469261
64.655 17.69063
64.660 17.699959
64.665 18.016064
64.670 18.101448
64.675 18.816412
64.680 18.976997
64.685 18.919916
64.690 18.92667
64.695 18.977276
64.700 18.749693
64.705 18.424835
64.710 18.440355
64.715 18.464542
64.720 18.173647
64.725 17.896334
64.730 17.580082
64.735 17.628809
64.740 17.600258
64.745 17.221891
64.750 17.516117
64.755 17.06131
64.760 16.763237
64.765 16.790775
64.770 17.084078
64.775 17.108809
64.780 17.212389
64.785 17.45508
64.790 18.196901
64.795 18.535982
64.800 18.474215
64.805 18.459656
64.810 18.674011
64.815 18.719017
64.820 18.150778
64.825 18.604568
64.830 18.956989
64.835 19.369669
64.840 19.078224
64.845 18.935089
64.850 18.946722
64.855 19.293837
64.860 18.65029
64.865 18.230318
64.870 18.339802
64.875 18.661238
64.880 18.884634
64.885 19.547466
64.890 19.969294
64.895 20.539976
64.900 20.94454
64.905 20.943338
64.910 20.607464
64.915 21.022932
64.920 20.728813
64.925 20.395945
64.930 19.928513
64.935 19.323957
64.940 18.85964
64.945 18.534563
64.950 18.320759
64.955 18.39044
64.960 18.552385
64.965 18.693464
64.970 18.958122
64.975 19.731125
64.980 20.188568
64.985 19.660828
64.990 18.929623
64.995 18.571175
65.000 19.011482
65.005 19.686335
65.010 20.069033
65.015 20.337791
65.020 21.111328
65.025 21.478745
65.030 21.533579
65.035 21.373011
65.040 20.48587
65.045 20.502113
65.050 20.089602
65.055 19.96183
65.060 20.534416
65.065 20.562073
65.070 20.578094
65.075 20.452377
65.080 20.770874
65.085 20.784868
65.090 20.206169
65.095 20.017746
65.100 20.016462
65.105 19.706614
65.110 20.24987
65.115 19.875357
65.120 19.979826
65.125 20.116753
65.130 20.187979
65.135 19.986151
65.140 19.921268
65.145 19.30674
65.150 19.18634
65.155 19.421888
65.160 19.038763
65.165 18.770624
65.170 19.105894
65.175 19.579885
65.180 20.361914
65.185 20.708008
65.190 20.701164
65.195 21.543493
65.200 22.189699
65.205 21.934658
65.210 21.712019
65.215 21.091543
65.220 20.322582
65.225 20.195612
65.230 19.632496
65.235 18.720594
65.240 18.501034
65.245 18.192764
65.250 18.555618
65.255 19.117348
65.260 19.383862
65.265 19.990267
65.270 20.553112
65.275 21.273413
65.280 21.392771
65.285 21.259645
65.290 21.123056
65.295 21.24645
65.300 20.45191
65.305 20.258636
65.310 20.104088
65.315 20.249918
65.320 20.135698
65.325 19.972902
65.330 19.562487
65.335 19.569359
65.340 20.08848
65.345 20.428419
65.350 20.48661
65.355 20.327517
65.360 20.896429
65.365 21.647533
65.370 22.357088
65.375 22.112745
65.380 22.240242
65.385 22.663008
65.390 23.29417
65.395 23.307703
65.400 22.681511
65.405 22.329983
65.410 22.520775
65.415 22.226196
65.420 21.808001
65.425 21.178928
65.430 21.354557
65.435 21.935226
65.440 21.530891
65.445 21.509699
65.450 21.684757
65.455 21.839539
65.460 22.149488
65.465 22.168499
65.470 23.721825
65.475 24.968414
65.480 25.643679
65.485 26.089476
65.490 26.573231
65.495 26.714846
65.500 26.422424
65.505 25.693132
65.510 25.62163
65.515 25.682957
65.520 26.240646
65.525 26.241112
65.530 26.464115
65.535 26.481945
65.540 26.796442
65.545 27.432049
65.550 26.853401
65.555 26.586811
65.560 26.983835
65.565 26.838434
65.570 26.727108
65.575 26.34037
65.580 25.896255
65.585 25.933876
65.590 25.592983
65.595 25.494326
65.600 25.528149
65.605 26.440102
65.610 26.914486
65.615 27.554497
65.620 28.511049
65.625 29.298948
65.630 29.906788
65.635 30.366503
65.640 29.886019
65.645 29.841805
65.650 30.377272
65.655 31.12886
65.660 31.21279
65.665 31.173176
65.670 31.166445
65.675 31.369411
65.680 30.688776
65.685 30.497463
65.690 30.354702
65.695 30.61475
65.700 30.478968
65.705 30.941614
65.710 31.477097
65.715 31.632076
65.720 31.604546
65.725 31.602732
65.730 31.508385
65.735 31.730036
65.740 31.58387
65.745 31.852503
65.750 32.348782
65.755 32.799839
65.760 32.866528
65.765 33.131641
65.770 33.297848
65.775 33.003708
65.780 32.882969
65.785 32.474018
65.790 31.337109
65.795 31.495783
65.800 31.825865
65.805 32.036083
65.810 32.156261
65.815 32.809959
65.820 33.760761
65.825 34.563385
65.830 34.773235
65.835 34.43726
65.840 34.901371
65.845 34.768169
65.850 34.872433
65.855 35.378517
65.860 34.712986
65.865 34.540821
65.870 34.636669
65.875 35.289139
65.880 35.568245
65.885 34.972744
65.890 34.866341
65.895 36.663242
65.900 37.677986
65.905 38.896313
65.910 38.393333
65.915 38.851967
65.920 39.559944
65.925 39.74194
65.930 38.325226
65.935 37.897518
65.940 38.238735
65.945 38.283989
65.950 38.233452
65.955 38.458424
65.960 38.391964
65.965 38.126091
65.970 36.673935
65.975 35.520943
65.980 36.483353
65.985 36.158031
65.990 35.666203
65.995 35.504456
66.000 36.251137
66.005 36.644913
66.010 36.662571
66.015 36.461357
66.020 36.607533
66.025 36.887714
66.030 37.486549
66.035 37.430676
66.040 38.106659
66.045 38.127377
66.050 37.424526
66.055 37.368298
66.060 36.76247
66.065 35.878235
66.070 35.589672
66.075 35.249992
66.080 35.228313
66.085 36.052376
66.090 36.057365
66.095 35.848755
66.100 36.408398
66.105 35.913727
66.110 35.976013
66.115 36.215244
66.120 35.679096
66.125 35.743057
66.130 36.477375
66.135 36.583656
66.140 37.177799
66.145 36.704594
66.150 36.243828
66.155 36.349094
66.160 35.466606
66.165 35.170975
66.170 34.972885
66.175 34.718884
66.180 34.80283
66.185 34.750813
66.190 34.94688
66.195 35.809929
66.200 35.988575
66.205 36.184845
66.210 36.424809
66.215 36.15094
66.220 35.339008
66.225 34.493664
66.230 33.546379
66.235 32.53212
66.240 32.297977
66.245 31.774685
66.250 31.216385
66.255 31.870882
66.260 31.799534
66.265 31.958048
66.270 31.510466
66.275 31.130754
66.280 32.0704
66.285 32.448105
66.290 31.994366
66.295 31.962828
66.300 32.124069
66.305 32.360996
66.310 31.194248
66.315 30.350023
66.320 30.228518
66.325 29.336813
66.330 29.176607
66.335 29.15427
66.340 29.951521
66.345 30.27499
66.350 30.266268
66.355 30.530224
66.360 30.69593
66.365 30.371172
66.370 29.368732
66.375 28.016064
66.380 27.576246
66.385 27.249237
66.390 27.392366
66.395 27.951208
66.400 27.963682
66.405 28.42535
66.410 29.247623
66.415 29.547346
66.420 29.436384
66.425 29.637722
66.430 29.833355
66.435 30.246794
66.440 30.335888
66.445 30.208532
66.450 30.512941
66.455 29.799953
66.460 28.898785
66.465 27.950012
66.470 27.765711
66.475 26.846533
66.480 26.021902
66.485 25.355232
66.490 25.657745
66.495 25.318617
66.500 25.432617
66.505 25.401842
66.510 25.710541
66.515 25.976377
66.520 25.456263
66.525 25.087584
66.530 25.219614
66.535 25.281317
66.540 25.418545
66.545 25.739416
66.550 25.921005
66.555 25.873852
66.560 25.631498
66.565 25.676838
66.570 25.731365
66.575 25.26572
66.580 24.695667
66.585 25.024876
66.590 26.013712
66.595 26.926813
66.600 26.368559
66.605 26.513103
66.610 26.667366
66.615 26.674774
66.620 25.93852
66.625 25.646954
66.630 25.484169
66.635 25.678808
66.640 24.946119
66.645 24.552624
66.650 24.804838
66.655 24.64467
66.660 24.442732
66.665 23.991482
66.670 24.216894
66.675 24.114727
66.680 23.743723
66.685 23.243286
66.690 22.950153
66.695 22.701986
66.700 22.480778
66.705 22.171734
66.710 22.518887
66.715 23.208136
66.720 23.806826
66.725 24.159069
66.730 24.227383
66.735 24.691458
66.740 24.463394
66.745 23.908983
66.750 23.123487
66.755 22.931181
66.760 22.917645
66.765 22.593319
66.770 22.484158
66.775 23.018938
66.780 22.922813
66.785 22.799358
66.790 22.289627
66.795 22.365845
66.800 22.633118
66.805 22.1493
66.810 21.448284
66.815 21.814829
66.820 21.806131
66.825 21.515972
66.830 21.178968
66.835 20.612719
66.840 20.602129
66.845 21.083113
66.850 21.301826
66.855 21.741934
66.860 22.08473
66.865 22.436106
66.870 23.018908
66.875 23.469709
66.880 23.07176
66.885 22.485472
66.890 22.392271
66.895 22.406729
66.900 21.954777
66.905 21.597649
66.910 21.888618
66.915 21.835777
66.920 21.68615
66.925 21.446756
66.930 21.19446
66.935 21.015364
66.940 21.307281
66.945 21.153976
66.950 21.290842
66.955 21.378387
66.960 21.5725
66.965 21.917341
66.970 22.015181
66.975 21.293705
66.980 21.452454
66.985 21.832504
66.990 21.695131
66.995 21.608232
67.000 20.654661
67.005 20.874109
67.010 21.250957
67.015 20.717533
67.020 20.048389
67.025 20.456928
67.030 20.62291
67.035 21.883961
67.040 21.941113
67.045 21.589333
67.050 21.735645
67.055 21.901787
67.060 21.994549
67.065 22.163342
67.070 21.744183
67.075 22.303444
67.080 22.865166
67.085 23.256184
67.090 24.205322
67.095 23.930313
67.100 23.352253
67.105 23.395052
67.110 22.819345
67.115 22.483572
67.120 22.534016
67.125 21.303526
67.130 21.387003
67.135 21.474873
67.140 20.53751
67.145 20.38784
67.150 19.810068
67.155 19.207056
67.160 19.591015
67.165 19.347933
67.170 19.961164
67.175 20.442051
67.180 20.651613
67.185 21.167555
67.190 21.109915
67.195 21.225561
67.200 21.951206
67.205 21.411318
67.210 21.403883
67.215 22.298716
67.220 22.147776
67.225 22.161039
67.230 21.92173
67.235 21.282042
67.240 21.354494
67.245 21.27445
67.250 20.569054
67.255 20.176184
67.260 19.952082
67.265 19.539093
67.270 19.515823
67.275 19.690035
67.280 19.323751
67.285 19.520182
67.290 20.002443
67.295 20.41396
67.300 20.860195
67.305 20.553196
67.310 20.27112
67.315 20.432871
67.320 19.964699
67.325 19.897387
67.330 19.897032
67.335 20.123795
67.340 20.410383
67.345 20.533131
67.350 19.838182
67.355 19.839096
67.360 20.06284
67.365 20.218771
67.370 19.902784
67.375 19.739914
67.380 20.359715
67.385 21.330181
67.390 21.331984
67.395 21.140667
67.400 21.025686
67.405 20.900463
67.410 21.365271
67.415 20.722435
67.420 20.511597
67.425 20.925974
67.430 21.17333
67.435 21.533802
67.440 21.67403
67.445 21.178669
67.450 20.785725
67.455 20.539387
67.460 20.330254
67.465 19.910183
67.470 19.784092
67.475 19.034552
67.480 19.418579
67.485 19.834061
67.490 19.689802
67.495 19.371506
67.500 19.021469
67.505 18.411327
67.510 18.673946
67.515 18.17341
67.520 18.7414
67.525 18.888794
67.530 19.172453
67.535 19.551775
67.540 20.157576
67.545 20.459913
67.550 20.584072
67.555 20.237961
67.560 20.644175
67.565 20.227945
67.570 19.831009
67.575 20.147169
67.580 20.344107
67.585 20.620619
67.590 20.692772
67.595 21.059881
67.600 21.32947
67.605 21.332449
67.610 21.239323
67.615 21.554287
67.620 21.460585
67.625 21.160759
67.630 20.410711
67.635 21.098284
67.640 21.766739
67.645 21.296345
67.650 20.883556
67.655 20.605659
67.660 20.805952
67.665 20.355091
67.670 19.28249
67.675 19.022324
67.680 19.811016
67.685 20.089512
67.690 20.347448
67.695 20.296124
67.700 20.190094
67.705 20.558126
67.710 19.894238
67.715 19.24399
67.720 19.201031
67.725 19.208027
67.730 19.349766
67.735 19.670441
67.740 19.37656
67.745 19.264395
67.750 19.605494
67.755 18.909704
67.760 18.064821
67.765 17.987625
67.770 18.584053
67.775 19.097513
67.780 19.116585
67.785 18.802423
67.790 19.308489
67.795 20.060349
67.800 20.472069
67.805 20.252131
67.810 20.255304
67.815 20.790346
67.820 21.224676
67.825 21.138323
67.830 20.753355
67.835 20.415661
67.840 19.973652
67.845 19.839588
67.850 20.004816
67.855 19.663662
67.860 19.806585
67.865 20.348881
67.870 19.969112
67.875 19.927702
67.880 20.076591
67.885 20.028433
67.890 20.625854
67.895 20.298502
67.900 20.140097
67.905 20.79022
67.910 21.338963
67.915 21.440056
67.920 21.069887
67.925 20.360271
67.930 20.34948
67.935 20.712385
67.940 20.918779
67.945 21.124115
67.950 21.288836
67.955 21.266918
67.960 21.637659
67.965 21.62838
67.970 21.220158
67.975 21.031816
67.980 20.748894
67.985 20.557053
67.990 20.580709
67.995 20.817329
68.000 20.745344
68.005 20.289923
68.010 20.30282
68.015 19.66548
68.020 19.449627
68.025 19.771408
68.030 19.388161
68.035 19.426273
68.040 19.859592
68.045 19.514185
68.050 19.517612
68.055 19.681768
68.060 19.826155
68.065 20.359564
68.070 20.540672
68.075 20.445814
68.080 20.928284
68.085 21.239079
68.090 20.299772
68.095 20.148525
68.100 20.094439
68.105 20.021416
68.110 19.441757
68.115 19.586178
68.120 19.944153
68.125 20.514759
68.130 20.209507
68.135 19.453592
68.140 19.569424
68.145 19.989649
68.150 19.699059
68.155 19.704502
68.160 19.794664
68.165 19.632641
68.170 19.753614
68.175 19.58049
68.180 18.958113
68.185 18.917944
68.190 18.637682
68.195 18.678143
68.200 19.127867
68.205 19.342712
68.210 19.601273
68.215 19.825836
68.220 20.128479
68.225 20.40201
68.230 20.023775
68.235 19.828287
68.240 20.26152
68.245 20.634411
68.250 20.990273
68.255 20.959377
68.260 20.175259
68.265 20.313492
68.270 21.151779
68.275 20.98789
68.280 20.936829
68.285 20.462038
68.290 20.061497
68.295 20.445553
68.300 20.721405
68.305 20.353771
68.310 20.054842
68.315 20.026976
68.320 19.77412
68.325 19.816448
68.330 20.315926
68.335 20.357365
68.340 20.2617
68.345 20.33123
68.350 19.940701
68.355 20.404009
68.360 20.407103
68.365 19.643873
68.370 19.272161
68.375 19.340031
68.380 19.367981
68.385 19.533459
68.390 19.697027
68.395 19.653206
68.400 20.211472
68.405 19.988049
68.410 20.092035
68.415 19.719891
68.420 19.245077
68.425 18.273506
68.430 18.359451
68.435 18.682081
68.440 19.230703
68.445 18.939716
68.450 19.787268
68.455 20.902407
68.460 21.198421
68.465 20.504631
68.470 19.964409
68.475 19.981647
68.480 20.000317
68.485 19.468687
68.490 19.006433
68.495 19.2994
68.500 19.665483
68.505 19.614536
68.510 19.046375
68.515 19.369822
68.520 19.818039
68.525 20.223732
68.530 21.006809
68.535 20.882137
68.540 20.965311
68.545 21.156767
68.550 20.857952
68.555 20.997965
68.560 20.81539
68.565 20.663212
68.570 21.076328
68.575 21.015749
68.580 21.453161
68.585 21.649971
68.590 21.013634
68.595 21.261694
68.600 21.181944
68.605 21.373791
68.610 21.780203
68.615 21.406513
68.620 21.446575
68.625 21.774124
68.630 20.889774
68.635 20.742218
68.640 20.700348
68.645 20.260908
68.650 20.407141
68.655 20.789654
68.660 20.635679
68.665 21.540428
68.670 21.70129
68.675 21.773407
68.680 22.397814
68.685 22.370636
68.690 22.523787
68.695 22.636806
68.700 22.020477
68.705 22.052614
68.710 21.772488
68.715 21.508726
68.720 21.604588
68.725 21.2635
68.730 21.463531
68.735 21.907604
68.740 22.080481
68.745 22.140726
68.750 21.73045
68.755 20.67544
68.760 20.733723
68.765 20.21097
68.770 20.418736
68.775 20.336958
68.780 20.430088
68.785 20.684469
68.790 21.339327
68.795 22.086359
68.800 22.050032
68.805 21.283421
68.810 20.890684
68.815 20.536879
68.820 20.803553
68.825 20.375324
68.830 20.026859
68.835 20.674961
68.840 21.13056
68.845 21.948645
68.850 22.207663
68.855 22.210028
68.860 22.152813
68.865 21.53105
68.870 20.992851
68.875 20.47541
68.880 20.182886
68.885 20.351704
68.890 20.236832
68.895 20.821617
68.900 20.849298
68.905 21.396896
68.910 21.528061
68.915 21.190287
68.920 21.002495
68.925 21.387762
68.930 21.222389
68.935 21.672913
68.940 22.074097
68.945 22.578129
68.950 23.064688
68.955 23.324409
68.960 23.059254
68.965 23.279905
68.970 23.623907
68.975 23.654177
68.980 24.043386
68.985 23.859901
68.990 23.685324
68.995 23.86083
69.000 23.380989
69.005 23.07164
69.010 23.041981
69.015 22.986567
69.020 23.173569
69.025 23.306997
69.030 22.852188
69.035 22.613869
69.040 22.337461
69.045 21.401207
69.050 20.672113
69.055 20.498096
69.060 21.396946
69.065 22.499798
69.070 22.75316
69.075 23.298235
69.080 23.990772
69.085 24.413103
69.090 24.489304
69.095 23.977985
69.100 23.851885
69.105 24.202106
69.110 23.969969
69.115 24.498716
69.120 24.733383
69.125 25.681791
69.130 25.904243
69.135 25.727865
69.140 25.758076
69.145 26.082285
69.150 25.611252
69.155 25.53017
69.160 24.543407
69.165 24.130806
69.170 24.384235
69.175 24.318096
69.180 24.169043
69.185 24.699007
69.190 24.744692
69.195 24.495729
69.200 24.565535
69.205 24.226805
69.210 24.402344
69.215 24.37483
69.220 23.934784
69.225 24.042835
69.230 24.921314
69.235 25.389637
69.240 25.717688
69.245 25.458454
69.250 26.129047
69.255 25.999889
69.260 25.752672
69.265 25.360415
69.270 25.050419
69.275 25.328783
69.280 25.531548
69.285 25.138641
69.290 25.368273
69.295 25.264698
69.300 25.691446
69.305 26.045193
69.310 26.285507
69.315 26.554989
69.320 27.045336
69.325 27.707552
69.330 27.98008
69.335 28.395212
69.340 28.547298
69.345 27.849913
69.350 28.277477
69.355 28.601469
69.360 28.411757
69.365 28.275059
69.370 27.544811
69.375 27.814718
69.380 28.367712
69.385 27.980955
69.390 27.401379
69.395 27.499437
69.400 27.319681
69.405 26.717356
69.410 26.601645
69.415 26.730026
69.420 27.224733
69.425 28.078926
69.430 28.327066
69.435 28.781113
69.440 29.612524
69.445 29.660681
69.450 29.292198
69.455 28.958784
69.460 28.030554
69.465 28.234745
69.470 28.195398
69.475 28.121489
69.480 27.748775
69.485 27.915377
69.490 27.660091
69.495 27.791899
69.500 27.725391
69.505 28.213734
69.510 28.387547
69.515 28.092754
69.520 27.795197
69.525 28.463425
69.530 28.462713
69.535 28.195606
69.540 27.562956
69.545 27.833803
69.550 28.548176
69.555 28.818874
69.560 28.902489
69.565 29.426872
69.570 30.450293
69.575 31.000278
69.580 31.273663
69.585 31.876047
69.590 31.98612
69.595 32.009388
69.600 31.665564
69.605 31.1485
69.610 30.762169
69.615 29.886662
69.620 29.228893
69.625 28.71554
69.630 28.335598
69.635 28.177582
69.640 28.197548
69.645 28.112631
69.650 27.893011
69.655 27.945696
69.660 28.760401
69.665 28.596628
69.670 28.38526
69.675 28.02737
69.680 27.893681
69.685 28.634315
69.690 28.424559
69.695 27.864048
69.700 27.946547
69.705 28.345884
69.710 27.775236
69.715 27.463076
69.720 27.17922
69.725 27.498386
69.730 27.937836
69.735 27.657175
69.740 26.835236
69.745 26.318626
69.750 25.83271
69.755 25.195845
69.760 24.735415
69.765 24.294817
69.770 24.486204
69.775 24.548494
69.780 25.050804
69.785 24.689302
69.790 24.109228
69.795 24.081968
69.800 24.4739
69.805 24.031403
69.810 24.147732
69.815 24.609772
69.820 25.160437
69.825 25.340313
69.830 24.775993
69.835 24.6745
69.840 24.873522
69.845 24.91242
69.850 24.792175
69.855 24.990002
69.860 24.52527
69.865 23.854839
69.870 23.340927
69.875 23.016022
69.880 22.61261
69.885 22.24938
69.890 22.535667
69.895 22.970072
69.900 22.775114
69.905 22.292686
69.910 22.352589
69.915 22.846951
69.920 22.652439
69.925 21.624308
69.930 21.479992
69.935 22.353188
69.940 23.298086
69.945 22.998329
69.950 22.500557
69.955 22.544111
69.960 22.908787
69.965 22.874607
69.970 22.264704
69.975 21.561567
69.980 21.572699
69.985 21.348803
69.990 21.184101
69.995 20.434273
70.000 20.147955
70.005 19.646299
70.010 19.845327
70.015 20.215519
70.020 20.462339
70.025 21.546751
70.030 21.765917
70.035 21.935482
70.040 21.495626
70.045 21.466743
70.050 21.427647
70.055 20.85103
70.060 19.898251
70.065 20.100624
70.070 20.029692
70.075 19.999144
70.080 20.363585
70.085 19.800838
70.090 20.676004
70.095 21.098352
70.100 20.81872
70.105 21.102448
70.110 21.090813
70.115 20.541901
70.120 20.462709
70.125 19.879883
70.130 20.17573
70.135 21.520441
70.140 21.830601
70.145 21.678984
70.150 21.702799
70.155 22.314573
70.160 22.107121
70.165 21.341932
70.170 21.192799
70.175 21.133249
70.180 21.114477
70.185 21.039049
70.190 20.551277
70.195 20.91518
70.200 20.834373
70.205 20.233679
70.210 20.519024
70.215 20.575409
70.220 21.073803
70.225 21.40366
70.230 21.663609
70.235 20.960112
70.240 19.978506
70.245 19.530254
70.250 19.576452
70.255 19.059101
70.260 18.238955
70.265 18.027372
70.270 18.427137
70.275 18.872099
70.280 18.998276
70.285 19.449972
70.290 19.572906
70.295 19.657103
70.300 19.227304
70.305 19.563925
70.310 19.731243
70.315 19.866386
70.320 19.515524
70.325 19.620245
70.330 20.153688
70.335 20.249498
70.340 19.670755
70.345 18.771328
70.350 18.31908
70.355 18.284363
70.360 17.928862
70.365 17.73699
70.370 17.509977
70.375 18.411535
70.380 19.018646
70.385 19.015261
70.390 18.866802
70.395 18.819838
70.400 19.066067
70.405 19.554955
70.410 18.764271
70.415 18.715786
70.420 18.615402
70.425 18.564425
70.430 18.900988
70.435 18.679035
70.440 18.680647
70.445 18.842138
70.450 18.765957
70.455 18.939852
70.460 19.307175
70.465 19.386181
70.470 19.241526
70.475 19.46681
70.480 19.766006
70.485 19.817175
70.490 19.811651
70.495 19.888409
70.500 20.213202
70.505 19.730066
70.510 19.47196
70.515 19.506153
70.520 19.37182
70.525 18.640629
70.530 18.819242
70.535 19.312836
70.540 19.536028
70.545 19.458614
70.550 19.523535
70.555 20.11865
70.560 20.319536
70.565 19.496025
70.570 18.98951
70.575 19.116787
70.580 18.919777
70.585 18.017447
70.590 17.947975
70.595 17.910532
70.600 18.47436
70.605 18.022491
70.610 17.993504
70.615 18.6334
70.620 18.974873
70.625 18.621616
70.630 18.725456
70.635 18.502954
70.640 19.030449
70.645 19.069036
70.650 18.662958
70.655 19.132044
70.660 19.113991
70.665 18.798733
70.670 19.221474
70.675 19.182837
70.680 19.208664
70.685 19.094421
70.690 18.798895
70.695 19.162422
70.700 19.796333
70.705 19.643795
70.710 19.713406
70.715 19.922705
70.720 20.23942
70.725 19.794107
70.730 19.422556
70.735 19.114843
70.740 18.823906
70.745 18.546936
70.750 18.245373
70.755 18.352133
70.760 18.180073
70.765 18.008953
70.770 17.896015
70.775 18.497028
70.780 18.249737
70.785 17.531275
70.790 17.931623
70.795 18.189888
70.800 18.195742
70.805 17.85413
70.810 17.144726
70.815 17.790726
70.820 18.837831
70.825 18.509998
70.830 18.974487
70.835 18.654964
70.840 18.453749
70.845 18.83046
70.850 17.971783
70.855 16.80521
70.860 17.330587
70.865 17.540129
70.870 17.732128
70.875 17.50539
70.880 17.694105
70.885 18.365013
70.890 18.832645
70.895 18.409998
70.900 18.259935
70.905 18.375252
70.910 18.60318
70.915 18.913374
70.920 18.736338
70.925 18.546406
70.930 17.687731
70.935 17.915356
70.940 18.099167
70.945 18.402672
70.950 18.438225
70.955 18.748373
70.960 18.936928
70.965 19.261656
70.970 18.958107
70.975 18.784697
70.980 18.246998
70.985 18.058458
70.990 18.401157
70.995 18.298019
71.000 18.225487
71.005 18.061485
71.010 17.681921
71.015 17.703852
71.020 17.903784
71.025 17.992334
71.030 18.288456
71.035 18.88546
71.040 19.695093
71.045 19.852091
71.050 20.00193
71.055 19.425108
71.060 18.807087
71.065 18.712944
71.070 18.25243
71.075 18.124756
71.080 18.25761
71.085 18.47085
71.090 18.737633
71.095 18.809408
71.100 18.668085
71.105 18.609482
71.110 18.449036
71.115 18.517675
71.120 18.512089
71.125 19.07556
71.130 19.156841
71.135 18.362114
71.140 18.297876
71.145 18.385687
71.150 18.274696
71.155 17.609974
71.160 17.815758
71.165 18.375248
71.170 19.374487
71.175 18.990576
71.180 19.132845
71.185 19.467325
71.190 19.431183
71.195 18.435963
71.200 18.195278
71.205 17.973444
71.210 18.420052
71.215 18.499969
71.220 18.399666
71.225 18.802528
71.230 19.369062
71.235 19.602175
71.240 20.124861
71.245 20.044004
71.250 19.658512
71.255 19.399092
71.260 18.731651
71.265 18.888134
71.270 18.999611
71.275 18.453037
71.280 18.54356
71.285 18.440857
71.290 18.338297
71.295 18.145386
71.300 17.363619
71.305 16.95813
71.310 16.618267
71.315 16.435316
71.320 16.452091
71.325 17.059536
71.330 17.362997
71.335 17.214231
71.340 16.869326
71.345 17.577547
71.350 17.446993
71.355 17.002911
71.360 16.840113
71.365 16.520477
71.370 16.68479
71.375 16.939354
71.380 16.887568
71.385 17.441057
71.390 17.588705
71.395 17.851831
71.400 18.371826
71.405 18.609106
71.410 19.173782
71.415 19.237679
71.420 19.276102
71.425 20.181734
71.430 19.705379
71.435 19.581005
71.440 19.471251
71.445 19.370722
71.450 19.584558
71.455 19.549307
71.460 19.35391
71.465 19.438425
71.470 19.893599
71.475 20.169725
71.480 19.650583
71.485 19.370747
71.490 19.057547
71.495 18.656574
71.500 19.546509
71.505 19.096626
71.510 18.15328
71.515 18.016617
71.520 18.080297
71.525 18.097706
71.530 17.771257
71.535 17.792255
71.540 18.632835
71.545 19.485075
71.550 19.016912
71.555 18.472839
71.560 18.755144
71.565 18.810898
71.570 18.112619
71.575 17.370043
71.580 17.346941
71.585 17.312805
71.590 17.579027
71.595 17.684809
71.600 17.621479
71.605 17.137482
71.610 17.127552
71.615 17.544397
71.620 18.158943
71.625 17.994568
71.630 17.609339
71.635 17.588573
71.640 18.097795
71.645 18.07243
71.650 17.992762
71.655 17.763052
71.660 17.608892
71.665 17.463474
71.670 17.376799
71.675 17.756691
71.680 16.965693
71.685 16.797651
71.690 16.820982
71.695 17.330986
71.700 17.919857
71.705 18.064339
71.710 18.140079
71.715 19.011992
71.720 19.495832
71.725 19.943628
71.730 19.9195
71.735 20.342247
71.740 20.122227
71.745 19.640652
71.750 19.433929
71.755 18.871159
71.760 18.546291
71.765 18.071775
71.770 18.258043
71.775 18.987984
71.780 18.866968
71.785 18.681499
71.790 18.287802
71.795 18.314968
71.800 18.28842
71.805 17.563076
71.810 17.54915
71.815 17.262234
71.820 17.374825
71.825 17.640196
71.830 17.527245
71.835 18.082899
71.840 18.217047
71.845 18.493484
71.850 18.502176
71.855 18.506187
71.860 18.889523
71.865 19.046316
71.870 18.358469
71.875 18.727079
71.880 18.60041
71.885 19.187368
71.890 19.08791
71.895 18.829683
71.900 18.707253
71.905 19.148289
71.910 19.243382
71.915 19.381124
71.920 19.122377
71.925 19.473816
71.930 19.123402
71.935 19.120995
71.940 18.681507
71.945 18.047703
71.950 17.832659
71.955 17.138416
71.960 16.825651
71.965 17.013908
71.970 17.323078
71.975 17.628424
71.980 17.903046
71.985 18.579966
71.990 19.572136
71.995 20.543055
72.000 20.525492
72.005 20.064529
72.010 19.19603
72.015 18.554914
72.020 18.190992
72.025 17.745911
72.030 16.915319
72.035 17.07403
72.040 17.091665
72.045 17.110735
72.050 17.321959
72.055 17.596695
72.060 18.00663
72.065 18.595564
72.070 18.742836
72.075 19.050867
72.080 19.125774
72.085 19.222248
72.090 19.235094
72.095 18.557758
72.100 19.018555
72.105 18.53223
72.110 18.523712
72.115 19.095125
72.120 18.853338
72.125 18.256403
72.130 18.051807
72.135 17.823023
72.140 17.981091
72.145 17.830137
72.150 17.178282
72.155 17.067303
72.160 16.987812
72.165 16.859262
72.170 16.651314
72.175 16.775919
72.180 16.67844
72.185 17.200796
72.190 17.879259
72.195 18.178543
72.200 18.352667
72.205 18.745674
72.210 18.752563
72.215 18.136541
72.220 17.913269
72.225 17.571938
72.230 17.658766
72.235 17.388966
72.240 17.421173
72.245 17.845369
72.250 18.474207
72.255 18.623276
72.260 18.552885
72.265 18.213017
72.270 17.862921
72.275 18.00782
72.280 17.570957
72.285 16.878084
72.290 17.039049
72.295 17.516695
72.300 17.819237
72.305 18.591038
72.310 18.149441
72.315 18.08573
72.320 17.885075
72.325 17.486095
72.330 16.944332
72.335 17.032728
72.340 16.448244
72.345 15.968269
72.350 16.407261
72.355 16.473291
72.360 16.56992
72.365 16.507488
72.370 16.144375
72.375 16.039711
72.380 16.009642
72.385 15.365406
72.390 15.739661
72.395 16.166956
72.400 16.097498
72.405 16.370642
72.410 16.53985
72.415 16.888369
72.420 17.28438
72.425 16.984299
72.430 17.227455
72.435 17.933674
72.440 17.663782
72.445 18.330225
72.450 18.742952
72.455 18.874523
72.460 18.333469
72.465 17.610413
72.470 17.437603
72.475 17.668959
72.480 17.820236
72.485 17.780869
72.490 17.910568
72.495 18.449474
72.500 18.467331
72.505 18.317329
72.510 17.687016
72.515 17.201849
72.520 17.253925
72.525 17.145306
72.530 16.584192
72.535 16.675329
72.540 17.080431
72.545 17.375294
72.550 17.078398
72.555 17.3426
72.560 17.379196
72.565 17.484161
72.570 17.402689
72.575 17.113302
72.580 17.210535
72.585 16.566412
72.590 16.081417
72.595 16.041952
72.600 15.756929
72.605 15.356712
72.610 15.348833
72.615 15.850395
72.620 16.467228
72.625 16.749794
72.630 17.091314
72.635 17.191603
72.640 17.443775
72.645 17.243765
72.650 16.74095
72.655 16.522978
72.660 16.787685
72.665 16.608496
72.670 16.887762
72.675 16.631521
72.680 16.690334
72.685 16.884401
72.690 16.812864
72.695 17.219296
72.700 16.977694
72.705 17.307966
72.710 17.481079
72.715 17.852011
72.720 17.884911
72.725 17.731894
72.730 17.350716
72.735 17.027542
72.740 17.020483
72.745 17.119394
72.750 16.631321
72.755 16.824081
72.760 16.292982
72.765 16.654446
72.770 16.77647
72.775 16.91309
72.780 16.768627
72.785 16.764896
72.790 16.777073
72.795 17.040276
72.800 16.737036
72.805 16.501371
72.810 16.3815
72.815 16.211185
72.820 15.935683
72.825 16.364752
72.830 16.48312
72.835 17.11738
72.840 16.864405
72.845 16.289606
72.850 16.696962
72.855 16.842857
72.860 16.353264
72.865 16.199223
72.870 15.517312
72.875 15.76846
72.880 16.170622
72.885 16.053097
72.890 15.594056
72.895 15.134761
72.900 14.923877
72.905 15.315442
72.910 15.494473
72.915 15.038692
72.920 14.977735
72.925 15.145955
72.930 15.489408
72.935 15.904435
72.940 15.920435
72.945 16.278179
72.950 16.298132
72.955 16.1595
72.960 16.301441
72.965 16.421144
72.970 16.34404
72.975 16.504265
72.980 16.448557
72.985 16.882481
72.990 17.028326
72.995 17.165476
73.000 17.308821
