!@!!GADDS PLOTSO FILE: Chi integration type
!@!!Title/SampleName: map-19
!@!!Comment: ?
!@!!User: Bruker Instrument Administrator
!@!!Site: University of Illinois Chicago
!@!!Frame: map-19_01_000.gfrm
!@!!Wavelengths    1.54184   1.54056   1.54439
!@!!Frame angles: 2Theta: 63.000 Omega: 50.000 Phi: 0.000 Chi: 90.000
!@!!Integration range: 2Theta: 53.000 to 73.000  Gamma: -105.000 to -75.000
!@!!Integration method: bin normalized
!@!N
!@!SS
!@!M
!@!L 0.0 0.0 0.0 0.0
!@!XDegrees
!@!YCounts
53.000 8.124998
53.005 8.41879
53.010 8.410299
53.015 8.430214
53.020 8.506437
53.025 8.496084
53.030 8.292568
53.035 8.29852
53.040 8.218567
53.045 8.579707
53.050 8.684549
53.055 8.420919
53.060 8.849339
53.065 8.7023
53.070 8.369147
53.075 8.108759
53.080 7.707764
53.085 7.976899
53.090 8.057878
53.095 8.152551
53.100 8.297694
53.105 8.776016
53.110 8.239432
53.115 8.052653
53.120 8.382492
53.125 8.356307
53.130 8.400713
53.135 7.811124
53.140 7.655435
53.145 8.118378
53.150 7.908111
53.155 8.101803
53.160 8.349418
53.165 8.137837
53.170 9.014724
53.175 9.669238
53.180 9.893016
53.185 10.238739
53.190 10.079848
53.195 9.866957
53.200 10.046935
53.205 9.679894
53.210 9.572635
53.215 8.890945
53.220 8.407009
53.225 8.313142
53.230 8.514261
53.235 8.652755
53.240 8.328841
53.245 8.426426
53.250 8.905827
53.255 8.805384
53.260 8.445517
53.265 8.130536
53.270 7.902476
53.275 7.889151
53.280 7.778975
53.285 7.727208
53.290 7.982038
53.295 8.099869
53.300 7.797563
53.305 8.348191
53.310 8.237408
53.315 8.64604
53.320 9.040133
53.325 9.555936
53.330 9.977756
53.335 10.826983
53.340 10.693101
53.345 10.880695
53.350 11.130054
53.355 10.579052
53.360 9.785898
53.365 9.372911
53.370 8.63862
53.375 8.342029
53.380 7.909365
53.385 7.357438
53.390 7.565126
53.395 7.815697
53.400 7.770401
53.405 7.979909
53.410 7.973007
53.415 8.034484
53.420 8.069316
53.425 8.732826
53.430 8.913659
53.435 8.864943
53.440 8.938042
53.445 9.167206
53.450 9.410602
53.455 9.224387
53.460 9.365341
53.465 9.209469
53.470 9.213911
53.475 9.345649
53.480 9.260633
53.485 9.07615
53.490 9.30074
53.495 8.962722
53.500 8.913247
53.505 9.087726
53.510 8.977026
53.515 9.182113
53.520 9.012993
53.525 8.576515
53.530 8.587199
53.535 8.519199
53.540 8.492088
53.545 8.365532
53.550 8.183021
53.555 8.322357
53.560 8.76122
53.565 8.772575
53.570 9.039029
53.575 9.509353
53.580 9.803502
53.585 10.091291
53.590 10.00426
53.595 9.546585
53.600 9.748602
53.605 9.298182
53.610 8.805696
53.615 8.836964
53.620 8.667141
53.625 8.82945
53.630 8.751213
53.635 8.41781
53.640 8.473678
53.645 8.503355
53.650 8.528777
53.655 8.851886
53.660 8.847813
53.665 9.391745
53.670 9.498037
53.675 9.566142
53.680 9.648976
53.685 9.508708
53.690 9.554829
53.695 9.370044
53.700 9.304646
53.705 9.260846
53.710 9.088312
53.715 9.407557
53.720 9.4892
53.725 9.129766
53.730 9.219805
53.735 9.395907
53.740 9.68291
53.745 9.602019
53.750 9.220159
53.755 9.089279
53.760 9.300825
53.765 9.348279
53.770 9.198775
53.775 9.174265
53.780 9.255001
53.785 9.164557
53.790 9.307051
53.795 9.079347
53.800 8.755183
53.805 8.987429
53.810 8.808943
53.815 8.858909
53.820 9.07322
53.825 8.969996
53.830 9.137106
53.835 9.29936
53.840 9.232133
53.845 9.101944
53.850 8.614021
53.855 8.925355
53.860 9.216536
53.865 8.977377
53.870 9.043673
53.875 8.823603
53.880 9.074327
53.885 9.346529
53.890 8.986084
53.895 8.775852
53.900 8.663163
53.905 8.598686
53.910 9.064781
53.915 9.121036
53.920 8.786664
53.925 9.038674
53.930 9.068636
53.935 9.263621
53.940 9.5906
53.945 9.270038
53.950 9.198813
53.955 9.430078
53.960 9.772511
53.965 10.004399
53.970 9.921337
53.975 9.655514
53.980 9.443602
53.985 9.64409
53.990 9.685087
53.995 9.176777
54.000 9.070833
54.005 9.135992
54.010 9.305052
54.015 9.523778
54.020 10.183867
54.025 9.926004
54.030 9.985535
54.035 10.106403
54.040 10.281278
54.045 10.484412
54.050 10.393035
54.055 9.768872
54.060 9.517687
54.065 8.915669
54.070 8.764901
54.075 8.615021
54.080 8.561659
54.085 8.323418
54.090 8.632341
54.095 9.505173
54.100 10.349828
54.105 10.700862
54.110 10.978314
54.115 11.074462
54.120 11.431434
54.125 11.612753
54.130 11.429291
54.135 11.534847
54.140 11.520282
54.145 11.165105
54.150 10.60437
54.155 10.358891
54.160 10.107131
54.165 10.102978
54.170 9.579452
54.175 9.402596
54.180 9.645289
54.185 9.918452
54.190 9.676999
54.195 9.293146
54.200 9.403895
54.205 9.900654
54.210 10.077306
54.215 10.250549
54.220 10.179003
54.225 10.214762
54.230 10.584943
54.235 10.236496
54.240 9.923005
54.245 9.617864
54.250 9.504073
54.255 9.538312
54.260 10.298634
54.265 10.973459
54.270 11.471248
54.275 11.25181
54.280 11.180854
54.285 11.155934
54.290 11.342275
54.295 10.708572
54.300 10.210085
54.305 9.566632
54.310 9.568808
54.315 9.699353
54.320 9.441255
54.325 9.194413
54.330 8.942163
54.335 8.678694
54.340 8.946916
54.345 9.223223
54.350 9.441284
54.355 9.485785
54.360 9.260528
54.365 9.152559
54.370 8.794461
54.375 8.824057
54.380 8.386243
54.385 8.066523
54.390 8.031075
54.395 8.165885
54.400 8.196253
54.405 8.472117
54.410 8.808786
54.415 9.253689
54.420 9.325502
54.425 9.264708
54.430 9.328517
54.435 9.391843
54.440 9.256871
54.445 9.333353
54.450 9.618602
54.455 9.722457
54.460 9.718294
54.465 9.733863
54.470 10.331918
54.475 10.692265
54.480 10.361805
54.485 10.25806
54.490 10.351126
54.495 10.436072
54.500 10.877932
54.505 10.449978
54.510 10.27076
54.515 10.004878
54.520 9.696509
54.525 9.699294
54.530 9.893785
54.535 9.284904
54.540 8.857692
54.545 8.727489
54.550 8.877179
54.555 8.975095
54.560 8.889925
54.565 8.768249
54.570 8.995778
54.575 9.194751
54.580 9.351638
54.585 9.389076
54.590 9.358648
54.595 9.165508
54.600 8.957339
54.605 9.381376
54.610 9.729889
54.615 9.806823
54.620 10.079582
54.625 10.457799
54.630 10.625545
54.635 10.499322
54.640 10.087715
54.645 9.860454
54.650 9.7989
54.655 9.669708
54.660 9.592468
54.665 10.273723
54.670 10.634194
54.675 10.737621
54.680 10.416533
54.685 10.254909
54.690 10.549413
54.695 10.67383
54.700 10.310292
54.705 9.62534
54.710 9.0768
54.715 9.365187
54.720 9.362881
54.725 9.109666
54.730 8.717072
54.735 9.020597
54.740 9.607629
54.745 10.450867
54.750 10.438863
54.755 10.169168
54.760 9.917508
54.765 9.854273
54.770 9.567399
54.775 9.232957
54.780 8.931617
54.785 9.122701
54.790 9.566536
54.795 10.235555
54.800 10.655625
54.805 10.677149
54.810 10.50042
54.815 10.265526
54.820 10.424402
54.825 10.100726
54.830 9.780745
54.835 9.283766
54.840 9.544455
54.845 9.890523
54.850 10.232268
54.855 10.56784
54.860 10.602879
54.865 10.702532
54.870 11.201647
54.875 11.362636
54.880 11.325029
54.885 11.068748
54.890 11.173341
54.895 11.200629
54.900 11.188723
54.905 10.634541
54.910 10.744549
54.915 10.606262
54.920 9.95067
54.925 9.456764
54.930 9.460426
54.935 9.585316
54.940 9.81525
54.945 9.89793
54.950 10.672191
54.955 11.442662
54.960 11.516047
54.965 11.41215
54.970 10.775803
54.975 10.571171
54.980 10.277613
54.985 9.76927
54.990 9.326602
54.995 9.180715
55.000 9.507453
55.005 10.142168
55.010 10.228482
55.015 10.537889
55.020 10.44485
55.025 11.113079
55.030 11.561982
55.035 11.769674
55.040 11.988756
55.045 11.885421
55.050 11.909857
55.055 12.028937
55.060 12.097032
55.065 11.75716
55.070 11.218825
55.075 10.84404
55.080 10.857863
55.085 10.733334
55.090 10.371955
55.095 10.404713
55.100 10.528974
55.105 10.632061
55.110 10.760524
55.115 10.691728
55.120 10.987097
55.125 11.079572
55.130 11.063663
55.135 10.816991
55.140 10.544183
55.145 10.843803
55.150 10.865477
55.155 10.933306
55.160 11.12278
55.165 10.715247
55.170 10.8712
55.175 11.050243
55.180 10.758833
55.185 10.288321
55.190 9.691792
55.195 9.578568
55.200 10.145933
55.205 10.161105
55.210 10.132188
55.215 10.033148
55.220 10.524677
55.225 10.678417
55.230 10.969437
55.235 10.770232
55.240 10.796285
55.245 10.32729
55.250 10.468331
55.255 10.11372
55.260 9.611658
55.265 9.695209
55.270 9.939028
55.275 10.453064
55.280 10.848907
55.285 10.875699
55.290 11.236551
55.295 11.641469
55.300 11.14878
55.305 10.653827
55.310 10.100792
55.315 10.060103
55.320 9.961897
55.325 9.725965
55.330 9.743504
55.335 9.680687
55.340 9.991076
55.345 10.171944
55.350 10.138627
55.355 10.381388
55.360 10.640411
55.365 10.217271
55.370 10.306598
55.375 10.511345
55.380 10.4891
55.385 10.687584
55.390 10.882858
55.395 11.201521
55.400 11.174067
55.405 10.85116
55.410 11.149496
55.415 11.217445
55.420 11.234871
55.425 11.182425
55.430 11.218728
55.435 11.559903
55.440 11.584957
55.445 10.96394
55.450 10.630877
55.455 10.086832
55.460 9.727549
55.465 9.680574
55.470 9.639185
55.475 10.001789
55.480 10.553676
55.485 10.751484
55.490 10.919227
55.495 11.236522
55.500 11.1177
55.505 11.454362
55.510 11.476871
55.515 11.382802
55.520 11.498116
55.525 11.267187
55.530 10.932161
55.535 10.787153
55.540 10.38849
55.545 10.178782
55.550 10.151418
55.555 10.32711
55.560 10.712809
55.565 10.927784
55.570 11.349057
55.575 11.171234
55.580 11.152141
55.585 11.433121
55.590 11.428523
55.595 11.569072
55.600 11.69667
55.605 11.51005
55.610 11.371409
55.615 11.453932
55.620 11.327292
55.625 10.749613
55.630 10.248947
55.635 10.567129
55.640 11.007918
55.645 11.433805
55.650 11.292497
55.655 11.45244
55.660 11.815774
55.665 11.884222
55.670 11.046184
55.675 11.030919
55.680 11.087873
55.685 11.106389
55.690 10.945993
55.695 10.776605
55.700 11.345188
55.705 11.718026
55.710 11.52469
55.715 11.85426
55.720 11.837601
55.725 12.054013
55.730 11.881219
55.735 10.92853
55.740 10.553486
55.745 10.350612
55.750 9.636299
55.755 9.454638
55.760 9.466574
55.765 9.609187
55.770 9.928951
55.775 9.651281
55.780 9.746646
55.785 10.600517
55.790 10.743514
55.795 11.104255
55.800 11.144925
55.805 11.329459
55.810 11.823756
55.815 11.953031
55.820 11.539126
55.825 11.678551
55.830 11.891809
55.835 12.478355
55.840 12.808916
55.845 12.764469
55.850 12.541481
55.855 12.887387
55.860 13.065492
55.865 12.736331
55.870 11.816594
55.875 11.402507
55.880 11.517365
55.885 11.813749
55.890 11.320099
55.895 10.774416
55.900 10.853941
55.905 11.243098
55.910 11.603524
55.915 11.347833
55.920 11.090229
55.925 11.514607
55.930 11.621552
55.935 11.75217
55.940 12.170473
55.945 12.177287
55.950 12.36746
55.955 12.159604
55.960 11.627349
55.965 11.650237
55.970 11.784857
55.975 11.826327
55.980 11.829636
55.985 12.28831
55.990 12.935309
55.995 13.354221
56.000 13.463332
56.005 13.435441
56.010 13.268917
56.015 13.143509
56.020 12.535807
56.025 12.0535
56.030 11.551343
56.035 11.332294
56.040 11.261091
56.045 11.022655
56.050 11.048279
56.055 11.308062
56.060 11.546144
56.065 11.521382
56.070 11.068581
56.075 11.080762
56.080 11.544768
56.085 11.23442
56.090 10.941957
56.095 11.089692
56.100 11.58125
56.105 11.89168
56.110 11.841762
56.115 11.742996
56.120 12.335917
56.125 12.572903
56.130 12.752959
56.135 12.937208
56.140 13.009502
56.145 12.757922
56.150 12.239349
56.155 11.971738
56.160 11.587666
56.165 11.099863
56.170 10.895582
56.175 10.774924
56.180 10.230557
56.185 10.296291
56.190 10.269811
56.195 10.841085
56.200 11.630882
56.205 11.588453
56.210 12.043433
56.215 13.407955
56.220 13.244944
56.225 13.479006
56.230 13.725354
56.235 13.710621
56.240 13.940581
56.245 13.991992
56.250 13.377129
56.255 13.651196
56.260 13.841951
56.265 13.138481
56.270 12.433982
56.275 12.183358
56.280 12.135016
56.285 12.405658
56.290 12.646732
56.295 11.891964
56.300 11.830215
56.305 12.017437
56.310 11.729841
56.315 11.247617
56.320 10.583953
56.325 10.909678
56.330 11.272337
56.335 11.454569
56.340 11.647264
56.345 12.067375
56.350 12.341463
56.355 12.44375
56.360 12.10745
56.365 12.22629
56.370 12.048077
56.375 11.553345
56.380 10.95653
56.385 11.347687
56.390 11.531116
56.395 11.59723
56.400 11.901062
56.405 12.284925
56.410 12.174876
56.415 12.332653
56.420 12.709486
56.425 13.037739
56.430 13.005877
56.435 12.78394
56.440 12.672585
56.445 12.96329
56.450 12.699103
56.455 12.534982
56.460 12.380078
56.465 12.286531
56.470 12.259418
56.475 12.600264
56.480 12.514674
56.485 12.607443
56.490 12.254925
56.495 12.030302
56.500 11.911528
56.505 11.393477
56.510 11.362209
56.515 11.748818
56.520 11.718095
56.525 11.828712
56.530 11.965271
56.535 12.472738
56.540 12.941674
56.545 12.98825
56.550 12.979567
56.555 13.134395
56.560 13.364154
56.565 13.243452
56.570 12.770268
56.575 12.475035
56.580 12.301589
56.585 12.285164
56.590 12.553892
56.595 12.849305
56.600 12.577615
56.605 12.705856
56.610 12.493519
56.615 12.267536
56.620 12.438597
56.625 11.724151
56.630 11.393183
56.635 11.864835
56.640 11.726448
56.645 12.135239
56.650 12.170074
56.655 12.252565
56.660 12.578735
56.665 12.618549
56.670 12.573014
56.675 12.765011
56.680 12.711299
56.685 12.61313
56.690 12.305281
56.695 12.116795
56.700 11.63563
56.705 11.944315
56.710 11.851219
56.715 12.327219
56.720 12.680606
56.725 12.695104
56.730 13.198463
56.735 13.52307
56.740 13.447541
56.745 13.647843
56.750 13.017048
56.755 12.985744
56.760 12.868017
56.765 12.48751
56.770 12.10356
56.775 11.858401
56.780 12.204735
56.785 12.597652
56.790 12.660934
56.795 13.101879
56.800 13.495711
56.805 13.790464
56.810 13.818577
56.815 13.763176
56.820 13.838399
56.825 13.876935
56.830 13.925759
56.835 13.866579
56.840 14.007197
56.845 13.770612
56.850 13.649281
56.855 13.402035
56.860 13.102194
56.865 12.955858
56.870 13.232048
56.875 13.671935
56.880 13.944382
56.885 13.338588
56.890 13.419674
56.895 13.494375
56.900 12.821711
56.905 12.610593
56.910 12.3494
56.915 12.567384
56.920 12.574015
56.925 12.331078
56.930 12.492177
56.935 13.029154
56.940 12.465273
56.945 12.241485
56.950 11.905779
56.955 12.058545
56.960 12.111728
56.965 11.853467
56.970 11.563955
56.975 12.508249
56.980 12.64983
56.985 12.894464
56.990 12.697124
56.995 12.284033
57.000 12.248766
57.005 12.533263
57.010 12.192639
57.015 12.430722
57.020 12.647673
57.025 13.347864
57.030 13.825345
57.035 13.877923
57.040 14.116578
57.045 14.221217
57.050 13.999309
57.055 13.899507
57.060 13.673155
57.065 13.787094
57.070 13.9305
57.075 13.967929
57.080 13.647483
57.085 13.389217
57.090 13.485463
57.095 13.558125
57.100 13.948078
57.105 13.561977
57.110 13.522801
57.115 13.990198
57.120 14.299166
57.125 14.535851
57.130 14.268153
57.135 14.002126
57.140 14.119347
57.145 13.777631
57.150 13.23548
57.155 12.997085
57.160 13.33087
57.165 13.281486
57.170 13.329474
57.175 13.584893
57.180 13.618474
57.185 13.674732
57.190 13.40452
57.195 13.376559
57.200 13.783878
57.205 13.940997
57.210 13.85863
57.215 13.784663
57.220 13.85784
57.225 13.952118
57.230 14.03584
57.235 13.338358
57.240 12.790642
57.245 12.669179
57.250 12.833783
57.255 13.147374
57.260 13.071047
57.265 12.900055
57.270 13.401352
57.275 13.304524
57.280 13.535842
57.285 13.660728
57.290 13.534454
57.295 13.659846
57.300 13.720989
57.305 13.59997
57.310 13.621468
57.315 13.467001
57.320 13.678164
57.325 13.739344
57.330 13.578061
57.335 13.340507
57.340 13.893252
57.345 14.583427
57.350 15.026522
57.355 15.490974
57.360 15.414113
57.365 14.877913
57.370 15.123129
57.375 14.828823
57.380 14.134966
57.385 13.604397
57.390 13.115899
57.395 13.729795
57.400 14.582945
57.405 14.914763
57.410 15.149367
57.415 15.321622
57.420 15.407309
57.425 15.370938
57.430 15.612687
57.435 15.394144
57.440 15.012918
57.445 15.131739
57.450 15.470884
57.455 15.685437
57.460 15.766007
57.465 15.425209
57.470 15.184909
57.475 14.91415
57.480 14.535438
57.485 14.555521
57.490 14.762936
57.495 14.855873
57.500 15.173876
57.505 15.627798
57.510 15.805891
57.515 16.096947
57.520 15.981544
57.525 15.48391
57.530 15.274504
57.535 14.991884
57.540 14.865636
57.545 14.904893
57.550 15.0571
57.555 14.963604
57.560 14.820301
57.565 14.570043
57.570 14.227832
57.575 14.383904
57.580 14.26422
57.585 14.096714
57.590 14.133544
57.595 14.300777
57.600 14.337218
57.605 14.552327
57.610 14.271894
57.615 14.234871
57.620 14.335875
57.625 14.796541
57.630 15.054531
57.635 15.228647
57.640 14.691076
57.645 14.309817
57.650 14.039145
57.655 13.957305
57.660 13.446857
57.665 12.864771
57.670 12.376905
57.675 12.451505
57.680 12.547335
57.685 12.604279
57.690 12.37928
57.695 12.874976
57.700 13.26634
57.705 13.65534
57.710 13.616797
57.715 13.898423
57.720 14.008904
57.725 14.135118
57.730 14.06794
57.735 14.132414
57.740 14.485353
57.745 14.686265
57.750 14.624103
57.755 14.860468
57.760 14.626527
57.765 14.293143
57.770 14.173665
57.775 14.213264
57.780 14.189448
57.785 14.265221
57.790 14.518069
57.795 15.015124
57.800 15.577871
57.805 15.740688
57.810 15.899889
57.815 15.805224
57.820 15.47451
57.825 15.426147
57.830 14.84243
57.835 14.716411
57.840 14.988823
57.845 14.637285
57.850 14.842517
57.855 14.527138
57.860 13.76777
57.865 13.294507
57.870 13.281693
57.875 13.290645
57.880 13.329441
57.885 13.399158
57.890 13.57245
57.895 13.842302
57.900 14.651184
57.905 14.02337
57.910 13.897092
57.915 14.328596
57.920 14.566094
57.925 14.983282
57.930 14.973638
57.935 14.743569
57.940 15.049397
57.945 14.865303
57.950 14.636461
57.955 14.579692
57.960 14.861855
57.965 15.783961
57.970 16.497633
57.975 16.605103
57.980 16.928282
57.985 17.077513
57.990 16.948557
57.995 16.31736
58.000 15.347625
58.005 15.12256
58.010 14.643036
58.015 14.204722
58.020 13.9803
58.025 14.471349
58.030 14.875939
58.035 14.861692
58.040 14.99536
58.045 15.652202
58.050 16.7355
58.055 17.042664
58.060 16.680933
58.065 16.803741
58.070 17.075026
58.075 17.173807
58.080 16.989197
58.085 16.822346
58.090 16.931227
58.095 17.308554
58.100 17.50699
58.105 17.716663
58.110 18.358282
58.115 18.308817
58.120 17.665739
58.125 17.054298
58.130 16.352566
58.135 16.317537
58.140 15.88527
58.145 15.167598
58.150 15.760276
58.155 15.789033
58.160 16.192919
58.165 16.883604
58.170 17.099466
58.175 17.698101
58.180 18.034744
58.185 17.479021
58.190 17.593479
58.195 17.419935
58.200 16.536856
58.205 16.107647
58.210 16.238501
58.215 15.910166
58.220 16.004349
58.225 16.243534
58.230 16.79097
58.235 17.344866
58.240 17.432358
58.245 17.069103
58.250 16.486732
58.255 16.295057
58.260 16.256517
58.265 16.297611
58.270 16.123798
58.275 15.934661
58.280 16.051363
58.285 16.809959
58.290 17.145401
58.295 17.225756
58.300 17.751022
58.305 18.642834
58.310 18.737484
58.315 18.91242
58.320 19.696335
58.325 20.05381
58.330 20.214125
58.335 20.181028
58.340 20.678017
58.345 20.860006
58.350 21.141319
58.355 20.556597
58.360 20.537539
58.365 20.631407
58.370 20.556589
58.375 19.71627
58.380 19.612408
58.385 19.695868
58.390 19.961258
58.395 20.737013
58.400 20.807636
58.405 20.535751
58.410 20.365236
58.415 20.107283
58.420 20.406805
58.425 20.340765
58.430 19.763935
58.435 19.150053
58.440 19.387857
58.445 20.013105
58.450 20.527525
58.455 20.038004
58.460 20.261147
58.465 20.664465
58.470 21.099348
58.475 20.713303
58.480 20.522669
58.485 19.853949
58.490 19.879627
58.495 19.636923
58.500 19.505159
58.505 20.097008
58.510 20.247726
58.515 20.424578
58.520 21.004898
58.525 21.098894
58.530 21.388552
58.535 20.912516
58.540 20.293957
58.545 20.707302
58.550 20.707415
58.555 20.5837
58.560 20.529814
58.565 20.630535
58.570 21.000286
58.575 21.26738
58.580 20.902348
58.585 21.534235
58.590 21.79999
58.595 21.953705
58.600 21.850363
58.605 22.056786
58.610 22.164988
58.615 22.20385
58.620 21.746181
58.625 21.755484
58.630 21.423738
58.635 21.462812
58.640 21.279263
58.645 20.807989
58.650 20.983624
58.655 20.923025
58.660 21.16016
58.665 21.428406
58.670 20.867006
58.675 21.138016
58.680 21.495705
58.685 21.438501
58.690 21.567965
58.695 21.362944
58.700 21.003174
58.705 21.087948
58.710 20.625029
58.715 20.557468
58.720 20.698576
58.725 20.893684
58.730 21.142878
58.735 21.058208
58.740 20.728809
58.745 21.053041
58.750 21.206301
58.755 20.895134
58.760 20.783335
58.765 20.049463
58.770 19.896631
58.775 20.036728
58.780 19.510639
58.785 19.19623
58.790 18.804995
58.795 19.172234
58.800 20.209721
58.805 20.981588
58.810 21.649288
58.815 21.831205
58.820 21.611071
58.825 21.966324
58.830 21.392633
58.835 20.462288
58.840 19.828678
58.845 19.129868
58.850 18.866236
58.855 18.851482
58.860 18.876877
58.865 19.065645
58.870 19.491306
58.875 20.154305
58.880 20.336664
58.885 20.920135
58.890 21.340487
58.895 21.041382
58.900 20.989664
58.905 19.914043
58.910 18.983322
58.915 18.696131
58.920 18.388103
58.925 18.20805
58.930 18.625704
58.935 18.73424
58.940 19.951694
58.945 20.205141
58.950 20.348711
58.955 20.226906
58.960 20.024702
58.965 19.412451
58.970 19.714645
58.975 19.713612
58.980 19.461069
58.985 19.460157
58.990 20.214378
58.995 20.464664
59.000 20.585629
59.005 20.168158
59.010 19.977507
59.015 20.384199
59.020 20.384563
59.025 19.545702
59.030 19.173733
59.035 18.784889
59.040 18.926315
59.045 19.437973
59.050 19.152634
59.055 19.104864
59.060 19.362886
59.065 18.983118
59.070 18.94289
59.075 19.402546
59.080 19.572983
59.085 19.453302
59.090 19.633421
59.095 19.341009
59.100 19.869879
59.105 20.263519
59.110 19.293427
59.115 18.642221
59.120 18.80381
59.125 18.809298
59.130 19.310276
59.135 19.428461
59.140 19.682877
59.145 19.605684
59.150 20.070412
59.155 20.212023
59.160 20.417826
59.165 21.111988
59.170 21.456244
59.175 21.377445
59.180 21.195763
59.185 21.312744
59.190 20.972378
59.195 20.180859
59.200 19.112473
59.205 18.646942
59.210 18.837469
59.215 18.468449
59.220 17.613611
59.225 17.150724
59.230 17.053841
59.235 17.301575
59.240 17.357674
59.245 17.455801
59.250 18.091175
59.255 18.61237
59.260 19.338165
59.265 19.720697
59.270 20.025484
59.275 19.819366
59.280 19.010357
59.285 18.020094
59.290 17.945906
59.295 17.703529
59.300 17.511377
59.305 17.598442
59.310 17.800428
59.315 18.060444
59.320 18.532141
59.325 18.972046
59.330 19.254833
59.335 19.605612
59.340 19.313339
59.345 19.139414
59.350 19.406168
59.355 19.724661
59.360 18.838379
59.365 18.915131
59.370 18.451895
59.375 19.214211
59.380 20.365576
59.385 20.563807
59.390 20.206789
59.395 20.508289
59.400 20.729568
59.405 21.031775
59.410 20.58906
59.415 19.680187
59.420 18.911705
59.425 19.297983
59.430 18.598543
59.435 17.848894
59.440 17.757118
59.445 17.570015
59.450 17.668562
59.455 18.246622
59.460 18.595222
59.465 19.458273
59.470 20.087269
59.475 20.056402
59.480 20.076939
59.485 20.266367
59.490 20.213392
59.495 20.600021
59.500 19.94912
59.505 19.460323
59.510 19.250662
59.515 19.425941
59.520 19.568596
59.525 19.392008
59.530 18.273912
59.535 18.351414
59.540 18.432964
59.545 18.265352
59.550 17.903322
59.555 17.751848
59.560 18.231871
59.565 18.83333
59.570 19.035748
59.575 19.235712
59.580 19.171022
59.585 18.663231
59.590 18.748714
59.595 18.041641
59.600 17.79689
59.605 17.772747
59.610 17.469122
59.615 17.647476
59.620 18.062141
59.625 17.848692
59.630 18.369577
59.635 18.827162
59.640 18.683016
59.645 18.783522
59.650 18.892551
59.655 18.787594
59.660 18.485315
59.665 18.513384
59.670 18.111336
59.675 18.427025
59.680 18.130812
59.685 17.574001
59.690 17.609602
59.695 17.772968
59.700 18.270231
59.705 18.358887
59.710 18.612103
59.715 18.485603
59.720 18.61788
59.725 18.731596
59.730 19.15082
59.735 18.648846
59.740 18.698589
59.745 18.846928
59.750 20.084393
59.755 20.226006
59.760 20.31514
59.765 20.321142
59.770 20.118187
59.775 19.907816
59.780 19.450705
59.785 18.302095
59.790 18.437424
59.795 18.030449
59.800 17.645477
59.805 17.675705
59.810 17.362747
59.815 17.484665
59.820 17.270832
59.825 17.274439
59.830 18.297461
59.835 18.598339
59.840 18.885405
59.845 19.283171
59.850 19.001148
59.855 19.109905
59.860 18.869637
59.865 18.298309
59.870 17.533842
59.875 17.609436
59.880 17.662598
59.885 18.565756
59.890 19.429705
59.895 19.423445
59.900 19.367491
59.905 19.551956
59.910 19.032042
59.915 18.560595
59.920 17.883078
59.925 17.612871
59.930 17.260622
59.935 17.207766
59.940 17.31732
59.945 17.48497
59.950 17.756001
59.955 17.363468
59.960 16.865658
59.965 17.190151
59.970 16.888783
59.975 16.280781
59.980 16.167389
59.985 16.86804
59.990 18.120359
59.995 18.67934
60.000 18.704706
60.005 19.018169
60.010 19.685488
60.015 19.186745
60.020 18.628344
60.025 17.817474
60.030 17.217274
60.035 16.421135
60.040 16.312956
60.045 16.561041
60.050 16.363981
60.055 16.03673
60.060 16.540249
60.065 17.080975
60.070 17.472343
60.075 17.619383
60.080 17.123299
60.085 17.410816
60.090 17.677639
60.095 17.559875
60.100 17.737974
60.105 17.275543
60.110 16.618505
60.115 16.535286
60.120 16.505249
60.125 16.136347
60.130 15.383968
60.135 15.042535
60.140 15.331266
60.145 15.471947
60.150 15.376012
60.155 15.463831
60.160 15.434305
60.165 15.634568
60.170 15.532614
60.175 15.524304
60.180 16.199265
60.185 16.50934
60.190 16.478682
60.195 17.163588
60.200 17.32312
60.205 17.161556
60.210 17.412107
60.215 17.201452
60.220 16.329195
60.225 16.537876
60.230 15.992326
60.235 15.808521
60.240 16.043875
60.245 15.77854
60.250 15.746579
60.255 16.469341
60.260 16.237261
60.265 15.931715
60.270 15.939475
60.275 16.117666
60.280 16.108126
60.285 15.866224
60.290 15.77041
60.295 15.600524
60.300 15.568161
60.305 15.980371
60.310 15.462892
60.315 15.425092
60.320 15.824606
60.325 15.76683
60.330 16.184
60.335 16.801977
60.340 16.940361
60.345 17.635122
60.350 17.877104
60.355 17.836151
60.360 17.857475
60.365 17.706039
60.370 17.293982
60.375 16.740196
60.380 16.539795
60.385 16.508295
60.390 16.298164
60.395 16.39637
60.400 15.940095
60.405 15.861698
60.410 15.648293
60.415 15.302563
60.420 15.301038
60.425 15.165307
60.430 15.136837
60.435 15.020915
60.440 14.763323
60.445 14.835968
60.450 14.82937
60.455 14.578102
60.460 14.620052
60.465 14.762664
60.470 15.012014
60.475 15.134273
60.480 15.308503
60.485 15.695816
60.490 16.232889
60.495 16.593334
60.500 16.241449
60.505 16.393389
60.510 17.036657
60.515 17.12648
60.520 17.187712
60.525 16.935093
60.530 16.492979
60.535 16.712755
60.540 16.952087
60.545 16.940968
60.550 16.856718
60.555 16.771767
60.560 17.031624
60.565 17.148685
60.570 17.145617
60.575 17.408295
60.580 17.616524
60.585 17.692913
60.590 17.882622
60.595 18.040907
60.600 17.780123
60.605 17.282709
60.610 16.799833
60.615 15.998337
60.620 15.800972
60.625 15.172347
60.630 15.030087
60.635 15.057691
60.640 14.980175
60.645 15.074241
60.650 15.615155
60.655 15.561867
60.660 15.528524
60.665 15.830322
60.670 16.112909
60.675 17.023397
60.680 17.087751
60.685 16.926626
60.690 17.087584
60.695 16.895647
60.700 16.724625
60.705 16.311842
60.710 15.446867
60.715 15.285297
60.720 15.231656
60.725 15.475636
60.730 15.384605
60.735 15.136323
60.740 15.493629
60.745 15.511426
60.750 15.322847
60.755 15.335288
60.760 15.285456
60.765 15.286
60.770 15.07681
60.775 14.961926
60.780 15.336175
60.785 15.905087
60.790 15.604095
60.795 15.661319
60.800 15.360967
60.805 15.573618
60.810 16.196726
60.815 15.984153
60.820 15.778156
60.825 16.555952
60.830 16.643682
60.835 17.084909
60.840 16.840668
60.845 16.859735
60.850 17.459375
60.855 16.824366
60.860 16.164997
60.865 16.07696
60.870 16.21608
60.875 16.62298
60.880 15.766515
60.885 15.224814
60.890 15.635121
60.895 15.366884
60.900 15.528419
60.905 15.051874
60.910 14.573109
60.915 15.405394
60.920 15.297639
60.925 14.911857
60.930 14.967419
60.935 15.002108
60.940 15.386945
60.945 15.406811
60.950 14.937494
60.955 15.091571
60.960 14.907155
60.965 14.934209
60.970 15.208356
60.975 15.4845
60.980 15.447225
60.985 15.275144
60.990 16.285402
60.995 16.65196
61.000 16.098816
61.005 15.263041
61.010 15.00709
61.015 15.199948
61.020 14.557701
61.025 13.975888
61.030 14.39983
61.035 15.368265
61.040 15.855112
61.045 15.737852
61.050 15.774734
61.055 16.243528
61.060 15.793351
61.065 15.378055
61.070 15.419813
61.075 16.087423
61.080 16.366985
61.085 16.698469
61.090 16.69034
61.095 17.670034
61.100 18.005421
61.105 17.293985
61.110 16.565012
61.115 16.156618
61.120 15.9723
61.125 16.113306
61.130 16.035789
61.135 16.052963
61.140 16.156868
61.145 16.358475
61.150 17.043432
61.155 17.314804
61.160 17.250954
61.165 16.493965
61.170 16.751152
61.175 16.751291
61.180 16.68833
61.185 16.518612
61.190 16.462915
61.195 16.725328
61.200 16.770164
61.205 16.93174
61.210 16.885178
61.215 16.726549
61.220 16.206968
61.225 15.687191
61.230 14.900851
61.235 14.823865
61.240 14.640649
61.245 14.805993
61.250 14.802874
61.255 14.964942
61.260 15.717002
61.265 16.164621
61.270 16.063772
61.275 16.023594
61.280 16.095057
61.285 16.052378
61.290 16.020544
61.295 15.799068
61.300 15.28901
61.305 15.381743
61.310 15.503488
61.315 15.503523
61.320 15.765797
61.325 15.896404
61.330 15.916072
61.335 16.753498
61.340 16.390902
61.345 15.633402
61.350 15.545747
61.355 15.272202
61.360 15.09551
61.365 14.700286
61.370 14.682201
61.375 14.772878
61.380 15.06194
61.385 14.868774
61.390 14.917424
61.395 14.905055
61.400 15.136802
61.405 14.606916
61.410 15.078933
61.415 15.119839
61.420 15.070589
61.425 15.380602
61.430 15.081768
61.435 15.280107
61.440 16.074333
61.445 16.527952
61.450 17.153124
61.455 17.35569
61.460 17.260433
61.465 17.760708
61.470 18.086092
61.475 18.150318
61.480 17.503139
61.485 17.089415
61.490 17.351372
61.495 17.600149
61.500 17.142687
61.505 16.277151
61.510 15.713193
61.515 15.993178
61.520 16.171
61.525 16.008507
61.530 16.27014
61.535 16.465315
61.540 16.826077
61.545 17.579906
61.550 17.553091
61.555 17.41107
61.560 17.200211
61.565 17.220255
61.570 17.247366
61.575 17.217216
61.580 17.172277
61.585 16.904177
61.590 17.262316
61.595 17.28701
61.600 16.983028
61.605 17.420193
61.610 17.253263
61.615 16.57209
61.620 16.477465
61.625 16.627897
61.630 16.812302
61.635 16.338474
61.640 15.90064
61.645 15.906955
61.650 16.068247
61.655 16.122242
61.660 15.831924
61.665 15.217897
61.670 15.537655
61.675 15.737268
61.680 15.119608
61.685 14.612339
61.690 14.993037
61.695 15.290841
61.700 15.775027
61.705 15.506498
61.710 15.545216
61.715 16.635931
61.720 17.123058
61.725 16.328953
61.730 16.276377
61.735 16.042543
61.740 16.228722
61.745 15.9457
61.750 15.755738
61.755 15.8578
61.760 16.088724
61.765 16.12075
61.770 16.429239
61.775 16.620543
61.780 16.985418
61.785 16.555408
61.790 16.017595
61.795 15.898293
61.800 15.554597
61.805 15.388546
61.810 16.019037
61.815 15.970296
61.820 16.373964
61.825 16.813745
61.830 17.517935
61.835 17.619654
61.840 17.63681
61.845 17.052305
61.850 16.926914
61.855 17.116596
61.860 16.947124
61.865 16.380762
61.870 16.530975
61.875 16.574501
61.880 16.51223
61.885 16.833067
61.890 16.779415
61.895 17.942663
61.900 18.339834
61.905 18.141912
61.910 18.143196
61.915 18.00466
61.920 17.910589
61.925 17.883188
61.930 17.167784
61.935 17.011114
61.940 17.220232
61.945 17.369244
61.950 17.352926
61.955 17.628742
61.960 17.259581
61.965 16.473774
61.970 16.554159
61.975 16.634918
61.980 16.457159
61.985 16.709438
61.990 16.962671
61.995 17.823692
62.000 17.931486
62.005 18.137741
62.010 17.669268
62.015 17.112066
62.020 16.695078
62.025 15.665076
62.030 14.951662
62.035 14.597812
62.040 13.755738
62.045 14.093131
62.050 14.456379
62.055 14.613708
62.060 14.964143
62.065 15.232144
62.070 15.789716
62.075 16.540337
62.080 16.388784
62.085 16.165159
62.090 16.29458
62.095 15.96516
62.100 15.954137
62.105 15.894437
62.110 15.936482
62.115 16.365124
62.120 16.933617
62.125 16.95319
62.130 16.91482
62.135 17.070805
62.140 16.998426
62.145 16.687904
62.150 16.47891
62.155 16.731543
62.160 16.86508
62.165 16.950733
62.170 17.438219
62.175 17.303749
62.180 17.409847
62.185 17.222548
62.190 16.217184
62.195 15.779103
62.200 15.887462
62.205 15.2368
62.210 15.302526
62.215 15.249832
62.220 15.180279
62.225 15.551322
62.230 15.619642
62.235 14.88941
62.240 14.666595
62.245 14.520111
62.250 14.701877
62.255 14.984111
62.260 15.023976
62.265 15.207964
62.270 15.626163
62.275 15.68032
62.280 15.353946
62.285 15.275604
62.290 15.247172
62.295 15.392035
62.300 15.412363
62.305 15.353488
62.310 15.043562
62.315 14.859153
62.320 14.865923
62.325 14.873695
62.330 15.116443
62.335 15.153475
62.340 15.136939
62.345 15.41772
62.350 15.674631
62.355 15.946486
62.360 16.01935
62.365 15.531559
62.370 15.351738
62.375 15.41552
62.380 15.857519
62.385 15.6481
62.390 15.143182
62.395 14.920393
62.400 15.538972
62.405 15.518869
62.410 16.340824
62.415 16.672506
62.420 17.58655
62.425 17.759476
62.430 17.67454
62.435 17.262793
62.440 17.522682
62.445 17.156788
62.450 16.578367
62.455 16.374901
62.460 16.349588
62.465 16.169855
62.470 16.350489
62.475 16.670595
62.480 16.39584
62.485 16.252218
62.490 15.974284
62.495 16.334698
62.500 17.023113
62.505 17.07686
62.510 16.515167
62.515 16.147789
62.520 16.257505
62.525 16.786064
62.530 17.01655
62.535 16.672834
62.540 16.635933
62.545 17.037004
62.550 17.691784
62.555 17.945719
62.560 17.216326
62.565 16.983753
62.570 16.789179
62.575 16.876017
62.580 16.329205
62.585 16.094191
62.590 16.109396
62.595 16.792908
62.600 16.88896
62.605 17.075045
62.610 16.582758
62.615 16.684889
62.620 16.509827
62.625 16.516529
62.630 16.666107
62.635 16.594696
62.640 16.798893
62.645 17.639351
62.650 17.951109
62.655 18.196209
62.660 17.457899
62.665 16.636639
62.670 16.147429
62.675 15.669325
62.680 14.741852
62.685 14.574574
62.690 14.512214
62.695 15.246263
62.700 15.597957
62.705 15.952891
62.710 16.080889
62.715 16.551222
62.720 16.611008
62.725 17.016987
62.730 17.055691
62.735 16.743425
62.740 16.293343
62.745 16.467112
62.750 16.413858
62.755 16.802139
62.760 16.920286
62.765 16.792845
62.770 16.63228
62.775 16.339842
62.780 15.849467
62.785 15.648043
62.790 15.238655
62.795 15.455656
62.800 15.928214
62.805 16.808744
62.810 17.573465
62.815 17.551193
62.820 18.616131
62.825 18.918898
62.830 18.741014
62.835 18.137415
62.840 17.650541
62.845 17.719973
62.850 18.066999
62.855 17.72064
62.860 18.045403
62.865 17.929466
62.870 17.919594
62.875 17.721609
62.880 17.880896
62.885 17.854904
62.890 17.149649
62.895 16.288227
62.900 16.401247
62.905 17.290674
62.910 17.88142
62.915 17.403812
62.920 17.298304
62.925 17.652466
62.930 18.361872
62.935 18.67522
62.940 18.318666
62.945 18.488714
62.950 18.979626
62.955 19.095198
62.960 18.743814
62.965 18.444288
62.970 18.400322
62.975 18.942757
62.980 18.411839
62.985 18.470411
62.990 19.158094
62.995 19.559031
63.000 19.209311
63.005 18.649279
63.010 18.000055
63.015 18.339014
63.020 17.697218
63.025 17.126652
63.030 16.760233
63.035 17.185274
63.040 17.005142
63.045 16.214067
63.050 16.029861
63.055 16.002232
63.060 15.521441
63.065 15.307281
63.070 14.882979
63.075 14.940707
63.080 15.595468
63.085 15.98007
63.090 16.73637
63.095 17.179169
63.100 17.360664
63.105 17.157736
63.110 17.265249
63.115 17.409418
63.120 16.971649
63.125 16.540213
63.130 16.646914
63.135 16.348162
63.140 16.51376
63.145 16.603645
63.150 16.425749
63.155 16.677868
63.160 16.848845
63.165 17.127083
63.170 17.432558
63.175 17.806526
63.180 17.878723
63.185 17.803385
63.190 17.261662
63.195 16.654488
63.200 17.007624
63.205 17.364801
63.210 17.069279
63.215 16.922281
63.220 17.292824
63.225 17.19412
63.230 17.394636
63.235 17.102573
63.240 16.820944
63.245 16.876009
63.250 16.777248
63.255 16.822252
63.260 17.438169
63.265 16.869518
63.270 16.777205
63.275 17.130695
63.280 17.500013
63.285 17.941612
63.290 17.662441
63.295 17.084679
63.300 17.556847
63.305 17.457344
63.310 17.680046
63.315 17.729221
63.320 17.647766
63.325 17.683516
63.330 17.765902
63.335 18.260674
63.340 18.699928
63.345 18.490362
63.350 18.871233
63.355 18.963737
63.360 18.795465
63.365 18.562952
63.370 17.999943
63.375 17.761324
63.380 17.41851
63.385 16.842453
63.390 16.954912
63.395 17.346645
63.400 17.781981
63.405 17.818426
63.410 17.220476
63.415 17.222891
63.420 17.051516
63.425 16.851706
63.430 16.936483
63.435 16.949549
63.440 17.032537
63.445 17.173798
63.450 17.685429
63.455 17.974512
63.460 18.723501
63.465 19.029282
63.470 19.481119
63.475 20.194422
63.480 20.227457
63.485 20.192827
63.490 20.720951
63.495 20.31744
63.500 20.564867
63.505 20.647736
63.510 20.366158
63.515 20.203943
63.520 19.983116
63.525 19.464056
63.530 19.319487
63.535 19.294815
63.540 18.5973
63.545 18.617338
63.550 18.954954
63.555 18.643259
63.560 18.044212
63.565 18.398521
63.570 18.335026
63.575 19.131029
63.580 19.073185
63.585 18.558895
63.590 18.988501
63.595 19.430271
63.600 19.476164
63.605 19.866411
63.610 19.707359
63.615 19.793808
63.620 20.812965
63.625 20.792028
63.630 21.350042
63.635 21.016596
63.640 20.178925
63.645 19.904701
63.650 19.939125
63.655 19.85569
63.660 20.016607
63.665 19.635185
63.670 19.918951
63.675 20.141382
63.680 20.671364
63.685 20.283482
63.690 20.290569
63.695 20.33058
63.700 19.878641
63.705 19.530071
63.710 19.610569
63.715 19.029568
63.720 19.00606
63.725 18.869642
63.730 18.57543
63.735 18.657209
63.740 19.802284
63.745 20.145361
63.750 20.630686
63.755 20.689888
63.760 20.418308
63.765 20.09107
63.770 20.00046
63.775 19.933462
63.780 19.929117
63.785 19.744366
63.790 19.94578
63.795 20.65926
63.800 21.154222
63.805 20.935587
63.810 19.897709
63.815 19.491964
63.820 19.399015
63.825 18.741081
63.830 17.953266
63.835 18.541273
63.840 19.311054
63.845 19.923092
63.850 20.40888
63.855 20.573132
63.860 21.358353
63.865 21.71212
63.870 21.254843
63.875 21.199648
63.880 20.591892
63.885 20.666275
63.890 21.225128
63.895 21.380886
63.900 21.829819
63.905 21.977171
63.910 22.08054
63.915 23.311663
63.920 23.012268
63.925 22.785688
63.930 23.069363
63.935 23.311174
63.940 23.680965
63.945 24.021685
63.950 23.688307
63.955 24.266541
63.960 25.008194
63.965 24.669949
63.970 24.715967
63.975 24.390217
63.980 23.619703
63.985 24.018969
63.990 23.983219
63.995 24.027266
64.000 24.125126
64.005 24.376503
64.010 24.586735
64.015 25.300924
64.020 25.188915
64.025 24.820955
64.030 24.369465
64.035 24.30748
64.040 24.281765
64.045 24.799829
64.050 25.815571
64.055 25.979757
64.060 26.182028
64.065 26.472694
64.070 26.873013
64.075 27.201597
64.080 26.770401
64.085 26.474548
64.090 26.363174
64.095 26.433765
64.100 25.946703
64.105 25.36887
64.110 24.757605
64.115 25.291338
64.120 24.989758
64.125 24.648464
64.130 24.249773
64.135 24.780832
64.140 24.819696
64.145 24.668835
64.150 23.785398
64.155 23.048016
64.160 22.744236
64.165 23.069901
64.170 22.926563
64.175 23.1889
64.180 23.189539
64.185 23.031153
64.190 23.88868
64.195 24.654375
64.200 24.381117
64.205 24.377064
64.210 24.033998
64.215 23.873625
64.220 24.574873
64.225 24.599789
64.230 24.470148
64.235 24.175943
64.240 23.873867
64.245 24.636374
64.250 24.942385
64.255 24.744448
64.260 24.582951
64.265 24.802395
64.270 25.519724
64.275 25.761993
64.280 25.267349
64.285 25.529232
64.290 25.444761
64.295 25.316242
64.300 25.198748
64.305 24.315521
64.310 24.152412
64.315 24.257404
64.320 23.522209
64.325 23.265022
64.330 22.286634
64.335 22.301998
64.340 22.8382
64.345 23.539448
64.350 23.821798
64.355 24.081709
64.360 24.580275
64.365 25.27688
64.370 25.497026
64.375 25.308422
64.380 24.502901
64.385 24.879379
64.390 25.918922
64.395 26.040352
64.400 25.696352
64.405 25.567949
64.410 25.799578
64.415 26.143333
64.420 25.555687
64.425 24.936716
64.430 24.810011
64.435 25.016556
64.440 24.742247
64.445 24.729862
64.450 24.242449
64.455 24.200378
64.460 24.232244
64.465 24.457014
64.470 23.824203
64.475 23.425282
64.480 23.456554
64.485 23.516294
64.490 22.951443
64.495 22.440346
64.500 22.08909
64.505 23.13007
64.510 23.807283
64.515 23.904459
64.520 24.156559
64.525 24.140682
64.530 23.985025
64.535 24.022741
64.540 23.171934
64.545 22.86775
64.550 23.176065
64.555 23.384809
64.560 23.380447
64.565 23.25103
64.570 23.451233
64.575 23.398754
64.580 23.254929
64.585 22.861027
64.590 23.157845
64.595 23.614943
64.600 23.499048
64.605 23.207283
64.610 23.528587
64.615 23.68708
64.620 23.713421
64.625 23.291317
64.630 22.990425
64.635 23.03635
64.640 22.834272
64.645 23.047213
64.650 23.034588
64.655 22.445036
64.660 22.012718
64.665 22.765285
64.670 23.269255
64.675 23.386003
64.680 23.118549
64.685 22.858837
64.690 22.816727
64.695 23.126171
64.700 22.657463
64.705 22.108154
64.710 21.636791
64.715 21.505856
64.720 21.863329
64.725 22.542624
64.730 22.346035
64.735 22.137629
64.740 22.337484
64.745 22.87285
64.750 23.588453
64.755 23.625643
64.760 23.504625
64.765 23.52013
64.770 23.735561
64.775 24.190289
64.780 23.942848
64.785 23.792561
64.790 23.813946
64.795 23.637535
64.800 23.930143
64.805 24.144079
64.810 24.060263
64.815 23.447668
64.820 23.164972
64.825 23.14299
64.830 23.012566
64.835 22.871075
64.840 22.776926
64.845 22.859402
64.850 23.42165
64.855 23.154575
64.860 23.298124
64.865 23.599339
64.870 23.292744
64.875 22.968204
64.880 22.584417
64.885 22.237486
64.890 22.471775
64.895 21.948324
64.900 22.475187
64.905 22.940399
64.910 22.967152
64.915 22.861406
64.920 23.021534
64.925 23.000677
64.930 22.790606
64.935 22.476891
64.940 22.470839
64.945 22.435291
64.950 22.957062
64.955 22.908989
64.960 22.961218
64.965 23.776505
64.970 23.788015
64.975 23.953058
64.980 23.946522
64.985 23.76388
64.990 22.955898
64.995 23.007275
65.000 22.636127
65.005 22.46414
65.010 22.538277
65.015 22.926163
65.020 23.345985
65.025 23.9527
65.030 23.467005
65.035 23.858335
65.040 24.658104
65.045 24.630844
65.050 24.055754
65.055 23.8241
65.060 24.02294
65.065 24.269304
65.070 23.606842
65.075 22.866117
65.080 22.798931
65.085 23.875761
65.090 24.482445
65.095 25.209757
65.100 25.388348
65.105 25.438061
65.110 25.709345
65.115 26.053991
65.120 25.838057
65.125 24.611542
65.130 24.105762
65.135 23.8365
65.140 23.892729
65.145 23.479731
65.150 23.406931
65.155 23.146948
65.160 23.751896
65.165 23.606617
65.170 23.530083
65.175 23.178444
65.180 22.357079
65.185 22.113678
65.190 22.065617
65.195 21.312321
65.200 21.097094
65.205 21.471575
65.210 21.684839
65.215 22.407969
65.220 21.798389
65.225 22.206165
65.230 22.886953
65.235 23.66655
65.240 23.767487
65.245 23.865686
65.250 23.75882
65.255 23.981329
65.260 23.343983
65.265 22.604553
65.270 21.68148
65.275 21.716516
65.280 21.857817
65.285 21.349403
65.290 21.011583
65.295 20.991486
65.300 20.969048
65.305 21.069584
65.310 20.590078
65.315 20.734428
65.320 21.075504
65.325 20.826191
65.330 21.079344
65.335 21.526213
65.340 22.359032
65.345 22.288557
65.350 21.846289
65.355 22.341122
65.360 22.39876
65.365 22.31962
65.370 22.321774
65.375 21.851788
65.380 22.25556
65.385 22.570848
65.390 22.65519
65.395 23.018549
65.400 23.330276
65.405 23.232943
65.410 22.959641
65.415 22.846035
65.420 22.604343
65.425 22.691088
65.430 22.41573
65.435 22.483112
65.440 22.800682
65.445 22.93746
65.450 22.716795
65.455 22.398399
65.460 22.329941
65.465 22.506065
65.470 21.961849
65.475 22.423096
65.480 23.015469
65.485 23.078598
65.490 23.754726
65.495 23.924305
65.500 24.796312
65.505 25.520046
65.510 25.1534
65.515 25.075319
65.520 25.173794
65.525 24.489031
65.530 23.965738
65.535 23.274443
65.540 23.129406
65.545 23.174456
65.550 22.884649
65.555 22.78577
65.560 23.311375
65.565 23.775087
65.570 24.166784
65.575 24.303074
65.580 25.082012
65.585 25.370668
65.590 25.627134
65.595 25.876429
65.600 26.142231
65.605 26.320406
65.610 26.515278
65.615 25.827717
65.620 25.570234
65.625 25.273443
65.630 24.901724
65.635 24.415108
65.640 24.17923
65.645 23.574989
65.650 23.555319
65.655 23.991013
65.660 24.550861
65.665 24.515123
65.670 24.790953
65.675 25.291914
65.680 26.373114
65.685 27.054577
65.690 27.699715
65.695 28.114584
65.700 28.682659
65.705 28.777679
65.710 28.706823
65.715 27.94038
65.720 27.379705
65.725 26.80131
65.730 27.031185
65.735 26.799171
65.740 26.895971
65.745 26.775677
65.750 27.783001
65.755 28.538401
65.760 29.081125
65.765 28.490135
65.770 28.435917
65.775 28.75131
65.780 29.101387
65.785 29.155535
65.790 28.714714
65.795 28.527195
65.800 29.78734
65.805 30.430109
65.810 30.155451
65.815 29.994577
65.820 29.412632
65.825 29.865149
65.830 29.877579
65.835 29.322359
65.840 29.620411
65.845 29.956844
65.850 30.053278
65.855 30.458239
65.860 30.574242
65.865 30.375513
65.870 30.557354
65.875 31.383247
65.880 31.602797
65.885 32.170113
65.890 33.362923
65.895 34.062733
65.900 34.952942
65.905 34.888203
65.910 34.493767
65.915 34.753513
65.920 34.472172
65.925 34.25985
65.930 33.953964
65.935 34.514015
65.940 34.964882
65.945 34.47802
65.950 34.642769
65.955 35.042046
65.960 34.538319
65.965 33.699646
65.970 33.484718
65.975 33.545906
65.980 33.71133
65.985 33.538055
65.990 33.579102
65.995 34.496822
66.000 35.980919
66.005 35.731426
66.010 35.615345
66.015 35.211555
66.020 35.471268
66.025 35.05444
66.030 34.800167
66.035 34.865341
66.040 35.390587
66.045 35.04734
66.050 35.097801
66.055 35.017967
66.060 36.052513
66.065 36.219257
66.070 35.100689
66.075 35.550079
66.080 36.273468
66.085 36.827118
66.090 36.949638
66.095 36.661041
66.100 36.82888
66.105 37.836666
66.110 37.534077
66.115 37.876991
66.120 38.5019
66.125 38.5322
66.130 38.152283
66.135 38.106937
66.140 38.372173
66.145 38.92691
66.150 38.296455
66.155 38.164928
66.160 38.505833
66.165 38.909454
66.170 38.726269
66.175 38.748131
66.180 38.721992
66.185 39.004929
66.190 38.72023
66.195 38.861145
66.200 38.721764
66.205 38.552689
66.210 38.990051
66.215 38.635853
66.220 38.10339
66.225 38.08091
66.230 37.381313
66.235 37.157028
66.240 35.993214
66.245 34.271172
66.250 34.388752
66.255 35.136478
66.260 34.835365
66.265 35.345142
66.270 36.123486
66.275 36.902802
66.280 37.727978
66.285 37.306427
66.290 36.409504
66.295 36.048225
66.300 35.940609
66.305 36.451565
66.310 36.59219
66.315 36.014645
66.320 36.230743
66.325 36.250465
66.330 36.118561
66.335 35.440033
66.340 34.034672
66.345 33.589413
66.350 33.40881
66.355 33.162716
66.360 33.651031
66.365 33.718056
66.370 33.493584
66.375 33.89048
66.380 33.672791
66.385 34.172119
66.390 34.479942
66.395 34.270325
66.400 34.816139
66.405 35.30518
66.410 34.989803
66.415 35.796993
66.420 34.943096
66.425 34.158428
66.430 32.844257
66.435 31.954102
66.440 31.426008
66.445 30.471975
66.450 29.778984
66.455 29.374825
66.460 29.452145
66.465 30.241873
66.470 30.115833
66.475 29.453396
66.480 29.93082
66.485 29.369131
66.490 30.115326
66.495 29.760664
66.500 29.188038
66.505 28.615314
66.510 29.283081
66.515 28.748045
66.520 28.140978
66.525 27.003662
66.530 26.624296
66.535 26.251932
66.540 26.461803
66.545 25.937941
66.550 25.808359
66.555 26.486485
66.560 26.812721
66.565 27.344067
66.570 27.822672
66.575 27.608179
66.580 26.707653
66.585 26.262909
66.590 25.674402
66.595 25.880566
66.600 25.826811
66.605 26.203569
66.610 26.8204
66.615 27.007471
66.620 26.492334
66.625 26.185635
66.630 25.593641
66.635 24.830063
66.640 24.249239
66.645 23.558186
66.650 23.041348
66.655 23.460876
66.660 23.363167
66.665 22.715973
66.670 22.385794
66.675 22.066509
66.680 22.131197
66.685 22.221308
66.690 21.261812
66.695 21.132784
66.700 21.182226
66.705 21.074017
66.710 20.537945
66.715 20.08889
66.720 20.480877
66.725 21.197445
66.730 20.959972
66.735 20.709488
66.740 20.656374
66.745 20.474859
66.750 20.193668
66.755 19.789913
66.760 19.355549
66.765 20.006996
66.770 20.644316
66.775 20.734625
66.780 21.401781
66.785 21.458172
66.790 21.516638
66.795 21.974348
66.800 21.803675
66.805 21.559277
66.810 21.522837
66.815 21.857256
66.820 21.752619
66.825 22.215706
66.830 21.357187
66.835 21.392513
66.840 21.385302
66.845 20.952312
66.850 20.766401
66.855 20.929073
66.860 20.165905
66.865 20.69319
66.870 20.840342
66.875 20.941326
66.880 21.038929
66.885 20.619225
66.890 20.152554
66.895 20.23151
66.900 19.70945
66.905 18.592392
66.910 18.184885
66.915 17.992722
66.920 18.091722
66.925 18.099697
66.930 18.019432
66.935 18.358225
66.940 19.455736
66.945 19.563824
66.950 19.384384
66.955 19.659039
66.960 20.388395
66.965 20.23774
66.970 20.294516
66.975 19.875908
66.980 20.284451
66.985 20.803164
66.990 20.538954
66.995 19.930206
67.000 19.924919
67.005 20.30551
67.010 20.330832
67.015 19.957743
67.020 20.027828
67.025 20.247145
67.030 20.432932
67.035 21.04948
67.040 20.884254
67.045 20.571568
67.050 20.539827
67.055 20.438095
67.060 20.662306
67.065 20.667664
67.070 19.625364
67.075 18.995646
67.080 19.046343
67.085 18.58396
67.090 18.651472
67.095 18.353304
67.100 18.435143
67.105 19.083033
67.110 19.688002
67.115 20.091152
67.120 20.643705
67.125 20.899458
67.130 21.453808
67.135 21.61912
67.140 21.318085
67.145 21.360031
67.150 21.796019
67.155 21.88341
67.160 22.296831
67.165 22.021809
67.170 21.806286
67.175 21.673677
67.180 21.25247
67.185 20.934114
67.190 20.72616
67.195 19.732059
67.200 19.064682
67.205 18.751736
67.210 18.824471
67.215 18.630207
67.220 17.948793
67.225 18.075869
67.230 18.299484
67.235 18.511646
67.240 18.873087
67.245 19.060131
67.250 18.737015
67.255 18.719484
67.260 18.478046
67.265 19.112511
67.270 19.376856
67.275 18.857336
67.280 19.169939
67.285 20.135441
67.290 20.510447
67.295 20.216637
67.300 19.785742
67.305 19.773033
67.310 19.642365
67.315 18.585934
67.320 18.019329
67.325 18.104761
67.330 18.218029
67.335 18.257061
67.340 18.295345
67.345 18.538319
67.350 19.380327
67.355 19.301744
67.360 19.065685
67.365 18.944363
67.370 18.724874
67.375 19.101421
67.380 18.504519
67.385 17.887798
67.390 18.30246
67.395 18.227541
67.400 18.555105
67.405 18.544876
67.410 18.340309
67.415 18.729834
67.420 18.658669
67.425 18.049725
67.430 18.270792
67.435 18.014107
67.440 17.478067
67.445 17.987591
67.450 18.123758
67.455 18.351582
67.460 18.785362
67.465 18.274506
67.470 18.297344
67.475 18.975151
67.480 19.094711
67.485 19.562925
67.490 19.495916
67.495 19.619541
67.500 20.10899
67.505 20.751875
67.510 20.670607
67.515 20.647636
67.520 20.413509
67.525 20.676823
67.530 20.776888
67.535 20.653839
67.540 20.066782
67.545 19.830673
67.550 19.783506
67.555 20.184786
67.560 20.354914
67.565 20.508232
67.570 20.492504
67.575 20.208828
67.580 19.858015
67.585 19.496233
67.590 19.214598
67.595 18.777517
67.600 18.14813
67.605 18.620861
67.610 19.446138
67.615 20.114525
67.620 20.441496
67.625 20.273066
67.630 20.920229
67.635 21.726246
67.640 21.309576
67.645 20.591223
67.650 20.173044
67.655 19.9277
67.660 19.932892
67.665 19.443388
67.670 19.194523
67.675 19.37623
67.680 19.190037
67.685 19.14432
67.690 19.141523
67.695 19.355169
67.700 19.460972
67.705 18.792656
67.710 18.346874
67.715 18.672642
67.720 18.971411
67.725 18.711367
67.730 18.42565
67.735 18.507738
67.740 19.126249
67.745 19.631762
67.750 19.859161
67.755 19.446447
67.760 19.37118
67.765 19.199715
67.770 18.711525
67.775 18.894873
67.780 18.563366
67.785 18.24189
67.790 18.756018
67.795 19.62088
67.800 19.679731
67.805 19.681913
67.810 19.262325
67.815 19.341734
67.820 19.47097
67.825 19.446648
67.830 18.791599
67.835 19.545092
67.840 19.069445
67.845 18.990852
67.850 19.735512
67.855 19.565567
67.860 19.476189
67.865 19.620924
67.870 19.334858
67.875 20.078569
67.880 19.616245
67.885 18.998789
67.890 18.878428
67.895 18.524254
67.900 18.355843
67.905 18.405388
67.910 18.503349
67.915 18.856146
67.920 18.981236
67.925 18.85503
67.930 19.537817
67.935 19.08993
67.940 18.842598
67.945 18.476337
67.950 18.427124
67.955 18.218748
67.960 17.853163
67.965 17.649225
67.970 18.375017
67.975 19.591242
67.980 20.017004
67.985 19.800354
67.990 20.155804
67.995 20.573851
68.000 20.723963
68.005 20.332983
68.010 19.232471
68.015 19.061827
68.020 18.988152
68.025 18.924568
68.030 18.507496
68.035 18.514835
68.040 18.843367
68.045 18.555258
68.050 18.490801
68.055 18.938463
68.060 18.785471
68.065 18.993958
68.070 18.7278
68.075 18.526518
68.080 19.391457
68.085 19.728607
68.090 19.268864
68.095 19.75675
68.100 20.011047
68.105 21.057461
68.110 20.858959
68.115 19.911852
68.120 19.070295
68.125 18.832787
68.130 19.00474
68.135 18.860607
68.140 18.055204
68.145 18.801579
68.150 19.639025
68.155 20.427662
68.160 20.7111
68.165 20.003693
68.170 19.887123
68.175 20.45628
68.180 20.274485
68.185 20.336023
68.190 19.999832
68.195 19.238546
68.200 18.96895
68.205 19.074598
68.210 18.447323
68.215 17.802067
68.220 17.832209
68.225 18.238466
68.230 19.525995
68.235 20.242201
68.240 20.184954
68.245 20.324854
68.250 20.938723
68.255 21.325562
68.260 21.080725
68.265 20.726082
68.270 20.572285
68.275 20.905905
68.280 21.29023
68.285 21.407846
68.290 20.523592
68.295 20.0243
68.300 19.508852
68.305 19.1926
68.310 19.20496
68.315 18.405752
68.320 18.235991
68.325 18.544313
68.330 18.55875
68.335 18.918289
68.340 19.298559
68.345 19.070766
68.350 19.30279
68.355 19.324507
68.360 20.130766
68.365 20.606089
68.370 21.088598
68.375 21.321392
68.380 21.561058
68.385 21.590937
68.390 21.28121
68.395 21.169891
68.400 20.940777
68.405 20.706938
68.410 21.261866
68.415 21.06374
68.420 20.889174
68.425 21.076378
68.430 21.360161
68.435 21.222618
68.440 21.428829
68.445 21.233788
68.450 21.242868
68.455 21.50226
68.460 21.328575
68.465 21.334923
68.470 21.12933
68.475 20.39967
68.480 20.029892
68.485 19.642439
68.490 19.243696
68.495 18.729685
68.500 18.61824
68.505 19.124205
68.510 19.160933
68.515 19.205153
68.520 19.044382
68.525 19.22403
68.530 19.901432
68.535 19.937834
68.540 19.379753
68.545 19.293468
68.550 18.944939
68.555 19.205765
68.560 19.542833
68.565 19.270163
68.570 19.377535
68.575 19.492611
68.580 19.904346
68.585 21.123196
68.590 21.644268
68.595 20.908085
68.600 20.750095
68.605 20.496298
68.610 20.907255
68.615 20.623907
68.620 20.623714
68.625 19.870253
68.630 19.875296
68.635 19.529039
68.640 19.445147
68.645 19.073086
68.650 18.670263
68.655 18.308641
68.660 18.765251
68.665 19.528896
68.670 19.929186
68.675 21.050476
68.680 21.701094
68.685 22.132845
68.690 22.192339
68.695 22.454536
68.700 22.821087
68.705 23.007915
68.710 22.073952
68.715 21.806585
68.720 21.796122
68.725 21.556337
68.730 21.121935
68.735 20.720387
68.740 20.26672
68.745 20.029333
68.750 20.05484
68.755 19.971844
68.760 19.561575
68.765 19.81843
68.770 19.985537
68.775 20.498802
68.780 20.174845
68.785 20.453043
68.790 21.216431
68.795 21.700323
68.800 21.252544
68.805 21.455582
68.810 21.747375
68.815 21.741001
68.820 21.187614
68.825 21.287222
68.830 21.540543
68.835 21.857412
68.840 21.994129
68.845 22.124613
68.850 22.895056
68.855 23.689159
68.860 24.036367
68.865 24.90506
68.870 25.189932
68.875 25.187492
68.880 25.049189
68.885 24.973284
68.890 24.602203
68.895 24.463161
68.900 24.370211
68.905 24.348577
68.910 23.762058
68.915 23.789019
68.920 23.070839
68.925 22.863182
68.930 22.622164
68.935 22.220156
68.940 22.268898
68.945 22.180182
68.950 22.009604
68.955 22.30283
68.960 22.603148
68.965 23.191097
68.970 23.787899
68.975 24.251656
68.980 25.011744
68.985 25.822483
68.990 26.186447
68.995 25.794563
69.000 25.092987
69.005 24.932753
69.010 24.337877
69.015 24.331671
69.020 24.06558
69.025 24.482399
69.030 24.437956
69.035 25.448902
69.040 26.003885
69.045 26.403126
69.050 26.346155
69.055 26.416292
69.060 25.651201
69.065 26.106413
69.070 25.696562
69.075 26.06748
69.080 26.732824
69.085 27.315851
69.090 27.680359
69.095 28.499126
69.100 28.981752
69.105 29.11375
69.110 29.803799
69.115 30.067924
69.120 29.631449
69.125 29.657003
69.130 29.986483
69.135 29.454138
69.140 29.701653
69.145 28.60849
69.150 28.145712
69.155 28.046961
69.160 28.519915
69.165 28.406351
69.170 28.609106
69.175 27.921329
69.180 28.002089
69.185 28.836071
69.190 29.170959
69.195 28.806999
69.200 28.972963
69.205 29.217106
69.210 30.550976
69.215 30.835478
69.220 32.032642
69.225 32.192692
69.230 32.208412
69.235 31.886688
69.240 31.662167
69.245 31.011286
69.250 30.530163
69.255 29.164337
69.260 29.471432
69.265 29.600578
69.270 29.73177
69.275 30.420904
69.280 30.794956
69.285 31.133665
69.290 31.347239
69.295 31.412863
69.300 31.417679
69.305 31.614351
69.310 31.681522
69.315 31.684568
69.320 31.444349
69.325 31.600368
69.330 31.866491
69.335 32.141865
69.340 31.64995
69.345 31.67523
69.350 32.395176
69.355 32.819019
69.360 32.866966
69.365 32.638908
69.370 32.83363
69.375 32.937439
69.380 33.188377
69.385 32.454182
69.390 32.311237
69.395 32.336815
69.400 32.378551
69.405 32.83329
69.410 33.128918
69.415 33.507805
69.420 34.014389
69.425 34.230358
69.430 34.693588
69.435 34.867016
69.440 34.536179
69.445 34.35606
69.450 33.701202
69.455 33.248417
69.460 32.956799
69.465 31.89517
69.470 31.615335
69.475 31.487885
69.480 31.616705
69.485 31.151716
69.490 31.599945
69.495 31.603886
69.500 31.981068
69.505 32.272938
69.510 32.0369
69.515 32.572083
69.520 33.808064
69.525 33.632137
69.530 33.781086
69.535 33.624184
69.540 33.285076
69.545 33.935814
69.550 33.03701
69.555 32.687752
69.560 32.218475
69.565 32.107845
69.570 32.65107
69.575 32.67625
69.580 31.903996
69.585 31.641005
69.590 30.950956
69.595 31.284481
69.600 31.211752
69.605 30.139811
69.610 29.680737
69.615 29.919321
69.620 29.893404
69.625 29.571575
69.630 29.554157
69.635 29.481167
69.640 29.564672
69.645 29.436632
69.650 28.692501
69.655 28.668489
69.660 28.315351
69.665 28.344152
69.670 28.49309
69.675 28.996107
69.680 29.660439
69.685 31.009012
69.690 32.002792
69.695 32.1534
69.700 32.0224
69.705 31.817137
69.710 31.496384
69.715 30.283695
69.720 29.265928
69.725 28.433529
69.730 28.938469
69.735 28.702742
69.740 28.840273
69.745 29.282536
69.750 29.639418
69.755 29.817003
69.760 30.104132
69.765 29.325012
69.770 29.225538
69.775 29.643408
69.780 29.910772
69.785 30.173672
69.790 30.307526
69.795 29.969645
69.800 29.941277
69.805 29.468248
69.810 28.787382
69.815 28.210009
69.820 27.954538
69.825 27.525932
69.830 27.198994
69.835 27.767403
69.840 28.343977
69.845 27.877098
69.850 27.930014
69.855 27.701118
69.860 27.759537
69.865 27.537308
69.870 26.397839
69.875 26.287905
69.880 26.197601
69.885 25.779167
69.890 25.465763
69.895 25.213968
69.900 25.182432
69.905 25.278303
69.910 25.138521
69.915 24.827547
69.920 24.286327
69.925 24.271015
69.930 24.066843
69.935 24.091261
69.940 23.928625
69.945 23.169687
69.950 23.114056
69.955 23.681656
69.960 23.461716
69.965 23.805799
69.970 23.047562
69.975 22.876673
69.980 22.868555
69.985 22.629173
69.990 21.748701
69.995 21.211895
70.000 20.484972
70.005 20.119799
70.010 19.773149
70.015 20.092253
70.020 20.624619
70.025 20.556007
70.030 20.190519
70.035 20.223486
70.040 20.709808
70.045 20.45657
70.050 19.915108
70.055 19.852108
70.060 20.3923
70.065 20.86174
70.070 21.078833
70.075 20.785408
70.080 21.009974
70.085 21.304817
70.090 21.07448
70.095 20.885384
70.100 20.691055
70.105 20.72043
70.110 20.83102
70.115 21.109699
70.120 20.532362
70.125 20.181896
70.130 20.676311
70.135 20.918758
70.140 20.917944
70.145 21.195572
70.150 21.433504
70.155 21.55442
70.160 21.235605
70.165 21.035421
70.170 20.901505
70.175 21.17914
70.180 20.724501
70.185 20.09247
70.190 20.632677
70.195 21.129232
70.200 20.864716
70.205 20.222036
70.210 19.731581
70.215 20.191729
70.220 20.966007
70.225 20.574474
70.230 20.409195
70.235 20.578838
70.240 20.408329
70.245 19.984125
70.250 19.546196
70.255 19.257795
70.260 19.15501
70.265 18.794397
70.270 18.807013
70.275 19.585819
70.280 19.576181
70.285 19.435892
70.290 18.922688
70.295 19.140722
70.300 19.098436
70.305 18.582331
70.310 18.462734
70.315 18.442158
70.320 18.951706
70.325 19.112379
70.330 18.866999
70.335 18.767389
70.340 19.395224
70.345 18.897543
70.350 19.073725
70.355 19.422335
70.360 18.945713
70.365 19.664295
70.370 20.212629
70.375 19.983166
70.380 20.985521
70.385 20.682772
70.390 20.371555
70.395 21.190624
70.400 20.911993
70.405 20.559811
70.410 19.644941
70.415 19.497355
70.420 19.527046
70.425 19.42252
70.430 18.404366
70.435 17.719379
70.440 17.665121
70.445 17.643276
70.450 17.168297
70.455 16.791998
70.460 16.785648
70.465 17.548632
70.470 18.303488
70.475 18.635265
70.480 18.620272
70.485 19.100664
70.490 19.163628
70.495 19.395346
70.500 19.311844
70.505 19.222815
70.510 19.54817
70.515 19.418949
70.520 18.966236
70.525 18.692434
70.530 18.61566
70.535 17.908897
70.540 17.710905
70.545 18.442129
70.550 18.740404
70.555 18.72176
70.560 18.229876
70.565 18.824556
70.570 19.158621
70.575 18.887894
70.580 18.299229
70.585 18.204529
70.590 18.558271
70.595 19.208509
70.600 18.842264
70.605 19.032532
70.610 19.28558
70.615 19.329647
70.620 18.886946
70.625 18.657784
70.630 18.127283
70.635 17.847746
70.640 17.351961
70.645 17.320116
70.650 17.50099
70.655 18.111715
70.660 18.703739
70.665 18.955988
70.670 19.258963
70.675 19.988636
70.680 20.047298
70.685 19.616024
70.690 20.098669
70.695 20.25259
70.700 20.596083
70.705 20.48583
70.710 19.956156
70.715 20.260015
70.720 20.850338
70.725 20.412325
70.730 19.803802
70.735 19.361258
70.740 19.205189
70.745 18.945456
70.750 18.266241
70.755 17.7999
70.760 17.782007
70.765 18.132402
70.770 18.1287
70.775 18.000683
70.780 18.181299
70.785 18.616224
70.790 18.812244
70.795 18.556715
70.800 18.717569
70.805 18.927462
70.810 18.892979
70.815 19.349344
70.820 19.756672
70.825 19.853025
70.830 19.787258
70.835 19.592451
70.840 19.783846
70.845 19.796453
70.850 19.21619
70.855 18.834848
70.860 18.419182
70.865 18.014532
70.870 17.88151
70.875 18.210445
70.880 18.193417
70.885 18.454506
70.890 18.858397
70.895 18.754547
70.900 18.894743
70.905 19.178032
70.910 19.009672
70.915 18.699436
70.920 18.361549
70.925 17.684099
70.930 17.859491
70.935 17.656694
70.940 17.091673
70.945 16.994591
70.950 17.241749
70.955 17.172281
70.960 17.473089
70.965 18.119879
70.970 18.602554
70.975 18.762987
70.980 19.147619
70.985 19.304853
70.990 19.216579
70.995 19.063738
71.000 18.172842
71.005 17.583988
71.010 17.706854
71.015 17.743856
71.020 17.995724
71.025 17.689402
71.030 17.827902
71.035 18.422171
71.040 18.420095
71.045 18.262878
71.050 18.095919
71.055 18.147604
71.060 18.775684
71.065 18.410732
71.070 18.5858
71.075 18.870176
71.080 18.647671
71.085 18.413761
71.090 18.224903
71.095 18.166918
71.100 18.678942
71.105 18.288363
71.110 18.418755
71.115 18.450676
71.120 18.563566
71.125 18.55629
71.130 18.686949
71.135 18.442177
71.140 18.418251
71.145 18.273411
71.150 17.946274
71.155 17.997698
71.160 18.36657
71.165 18.734283
71.170 18.807384
71.175 19.195023
71.180 19.438372
71.185 19.801424
71.190 19.856096
71.195 19.765501
71.200 19.137302
71.205 19.167648
71.210 18.663851
71.215 18.23436
71.220 17.825794
71.225 17.19788
71.230 17.102089
71.235 17.562521
71.240 17.874069
71.245 18.842627
71.250 19.492983
71.255 20.035976
71.260 20.311077
71.265 19.94231
71.270 19.539173
71.275 18.970856
71.280 18.444592
71.285 18.050491
71.290 18.183157
71.295 18.125919
71.300 18.273813
71.305 17.967388
71.310 17.351782
71.315 17.545078
71.320 18.052656
71.325 18.076059
71.330 18.3202
71.335 18.17668
71.340 18.229088
71.345 19.308964
71.350 19.230614
71.355 18.548702
71.360 18.266403
71.365 18.056444
71.370 18.329296
71.375 18.697947
71.380 18.057825
71.385 17.845222
71.390 18.16971
71.395 18.375988
71.400 18.502403
71.405 18.104031
71.410 17.853121
71.415 18.151657
71.420 18.096542
71.425 18.098473
71.430 18.22567
71.435 18.45244
71.440 18.218351
71.445 18.470629
71.450 18.816679
71.455 19.045219
71.460 18.995428
71.465 19.076279
71.470 19.637827
71.475 20.175339
71.480 19.916584
71.485 19.232338
71.490 19.187393
71.495 19.527721
71.500 19.331629
71.505 19.512226
71.510 19.491272
71.515 19.791441
71.520 19.967337
71.525 20.016394
71.530 19.402138
71.535 19.05846
71.540 18.579914
71.545 18.777987
71.550 18.760254
71.555 18.786297
71.560 18.602766
71.565 18.580826
71.570 19.706512
71.575 19.839775
71.580 19.577873
71.585 19.430527
71.590 18.798376
71.595 18.78281
71.600 18.265238
71.605 17.583742
71.610 18.003428
71.615 18.383673
71.620 19.00943
71.625 19.664705
71.630 19.393795
71.635 19.628792
71.640 19.376925
71.645 18.77585
71.650 18.176809
71.655 17.412233
71.660 17.363178
71.665 17.676838
71.670 17.429016
71.675 17.524731
71.680 17.944616
71.685 18.542208
71.690 18.842724
71.695 18.805918
71.700 19.053518
71.705 19.576851
71.710 19.843264
71.715 19.574448
71.720 19.527363
71.725 19.518564
71.730 19.61796
71.735 19.581747
71.740 18.717075
71.745 18.49229
71.750 17.881315
71.755 17.06588
71.760 17.050432
71.765 16.863991
71.770 16.750139
71.775 17.93549
71.780 17.594448
71.785 17.817862
71.790 18.276505
71.795 17.956831
71.800 18.337074
71.805 18.151245
71.810 18.139887
71.815 18.555628
71.820 18.460754
71.825 18.596554
71.830 18.593761
71.835 17.971893
71.840 18.287371
71.845 18.148489
71.850 18.256483
71.855 17.792402
71.860 17.82041
71.865 18.221958
71.870 18.399208
71.875 18.058386
71.880 17.803247
71.885 18.257965
71.890 18.785015
71.895 19.236723
71.900 18.984949
71.905 19.254745
71.910 19.407642
71.915 19.499857
71.920 19.217096
71.925 18.795963
71.930 17.978594
71.935 18.088097
71.940 18.489094
71.945 18.533848
71.950 18.515862
71.955 18.667326
71.960 19.263996
71.965 19.814699
71.970 19.986387
71.975 20.001631
71.980 20.460665
71.985 20.370407
71.990 20.072206
71.995 19.861423
72.000 19.754618
72.005 19.468088
72.010 19.367186
72.015 18.821632
72.020 18.695654
72.025 18.850922
72.030 18.781736
72.035 18.316822
72.040 17.712049
72.045 17.029039
72.050 17.467661
72.055 17.123936
72.060 16.947508
72.065 17.33559
72.070 18.095133
72.075 18.417948
72.080 18.621845
72.085 18.723036
72.090 19.632961
72.095 19.87785
72.100 19.674318
72.105 19.648556
72.110 19.518211
72.115 19.741446
72.120 19.340683
72.125 18.897455
72.130 18.114073
72.135 17.770153
72.140 17.892317
72.145 18.006493
72.150 17.695841
72.155 17.605276
72.160 17.714277
72.165 18.307585
72.170 17.841919
72.175 17.415482
72.180 17.523952
72.185 17.341007
72.190 17.622225
72.195 17.946451
72.200 18.355505
72.205 19.229748
72.210 19.35033
72.215 19.40884
72.220 19.498468
72.225 18.925474
72.230 18.31913
72.235 17.739147
72.240 17.746164
72.245 18.262239
72.250 18.712681
72.255 19.047773
72.260 19.089643
72.265 19.501062
72.270 19.045576
72.275 18.276628
72.280 17.45743
72.285 16.844639
72.290 16.855574
72.295 17.263916
72.300 17.379898
72.305 17.697815
72.310 17.876783
72.315 18.058329
72.320 18.208351
72.325 18.485052
72.330 18.7544
72.335 18.942585
72.340 18.789656
72.345 18.749846
72.350 19.047344
72.355 18.124222
72.360 17.925217
72.365 17.206329
72.370 17.004021
72.375 17.530603
72.380 17.64847
72.385 17.560993
72.390 18.064375
72.395 18.029385
72.400 18.172428
72.405 18.133326
72.410 17.683113
72.415 17.53336
72.420 16.940479
72.425 16.352884
72.430 16.510303
72.435 16.438944
72.440 16.483278
72.445 16.638519
72.450 16.712223
72.455 17.501368
72.460 17.845863
72.465 17.958212
72.470 18.145435
72.475 17.954128
72.480 18.548538
72.485 18.795103
72.490 18.856953
72.495 18.738007
72.500 18.498455
72.505 18.24206
72.510 17.77935
72.515 16.941175
72.520 16.735697
72.525 16.510798
72.530 16.167942
72.535 15.823318
72.540 16.597708
72.545 16.958067
72.550 17.159826
72.555 16.887253
72.560 16.578827
72.565 16.983648
72.570 17.386993
72.575 17.206934
72.580 17.445753
72.585 17.269613
72.590 17.44096
72.595 17.639988
72.600 18.153368
72.605 18.118952
72.610 17.832218
72.615 17.719429
72.620 18.274748
72.625 18.522724
72.630 18.109312
72.635 17.380339
72.640 16.832176
72.645 16.843153
72.650 16.64887
72.655 16.857655
72.660 17.136868
72.665 17.40239
72.670 17.211313
72.675 17.746021
72.680 18.260864
72.685 17.991074
72.690 17.376524
72.695 17.273882
72.700 17.407297
72.705 17.703533
72.710 17.256084
72.715 16.721115
72.720 17.119207
72.725 17.322458
72.730 17.016708
72.735 17.240007
72.740 17.251637
72.745 17.443447
72.750 17.624975
72.755 16.873739
72.760 16.28536
72.765 16.234932
72.770 16.136532
72.775 16.359438
72.780 15.875257
72.785 16.065945
72.790 16.678444
72.795 17.250635
72.800 16.47049
72.805 16.520767
72.810 17.076405
72.815 17.502268
72.820 17.221212
72.825 16.977638
72.830 17.770037
72.835 18.561749
72.840 18.225111
72.845 17.558931
72.850 17.428259
72.855 17.32118
72.860 16.979458
72.865 16.758125
72.870 17.132704
72.875 17.649521
72.880 17.722811
72.885 17.593851
72.890 18.30431
72.895 17.882959
72.900 17.255835
72.905 17.111813
72.910 16.673824
72.915 16.944214
72.920 17.187723
72.925 16.68865
72.930 17.018034
72.935 16.748911
72.940 15.942683
72.945 15.568346
72.950 15.531665
72.955 15.425955
72.960 14.716561
72.965 14.303814
72.970 14.401627
72.975 15.147914
72.980 15.184474
72.985 15.462644
72.990 15.849351
72.995 16.539719
73.000 17.19236
