!@!!GADDS PLOTSO FILE: Chi integration type
!@!!Title/SampleName: map-e7
!@!!Comment: ?
!@!!User: Bruker Instrument Administrator
!@!!Site: University of Illinois Chicago
!@!!Frame: map-e7_01_000.gfrm
!@!!Wavelengths    1.54184   1.54056   1.54439
!@!!Frame angles: 2Theta: 63.000 Omega: 50.000 Phi: 0.000 Chi: 90.000
!@!!Integration range: 2Theta: 53.000 to 73.000  Gamma: -105.000 to -75.000
!@!!Integration method: bin normalized
!@!N
!@!SS
!@!M
!@!L 0.0 0.0 0.0 0.0
!@!XDegrees
!@!YCounts
53.000 6.79625
53.005 7.252885
53.010 7.330202
53.015 7.251467
53.020 7.629191
53.025 7.884359
53.030 8.068024
53.035 8.003587
53.040 7.588867
53.045 7.526214
53.050 7.106254
53.055 7.03958
53.060 6.962348
53.065 7.032462
53.070 7.022161
53.075 7.14389
53.080 7.544808
53.085 7.890555
53.090 7.907372
53.095 8.093185
53.100 7.928989
53.105 8.250918
53.110 8.503917
53.115 8.585261
53.120 8.590591
53.125 8.571404
53.130 8.269696
53.135 8.054493
53.140 7.766497
53.145 7.347593
53.150 6.760485
53.155 6.593791
53.160 6.78783
53.165 7.29093
53.170 7.384696
53.175 7.438456
53.180 7.845305
53.185 8.241464
53.190 8.390846
53.195 8.125955
53.200 7.816957
53.205 8.019746
53.210 8.08938
53.215 7.902287
53.220 7.938876
53.225 8.183642
53.230 8.375082
53.235 8.535022
53.240 8.657874
53.245 8.574965
53.250 8.785282
53.255 8.788898
53.260 8.481401
53.265 8.822895
53.270 8.534295
53.275 8.141586
53.280 8.153409
53.285 7.738604
53.290 7.848446
53.295 7.892465
53.300 7.634499
53.305 8.006215
53.310 7.974242
53.315 8.260206
53.320 8.665874
53.325 8.408397
53.330 8.299873
53.335 8.304631
53.340 7.97965
53.345 7.913233
53.350 7.54071
53.355 7.885067
53.360 8.54943
53.365 8.672192
53.370 8.748302
53.375 8.906726
53.380 8.917186
53.385 8.905146
53.390 8.581412
53.395 8.306812
53.400 8.450716
53.405 8.391046
53.410 8.703424
53.415 8.963334
53.420 9.168117
53.425 8.891659
53.430 8.815155
53.435 8.681483
53.440 9.037561
53.445 8.952927
53.450 8.521362
53.455 8.193968
53.460 8.371923
53.465 8.511423
53.470 8.116131
53.475 8.015132
53.480 7.989769
53.485 8.192529
53.490 8.371449
53.495 8.572999
53.500 8.878757
53.505 8.995998
53.510 8.640574
53.515 8.936316
53.520 8.719392
53.525 8.611301
53.530 8.108797
53.535 7.921315
53.540 8.021865
53.545 8.180408
53.550 8.198754
53.555 8.388034
53.560 8.038838
53.565 8.171437
53.570 8.220704
53.575 8.148878
53.580 8.285941
53.585 8.09321
53.590 8.081319
53.595 8.132997
53.600 8.127328
53.605 8.36429
53.610 8.294337
53.615 8.348071
53.620 8.293027
53.625 8.154591
53.630 8.11556
53.635 8.177023
53.640 8.410401
53.645 8.643091
53.650 8.429337
53.655 8.179332
53.660 8.362521
53.665 8.434343
53.670 8.31902
53.675 8.177477
53.680 7.786373
53.685 7.61893
53.690 8.139759
53.695 8.348248
53.700 8.608374
53.705 9.052934
53.710 9.655654
53.715 9.959107
53.720 10.337478
53.725 10.0637
53.730 9.513433
53.735 8.985298
53.740 8.378235
53.745 8.093416
53.750 8.011388
53.755 8.175761
53.760 8.54247
53.765 9.246446
53.770 9.322474
53.775 9.056752
53.780 8.985891
53.785 8.946202
53.790 8.887026
53.795 9.019547
53.800 9.145269
53.805 9.295193
53.810 9.695912
53.815 9.658128
53.820 9.649262
53.825 9.750182
53.830 9.464566
53.835 9.331895
53.840 9.466749
53.845 9.184581
53.850 9.07802
53.855 8.719072
53.860 8.347556
53.865 8.441286
53.870 8.320057
53.875 7.989791
53.880 7.833643
53.885 8.024571
53.890 8.191227
53.895 8.398698
53.900 8.182342
53.905 8.308075
53.910 8.431854
53.915 8.697312
53.920 8.166558
53.925 8.109921
53.930 7.958095
53.935 7.801234
53.940 7.653131
53.945 7.645613
53.950 7.946801
53.955 8.261251
53.960 8.21223
53.965 8.262797
53.970 8.520794
53.975 8.613033
53.980 8.777539
53.985 8.792973
53.990 9.349237
53.995 9.325357
54.000 9.262183
54.005 9.10033
54.010 9.11093
54.015 9.03154
54.020 9.108624
54.025 9.096672
54.030 9.541756
54.035 9.402525
54.040 9.080193
54.045 9.174417
54.050 9.429805
54.055 9.224905
54.060 9.067415
54.065 8.899765
54.070 9.377546
54.075 9.561703
54.080 9.457145
54.085 9.304478
54.090 9.024739
54.095 9.066486
54.100 8.624194
54.105 8.820488
54.110 8.961646
54.115 8.887097
54.120 8.766512
54.125 8.869351
54.130 8.777411
54.135 8.642994
54.140 8.337899
54.145 8.494874
54.150 8.400053
54.155 8.34776
54.160 8.237886
54.165 8.611032
54.170 8.919586
54.175 8.550297
54.180 8.750758
54.185 9.152578
54.190 9.268049
54.195 9.270942
54.200 8.957885
54.205 9.093993
54.210 8.96449
54.215 8.386242
54.220 7.964234
54.225 7.862761
54.230 8.107544
54.235 8.629327
54.240 8.798556
54.245 8.718794
54.250 8.701859
54.255 9.098119
54.260 9.283813
54.265 8.690747
54.270 7.98511
54.275 7.91381
54.280 8.039207
54.285 8.307709
54.290 8.563464
54.295 9.200756
54.300 9.769453
54.305 10.304225
54.310 10.349054
54.315 10.409145
54.320 10.255055
54.325 9.876295
54.330 9.438685
54.335 9.831826
54.340 10.331683
54.345 10.550676
54.350 10.687943
54.355 10.58153
54.360 10.67128
54.365 10.783635
54.370 9.966429
54.375 9.257065
54.380 9.191147
54.385 9.06233
54.390 9.295115
54.395 9.339802
54.400 9.024572
54.405 9.550759
54.410 9.580453
54.415 9.24036
54.420 9.036394
54.425 8.914289
54.430 9.559129
54.435 9.231478
54.440 9.773084
54.445 10.419876
54.450 10.919868
54.455 10.830668
54.460 11.079697
54.465 10.684044
54.470 10.663028
54.475 10.04242
54.480 9.765813
54.485 10.10412
54.490 10.148516
54.495 9.783028
54.500 10.169061
54.505 10.168101
54.510 9.873501
54.515 9.646441
54.520 10.173099
54.525 10.163655
54.530 9.880629
54.535 9.399159
54.540 9.786795
54.545 10.1152
54.550 9.784843
54.555 9.649162
54.560 9.946503
54.565 10.131038
54.570 10.743678
54.575 10.75577
54.580 10.521863
54.585 10.903236
54.590 10.436199
54.595 10.086101
54.600 10.112522
54.605 9.687018
54.610 9.489882
54.615 9.558272
54.620 9.79295
54.625 9.701498
54.630 9.643417
54.635 9.490711
54.640 9.423316
54.645 9.514559
54.650 9.344635
54.655 9.238055
54.660 9.634312
54.665 9.203387
54.670 9.144928
54.675 9.253766
54.680 9.193995
54.685 9.238323
54.690 8.583735
54.695 8.685111
54.700 9.146523
54.705 9.097992
54.710 9.359475
54.715 9.59587
54.720 9.388586
54.725 9.61904
54.730 9.940561
54.735 9.788019
54.740 9.709926
54.745 9.768621
54.750 10.351761
54.755 10.608576
54.760 10.742675
54.765 10.478989
54.770 10.936986
54.775 10.80071
54.780 10.718984
54.785 10.187578
54.790 10.293298
54.795 10.172306
54.800 10.029325
54.805 10.061042
54.810 9.802396
54.815 9.388907
54.820 9.089171
54.825 9.209742
54.830 9.137409
54.835 9.439865
54.840 9.169575
54.845 9.374268
54.850 9.584628
54.855 9.860704
54.860 9.846792
54.865 10.25192
54.870 10.297874
54.875 10.423146
54.880 9.863043
54.885 10.054488
54.890 10.272369
54.895 10.441041
54.900 10.250497
54.905 10.288291
54.910 10.666748
54.915 11.18629
54.920 10.824107
54.925 10.418343
54.930 10.150823
54.935 9.871339
54.940 9.438976
54.945 9.341666
54.950 9.718639
54.955 9.876575
54.960 9.827472
54.965 10.04437
54.970 10.241641
54.975 10.561088
54.980 10.317916
54.985 10.442359
54.990 10.950416
54.995 11.381627
55.000 11.458392
55.005 11.989926
55.010 12.242603
55.015 11.816149
55.020 11.50572
55.025 11.285332
55.030 11.163871
55.035 10.953458
55.040 10.661633
55.045 10.477383
55.050 11.16086
55.055 11.253358
55.060 10.925184
55.065 10.476334
55.070 10.647522
55.075 10.773796
55.080 10.924685
55.085 10.640476
55.090 10.638262
55.095 10.814275
55.100 11.027442
55.105 11.051763
55.110 11.425374
55.115 11.687266
55.120 11.740849
55.125 11.389649
55.130 10.943887
55.135 11.083581
55.140 10.981431
55.145 10.664092
55.150 10.596194
55.155 10.314422
55.160 10.287644
55.165 10.493379
55.170 10.098293
55.175 9.801646
55.180 9.669507
55.185 9.495447
55.190 10.124617
55.195 10.688154
55.200 10.855449
55.205 11.012828
55.210 11.592452
55.215 11.499266
55.220 11.406905
55.225 11.148019
55.230 10.507474
55.235 10.218206
55.240 9.930769
55.245 9.569817
55.250 9.631282
55.255 9.28023
55.260 8.7913
55.265 8.956635
55.270 9.456578
55.275 9.631854
55.280 9.759455
55.285 10.016223
55.290 10.174105
55.295 10.698079
55.300 10.690561
55.305 10.540803
55.310 10.524903
55.315 10.455229
55.320 10.623909
55.325 11.127536
55.330 11.037307
55.335 10.914381
55.340 10.613134
55.345 10.406174
55.350 10.201894
55.355 9.689126
55.360 9.782052
55.365 10.009046
55.370 10.143595
55.375 10.368785
55.380 10.809904
55.385 10.953844
55.390 10.866468
55.395 10.668707
55.400 10.082729
55.405 10.071417
55.410 9.755854
55.415 9.343086
55.420 9.653977
55.425 10.046875
55.430 10.135757
55.435 10.78877
55.440 11.212464
55.445 11.681993
55.450 11.737504
55.455 11.198133
55.460 10.799285
55.465 10.368089
55.470 10.213067
55.475 9.902507
55.480 9.572077
55.485 9.667448
55.490 9.92454
55.495 10.058055
55.500 9.909019
55.505 9.765061
55.510 10.010919
55.515 10.445314
55.520 10.46807
55.525 10.467319
55.530 10.397919
55.535 10.677755
55.540 10.424851
55.545 10.266273
55.550 10.279347
55.555 10.282025
55.560 10.668628
55.565 11.037124
55.570 11.104843
55.575 11.528319
55.580 11.911869
55.585 11.69259
55.590 11.456278
55.595 11.49869
55.600 11.623882
55.605 11.481069
55.610 10.893727
55.615 10.168017
55.620 9.904908
55.625 10.228867
55.630 10.076667
55.635 9.858263
55.640 9.994624
55.645 10.486
55.650 10.659897
55.655 11.019968
55.660 10.938781
55.665 11.039372
55.670 11.501776
55.675 11.94675
55.680 12.078034
55.685 12.478905
55.690 12.519703
55.695 12.324644
55.700 12.309949
55.705 11.512478
55.710 10.788884
55.715 10.717439
55.720 10.610563
55.725 10.741426
55.730 10.66032
55.735 10.32465
55.740 10.662432
55.745 10.746319
55.750 10.385086
55.755 10.350565
55.760 10.184832
55.765 10.006173
55.770 10.338935
55.775 10.345736
55.780 10.245167
55.785 10.035317
55.790 9.923203
55.795 10.082994
55.800 10.300525
55.805 10.358116
55.810 10.349488
55.815 10.146956
55.820 10.371967
55.825 10.313157
55.830 10.415306
55.835 10.355555
55.840 10.372233
55.845 10.40447
55.850 10.982837
55.855 11.109861
55.860 11.519815
55.865 11.361109
55.870 11.154728
55.875 11.724578
55.880 12.13191
55.885 12.08828
55.890 12.012215
55.895 11.568082
55.900 11.769385
55.905 11.753283
55.910 11.630155
55.915 11.790096
55.920 11.736787
55.925 11.90309
55.930 12.036122
55.935 12.290132
55.940 12.139317
55.945 12.139789
55.950 11.722765
55.955 11.396832
55.960 10.982231
55.965 10.941018
55.970 11.263989
55.975 11.312797
55.980 10.925423
55.985 10.751406
55.990 10.69328
55.995 10.76298
56.000 11.017473
56.005 10.631182
56.010 10.736087
56.015 10.915223
56.020 11.065302
56.025 11.017349
56.030 10.773809
56.035 10.313175
56.040 9.911194
56.045 9.709296
56.050 9.986043
56.055 10.06089
56.060 10.537814
56.065 11.175868
56.070 11.36572
56.075 12.182319
56.080 12.623138
56.085 12.922996
56.090 13.36982
56.095 13.216467
56.100 13.240986
56.105 13.229181
56.110 12.616814
56.115 12.081902
56.120 11.468604
56.125 11.391072
56.130 11.202703
56.135 10.972157
56.140 10.669022
56.145 10.624923
56.150 10.810019
56.155 11.06209
56.160 10.858656
56.165 11.260256
56.170 11.349001
56.175 11.455272
56.180 11.549901
56.185 10.942648
56.190 10.408376
56.195 10.332354
56.200 10.147925
56.205 10.443919
56.210 10.72878
56.215 10.770491
56.220 10.999063
56.225 11.405964
56.230 11.500845
56.235 11.734596
56.240 11.469108
56.245 11.273815
56.250 11.633245
56.255 12.159368
56.260 12.441578
56.265 11.980881
56.270 11.534309
56.275 12.007906
56.280 12.387184
56.285 11.863711
56.290 11.210904
56.295 11.095686
56.300 11.090685
56.305 11.330334
56.310 11.179976
56.315 11.164639
56.320 11.554506
56.325 11.445158
56.330 11.456022
56.335 11.652616
56.340 11.267348
56.345 11.049975
56.350 10.940487
56.355 11.341227
56.360 11.967505
56.365 12.121528
56.370 12.443402
56.375 12.958673
56.380 13.350863
56.385 13.242801
56.390 12.626858
56.395 12.019325
56.400 11.780006
56.405 11.383465
56.410 10.746208
56.415 10.323259
56.420 10.419745
56.425 10.96231
56.430 11.33056
56.435 11.813504
56.440 12.045087
56.445 12.109058
56.450 12.046673
56.455 11.952062
56.460 11.783422
56.465 11.615888
56.470 11.304626
56.475 11.030936
56.480 11.254651
56.485 11.589294
56.490 11.901752
56.495 11.779133
56.500 11.574337
56.505 11.617234
56.510 11.732903
56.515 12.081968
56.520 12.130699
56.525 11.649652
56.530 11.908457
56.535 12.011936
56.540 11.904363
56.545 11.943404
56.550 11.771457
56.555 11.424831
56.560 11.721836
56.565 11.457011
56.570 11.623668
56.575 11.763117
56.580 11.412269
56.585 11.357192
56.590 11.766089
56.595 11.854687
56.600 11.65405
56.605 11.975358
56.610 12.193092
56.615 12.304905
56.620 12.460003
56.625 12.227864
56.630 12.408155
56.635 12.602494
56.640 12.109035
56.645 11.802675
56.650 11.639085
56.655 10.871145
56.660 11.158242
56.665 10.868213
56.670 11.248348
56.675 11.270929
56.680 11.281103
56.685 11.743158
56.690 12.26045
56.695 12.069006
56.700 12.31363
56.705 12.106261
56.710 12.150268
56.715 11.832014
56.720 11.912046
56.725 12.20508
56.730 12.498844
56.735 12.180904
56.740 12.234039
56.745 12.393584
56.750 12.664282
56.755 12.450544
56.760 12.12657
56.765 12.517161
56.770 12.711075
56.775 12.580997
56.780 12.536103
56.785 12.281889
56.790 12.10752
56.795 12.260041
56.800 11.992506
56.805 12.243189
56.810 11.981782
56.815 11.785407
56.820 11.931388
56.825 11.662113
56.830 11.483395
56.835 11.083629
56.840 11.038094
56.845 11.250686
56.850 11.471622
56.855 11.697382
56.860 12.083001
56.865 12.149811
56.870 12.386454
56.875 12.791018
56.880 13.133097
56.885 13.420088
56.890 13.604959
56.895 13.619394
56.900 14.127578
56.905 14.418336
56.910 14.015619
56.915 14.183596
56.920 14.224843
56.925 14.466267
56.930 14.270496
56.935 14.062603
56.940 13.927713
56.945 13.976434
56.950 13.523792
56.955 13.063115
56.960 12.611491
56.965 12.197916
56.970 12.010398
56.975 12.253263
56.980 12.252403
56.985 12.394105
56.990 12.264367
56.995 12.182773
57.000 12.519654
57.005 12.157107
57.010 11.592741
57.015 11.828515
57.020 12.240042
57.025 12.711426
57.030 12.529395
57.035 12.276944
57.040 12.436494
57.045 12.487345
57.050 11.921866
57.055 11.374737
57.060 11.463878
57.065 11.688103
57.070 11.58211
57.075 11.624915
57.080 11.854359
57.085 12.722504
57.090 12.521128
57.095 12.21218
57.100 12.116058
57.105 12.216951
57.110 12.281472
57.115 12.397799
57.120 12.656499
57.125 13.409089
57.130 13.550132
57.135 13.636014
57.140 13.570516
57.145 13.549559
57.150 12.917633
57.155 12.00488
57.160 12.103062
57.165 12.301076
57.170 12.094105
57.175 12.168962
57.180 12.68537
57.185 13.391982
57.190 13.839092
57.195 13.849209
57.200 14.363861
57.205 15.40385
57.210 15.517482
57.215 14.774686
57.220 14.205327
57.225 14.105455
57.230 13.266966
57.235 12.694766
57.240 12.535497
57.245 12.993122
57.250 13.250984
57.255 13.581395
57.260 13.577687
57.265 13.898053
57.270 13.819612
57.275 13.235664
57.280 12.836744
57.285 13.087707
57.290 13.389433
57.295 13.716063
57.300 13.966717
57.305 14.827225
57.310 15.344646
57.315 15.093532
57.320 14.65128
57.325 14.61541
57.330 14.442133
57.335 13.932972
57.340 13.452478
57.345 13.116325
57.350 13.807332
57.355 13.995078
57.360 13.687432
57.365 13.893939
57.370 14.230697
57.375 13.930154
57.380 13.989883
57.385 14.349736
57.390 14.723968
57.395 14.432075
57.400 14.731625
57.405 14.664214
57.410 15.083041
57.415 15.209485
57.420 14.614529
57.425 14.724245
57.430 14.887116
57.435 14.575251
57.440 14.61182
57.445 14.51566
57.450 14.778303
57.455 15.156727
57.460 15.01737
57.465 14.975522
57.470 15.60958
57.475 15.690728
57.480 15.559445
57.485 14.924857
57.490 14.738364
57.495 14.813021
57.500 14.910766
57.505 14.67941
57.510 15.553559
57.515 16.247547
57.520 16.55764
57.525 16.66522
57.530 16.082951
57.535 15.721069
57.540 15.389338
57.545 14.693762
57.550 14.391906
57.555 14.415497
57.560 14.089664
57.565 14.605712
57.570 14.809143
57.575 14.572422
57.580 14.364158
57.585 14.092866
57.590 13.910267
57.595 14.192781
57.600 13.912659
57.605 13.408872
57.610 13.533311
57.615 13.132311
57.620 13.397933
57.625 13.546511
57.630 13.712022
57.635 13.974839
57.640 13.900009
57.645 13.57381
57.650 13.881505
57.655 14.079098
57.660 13.759903
57.665 13.131104
57.670 13.006097
57.675 13.287382
57.680 13.308255
57.685 13.219494
57.690 12.937658
57.695 13.526555
57.700 13.817965
57.705 14.337796
57.710 14.852114
57.715 14.868977
57.720 15.136443
57.725 15.246639
57.730 14.907453
57.735 14.987108
57.740 14.64212
57.745 14.692294
57.750 14.958569
57.755 14.596806
57.760 14.720845
57.765 15.146307
57.770 14.522446
57.775 14.309913
57.780 14.354367
57.785 13.995824
57.790 14.002857
57.795 13.774404
57.800 13.544204
57.805 13.838742
57.810 14.203273
57.815 13.738894
57.820 13.674759
57.825 13.636021
57.830 13.627594
57.835 13.529132
57.840 13.57015
57.845 12.919641
57.850 13.232263
57.855 13.456118
57.860 13.558226
57.865 13.484479
57.870 13.246351
57.875 13.439038
57.880 13.837254
57.885 13.882256
57.890 13.812667
57.895 13.600959
57.900 13.898759
57.905 14.196851
57.910 13.747747
57.915 13.85128
57.920 13.584163
57.925 14.110903
57.930 14.433254
57.935 14.133034
57.940 13.896895
57.945 14.322596
57.950 14.327054
57.955 14.35594
57.960 13.694412
57.965 13.541778
57.970 13.788001
57.975 14.02931
57.980 14.012525
57.985 14.576171
57.990 14.864444
57.995 15.491759
58.000 15.610841
58.005 15.912348
58.010 16.190536
58.015 16.212767
58.020 16.17782
58.025 16.450588
58.030 16.223633
58.035 16.103319
58.040 16.735514
58.045 16.62501
58.050 16.798834
58.055 16.888783
58.060 17.10973
58.065 17.582409
58.070 17.762342
58.075 17.104616
58.080 16.89007
58.085 16.096403
58.090 16.334835
58.095 16.040852
58.100 15.393189
58.105 15.10228
58.110 15.572236
58.115 16.185509
58.120 16.514776
58.125 16.732533
58.130 16.939901
58.135 17.560629
58.140 17.456217
58.145 17.445803
58.150 17.506092
58.155 17.680733
58.160 17.004642
58.165 16.923313
58.170 16.594719
58.175 17.068058
58.180 16.749062
58.185 16.760561
58.190 16.871542
58.195 17.149143
58.200 17.154938
58.205 17.819218
58.210 17.601324
58.215 18.027584
58.220 18.270445
58.225 18.688848
58.230 19.249165
58.235 19.723957
58.240 19.569981
58.245 19.921173
58.250 20.194761
58.255 19.991179
58.260 19.50765
58.265 18.909756
58.270 18.806219
58.275 19.475739
58.280 19.544817
58.285 19.640223
58.290 19.611229
58.295 20.166931
58.300 20.828163
58.305 21.277075
58.310 20.768232
58.315 20.386143
58.320 20.401205
58.325 20.549719
58.330 20.83674
58.335 21.072136
58.340 21.377472
58.345 22.120613
58.350 23.162714
58.355 23.249712
58.360 24.374685
58.365 24.820572
58.370 24.766661
58.375 24.222246
58.380 24.038149
58.385 24.829292
58.390 25.335621
58.395 24.555399
58.400 24.272282
58.405 24.360504
58.410 24.726418
58.415 24.639067
58.420 24.662018
58.425 24.887716
58.430 25.112087
58.435 25.143221
58.440 25.306538
58.445 25.473593
58.450 24.762712
58.455 23.435156
58.460 23.187782
58.465 23.109629
58.470 23.518063
58.475 23.309069
58.480 23.358667
58.485 24.162855
58.490 25.902971
58.495 25.847443
58.500 25.813198
58.505 25.915846
58.510 26.093407
58.515 26.694378
58.520 26.387352
58.525 25.294758
58.530 25.522604
58.535 26.520407
58.540 26.547632
58.545 26.392719
58.550 26.40872
58.555 27.14739
58.560 28.004023
58.565 28.092358
58.570 27.404419
58.575 27.316793
58.580 27.684847
58.585 27.345877
58.590 27.127842
58.595 27.217051
58.600 27.135048
58.605 27.990618
58.610 27.903419
58.615 27.469812
58.620 27.43545
58.625 27.19705
58.630 27.078653
58.635 26.855021
58.640 25.906673
58.645 25.866812
58.650 25.343956
58.655 25.43803
58.660 25.654495
58.665 25.163874
58.670 25.356781
58.675 25.211113
58.680 25.707237
58.685 26.010153
58.690 25.85741
58.695 26.214865
58.700 25.473709
58.705 24.380856
58.710 23.916203
58.715 23.32523
58.720 22.851389
58.725 22.291225
58.730 21.334803
58.735 21.507656
58.740 22.254301
58.745 22.480774
58.750 22.955683
58.755 23.417387
58.760 23.247883
58.765 22.437363
58.770 22.093212
58.775 21.540337
58.780 21.040096
58.785 19.988134
58.790 19.508764
58.795 19.736004
58.800 19.880701
58.805 19.570086
58.810 19.442102
58.815 19.40513
58.820 19.578802
58.825 19.336748
58.830 19.36545
58.835 19.594398
58.840 19.601702
58.845 19.349892
58.850 18.955616
58.855 18.797186
58.860 18.328585
58.865 17.612816
58.870 17.845709
58.875 17.779142
58.880 17.857098
58.885 17.604755
58.890 17.755674
58.895 18.426888
58.900 18.897388
58.905 18.611601
58.910 18.454157
58.915 18.350058
58.920 18.654621
58.925 18.435308
58.930 17.830469
58.935 17.353373
58.940 17.045786
58.945 17.029034
58.950 17.139257
58.955 17.443199
58.960 17.381706
58.965 17.139727
58.970 17.015236
58.975 17.473207
58.980 18.368858
58.985 18.144773
58.990 17.639021
58.995 18.328499
59.000 19.024755
59.005 19.259165
59.010 18.75585
59.015 18.476091
59.020 18.189066
59.025 18.104269
59.030 17.623825
59.035 17.59593
59.040 18.228638
59.045 18.632246
59.050 18.802967
59.055 19.129187
59.060 19.076748
59.065 18.931211
59.070 19.062786
59.075 18.475002
59.080 17.78298
59.085 17.21114
59.090 17.030148
59.095 17.067728
59.100 17.372278
59.105 16.828272
59.110 16.963318
59.115 16.944223
59.120 16.762239
59.125 16.530226
59.130 15.983128
59.135 15.476155
59.140 15.51456
59.145 15.306885
59.150 15.554453
59.155 15.920804
59.160 16.030117
59.165 16.217634
59.170 16.022875
59.175 16.364199
59.180 16.562286
59.185 16.559858
59.190 16.419407
59.195 16.339947
59.200 16.785551
59.205 16.934523
59.210 16.701796
59.215 16.118134
59.220 15.955182
59.225 15.923386
59.230 16.202475
59.235 15.954019
59.240 15.862597
59.245 15.642094
59.250 15.857877
59.255 15.793663
59.260 15.814127
59.265 15.582925
59.270 15.419919
59.275 15.196379
59.280 15.550381
59.285 15.088158
59.290 14.906605
59.295 15.372986
59.300 15.157821
59.305 15.096786
59.310 14.674167
59.315 14.692208
59.320 14.6934
59.325 14.748587
59.330 14.60528
59.335 15.173282
59.340 15.098735
59.345 15.326597
59.350 15.189085
59.355 15.454004
59.360 15.113235
59.365 14.706486
59.370 14.561595
59.375 14.646352
59.380 13.825939
59.385 13.465215
59.390 14.288326
59.395 14.472477
59.400 14.654264
59.405 14.179908
59.410 14.297333
59.415 15.310753
59.420 15.874337
59.425 15.480865
59.430 15.418083
59.435 15.074662
59.440 15.546515
59.445 15.829069
59.450 15.621905
59.455 15.184123
59.460 14.910069
59.465 14.774856
59.470 15.217896
59.475 15.509143
59.480 15.527348
59.485 15.329461
59.490 15.110384
59.495 15.193584
59.500 15.244854
59.505 14.541429
59.510 13.913733
59.515 14.042673
59.520 14.415813
59.525 14.665895
59.530 14.4183
59.535 14.60234
59.540 15.329835
59.545 15.75191
59.550 15.156536
59.555 14.722549
59.560 14.474897
59.565 14.350945
59.570 14.164465
59.575 13.746617
59.580 13.199007
59.585 13.060862
59.590 13.209011
59.595 13.400055
59.600 14.019222
59.605 14.24867
59.610 14.788207
59.615 15.589308
59.620 15.859167
59.625 16.06015
59.630 15.844058
59.635 14.768012
59.640 14.380758
59.645 13.553844
59.650 12.914512
59.655 13.065735
59.660 12.783941
59.665 13.280656
59.670 14.064864
59.675 14.403803
59.680 14.758677
59.685 15.111349
59.690 15.589628
59.695 16.039658
59.700 16.811781
59.705 16.916271
59.710 16.776352
59.715 16.668818
59.720 16.458073
59.725 16.11248
59.730 15.815381
59.735 14.953044
59.740 15.371419
59.745 15.196245
59.750 15.251299
59.755 15.660664
59.760 15.502066
59.765 15.21783
59.770 15.352529
59.775 15.06559
59.780 15.331967
59.785 15.668631
59.790 16.042137
59.795 16.713232
59.800 17.330709
59.805 17.532738
59.810 17.041613
59.815 16.923563
59.820 16.653381
59.825 15.969021
59.830 15.38022
59.835 14.825181
59.840 14.267694
59.845 14.747968
59.850 14.228687
59.855 13.811056
59.860 13.654007
59.865 13.491899
59.870 13.707767
59.875 13.837243
59.880 14.080778
59.885 14.447687
59.890 14.557339
59.895 14.499427
59.900 14.603983
59.905 14.387027
59.910 14.17638
59.915 13.950994
59.920 13.9727
59.925 14.121099
59.930 14.565114
59.935 14.62437
59.940 14.942371
59.945 14.561412
59.950 15.05283
59.955 15.871513
59.960 15.99049
59.965 16.058472
59.970 16.053474
59.975 15.765664
59.980 15.906783
59.985 15.415258
59.990 14.893019
59.995 14.414981
60.000 14.398012
60.005 14.667178
60.010 14.717802
60.015 14.66393
60.020 14.868033
60.025 15.158275
60.030 15.427192
60.035 14.960008
60.040 14.966893
60.045 15.175548
60.050 15.495858
60.055 15.187326
60.060 14.962672
60.065 14.808526
60.070 14.65747
60.075 14.215677
60.080 14.056524
60.085 13.605064
60.090 13.283665
60.095 13.25047
60.100 13.990615
60.105 14.738441
60.110 15.0806
60.115 15.333498
60.120 15.758436
60.125 15.87294
60.130 15.801222
60.135 15.162359
60.140 14.871718
60.145 14.827273
60.150 14.719298
60.155 14.632446
60.160 14.465841
60.165 14.416416
60.170 14.258146
60.175 14.294633
60.180 14.135603
60.185 14.079793
60.190 14.079243
60.195 14.122575
60.200 14.071935
60.205 14.189595
60.210 14.238802
60.215 14.530816
60.220 14.176374
60.225 14.817904
60.230 15.098435
60.235 15.347682
60.240 15.099209
60.245 14.88004
60.250 14.907772
60.255 14.963835
60.260 14.193695
60.265 14.801156
60.270 15.102562
60.275 15.812958
60.280 15.773417
60.285 15.651505
60.290 15.572789
60.295 15.590759
60.300 14.839211
60.305 14.018215
60.310 13.378538
60.315 13.705982
60.320 14.119372
60.325 14.874097
60.330 14.669429
60.335 14.324444
60.340 14.767578
60.345 15.24255
60.350 15.263375
60.355 14.146153
60.360 13.418591
60.365 13.625956
60.370 14.001313
60.375 13.892554
60.380 13.733824
60.385 13.551299
60.390 14.323048
60.395 14.92382
60.400 14.715389
60.405 14.587477
60.410 14.471291
60.415 14.62122
60.420 14.745011
60.425 14.904159
60.430 14.63298
60.435 15.014835
60.440 15.745247
60.445 16.107084
60.450 15.602719
60.455 15.360786
60.460 14.681889
60.465 14.86709
60.470 14.790609
60.475 14.099424
60.480 13.99444
60.485 13.997982
60.490 14.240533
60.495 14.774711
60.500 14.394597
60.505 14.466017
60.510 14.733868
60.515 14.197508
60.520 14.067684
60.525 13.930561
60.530 13.829369
60.535 14.287795
60.540 14.232171
60.545 14.27527
60.550 15.03777
60.555 15.33456
60.560 15.338314
60.565 15.079305
60.570 15.276664
60.575 16.055624
60.580 15.746289
60.585 15.990236
60.590 16.178186
60.595 16.414919
60.600 16.675869
60.605 16.537155
60.610 15.737942
60.615 15.821734
60.620 16.368658
60.625 16.421715
60.630 16.056881
60.635 16.146069
60.640 16.095552
60.645 16.388874
60.650 16.525457
60.655 15.462503
60.660 15.343824
60.665 15.711817
60.670 15.542912
60.675 15.091336
60.680 14.756523
60.685 14.442476
60.690 14.607002
60.695 14.54258
60.700 14.721568
60.705 15.258227
60.710 15.487867
60.715 15.534472
60.720 15.465107
60.725 15.402416
60.730 15.885245
60.735 15.898272
60.740 15.327621
60.745 15.374764
60.750 15.798797
60.755 16.301617
60.760 16.743622
60.765 16.655577
60.770 16.672373
60.775 17.072956
60.780 17.432375
60.785 17.067923
60.790 16.369579
60.795 16.393337
60.800 15.956211
60.805 15.619139
60.810 15.494171
60.815 15.22852
60.820 15.257455
60.825 15.666596
60.830 15.160295
60.835 15.200822
60.840 15.10742
60.845 14.532779
60.850 14.337567
60.855 14.313271
60.860 13.891722
60.865 14.270564
60.870 14.321308
60.875 14.416298
60.880 14.759572
60.885 14.967529
60.890 14.914967
60.895 15.05778
60.900 15.252556
60.905 15.507897
60.910 15.2061
60.915 15.527418
60.920 15.672015
60.925 16.076265
60.930 15.757203
60.935 15.650067
60.940 15.825551
60.945 15.425305
60.950 14.797194
60.955 14.759967
60.960 15.262741
60.965 15.360209
60.970 15.159594
60.975 14.822676
60.980 15.412073
60.985 15.348647
60.990 15.292958
60.995 14.78652
61.000 14.559222
61.005 14.414885
61.010 13.975566
61.015 14.241209
61.020 14.315539
61.025 14.061218
61.030 14.414749
61.035 14.598701
61.040 14.491292
61.045 14.777951
61.050 14.635784
61.055 14.640246
61.060 14.486279
61.065 13.949709
61.070 14.185715
61.075 14.142311
61.080 14.572514
61.085 15.266539
61.090 16.023359
61.095 16.338133
61.100 16.216814
61.105 16.135803
61.110 16.069582
61.115 16.064615
61.120 15.413013
61.125 14.818121
61.130 14.858703
61.135 15.185462
61.140 15.395267
61.145 15.469666
61.150 15.188574
61.155 15.339725
61.160 15.476649
61.165 14.964171
61.170 14.896399
61.175 14.494936
61.180 14.571452
61.185 14.719937
61.190 14.819768
61.195 14.947884
61.200 15.227233
61.205 15.156302
61.210 15.437182
61.215 15.472839
61.220 15.721089
61.225 15.973557
61.230 15.743001
61.235 15.60649
61.240 15.81627
61.245 16.047535
61.250 15.847278
61.255 15.738773
61.260 15.909581
61.265 16.320728
61.270 16.282318
61.275 15.587965
61.280 15.770848
61.285 16.137121
61.290 15.917487
61.295 15.224945
61.300 15.191737
61.305 15.597272
61.310 16.023989
61.315 15.675516
61.320 15.585676
61.325 15.410771
61.330 15.710798
61.335 15.962277
61.340 16.028238
61.345 16.30476
61.350 16.405342
61.355 16.613228
61.360 16.830128
61.365 16.645208
61.370 15.879257
61.375 15.629918
61.380 15.363981
61.385 14.937008
61.390 14.414151
61.395 14.105647
61.400 13.717363
61.405 13.9883
61.410 13.974723
61.415 14.101667
61.420 13.975162
61.425 13.93581
61.430 13.982585
61.435 14.101454
61.440 14.121064
61.445 14.282851
61.450 14.879225
61.455 15.385608
61.460 15.52325
61.465 15.872042
61.470 16.542561
61.475 16.484009
61.480 16.569643
61.485 16.16761
61.490 16.025728
61.495 16.057354
61.500 16.353811
61.505 16.437693
61.510 16.471243
61.515 16.453392
61.520 16.263983
61.525 16.716396
61.530 17.115896
61.535 16.427994
61.540 16.926197
61.545 17.225321
61.550 17.189344
61.555 17.126595
61.560 16.708418
61.565 16.354721
61.570 16.308105
61.575 15.695628
61.580 15.289102
61.585 14.655992
61.590 14.829134
61.595 15.081484
61.600 14.957465
61.605 14.729501
61.610 14.725144
61.615 14.780695
61.620 14.466109
61.625 13.913963
61.630 13.43961
61.635 13.655714
61.640 14.101432
61.645 14.072857
61.650 14.722509
61.655 15.104568
61.660 15.798922
61.665 16.006786
61.670 16.368414
61.675 15.995762
61.680 15.764231
61.685 15.517928
61.690 15.505242
61.695 15.249803
61.700 15.139966
61.705 14.998712
61.710 15.255825
61.715 14.625362
61.720 13.981255
61.725 14.073423
61.730 14.203127
61.735 14.372614
61.740 14.11252
61.745 14.137379
61.750 14.691326
61.755 15.519709
61.760 15.468074
61.765 14.668556
61.770 14.595819
61.775 14.877296
61.780 15.367064
61.785 15.774049
61.790 15.91605
61.795 16.244919
61.800 16.728525
61.805 16.391268
61.810 16.500225
61.815 16.568258
61.820 15.877291
61.825 15.607105
61.830 15.583915
61.835 15.506111
61.840 15.048807
61.845 13.973267
61.850 13.558549
61.855 14.354469
61.860 14.498453
61.865 14.876416
61.870 15.602311
61.875 16.85677
61.880 18.068127
61.885 18.393881
61.890 18.050932
61.895 18.113367
61.900 17.329454
61.905 16.695345
61.910 16.114319
61.915 15.515339
61.920 15.329483
61.925 14.921334
61.930 14.699636
61.935 15.006566
61.940 15.30469
61.945 15.292745
61.950 15.446016
61.955 15.361821
61.960 15.583761
61.965 16.080221
61.970 16.539991
61.975 16.976189
61.980 16.784933
61.985 16.381311
61.990 16.658991
61.995 16.759548
62.000 16.317669
62.005 15.80117
62.010 15.232389
62.015 15.290985
62.020 15.157289
62.025 14.92796
62.030 15.069636
62.035 14.878846
62.040 14.529781
62.045 14.578546
62.050 14.340335
62.055 14.385036
62.060 14.193099
62.065 14.444026
62.070 14.854728
62.075 15.020266
62.080 14.9651
62.085 15.910454
62.090 16.32546
62.095 16.704718
62.100 16.793552
62.105 16.447395
62.110 16.403828
62.115 16.531345
62.120 16.114161
62.125 16.207691
62.130 15.687201
62.135 15.661935
62.140 15.821937
62.145 16.329597
62.150 16.934113
62.155 16.912977
62.160 16.741949
62.165 17.306072
62.170 17.394257
62.175 17.241568
62.180 17.135136
62.185 16.948402
62.190 16.681946
62.195 16.516357
62.200 15.754974
62.205 15.348495
62.210 15.099804
62.215 14.617967
62.220 14.124119
62.225 14.819527
62.230 15.103064
62.235 14.85799
62.240 15.146449
62.245 15.340539
62.250 15.181335
62.255 14.817219
62.260 13.744311
62.265 13.176467
62.270 13.147661
62.275 13.039016
62.280 12.964126
62.285 13.791746
62.290 14.928969
62.295 15.453507
62.300 15.800236
62.305 15.634775
62.310 15.426949
62.315 15.851367
62.320 15.224577
62.325 14.508366
62.330 14.488466
62.335 14.35016
62.340 14.754218
62.345 15.388722
62.350 15.357017
62.355 15.395102
62.360 15.711868
62.365 16.034538
62.370 16.962227
62.375 17.257524
62.380 16.825645
62.385 16.810596
62.390 17.284647
62.395 17.025629
62.400 16.84627
62.405 16.189915
62.410 16.299952
62.415 16.645079
62.420 16.992144
62.425 16.318666
62.430 15.970744
62.435 15.878922
62.440 16.13295
62.445 16.311319
62.450 16.510382
62.455 16.923447
62.460 17.486591
62.465 18.112133
62.470 18.352169
62.475 18.499428
62.480 18.348831
62.485 17.952858
62.490 17.415382
62.495 17.640394
62.500 17.540667
62.505 17.594946
62.510 17.061895
62.515 16.622797
62.520 16.625977
62.525 16.936857
62.530 16.549595
62.535 16.714527
62.540 16.272564
62.545 16.131773
62.550 16.623245
62.555 16.529806
62.560 16.354742
62.565 16.148756
62.570 15.842343
62.575 16.196657
62.580 15.978822
62.585 15.944637
62.590 16.527643
62.595 17.117607
62.600 16.987305
62.605 17.071856
62.610 16.509546
62.615 16.574919
62.620 15.681344
62.625 15.176221
62.630 14.664143
62.635 15.356403
62.640 15.334829
62.645 16.243996
62.650 16.894901
62.655 17.376463
62.660 17.440231
62.665 17.297441
62.670 17.04838
62.675 17.160189
62.680 16.596283
62.685 16.567108
62.690 17.336302
62.695 18.158451
62.700 17.854994
62.705 18.072218
62.710 17.945946
62.715 18.099072
62.720 17.709244
62.725 17.010454
62.730 17.053534
62.735 17.513947
62.740 17.482241
62.745 17.669193
62.750 17.667521
62.755 17.909842
62.760 17.929993
62.765 16.615839
62.770 16.155724
62.775 15.770638
62.780 15.460849
62.785 14.854484
62.790 14.765698
62.795 14.778651
62.800 15.303004
62.805 15.361463
62.810 15.537872
62.815 15.927458
62.820 16.578178
62.825 16.708538
62.830 16.486498
62.835 16.057928
62.840 15.681844
62.845 15.747368
62.850 15.382174
62.855 15.347499
62.860 15.314927
62.865 15.204329
62.870 15.580787
62.875 15.419682
62.880 15.340669
62.885 15.203734
62.890 14.758558
62.895 14.938337
62.900 15.038745
62.905 14.942725
62.910 15.107491
62.915 15.163845
62.920 15.682209
62.925 16.033329
62.930 15.443105
62.935 14.920788
62.940 15.370285
62.945 16.005424
62.950 15.964724
62.955 15.522907
62.960 15.552284
62.965 15.598246
62.970 16.344492
62.975 16.485949
62.980 16.580509
62.985 16.718344
62.990 17.657053
62.995 18.205645
63.000 18.701284
63.005 19.029736
63.010 19.030546
63.015 19.018486
63.020 18.74703
63.025 18.192528
63.030 17.483677
63.035 17.356844
63.040 16.658115
63.045 16.398729
63.050 16.128498
63.055 16.44466
63.060 16.51215
63.065 16.726875
63.070 16.490597
63.075 16.700846
63.080 16.808775
63.085 16.29615
63.090 16.148392
63.095 15.965919
63.100 15.848718
63.105 16.07225
63.110 15.880641
63.115 16.151581
63.120 16.530619
63.125 16.977482
63.130 17.743185
63.135 17.95046
63.140 18.147984
63.145 18.213728
63.150 18.075153
63.155 18.262577
63.160 17.979408
63.165 17.913963
63.170 18.169081
63.175 18.028439
63.180 18.584904
63.185 18.723778
63.190 18.624901
63.195 18.134468
63.200 18.048241
63.205 17.988607
63.210 17.408707
63.215 16.825516
63.220 16.687387
63.225 16.79027
63.230 17.174154
63.235 17.108177
63.240 17.127737
63.245 17.786083
63.250 17.841707
63.255 17.50626
63.260 17.548742
63.265 17.555147
63.270 17.363506
63.275 17.235775
63.280 16.396666
63.285 16.566439
63.290 16.926989
63.295 16.653603
63.300 16.781809
63.305 16.561895
63.310 16.847055
63.315 17.777988
63.320 18.029501
63.325 17.445795
63.330 17.588045
63.335 17.71781
63.340 17.978333
63.345 17.649296
63.350 16.998867
63.355 16.400023
63.360 16.71604
63.365 16.631069
63.370 16.828373
63.375 16.685246
63.380 17.137533
63.385 17.201057
63.390 17.620508
63.395 17.909826
63.400 18.161215
63.405 17.91642
63.410 18.06723
63.415 17.595676
63.420 17.590723
63.425 17.879084
63.430 18.058605
63.435 18.121712
63.440 18.479918
63.445 18.763187
63.450 19.036741
63.455 19.503473
63.460 19.91996
63.465 19.648266
63.470 19.605606
63.475 19.48448
63.480 19.375441
63.485 19.785208
63.490 19.624537
63.495 19.042128
63.500 19.632635
63.505 19.695772
63.510 19.249773
63.515 18.693148
63.520 18.072206
63.525 18.325239
63.530 18.365381
63.535 17.789835
63.540 17.71866
63.545 17.753063
63.550 18.098053
63.555 18.405685
63.560 18.372019
63.565 18.717587
63.570 19.0312
63.575 18.599621
63.580 18.163891
63.585 17.647076
63.590 17.367495
63.595 17.168854
63.600 17.237715
63.605 16.897064
63.610 17.413593
63.615 18.146254
63.620 18.716763
63.625 18.70837
63.630 18.358116
63.635 17.985035
63.640 18.115839
63.645 18.172506
63.650 18.464695
63.655 18.765284
63.660 18.925089
63.665 19.4223
63.670 19.553936
63.675 19.417885
63.680 19.578619
63.685 19.466467
63.690 19.393559
63.695 19.14641
63.700 19.27812
63.705 19.935137
63.710 20.442453
63.715 20.538351
63.720 20.705648
63.725 21.150642
63.730 21.7031
63.735 21.861195
63.740 21.818125
63.745 21.333336
63.750 20.475348
63.755 20.644304
63.760 20.969494
63.765 21.516884
63.770 21.58202
63.775 21.065628
63.780 21.947594
63.785 22.376646
63.790 22.320518
63.795 22.457964
63.800 22.288944
63.805 22.970737
63.810 24.031208
63.815 24.724371
63.820 25.544909
63.825 25.740171
63.830 25.614075
63.835 26.153454
63.840 26.029377
63.845 25.713184
63.850 25.208225
63.855 25.422905
63.860 24.823078
63.865 24.236414
63.870 23.460922
63.875 23.074574
63.880 22.579321
63.885 22.174784
63.890 21.770767
63.895 22.448917
63.900 22.870192
63.905 23.619492
63.910 24.437813
63.915 25.148117
63.920 25.179083
63.925 25.814119
63.930 26.016808
63.935 25.886904
63.940 25.49052
63.945 25.40062
63.950 25.930296
63.955 26.376865
63.960 26.947121
63.965 27.205769
63.970 27.512646
63.975 28.33433
63.980 29.749649
63.985 30.417185
63.990 30.868979
63.995 31.188107
64.000 31.734644
64.005 32.339855
64.010 32.700027
64.015 32.40387
64.020 33.018536
64.025 32.991039
64.030 32.853951
64.035 33.582157
64.040 34.08342
64.045 33.969044
64.050 33.708382
64.055 33.285198
64.060 33.817818
64.065 33.555923
64.070 34.109024
64.075 34.447643
64.080 34.840057
64.085 35.081978
64.090 34.911861
64.095 34.440048
64.100 35.605442
64.105 35.786507
64.110 36.0602
64.115 36.35799
64.120 37.067749
64.125 37.241558
64.130 37.236076
64.135 36.602505
64.140 36.13522
64.145 35.378395
64.150 35.350533
64.155 35.149479
64.160 35.486042
64.165 35.571117
64.170 35.390957
64.175 34.903599
64.180 34.807953
64.185 33.633171
64.190 33.358509
64.195 33.209976
64.200 34.022789
64.205 34.175377
64.210 34.452591
64.215 34.565201
64.220 35.198025
64.225 34.683167
64.230 34.142437
64.235 33.281975
64.240 32.661865
64.245 32.713001
64.250 32.990643
64.255 32.919971
64.260 33.436859
64.265 33.276207
64.270 33.075073
64.275 33.112034
64.280 32.208389
64.285 31.836166
64.290 31.986389
64.295 31.826782
64.300 31.970835
64.305 32.208447
64.310 31.956028
64.315 32.079281
64.320 32.154812
64.325 31.343573
64.330 30.662184
64.335 30.05525
64.340 29.885649
64.345 30.048376
64.350 30.572237
64.355 31.130747
64.360 31.488153
64.365 31.063681
64.370 30.04829
64.375 29.083393
64.380 28.885927
64.385 27.895714
64.390 27.274612
64.395 26.394722
64.400 26.918749
64.405 27.852989
64.410 28.277504
64.415 27.588158
64.420 27.16474
64.425 26.651733
64.430 26.623138
64.435 26.091507
64.440 25.647249
64.445 25.806669
64.450 26.201672
64.455 26.575356
64.460 26.463181
64.465 26.705667
64.470 26.378569
64.475 26.379511
64.480 26.088478
64.485 26.538111
64.490 26.546515
64.495 26.801638
64.500 27.120697
64.505 27.317612
64.510 26.984766
64.515 26.635382
64.520 25.711737
64.525 25.196457
64.530 24.60248
64.535 24.745754
64.540 24.302008
64.545 24.607567
64.550 24.676504
64.555 24.578495
64.560 24.345545
64.565 24.079899
64.570 23.397135
64.575 23.255516
64.580 23.271608
64.585 22.965178
64.590 22.465422
64.595 22.334251
64.600 21.953398
64.605 21.649858
64.610 21.923679
64.615 20.811947
64.620 21.12962
64.625 21.356524
64.630 21.371523
64.635 20.932121
64.640 21.026371
64.645 20.718193
64.650 21.443752
64.655 21.7159
64.660 21.91436
64.665 21.951693
64.670 22.24551
64.675 22.430628
64.680 21.993227
64.685 21.378944
64.690 20.443058
64.695 19.933325
64.700 20.140799
64.705 20.131466
64.710 19.831587
64.715 20.025969
64.720 19.983065
64.725 20.121262
64.730 20.254374
64.735 19.559992
64.740 19.539911
64.745 19.146885
64.750 19.501236
64.755 19.786411
64.760 19.666773
64.765 19.021027
64.770 19.629438
64.775 20.089436
64.780 20.619238
64.785 20.008949
64.790 19.747438
64.795 19.654949
64.800 20.254536
64.805 20.037052
64.810 19.17312
64.815 19.059336
64.820 19.781767
64.825 20.166538
64.830 20.155022
64.835 19.984781
64.840 20.252748
64.845 20.11808
64.850 19.484079
64.855 18.774454
64.860 18.592123
64.865 19.049757
64.870 18.829491
64.875 18.710802
64.880 18.677126
64.885 18.607971
64.890 18.904015
64.895 19.188116
64.900 19.352047
64.905 19.547131
64.910 20.093512
64.915 20.959936
64.920 21.130665
64.925 20.459507
64.930 19.653677
64.935 19.129332
64.940 18.525108
64.945 17.643768
64.950 17.218353
64.955 17.457993
64.960 18.298496
64.965 18.78599
64.970 18.9699
64.975 19.061771
64.980 18.706808
64.985 18.820599
64.990 19.105219
64.995 19.00926
65.000 18.910297
65.005 19.223066
65.010 20.206095
65.015 21.42338
65.020 21.620495
65.025 21.166288
65.030 20.92366
65.035 20.984898
65.040 21.018736
65.045 20.732328
65.050 20.812469
65.055 20.606882
65.060 20.518709
65.065 20.044451
65.070 19.911541
65.075 20.009956
65.080 20.188389
65.085 20.014893
65.090 20.090549
65.095 20.034248
65.100 20.395273
65.105 20.248953
65.110 20.478533
65.115 20.357878
65.120 20.391455
65.125 20.4133
65.130 20.95656
65.135 21.040638
65.140 20.963743
65.145 20.46114
65.150 19.754333
65.155 19.661085
65.160 19.607449
65.165 19.222137
65.170 19.463308
65.175 19.445499
65.180 19.440632
65.185 19.990294
65.190 19.308594
65.195 19.411772
65.200 19.702105
65.205 19.999094
65.210 20.56505
65.215 20.611893
65.220 20.387476
65.225 20.864716
65.230 21.371775
65.235 21.160286
65.240 20.707163
65.245 20.66608
65.250 20.493389
65.255 20.686762
65.260 20.705605
65.265 20.25823
65.270 20.046408
65.275 20.270908
65.280 20.370594
65.285 20.46674
65.290 20.572744
65.295 21.030054
65.300 21.488583
65.305 21.301844
65.310 20.783117
65.315 20.666779
65.320 20.52482
65.325 19.791679
65.330 18.978685
65.335 18.896412
65.340 19.207092
65.345 19.764706
65.350 19.713894
65.355 19.959026
65.360 20.538574
65.365 20.979713
65.370 21.31196
65.375 21.763554
65.380 22.023573
65.385 22.137878
65.390 22.543148
65.395 22.533562
65.400 22.055164
65.405 21.431023
65.410 21.295259
65.415 21.117359
65.420 21.102777
65.425 21.102856
65.430 21.720774
65.435 22.31942
65.440 22.882326
65.445 22.601767
65.450 22.71567
65.455 23.004684
65.460 22.565695
65.465 21.96979
65.470 21.508823
65.475 21.708214
65.480 22.130272
65.485 21.891611
65.490 22.061544
65.495 22.194649
65.500 22.243477
65.505 22.537941
65.510 22.425373
65.515 21.978535
65.520 21.926184
65.525 21.297901
65.530 21.715481
65.535 22.138458
65.540 22.744993
65.545 23.128214
65.550 24.44186
65.555 25.138884
65.560 26.139223
65.565 25.846954
65.570 25.150076
65.575 25.308327
65.580 25.559227
65.585 24.894936
65.590 24.228947
65.595 23.593637
65.600 23.855652
65.605 25.218847
65.610 25.743629
65.615 25.542231
65.620 25.386234
65.625 25.535936
65.630 25.570015
65.635 25.517828
65.640 24.723404
65.645 23.785477
65.650 23.386696
65.655 23.826931
65.660 24.724016
65.665 25.317673
65.670 25.784658
65.675 26.605154
65.680 27.473738
65.685 28.004219
65.690 28.970268
65.695 29.199366
65.700 29.034544
65.705 28.735331
65.710 28.588829
65.715 29.086649
65.720 30.039648
65.725 29.411568
65.730 29.152979
65.735 29.358681
65.740 28.955097
65.745 28.810093
65.750 28.855146
65.755 28.790567
65.760 29.112158
65.765 29.482138
65.770 29.876017
65.775 31.105698
65.780 31.863626
65.785 31.877708
65.790 32.10833
65.795 31.89555
65.800 32.158302
65.805 32.491726
65.810 32.37608
65.815 32.143585
65.820 31.846241
65.825 32.501957
65.830 33.525005
65.835 33.489567
65.840 33.484749
65.845 33.552944
65.850 33.753414
65.855 33.921818
65.860 33.044212
65.865 33.306911
65.870 33.116699
65.875 33.346931
65.880 33.084534
65.885 33.230762
65.890 35.005466
65.895 35.563747
65.900 35.75029
65.905 36.284859
65.910 36.344521
65.915 36.423229
65.920 36.287899
65.925 35.00248
65.930 34.28318
65.935 34.093029
65.940 34.32299
65.945 34.541332
65.950 34.472038
65.955 35.566612
65.960 36.159401
65.965 36.025928
65.970 36.302921
65.975 36.274006
65.980 35.78611
65.985 34.951416
65.990 34.117054
65.995 35.316769
66.000 35.798119
66.005 34.965687
66.010 35.089783
66.015 36.004837
66.020 37.30698
66.025 37.55986
66.030 37.172527
66.035 37.777287
66.040 38.135983
66.045 38.535686
66.050 38.55228
66.055 38.14674
66.060 38.07756
66.065 36.643436
66.070 36.710514
66.075 36.878819
66.080 36.39793
66.085 36.584057
66.090 36.434322
66.095 36.043934
66.100 36.207291
66.105 35.566887
66.110 36.178593
66.115 36.474373
66.120 35.894417
66.125 35.853325
66.130 36.459427
66.135 37.968105
66.140 38.376415
66.145 37.211102
66.150 36.754814
66.155 36.271027
66.160 36.212639
66.165 36.23711
66.170 35.846886
66.175 35.771526
66.180 36.035202
66.185 36.74522
66.190 37.210072
66.195 36.965321
66.200 36.757137
66.205 36.244694
66.210 35.935524
66.215 35.221066
66.220 34.631397
66.225 34.773804
66.230 34.742249
66.235 34.90723
66.240 34.634834
66.245 34.513298
66.250 34.127796
66.255 33.800476
66.260 33.221436
66.265 32.20298
66.270 31.26236
66.275 31.292847
66.280 31.864698
66.285 32.139343
66.290 31.693047
66.295 31.895565
66.300 32.298149
66.305 31.638863
66.310 31.879892
66.315 32.20512
66.320 32.495216
66.325 32.956013
66.330 33.082909
66.335 32.742302
66.340 32.523914
66.345 32.277618
66.350 31.326685
66.355 31.75071
66.360 31.551832
66.365 30.682329
66.370 30.587179
66.375 30.258081
66.380 29.422386
66.385 29.164003
66.390 28.12075
66.395 27.8862
66.400 28.06373
66.405 28.185255
66.410 28.061172
66.415 27.961977
66.420 28.088142
66.425 27.758205
66.430 27.483353
66.435 26.92494
66.440 26.875433
66.445 26.43659
66.450 25.677546
66.455 24.968269
66.460 24.636925
66.465 24.931492
66.470 25.822479
66.475 25.477301
66.480 24.780241
66.485 24.827847
66.490 25.469141
66.495 25.337975
66.500 25.189732
66.505 24.641863
66.510 23.695993
66.515 24.216434
66.520 23.902113
66.525 23.211983
66.530 22.675739
66.535 21.378635
66.540 20.837061
66.545 21.370768
66.550 21.396444
66.555 21.49975
66.560 21.894291
66.565 22.728951
66.570 23.238388
66.575 23.141333
66.580 22.610575
66.585 21.664576
66.590 21.094059
66.595 20.516275
66.600 19.795837
66.605 19.597504
66.610 19.959984
66.615 20.203587
66.620 20.467896
66.625 20.52846
66.630 20.470161
66.635 20.298775
66.640 20.937901
66.645 20.704676
66.650 20.538303
66.655 19.918034
66.660 19.796211
66.665 20.001265
66.670 20.079168
66.675 19.938622
66.680 19.997852
66.685 19.843647
66.690 20.026707
66.695 19.838238
66.700 19.848967
66.705 19.697878
66.710 19.334921
66.715 19.474401
66.720 19.091204
66.725 19.42017
66.730 20.202602
66.735 19.997656
66.740 20.14333
66.745 20.022738
66.750 19.614008
66.755 19.831625
66.760 19.890646
66.765 18.966625
66.770 18.930376
66.775 18.895302
66.780 19.219934
66.785 19.033798
66.790 18.710545
66.795 18.040575
66.800 18.379663
66.805 18.476587
66.810 18.06772
66.815 17.447681
66.820 17.86207
66.825 18.436829
66.830 18.413031
66.835 18.228464
66.840 18.164661
66.845 18.768827
66.850 18.80258
66.855 18.625175
66.860 18.672256
66.865 19.162573
66.870 19.496523
66.875 19.637171
66.880 19.514574
66.885 19.591539
66.890 19.433558
66.895 19.011044
66.900 18.775288
66.905 18.095287
66.910 17.584097
66.915 17.608465
66.920 17.740131
66.925 17.512262
66.930 17.265659
66.935 17.564753
66.940 18.489065
66.945 18.588299
66.950 18.804483
66.955 18.920092
66.960 18.713179
66.965 19.081627
66.970 18.92922
66.975 18.619593
66.980 18.415419
66.985 18.467541
66.990 18.899471
66.995 19.60924
67.000 19.556946
67.005 19.637957
67.010 19.430489
67.015 19.716412
67.020 19.470152
67.025 19.083935
67.030 19.108549
67.035 18.443975
67.040 18.42795
67.045 18.322283
67.050 17.749098
67.055 17.672157
67.060 17.668747
67.065 17.651762
67.070 17.869635
67.075 17.854443
67.080 18.211878
67.085 18.573006
67.090 18.553942
67.095 18.219004
67.100 18.166555
67.105 18.417879
67.110 18.330637
67.115 18.026117
67.120 18.300415
67.125 18.246862
67.130 18.524286
67.135 18.740751
67.140 18.719015
67.145 18.690802
67.150 19.258932
67.155 19.307911
67.160 19.356335
67.165 19.36795
67.170 19.192072
67.175 19.28974
67.180 19.338694
67.185 18.771593
67.190 18.568913
67.195 18.698219
67.200 18.535671
67.205 18.991219
67.210 18.737181
67.215 18.839804
67.220 18.760078
67.225 18.881237
67.230 19.709507
67.235 19.856916
67.240 19.455414
67.245 18.939613
67.250 18.726101
67.255 18.943151
67.260 18.608521
67.265 18.29105
67.270 18.110506
67.275 18.65036
67.280 19.231146
67.285 18.733181
67.290 18.538952
67.295 18.132856
67.300 18.151791
67.305 18.242796
67.310 17.704033
67.315 17.732582
67.320 18.132257
67.325 18.474651
67.330 18.91555
67.335 19.472183
67.340 19.753849
67.345 20.740318
67.350 21.170877
67.355 21.035439
67.360 20.793791
67.365 20.499678
67.370 19.691051
67.375 19.579445
67.380 19.4237
67.385 19.232857
67.390 19.627161
67.395 19.797443
67.400 19.399345
67.405 19.148777
67.410 19.05018
67.415 18.49029
67.420 18.207558
67.425 18.124754
67.430 17.666399
67.435 17.494825
67.440 17.325928
67.445 17.036747
67.450 16.504719
67.455 16.426394
67.460 16.821423
67.465 17.49604
67.470 17.502735
67.475 17.610361
67.480 18.214754
67.485 18.565573
67.490 18.638781
67.495 18.421127
67.500 18.538513
67.505 19.343473
67.510 19.728725
67.515 19.305456
67.520 19.072336
67.525 18.773945
67.530 18.063314
67.535 17.94803
67.540 17.641003
67.545 16.899004
67.550 17.112015
67.555 17.501263
67.560 17.671963
67.565 18.428102
67.570 17.89319
67.575 18.185749
67.580 18.562399
67.585 18.733963
67.590 18.789974
67.595 18.853544
67.600 18.598204
67.605 18.523621
67.610 18.118872
67.615 17.980177
67.620 17.814833
67.625 17.858465
67.630 18.220242
67.635 18.925591
67.640 18.794451
67.645 18.807707
67.650 19.000595
67.655 19.144024
67.660 19.154669
67.665 18.997524
67.670 19.040987
67.675 19.079561
67.680 19.159071
67.685 18.730818
67.690 18.287113
67.695 18.162958
67.700 17.723558
67.705 17.262457
67.710 17.010859
67.715 17.359062
67.720 18.115374
67.725 18.515818
67.730 18.918652
67.735 19.253092
67.740 19.791601
67.745 20.063501
67.750 19.663052
67.755 18.97043
67.760 18.831902
67.765 19.129911
67.770 18.625347
67.775 18.21162
67.780 18.286781
67.785 17.878948
67.790 17.644653
67.795 16.868599
67.800 16.55883
67.805 16.849501
67.810 17.307901
67.815 17.593798
67.820 18.360109
67.825 18.979839
67.830 19.675915
67.835 20.038464
67.840 20.179781
67.845 19.694513
67.850 18.992332
67.855 18.843328
67.860 19.044874
67.865 19.01967
67.870 18.662685
67.875 19.15958
67.880 19.413134
67.885 19.621487
67.890 18.918404
67.895 18.075483
67.900 17.511103
67.905 17.490477
67.910 17.607094
67.915 17.955378
67.920 18.168119
67.925 18.364855
67.930 18.797611
67.935 19.220686
67.940 18.944773
67.945 18.511042
67.950 18.647476
67.955 19.005527
67.960 19.020367
67.965 18.967611
67.970 18.440355
67.975 18.275572
67.980 18.160423
67.985 17.512949
67.990 17.237305
67.995 17.531254
68.000 17.31127
68.005 17.281151
68.010 16.965599
68.015 16.627998
68.020 17.061234
68.025 17.345259
68.030 17.96291
68.035 18.633701
68.040 19.499887
68.045 19.970541
68.050 20.355225
68.055 20.80957
68.060 20.425726
68.065 19.612972
68.070 19.373278
68.075 19.151239
68.080 19.182533
68.085 19.519819
68.090 18.915009
68.095 18.989262
68.100 19.616814
68.105 19.570913
68.110 19.022196
68.115 19.139946
68.120 18.970009
68.125 19.722799
68.130 19.703535
68.135 19.449507
68.140 19.108706
68.145 19.384991
68.150 19.262676
68.155 18.718388
68.160 18.030767
68.165 17.92873
68.170 18.368683
68.175 18.846266
68.180 18.315811
68.185 18.177298
68.190 18.388666
68.195 18.93891
68.200 18.910185
68.205 18.592308
68.210 18.82634
68.215 19.363474
68.220 19.474657
68.225 19.449318
68.230 19.151403
68.235 19.129581
68.240 18.9939
68.245 18.672819
68.250 18.190266
68.255 18.256485
68.260 18.625368
68.265 18.806229
68.270 19.074646
68.275 19.509094
68.280 19.731758
68.285 20.529427
68.290 19.909342
68.295 19.36404
68.300 19.022751
68.305 18.919439
68.310 18.682467
68.315 18.272894
68.320 18.047832
68.325 18.466843
68.330 18.576082
68.335 18.799213
68.340 18.905106
68.345 19.232534
68.350 19.907963
68.355 20.16259
68.360 20.272013
68.365 19.78307
68.370 19.721106
68.375 19.549042
68.380 19.40238
68.385 19.242725
68.390 18.729015
68.395 18.745178
68.400 19.68046
68.405 19.510656
68.410 19.227133
68.415 18.866034
68.420 19.352043
68.425 19.979694
68.430 19.793079
68.435 19.277452
68.440 18.925833
68.445 18.465101
68.450 18.424276
68.455 17.588392
68.460 17.413963
68.465 16.929865
68.470 17.103487
68.475 17.450665
68.480 17.945194
68.485 18.237146
68.490 18.493185
68.495 18.570955
68.500 19.222569
68.505 18.752808
68.510 18.826782
68.515 18.821383
68.520 18.415073
68.525 18.778049
68.530 19.183813
68.535 19.62923
68.540 20.595016
68.545 20.734566
68.550 21.469509
68.555 22.204666
68.560 21.839542
68.565 21.972738
68.570 21.875616
68.575 21.729219
68.580 21.851162
68.585 21.114319
68.590 20.563704
68.595 21.233284
68.600 21.136042
68.605 21.367893
68.610 21.943802
68.615 22.085844
68.620 22.574003
68.625 22.557295
68.630 21.827021
68.635 21.894228
68.640 21.621214
68.645 20.943583
68.650 20.951782
68.655 21.447224
68.660 21.61376
68.665 21.849144
68.670 21.868216
68.675 22.236507
68.680 22.179138
68.685 22.161715
68.690 21.783777
68.695 21.61573
68.700 21.044449
68.705 21.683794
68.710 22.419464
68.715 22.584385
68.720 23.455088
68.725 24.295206
68.730 24.426313
68.735 24.91168
68.740 23.691734
68.745 23.352427
68.750 23.226225
68.755 22.489895
68.760 21.874424
68.765 22.502253
68.770 22.49016
68.775 23.307478
68.780 23.185455
68.785 22.976709
68.790 22.609894
68.795 22.763241
68.800 22.792255
68.805 22.554762
68.810 21.92568
68.815 21.86846
68.820 21.992702
68.825 22.182268
68.830 22.761065
68.835 22.945702
68.840 23.234158
68.845 23.973518
68.850 23.974495
68.855 24.40144
68.860 25.006132
68.865 25.872747
68.870 26.681089
68.875 27.397957
68.880 27.397478
68.885 28.523666
68.890 28.465261
68.895 28.081425
68.900 27.864698
68.905 27.788601
68.910 27.889338
68.915 27.989628
68.920 27.757523
68.925 28.041872
68.930 27.93494
68.935 27.427521
68.940 27.500938
68.945 27.766768
68.950 27.958235
68.955 27.513241
68.960 27.647079
68.965 28.448845
68.970 28.953051
68.975 28.428232
68.980 28.413067
68.985 28.684208
68.990 29.620611
68.995 29.727406
69.000 29.196064
69.005 28.439198
69.010 29.046337
69.015 28.906343
69.020 29.064129
69.025 28.976328
69.030 28.5313
69.035 29.411093
69.040 30.515919
69.045 30.358379
69.050 30.998377
69.055 31.232344
69.060 31.348896
69.065 32.23534
69.070 32.110962
69.075 32.659885
69.080 33.602959
69.085 33.611187
69.090 34.06945
69.095 34.282722
69.100 34.43325
69.105 33.908157
69.110 33.088028
69.115 33.19973
69.120 33.440125
69.125 33.49559
69.130 33.682312
69.135 33.692104
69.140 35.242168
69.145 35.417732
69.150 35.176117
69.155 34.683983
69.160 33.744282
69.165 32.851456
69.170 33.160572
69.175 33.088974
69.180 33.469864
69.185 33.514381
69.190 33.423611
69.195 34.279087
69.200 35.664791
69.205 35.698044
69.210 35.166687
69.215 35.046604
69.220 34.44886
69.225 34.806637
69.230 35.150261
69.235 34.506634
69.240 33.798485
69.245 33.709427
69.250 33.567989
69.255 34.282757
69.260 34.973747
69.265 35.263569
69.270 35.511589
69.275 36.718689
69.280 37.855679
69.285 37.718388
69.290 37.504032
69.295 36.845589
69.300 36.000885
69.305 35.757565
69.310 34.713924
69.315 34.656914
69.320 35.056351
69.325 34.043148
69.330 33.422932
69.335 33.255714
69.340 33.340233
69.345 32.392204
69.350 31.979061
69.355 31.75654
69.360 33.030815
69.365 33.775429
69.370 33.493996
69.375 33.20649
69.380 33.934189
69.385 33.411987
69.390 33.7528
69.395 32.828163
69.400 32.461269
69.405 32.42889
69.410 32.253689
69.415 31.13718
69.420 30.67963
69.425 30.132517
69.430 30.722446
69.435 30.743168
69.440 31.342327
69.445 31.64267
69.450 32.31385
69.455 31.773386
69.460 31.99382
69.465 31.067547
69.470 30.935955
69.475 30.631365
69.480 30.308487
69.485 29.615824
69.490 29.980204
69.495 29.679295
69.500 29.65785
69.505 29.80834
69.510 29.206905
69.515 29.203421
69.520 28.92466
69.525 28.376514
69.530 28.160685
69.535 28.021975
69.540 27.411089
69.545 27.177549
69.550 26.217815
69.555 25.927647
69.560 26.133047
69.565 26.111021
69.570 26.721411
69.575 27.059395
69.580 27.416414
69.585 27.599888
69.590 27.208241
69.595 26.427023
69.600 25.988077
69.605 24.988148
69.610 24.751423
69.615 24.615206
69.620 24.799038
69.625 25.298126
69.630 25.31348
69.635 25.15312
69.640 25.162804
69.645 25.02117
69.650 24.635122
69.655 25.09519
69.660 25.241579
69.665 25.521109
69.670 25.547644
69.675 25.186604
69.680 24.985674
69.685 25.667839
69.690 25.285175
69.695 24.729053
69.700 23.781605
69.705 23.637539
69.710 23.664251
69.715 23.481783
69.720 23.258921
69.725 22.744587
69.730 23.405302
69.735 23.779282
69.740 23.266342
69.745 23.323807
69.750 23.209223
69.755 22.501801
69.760 22.133358
69.765 21.341875
69.770 21.002462
69.775 21.590488
69.780 21.575369
69.785 21.450054
69.790 21.792282
69.795 22.30406
69.800 22.954237
69.805 22.840446
69.810 22.423817
69.815 22.451979
69.820 22.263851
69.825 21.592573
69.830 21.691681
69.835 21.443287
69.840 20.884319
69.845 20.997116
69.850 20.469086
69.855 20.141499
69.860 20.087833
69.865 19.620539
69.870 19.391994
69.875 19.793577
69.880 20.11882
69.885 20.946085
69.890 21.342737
69.895 20.78227
69.900 20.283438
69.905 20.512705
69.910 20.252651
69.915 19.536013
69.920 19.407207
69.925 19.462248
69.930 19.673018
69.935 19.478678
69.940 19.032705
69.945 18.727228
69.950 18.902189
69.955 18.962944
69.960 19.0228
69.965 19.280212
69.970 19.112164
69.975 18.863913
69.980 18.552094
69.985 17.850075
69.990 17.663748
69.995 17.289497
70.000 16.899725
70.005 16.722197
70.010 17.006134
70.015 17.206863
70.020 16.988102
70.025 17.258724
70.030 17.694281
70.035 17.48904
70.040 17.507769
70.045 18.110239
70.050 18.880548
70.055 19.260138
70.060 18.252422
70.065 18.428354
70.070 19.698904
70.075 20.619888
70.080 20.124607
70.085 19.866104
70.090 19.82353
70.095 19.825989
70.100 19.350882
70.105 18.543562
70.110 17.342478
70.115 17.759832
70.120 17.80994
70.125 18.293516
70.130 18.47788
70.135 18.225107
70.140 18.674051
70.145 19.306417
70.150 19.309633
70.155 19.095737
70.160 18.360023
70.165 18.138931
70.170 17.897388
70.175 17.485115
70.180 16.714943
70.185 16.151625
70.190 16.257381
70.195 16.731478
70.200 17.065413
70.205 17.215738
70.210 17.887794
70.215 18.007488
70.220 17.886177
70.225 17.763737
70.230 17.74918
70.235 18.033876
70.240 18.136135
70.245 18.095133
70.250 18.742159
70.255 19.559092
70.260 19.796144
70.265 19.691586
70.270 19.888433
70.275 20.043715
70.280 20.015497
70.285 20.182642
70.290 19.477137
70.295 19.056969
70.300 18.415638
70.305 18.253632
70.310 17.664755
70.315 17.23703
70.320 17.059998
70.325 17.01819
70.330 17.094305
70.335 17.250998
70.340 17.555243
70.345 18.146172
70.350 18.116161
70.355 17.500889
70.360 17.855383
70.365 18.431208
70.370 18.198339
70.375 17.811108
70.380 17.782804
70.385 18.29014
70.390 18.822517
70.395 18.526384
70.400 18.133795
70.405 18.242254
70.410 18.697464
70.415 18.311995
70.420 18.094479
70.425 18.209574
70.430 17.992735
70.435 17.917301
70.440 18.097584
70.445 17.609905
70.450 17.950119
70.455 17.294605
70.460 17.167154
70.465 17.356213
70.470 17.515018
70.475 17.5221
70.480 17.460928
70.485 16.949787
70.490 16.666763
70.495 16.185873
70.500 16.141516
70.505 15.799509
70.510 15.666688
70.515 16.077091
70.520 16.65555
70.525 17.168432
70.530 17.755903
70.535 17.939341
70.540 18.097137
70.545 18.416906
70.550 18.308519
70.555 18.015581
70.560 17.82823
70.565 18.303919
70.570 19.021929
70.575 19.043427
70.580 18.656256
70.585 18.683067
70.590 18.580622
70.595 18.745178
70.600 18.231741
70.605 18.300089
70.610 18.65
70.615 18.400427
70.620 18.454056
70.625 18.925192
70.630 19.366585
70.635 19.48012
70.640 19.517023
70.645 19.953848
70.650 20.038103
70.655 19.578218
70.660 19.210119
70.665 18.166342
70.670 17.301847
70.675 17.242353
70.680 16.952288
70.685 16.814356
70.690 17.079159
70.695 17.219982
70.700 17.575039
70.705 17.774061
70.710 17.365637
70.715 17.89953
70.720 18.04952
70.725 18.115931
70.730 18.56728
70.735 18.832443
70.740 19.632696
70.745 19.097448
70.750 18.724829
70.755 19.351139
70.760 18.99235
70.765 19.408667
70.770 19.079121
70.775 18.505846
70.780 18.439814
70.785 18.113699
70.790 18.054163
70.795 17.91127
70.800 17.248371
70.805 17.522671
70.810 18.013317
70.815 18.164427
70.820 18.020657
70.825 17.887045
70.830 18.572468
70.835 18.933781
70.840 18.605869
70.845 17.897282
70.850 18.574257
70.855 18.636917
70.860 18.174501
70.865 17.503708
70.870 17.363285
70.875 17.602621
70.880 18.208649
70.885 17.72254
70.890 17.832809
70.895 18.491896
70.900 18.482498
70.905 18.6779
70.910 18.498497
70.915 17.962395
70.920 18.162121
70.925 18.207487
70.930 17.940069
70.935 18.022381
70.940 17.959133
70.945 17.985935
70.950 18.398195
70.955 17.920599
70.960 17.244707
70.965 17.210411
70.970 16.9242
70.975 17.159704
70.980 17.230215
70.985 17.703796
70.990 18.351976
70.995 18.622057
71.000 18.268469
71.005 18.479252
71.010 18.265694
71.015 18.12064
71.020 17.658602
71.025 17.582386
71.030 17.666054
71.035 17.905342
71.040 17.569435
71.045 17.700073
71.050 17.781126
71.055 17.696751
71.060 17.906069
71.065 17.333921
71.070 17.492687
71.075 18.207228
71.080 18.274128
71.085 18.144482
71.090 18.346703
71.095 18.436296
71.100 19.020161
71.105 19.242142
71.110 19.244781
71.115 19.245737
71.120 18.996038
71.125 18.634499
71.130 19.034777
71.135 18.594906
71.140 18.462534
71.145 18.006666
71.150 17.769438
71.155 17.73461
71.160 17.817972
71.165 17.762239
71.170 18.006191
71.175 17.840868
71.180 18.010252
71.185 17.915953
71.190 17.949083
71.195 18.01564
71.200 17.552408
71.205 16.840714
71.210 16.584747
71.215 16.407148
71.220 16.51598
71.225 16.568857
71.230 16.383043
71.235 16.829245
71.240 17.204123
71.245 17.374222
71.250 17.616693
71.255 18.269527
71.260 18.480259
71.265 18.280165
71.270 18.070442
71.275 17.995079
71.280 17.886618
71.285 17.87368
71.290 17.660753
71.295 17.453541
71.300 17.318506
71.305 17.816191
71.310 17.884998
71.315 17.5576
71.320 17.625788
71.325 17.922947
71.330 17.89748
71.335 18.347288
71.340 18.01829
71.345 17.468662
71.350 17.33592
71.355 16.962868
71.360 16.962366
71.365 16.332066
71.370 16.424305
71.375 17.461437
71.380 18.362356
71.385 18.745985
71.390 18.066257
71.395 17.775879
71.400 18.389265
71.405 18.133629
71.410 17.539207
71.415 17.423361
71.420 17.782642
71.425 18.061888
71.430 18.265406
71.435 18.336971
71.440 18.077999
71.445 18.186359
71.450 18.056051
71.455 18.040424
71.460 18.906374
71.465 18.91979
71.470 18.646046
71.475 18.792192
71.480 18.343372
71.485 18.498011
71.490 18.288855
71.495 17.777325
71.500 17.784971
71.505 17.552166
71.510 17.451664
71.515 17.630579
71.520 17.990452
71.525 18.177549
71.530 18.803226
71.535 18.753599
71.540 18.952946
71.545 18.892088
71.550 18.418192
71.555 17.899267
71.560 17.51405
71.565 17.221724
71.570 17.61672
71.575 17.389416
71.580 17.421976
71.585 17.682112
71.590 17.754585
71.595 18.073406
71.600 17.753843
71.605 18.232748
71.610 18.68586
71.615 18.901604
71.620 18.437164
71.625 18.247766
71.630 17.551056
71.635 17.331041
71.640 16.449488
71.645 15.65221
71.650 15.581374
71.655 15.507298
71.660 16.019884
71.665 16.309582
71.670 16.42119
71.675 17.103914
71.680 17.686184
71.685 18.508617
71.690 18.331633
71.695 18.369732
71.700 19.014856
71.705 19.081289
71.710 18.466255
71.715 18.681198
71.720 18.660568
71.725 18.271513
71.730 17.455149
71.735 17.228277
71.740 17.425488
71.745 17.325151
71.750 16.577177
71.755 16.919842
71.760 17.32659
71.765 17.81851
71.770 17.641171
71.775 17.736839
71.780 18.019201
71.785 18.512781
71.790 18.080618
71.795 18.219395
71.800 18.12632
71.805 18.291533
71.810 18.770468
71.815 18.558958
71.820 17.898304
71.825 17.894854
71.830 18.026768
71.835 17.88483
71.840 17.479937
71.845 17.39768
71.850 17.514009
71.855 17.070887
71.860 16.759745
71.865 16.718399
71.870 16.827307
71.875 17.13562
71.880 17.503119
71.885 17.35367
71.890 18.087013
71.895 18.127293
71.900 17.948795
71.905 18.313158
71.910 17.691523
71.915 17.79525
71.920 18.329529
71.925 18.433084
71.930 18.735353
71.935 18.939842
71.940 18.60821
71.945 17.897993
71.950 17.357639
71.955 16.557493
71.960 16.139687
71.965 15.637617
71.970 15.420693
71.975 15.214419
71.980 15.517207
71.985 15.708624
71.990 15.88181
71.995 15.957833
72.000 16.388124
72.005 16.592789
72.010 16.921156
72.015 17.440958
72.020 18.314421
72.025 18.643198
72.030 18.809778
72.035 18.578577
72.040 18.718552
72.045 19.187836
72.050 19.077324
72.055 18.309586
72.060 18.47348
72.065 18.253054
72.070 18.43816
72.075 18.122301
72.080 17.816616
72.085 17.523855
72.090 17.786451
72.095 17.494854
72.100 17.56949
72.105 17.213217
72.110 17.330011
72.115 17.083014
72.120 17.005325
72.125 16.929111
72.130 17.941725
72.135 18.819267
72.140 19.207804
72.145 18.965563
72.150 19.192923
72.155 19.485575
72.160 19.465693
72.165 18.645721
72.170 17.82979
72.175 17.475248
72.180 17.070118
72.185 16.680897
72.190 16.562622
72.195 16.604698
72.200 16.654621
72.205 16.725969
72.210 16.553026
72.215 16.780642
72.220 16.582937
72.225 16.414845
72.230 16.096539
72.235 15.89562
72.240 16.876469
72.245 17.942944
72.250 18.035971
72.255 18.663319
72.260 18.710609
72.265 19.279154
72.270 19.354239
72.275 18.563007
72.280 18.564425
72.285 19.167995
72.290 19.049187
72.295 18.830929
72.300 18.276781
72.305 17.942026
72.310 18.210699
72.315 18.003233
72.320 17.236172
72.325 17.281563
72.330 17.326586
72.335 17.849928
72.340 18.417494
72.345 18.037735
72.350 17.438587
72.355 17.324787
72.360 17.459143
72.365 17.411322
72.370 16.828358
72.375 16.3431
72.380 16.465429
72.385 17.683132
72.390 17.095842
72.395 16.668793
72.400 16.91573
72.405 17.067816
72.410 17.500195
72.415 17.296427
72.420 16.756737
72.425 17.336681
72.430 18.064346
72.435 18.012386
72.440 17.644928
72.445 17.675884
72.450 17.758459
72.455 17.647858
72.460 17.521399
72.465 16.919285
72.470 17.34247
72.475 17.234962
72.480 17.641485
72.485 18.470018
72.490 18.828976
72.495 18.732635
72.500 18.66548
72.505 18.597818
72.510 18.465485
72.515 18.19812
72.520 17.967775
72.525 18.047808
72.530 18.274933
72.535 18.263453
72.540 18.460751
72.545 18.197481
72.550 17.769505
72.555 17.736679
72.560 17.739811
72.565 17.652761
72.570 17.916536
72.575 17.56913
72.580 18.003849
72.585 18.042324
72.590 17.851135
72.595 17.493179
72.600 18.079784
72.605 18.839582
72.610 18.136721
72.615 17.502611
72.620 17.273577
72.625 17.013844
72.630 17.266672
72.635 16.416796
72.640 16.16964
72.645 16.864094
72.650 17.146109
72.655 17.306616
72.660 17.25642
72.665 16.810349
72.670 16.680056
72.675 16.537537
72.680 16.259521
72.685 16.554058
72.690 17.408184
72.695 17.682785
72.700 17.933336
72.705 17.689804
72.710 17.511093
72.715 16.91996
72.720 15.818093
72.725 14.966826
72.730 14.441586
72.735 14.469247
72.740 14.365757
72.745 14.620216
72.750 14.670258
72.755 15.141371
72.760 15.208282
72.765 16.059605
72.770 16.052759
72.775 16.080452
72.780 16.33449
72.785 16.46546
72.790 16.235493
72.795 16.968843
72.800 17.167486
72.805 17.160311
72.810 17.213596
72.815 17.543686
72.820 17.590704
72.825 17.241913
72.830 16.79318
72.835 16.11727
72.840 16.060728
72.845 16.069433
72.850 15.980762
72.855 16.232058
72.860 16.525406
72.865 16.507679
72.870 17.039568
72.875 17.374464
72.880 17.302301
72.885 17.24715
72.890 16.933073
72.895 16.137341
72.900 16.128811
72.905 15.806965
72.910 15.389153
72.915 15.202421
72.920 15.439575
72.925 15.299224
72.930 15.165088
72.935 15.09881
72.940 15.349693
72.945 15.843461
72.950 15.722259
72.955 15.591313
72.960 16.323467
72.965 16.658939
72.970 16.746399
72.975 16.827866
72.980 16.825775
72.985 17.66153
72.990 17.614433
72.995 17.30928
73.000 17.580179
