!@!!GADDS PLOTSO FILE: Chi integration type
!@!!Title/SampleName: map-b0
!@!!Comment: ?
!@!!User: Bruker Instrument Administrator
!@!!Site: University of Illinois Chicago
!@!!Frame: map-b0_01_000.gfrm
!@!!Wavelengths    1.54184   1.54056   1.54439
!@!!Frame angles: 2Theta: 63.000 Omega: 50.000 Phi: 0.000 Chi: 90.000
!@!!Integration range: 2Theta: 53.000 to 73.000  Gamma: -105.000 to -75.000
!@!!Integration method: bin normalized
!@!N
!@!SS
!@!M
!@!L 0.0 0.0 0.0 0.0
!@!XDegrees
!@!YCounts
53.000 6.687216
53.005 6.751384
53.010 6.758642
53.015 6.290573
53.020 6.269234
53.025 6.620847
53.030 6.679565
53.035 6.00566
53.040 5.925959
53.045 6.274202
53.050 6.927653
53.055 7.255757
53.060 7.345212
53.065 7.744288
53.070 8.161226
53.075 7.895869
53.080 7.564884
53.085 7.266972
53.090 6.732664
53.095 6.561792
53.100 6.869791
53.105 7.268832
53.110 7.582381
53.115 8.051153
53.120 8.428614
53.125 8.464986
53.130 8.775626
53.135 8.198319
53.140 8.194691
53.145 8.226762
53.150 7.981186
53.155 7.847414
53.160 7.892278
53.165 7.166408
53.170 7.145868
53.175 6.941438
53.180 7.033486
53.185 6.853866
53.190 6.971032
53.195 7.190621
53.200 7.285125
53.205 7.581409
53.210 7.779449
53.215 7.770823
53.220 7.993279
53.225 7.678683
53.230 7.487277
53.235 7.508156
53.240 7.372887
53.245 7.185683
53.250 6.951549
53.255 7.350749
53.260 7.781455
53.265 8.360249
53.270 8.377268
53.275 8.168759
53.280 8.313249
53.285 8.354734
53.290 7.760955
53.295 7.474986
53.300 6.923982
53.305 6.646739
53.310 6.732818
53.315 6.499145
53.320 6.527436
53.325 6.881895
53.330 6.984059
53.335 7.122418
53.340 7.307594
53.345 7.342862
53.350 7.74951
53.355 7.374569
53.360 7.127729
53.365 7.587473
53.370 7.952302
53.375 8.007626
53.380 8.001471
53.385 7.610277
53.390 7.923571
53.395 7.687997
53.400 7.135385
53.405 6.992623
53.410 7.151741
53.415 7.679619
53.420 7.631619
53.425 7.618698
53.430 7.840105
53.435 7.933654
53.440 7.905617
53.445 8.059636
53.450 8.081572
53.455 8.163895
53.460 8.228583
53.465 8.428322
53.470 8.523642
53.475 8.306398
53.480 7.669095
53.485 7.275666
53.490 7.031454
53.495 6.873383
53.500 6.735214
53.505 6.65079
53.510 6.842963
53.515 6.853126
53.520 7.272235
53.525 7.380867
53.530 7.15654
53.535 7.051921
53.540 7.384501
53.545 7.547062
53.550 7.692651
53.555 7.727848
53.560 7.813804
53.565 8.154981
53.570 8.144993
53.575 8.19426
53.580 8.313275
53.585 8.090174
53.590 8.150991
53.595 8.195189
53.600 8.178156
53.605 8.575323
53.610 8.25294
53.615 8.269581
53.620 8.405259
53.625 8.455808
53.630 8.33015
53.635 8.058305
53.640 7.751809
53.645 8.080697
53.650 8.475681
53.655 8.624531
53.660 8.703902
53.665 8.61748
53.670 8.276045
53.675 8.035369
53.680 7.174007
53.685 6.998255
53.690 6.762732
53.695 6.929957
53.700 7.457237
53.705 8.175931
53.710 8.54257
53.715 8.706657
53.720 8.569144
53.725 8.249988
53.730 8.114876
53.735 7.745268
53.740 7.261638
53.745 7.294644
53.750 7.803153
53.755 8.158189
53.760 8.386962
53.765 8.190212
53.770 8.411734
53.775 8.472506
53.780 8.672812
53.785 8.462482
53.790 8.79646
53.795 8.980659
53.800 9.01797
53.805 8.76621
53.810 8.673309
53.815 8.423454
53.820 8.394589
53.825 7.843696
53.830 7.766469
53.835 8.192862
53.840 8.551363
53.845 8.796741
53.850 8.729548
53.855 8.346148
53.860 8.471117
53.865 8.804829
53.870 8.516407
53.875 8.18534
53.880 7.864865
53.885 8.063395
53.890 8.231208
53.895 8.030314
53.900 7.75687
53.905 7.694498
53.910 7.755404
53.915 7.595054
53.920 7.39089
53.925 7.270658
53.930 7.663382
53.935 7.814181
53.940 8.169073
53.945 8.42887
53.950 8.300028
53.955 8.199338
53.960 8.269562
53.965 8.499832
53.970 8.115539
53.975 8.148448
53.980 8.000256
53.985 8.186112
53.990 8.609166
53.995 8.51053
54.000 8.082243
54.005 8.153323
54.010 8.000567
54.015 8.323441
54.020 8.57294
54.025 8.663569
54.030 8.639615
54.035 8.992158
54.040 8.77656
54.045 8.72116
54.050 8.343381
54.055 8.462831
54.060 8.613976
54.065 8.559117
54.070 8.360072
54.075 8.382811
54.080 8.728963
54.085 8.86042
54.090 8.442483
54.095 8.622581
54.100 9.06916
54.105 9.270064
54.110 9.409988
54.115 9.485566
54.120 9.476907
54.125 9.045194
54.130 8.249499
54.135 7.712038
54.140 7.457311
54.145 7.312308
54.150 6.778543
54.155 6.737785
54.160 7.01734
54.165 7.359964
54.170 7.808012
54.175 7.863381
54.180 8.123016
54.185 8.536852
54.190 8.697895
54.195 8.529092
54.200 8.24448
54.205 8.509312
54.210 8.848246
54.215 8.974629
54.220 9.132139
54.225 9.314043
54.230 10.411298
54.235 11.228484
54.240 10.947935
54.245 10.730117
54.250 10.433514
54.255 10.324426
54.260 10.34765
54.265 9.709266
54.270 9.646855
54.275 9.930306
54.280 9.846145
54.285 10.224164
54.290 10.37961
54.295 10.203895
54.300 9.855418
54.305 9.344896
54.310 9.083203
54.315 8.735682
54.320 8.637859
54.325 8.923419
54.330 9.18036
54.335 9.210711
54.340 9.332399
54.345 9.376648
54.350 9.501167
54.355 9.439355
54.360 9.17622
54.365 9.020969
54.370 8.791696
54.375 9.205947
54.380 8.996836
54.385 9.256104
54.390 9.35438
54.395 9.613259
54.400 9.926233
54.405 10.30964
54.410 10.356566
54.415 10.806189
54.420 10.818704
54.425 10.480825
54.430 9.913752
54.435 9.313256
54.440 8.836895
54.445 8.698447
54.450 8.542602
54.455 8.31432
54.460 8.070956
54.465 8.457143
54.470 8.964142
54.475 8.677344
54.480 8.268191
54.485 8.188949
54.490 8.713938
54.495 9.07653
54.500 8.882176
54.505 8.911376
54.510 9.26945
54.515 8.920703
54.520 9.080832
54.525 9.073007
54.530 9.062557
54.535 9.103427
54.540 9.184374
54.545 9.355933
54.550 9.815614
54.555 9.607602
54.560 9.278112
54.565 9.005452
54.570 9.114738
54.575 9.758186
54.580 9.533269
54.585 9.437066
54.590 9.503211
54.595 9.854615
54.600 10.285034
54.605 9.910551
54.610 9.365976
54.615 9.665084
54.620 9.781741
54.625 9.629553
54.630 9.368252
54.635 9.07539
54.640 9.070232
54.645 8.948358
54.650 8.924743
54.655 9.416735
54.660 9.850049
54.665 10.092265
54.670 10.434265
54.675 10.190954
54.680 10.094444
54.685 9.885307
54.690 9.391374
54.695 8.739505
54.700 8.393461
54.705 8.549256
54.710 8.75599
54.715 9.356475
54.720 9.296661
54.725 10.182516
54.730 10.926354
54.735 10.903635
54.740 10.604584
54.745 10.936528
54.750 10.3377
54.755 10.109776
54.760 9.430392
54.765 9.125405
54.770 9.670112
54.775 10.180616
54.780 10.113514
54.785 10.479712
54.790 10.536566
54.795 10.781076
54.800 11.125016
54.805 10.927797
54.810 10.830009
54.815 10.597598
54.820 10.775249
54.825 11.198128
54.830 11.086204
54.835 10.916853
54.840 10.890611
54.845 10.893764
54.850 11.154384
54.855 10.934875
54.860 10.681264
54.865 10.934776
54.870 10.741072
54.875 10.345278
54.880 9.68634
54.885 9.266453
54.890 9.031425
54.895 8.635089
54.900 8.192224
54.905 8.420999
54.910 8.929749
54.915 9.493162
54.920 9.403514
54.925 9.57736
54.930 9.679498
54.935 10.02494
54.940 9.924566
54.945 9.828366
54.950 10.419644
54.955 10.779103
54.960 11.215304
54.965 11.348339
54.970 11.554484
54.975 11.75755
54.980 11.762153
54.985 11.619966
54.990 11.776528
54.995 11.671687
55.000 11.594345
55.005 11.634018
55.010 11.69831
55.015 11.949002
55.020 11.623307
55.025 11.179766
55.030 10.929173
55.035 10.896774
55.040 10.682489
55.045 10.14465
55.050 9.953123
55.055 10.18556
55.060 10.295918
55.065 10.342938
55.070 10.253058
55.075 10.012503
55.080 10.497102
55.085 10.176741
55.090 9.788066
55.095 10.480605
55.100 10.562437
55.105 10.462991
55.110 10.840738
55.115 10.06918
55.120 10.135454
55.125 10.149064
55.130 9.395796
55.135 9.440399
55.140 9.704499
55.145 9.944826
55.150 10.169868
55.155 10.265118
55.160 10.706308
55.165 11.12959
55.170 10.898039
55.175 10.560012
55.180 10.671606
55.185 11.035738
55.190 11.304002
55.195 11.284248
55.200 10.91079
55.205 10.980364
55.210 10.864644
55.215 10.406864
55.220 10.218876
55.225 10.224079
55.230 10.32424
55.235 10.343628
55.240 10.204576
55.245 10.329589
55.250 10.491604
55.255 10.649433
55.260 11.098333
55.265 11.217586
55.270 11.500828
55.275 11.660125
55.280 11.395187
55.285 11.258132
55.290 10.44374
55.295 9.65725
55.300 9.704885
55.305 9.542951
55.310 9.334683
55.315 9.518206
55.320 9.991056
55.325 10.78362
55.330 10.881642
55.335 10.915499
55.340 11.290064
55.345 11.280512
55.350 11.627194
55.355 11.438334
55.360 11.132309
55.365 11.082624
55.370 11.055781
55.375 10.879978
55.380 10.987553
55.385 10.594584
55.390 10.603095
55.395 11.030787
55.400 10.813954
55.405 10.807571
55.410 10.643614
55.415 10.49205
55.420 10.738052
55.425 10.549498
55.430 10.173825
55.435 10.029876
55.440 10.185157
55.445 10.358191
55.450 10.751364
55.455 10.849756
55.460 10.834985
55.465 11.004827
55.470 11.217352
55.475 10.775731
55.480 10.302834
55.485 10.061716
55.490 9.988462
55.495 9.924269
55.500 9.954235
55.505 9.559643
55.510 9.61162
55.515 9.883651
55.520 9.679642
55.525 9.657837
55.530 9.247563
55.535 9.027204
55.540 9.098237
55.545 9.679965
55.550 9.827428
55.555 10.023705
55.560 10.215377
55.565 10.792675
55.570 11.091118
55.575 11.130705
55.580 10.8531
55.585 10.859575
55.590 10.610902
55.595 10.48865
55.600 10.394561
55.605 10.068677
55.610 10.060227
55.615 10.186808
55.620 10.226442
55.625 10.048829
55.630 10.053132
55.635 10.237836
55.640 10.456317
55.645 10.660111
55.650 10.507521
55.655 10.543202
55.660 10.753652
55.665 10.499404
55.670 10.360332
55.675 10.400568
55.680 10.257843
55.685 10.472633
55.690 10.381345
55.695 10.712061
55.700 11.174981
55.705 11.08897
55.710 11.424658
55.715 12.142589
55.720 12.247694
55.725 12.402045
55.730 11.860739
55.735 11.454285
55.740 11.472095
55.745 11.052171
55.750 10.394379
55.755 10.197505
55.760 10.022092
55.765 10.131718
55.770 10.270321
55.775 10.501053
55.780 10.786504
55.785 10.967659
55.790 10.92365
55.795 10.913396
55.800 10.753885
55.805 11.209932
55.810 10.803117
55.815 10.739285
55.820 10.66837
55.825 10.566027
55.830 10.71309
55.835 10.646011
55.840 10.171035
55.845 10.442739
55.850 10.399835
55.855 10.243495
55.860 10.853725
55.865 11.22212
55.870 11.294012
55.875 11.164801
55.880 10.695471
55.885 10.580583
55.890 10.512568
55.895 10.12857
55.900 9.799313
55.905 9.865185
55.910 10.48668
55.915 10.610094
55.920 10.660603
55.925 10.632782
55.930 10.579318
55.935 11.342894
55.940 11.438302
55.945 11.402555
55.950 11.44377
55.955 11.376463
55.960 11.750347
55.965 11.759089
55.970 11.208014
55.975 10.93025
55.980 10.860904
55.985 11.318273
55.990 11.781924
55.995 11.570439
56.000 11.113915
56.005 10.989838
56.010 10.872943
56.015 10.646627
56.020 10.181307
56.025 9.673322
56.030 9.757954
56.035 10.285254
56.040 10.697348
56.045 11.326963
56.050 11.81241
56.055 12.136247
56.060 11.93926
56.065 11.718635
56.070 11.610456
56.075 11.852992
56.080 11.247328
56.085 10.994328
56.090 11.047976
56.095 11.335696
56.100 11.487598
56.105 11.621714
56.110 11.152438
56.115 10.97555
56.120 11.053345
56.125 10.865623
56.130 10.827219
56.135 11.036446
56.140 10.966353
56.145 11.587229
56.150 11.966372
56.155 11.732463
56.160 11.851964
56.165 11.578848
56.170 11.362629
56.175 11.322993
56.180 10.873579
56.185 10.467364
56.190 10.495326
56.195 10.692718
56.200 11.021386
56.205 11.163248
56.210 11.143295
56.215 11.66757
56.220 12.043567
56.225 12.156059
56.230 12.302073
56.235 12.414128
56.240 12.123813
56.245 12.375707
56.250 12.170927
56.255 12.445828
56.260 12.523673
56.265 12.127955
56.270 12.144322
56.275 12.803288
56.280 12.813996
56.285 12.28009
56.290 11.453649
56.295 11.428072
56.300 11.521683
56.305 11.345506
56.310 10.915279
56.315 10.695103
56.320 11.317172
56.325 12.038252
56.330 12.548174
56.335 12.512077
56.340 12.40847
56.345 12.346953
56.350 12.345861
56.355 12.269293
56.360 12.411849
56.365 12.556728
56.370 12.254578
56.375 12.172148
56.380 12.141775
56.385 12.634328
56.390 12.311306
56.395 11.44051
56.400 11.275883
56.405 11.442154
56.410 12.070175
56.415 11.955711
56.420 11.903538
56.425 11.928377
56.430 11.820051
56.435 11.701714
56.440 11.648173
56.445 11.441389
56.450 11.293737
56.455 10.950498
56.460 11.318059
56.465 11.701511
56.470 11.558744
56.475 11.752307
56.480 11.380342
56.485 12.174341
56.490 12.710976
56.495 12.232713
56.500 11.998237
56.505 12.211011
56.510 12.147799
56.515 11.972597
56.520 11.290588
56.525 11.046507
56.530 11.565023
56.535 11.853098
56.540 12.160813
56.545 12.449162
56.550 12.497159
56.555 12.650105
56.560 13.008042
56.565 12.702147
56.570 12.942314
56.575 12.845358
56.580 12.965818
56.585 13.010522
56.590 13.030767
56.595 12.75431
56.600 12.916761
56.605 12.517687
56.610 12.653118
56.615 12.159621
56.620 11.880344
56.625 11.469203
56.630 11.117575
56.635 11.038095
56.640 10.851292
56.645 10.737959
56.650 11.073093
56.655 11.538178
56.660 11.670215
56.665 11.68478
56.670 11.638072
56.675 11.69391
56.680 11.419665
56.685 11.316644
56.690 11.105828
56.695 11.542486
56.700 11.692094
56.705 11.958915
56.710 12.221825
56.715 12.720158
56.720 13.049997
56.725 12.963282
56.730 13.065035
56.735 12.96598
56.740 12.699862
56.745 12.398936
56.750 12.326483
56.755 12.35128
56.760 12.365246
56.765 12.34285
56.770 12.292686
56.775 12.531985
56.780 12.923388
56.785 12.376966
56.790 12.166247
56.795 12.291111
56.800 12.456434
56.805 12.720596
56.810 12.655415
56.815 12.445076
56.820 12.693236
56.825 12.835619
56.830 13.079257
56.835 13.14548
56.840 12.791462
56.845 12.67382
56.850 12.902626
56.855 12.882246
56.860 12.777177
56.865 12.2158
56.870 11.855973
56.875 12.190641
56.880 12.132717
56.885 11.843699
56.890 11.362045
56.895 11.003752
56.900 11.188094
56.905 11.455663
56.910 11.095562
56.915 11.19316
56.920 11.481838
56.925 11.893532
56.930 12.302048
56.935 12.554985
56.940 12.266454
56.945 12.442382
56.950 12.769814
56.955 12.616373
56.960 13.178772
56.965 13.448621
56.970 12.874553
56.975 12.913911
56.980 13.212942
56.985 12.865933
56.990 12.96039
56.995 12.752166
57.000 12.677096
57.005 12.737329
57.010 12.472546
57.015 11.640553
57.020 11.61639
57.025 11.491074
57.030 11.22369
57.035 11.312962
57.040 11.375324
57.045 12.008598
57.050 12.536938
57.055 13.319588
57.060 13.781522
57.065 13.543612
57.070 13.077102
57.075 12.814536
57.080 12.915388
57.085 12.706633
57.090 12.06512
57.095 11.735847
57.100 12.229882
57.105 12.830948
57.110 13.430665
57.115 13.136246
57.120 12.940391
57.125 12.953858
57.130 12.968688
57.135 12.401272
57.140 12.07183
57.145 12.225943
57.150 12.275238
57.155 12.189348
57.160 12.136413
57.165 11.982736
57.170 12.689267
57.175 12.51409
57.180 12.287439
57.185 12.608648
57.190 12.652572
57.195 12.843793
57.200 13.318347
57.205 13.010509
57.210 13.514133
57.215 13.411175
57.220 13.23761
57.225 13.333851
57.230 13.124366
57.235 12.617833
57.240 12.472913
57.245 12.512887
57.250 13.352286
57.255 14.022135
57.260 14.518418
57.265 14.85675
57.270 14.836957
57.275 14.934226
57.280 14.621454
57.285 14.068675
57.290 13.543807
57.295 13.739725
57.300 13.411705
57.305 13.639805
57.310 13.856669
57.315 14.101867
57.320 13.901237
57.325 13.815406
57.330 13.441325
57.335 13.267185
57.340 13.18921
57.345 12.743311
57.350 12.781206
57.355 12.237436
57.360 12.055397
57.365 12.05237
57.370 12.420884
57.375 12.68085
57.380 12.553354
57.385 12.720843
57.390 13.323513
57.395 13.824129
57.400 14.285961
57.405 14.426793
57.410 14.54751
57.415 14.632502
57.420 14.122878
57.425 13.382255
57.430 12.978182
57.435 12.824676
57.440 12.57601
57.445 12.562962
57.450 12.953452
57.455 13.565059
57.460 13.941844
57.465 14.045462
57.470 14.292546
57.475 14.809482
57.480 14.886057
57.485 14.953642
57.490 14.877594
57.495 14.927103
57.500 14.470452
57.505 13.863198
57.510 13.4804
57.515 13.307556
57.520 12.809875
57.525 12.375877
57.530 12.394284
57.535 12.657963
57.540 13.10312
57.545 12.977386
57.550 12.862179
57.555 13.729852
57.560 14.802877
57.565 15.173823
57.570 15.573171
57.575 15.952024
57.580 16.540064
57.585 16.65917
57.590 16.036278
57.595 14.997537
57.600 14.893275
57.605 14.602347
57.610 14.167616
57.615 13.649059
57.620 13.952529
57.625 14.445407
57.630 14.521297
57.635 14.366497
57.640 14.264894
57.645 14.008672
57.650 14.462897
57.655 14.098786
57.660 14.025208
57.665 14.406766
57.670 14.387477
57.675 14.524831
57.680 14.793556
57.685 14.686243
57.690 14.959949
57.695 14.975288
57.700 14.581051
57.705 14.21524
57.710 13.742956
57.715 13.5172
57.720 13.67977
57.725 13.766724
57.730 13.764887
57.735 14.235982
57.740 14.862397
57.745 15.102075
57.750 14.904689
57.755 14.718835
57.760 15.021958
57.765 15.427052
57.770 15.583427
57.775 15.49973
57.780 15.648407
57.785 15.992915
57.790 15.885197
57.795 15.918876
57.800 15.588407
57.805 15.242547
57.810 14.886487
57.815 14.752446
57.820 14.411641
57.825 14.210658
57.830 14.004217
57.835 14.161352
57.840 14.624674
57.845 15.093049
57.850 15.045425
57.855 15.185567
57.860 15.325899
57.865 15.039244
57.870 14.998313
57.875 14.747576
57.880 14.777552
57.885 14.899337
57.890 15.021931
57.895 15.341307
57.900 15.70982
57.905 15.389249
57.910 14.928812
57.915 14.937209
57.920 14.530754
57.925 14.586473
57.930 14.052978
57.935 14.459546
57.940 15.53996
57.945 16.154932
57.950 16.193533
57.955 16.688019
57.960 16.448204
57.965 16.265627
57.970 15.701985
57.975 15.06291
57.980 15.029565
57.985 14.933737
57.990 14.735682
57.995 14.287508
58.000 14.158389
58.005 13.745078
58.010 13.771638
58.015 14.091429
58.020 14.224852
58.025 14.336115
58.030 15.263405
58.035 15.487314
58.040 16.134995
58.045 16.385332
58.050 16.352743
58.055 16.491167
58.060 16.762289
58.065 16.89068
58.070 16.987097
58.075 16.21636
58.080 15.812738
58.085 15.592951
58.090 15.232958
58.095 14.716351
58.100 14.293105
58.105 14.755967
58.110 15.101569
58.115 14.978849
58.120 14.802437
58.125 14.964803
58.130 14.855501
58.135 15.156556
58.140 14.628208
58.145 14.602196
58.150 14.52552
58.155 14.841636
58.160 15.020446
58.165 15.383594
58.170 15.476737
58.175 15.66504
58.180 15.315125
58.185 15.858365
58.190 16.215006
58.195 16.143116
58.200 16.484758
58.205 16.261627
58.210 16.431252
58.215 16.91082
58.220 16.679976
58.225 16.583448
58.230 16.266066
58.235 15.751416
58.240 15.707709
58.245 15.848639
58.250 15.581741
58.255 15.332937
58.260 15.239301
58.265 15.795903
58.270 16.020464
58.275 16.131721
58.280 16.873365
58.285 17.195215
58.290 17.371471
58.295 17.59993
58.300 18.343737
58.305 18.872442
58.310 18.986725
58.315 18.799292
58.320 19.04204
58.325 19.224174
58.330 19.43569
58.335 18.659761
58.340 18.866632
58.345 18.520472
58.350 18.700191
58.355 18.836315
58.360 19.09726
58.365 19.592506
58.370 19.827349
58.375 20.346121
58.380 21.087696
58.385 21.573376
58.390 22.293625
58.395 22.490099
58.400 22.450008
58.405 22.707645
58.410 22.433426
58.415 22.317957
58.420 22.653658
58.425 23.283861
58.430 23.474812
58.435 23.46911
58.440 23.995543
58.445 24.331003
58.450 25.335905
58.455 25.710241
58.460 26.036381
58.465 26.647081
58.470 26.723495
58.475 26.878061
58.480 26.887699
58.485 26.125732
58.490 25.886011
58.495 25.95775
58.500 26.042305
58.505 26.930927
58.510 26.944117
58.515 26.994585
58.520 27.511461
58.525 27.733948
58.530 27.678638
58.535 27.923315
58.540 27.538528
58.545 27.912363
58.550 28.230022
58.555 28.854959
58.560 29.383297
58.565 30.295406
58.570 30.996225
58.575 31.468452
58.580 30.731928
58.585 30.892061
58.590 30.499359
58.595 30.27928
58.600 29.55719
58.605 28.565859
58.610 28.366072
58.615 28.918468
58.620 29.041887
58.625 29.072439
58.630 29.675806
58.635 29.991697
58.640 29.59684
58.645 29.105059
58.650 28.860777
58.655 28.383787
58.660 28.513565
58.665 28.424599
58.670 27.746979
58.675 28.10223
58.680 28.116596
58.685 28.355412
58.690 28.302944
58.695 27.993967
58.700 27.286678
58.705 27.899248
58.710 28.216291
58.715 28.47994
58.720 28.63695
58.725 29.038971
58.730 28.786386
58.735 28.662792
58.740 27.977371
58.745 27.876764
58.750 28.103758
58.755 28.073469
58.760 28.179216
58.765 28.117191
58.770 28.112551
58.775 28.360043
58.780 28.378714
58.785 27.747503
58.790 27.132721
58.795 27.089422
58.800 26.267771
58.805 25.390131
58.810 24.218309
58.815 23.038755
58.820 22.975222
58.825 21.99614
58.830 21.227936
58.835 21.29047
58.840 21.269564
58.845 21.957064
58.850 22.141087
58.855 22.440207
58.860 22.307138
58.865 21.848394
58.870 21.491131
58.875 21.245266
58.880 20.782671
58.885 20.944662
58.890 20.07852
58.895 19.902222
58.900 19.862469
58.905 19.871176
58.910 20.077732
58.915 20.134281
58.920 19.39649
58.925 19.340836
58.930 19.696047
58.935 19.57021
58.940 19.426283
58.945 18.992914
58.950 18.58028
58.955 18.620247
58.960 18.59642
58.965 17.876299
58.970 18.066893
58.975 17.880144
58.980 17.347652
58.985 17.300674
58.990 16.677458
58.995 16.832235
59.000 17.447498
59.005 16.897104
59.010 16.538502
59.015 16.862104
59.020 16.948988
59.025 17.360109
59.030 17.120258
59.035 16.463007
59.040 16.361208
59.045 16.826155
59.050 16.91715
59.055 16.225971
59.060 16.036421
59.065 16.139875
59.070 16.348843
59.075 16.564287
59.080 16.298128
59.085 16.460087
59.090 16.364681
59.095 16.102432
59.100 16.040428
59.105 16.351126
59.110 15.831316
59.115 15.445609
59.120 15.136765
59.125 15.745176
59.130 16.308947
59.135 16.542606
59.140 16.560946
59.145 17.172503
59.150 17.335073
59.155 17.276346
59.160 17.178989
59.165 16.806314
59.170 16.500051
59.175 16.750626
59.180 16.644886
59.185 16.337812
59.190 16.068487
59.195 15.785332
59.200 15.83908
59.205 15.467974
59.210 14.545159
59.215 14.123503
59.220 13.757947
59.225 14.128976
59.230 14.247385
59.235 13.989104
59.240 14.129357
59.245 14.161292
59.250 14.010671
59.255 14.237604
59.260 14.246737
59.265 14.303314
59.270 14.338042
59.275 14.415963
59.280 14.319425
59.285 14.767293
59.290 14.532496
59.295 14.732299
59.300 14.574619
59.305 14.903831
59.310 14.748256
59.315 14.616854
59.320 14.685405
59.325 14.933239
59.330 14.424436
59.335 14.228636
59.340 13.538848
59.345 13.325388
59.350 13.196071
59.355 13.42378
59.360 13.568069
59.365 13.486695
59.370 13.329701
59.375 14.070789
59.380 14.744883
59.385 15.138332
59.390 15.121805
59.395 15.191648
59.400 15.775391
59.405 16.40062
59.410 16.347063
59.415 16.118876
59.420 16.11747
59.425 15.436538
59.430 15.14271
59.435 14.702645
59.440 14.487952
59.445 14.492559
59.450 14.887243
59.455 15.037745
59.460 15.612597
59.465 16.016569
59.470 16.388359
59.475 16.879398
59.480 16.893272
59.485 16.590836
59.490 16.35976
59.495 16.0319
59.500 15.739651
59.505 15.198347
59.510 14.384468
59.515 14.398014
59.520 14.308292
59.525 14.593216
59.530 14.73845
59.535 14.386505
59.540 14.961055
59.545 15.444301
59.550 15.27742
59.555 15.537036
59.560 15.461546
59.565 15.110076
59.570 15.510533
59.575 15.336596
59.580 14.89395
59.585 14.751891
59.590 14.420076
59.595 14.586306
59.600 14.980349
59.605 14.923141
59.610 14.4891
59.615 14.312203
59.620 14.474948
59.625 14.571321
59.630 14.564461
59.635 13.928904
59.640 14.245362
59.645 15.151372
59.650 15.563607
59.655 15.523964
59.660 15.590116
59.665 15.436177
59.670 16.083181
59.675 15.286258
59.680 14.702406
59.685 14.635334
59.690 14.814317
59.695 14.725863
59.700 14.393643
59.705 13.587165
59.710 13.410586
59.715 13.38271
59.720 13.319017
59.725 12.872707
59.730 13.439857
59.735 14.009266
59.740 14.755793
59.745 15.154174
59.750 15.902184
59.755 15.871057
59.760 16.024349
59.765 15.251427
59.770 14.927031
59.775 15.009298
59.780 15.009861
59.785 14.814013
59.790 15.201612
59.795 15.015121
59.800 15.405294
59.805 15.979962
59.810 16.400974
59.815 16.449047
59.820 15.772601
59.825 15.847619
59.830 15.921505
59.835 15.275222
59.840 15.050819
59.845 14.958827
59.850 14.946661
59.855 15.114828
59.860 15.041198
59.865 15.139019
59.870 15.487612
59.875 14.60904
59.880 14.696845
59.885 14.962412
59.890 15.32495
59.895 15.125875
59.900 15.218874
59.905 15.368045
59.910 16.03587
59.915 15.443119
59.920 15.197137
59.925 14.940204
59.930 15.028206
59.935 14.861066
59.940 14.983669
59.945 14.367824
59.950 14.270348
59.955 14.048612
59.960 14.063011
59.965 13.781176
59.970 13.988175
59.975 14.192258
59.980 15.237306
59.985 15.165093
59.990 15.03934
59.995 14.909446
60.000 15.179837
60.005 15.27077
60.010 15.498508
60.015 14.950077
60.020 15.272345
60.025 16.257511
60.030 16.263971
60.035 16.152588
60.040 15.724069
60.045 15.443029
60.050 15.568346
60.055 15.721784
60.060 14.776539
60.065 14.512889
60.070 14.239987
60.075 14.391498
60.080 14.029569
60.085 14.186633
60.090 14.268007
60.095 14.80562
60.100 15.192149
60.105 15.529492
60.110 15.54388
60.115 15.66169
60.120 15.894522
60.125 15.931797
60.130 15.983642
60.135 15.805018
60.140 15.049056
60.145 14.969352
60.150 15.204121
60.155 14.970343
60.160 14.981237
60.165 14.974669
60.170 15.245261
60.175 15.524554
60.180 15.065154
60.185 14.862463
60.190 15.003182
60.195 14.636858
60.200 14.47232
60.205 14.442026
60.210 14.711315
60.215 15.252071
60.220 15.235186
60.225 15.091373
60.230 15.13851
60.235 15.449204
60.240 15.962681
60.245 16.293362
60.250 15.768501
60.255 15.349875
60.260 15.69308
60.265 15.586798
60.270 15.467204
60.275 14.970035
60.280 14.730074
60.285 15.166877
60.290 15.733603
60.295 15.105371
60.300 14.984104
60.305 14.844246
60.310 15.131134
60.315 15.224105
60.320 14.98683
60.325 14.819145
60.330 15.681635
60.335 16.366869
60.340 16.718119
60.345 16.824944
60.350 16.84453
60.355 17.00404
60.360 16.159163
60.365 15.049789
60.370 14.679203
60.375 14.324318
60.380 14.346634
60.385 14.107633
60.390 14.08863
60.395 14.772368
60.400 14.832913
60.405 14.518957
60.410 14.284369
60.415 14.530829
60.420 14.314238
60.425 14.257914
60.430 14.192407
60.435 14.083366
60.440 14.085865
60.445 14.202137
60.450 14.29926
60.455 14.239191
60.460 14.112266
60.465 14.737892
60.470 15.575255
60.475 15.84342
60.480 15.929878
60.485 15.598184
60.490 16.048931
60.495 15.922734
60.500 15.422237
60.505 14.880016
60.510 14.484571
60.515 14.81491
60.520 15.004137
60.525 15.119092
60.530 14.777669
60.535 14.458622
60.540 14.7705
60.545 14.894463
60.550 14.08082
60.555 13.831482
60.560 14.033828
60.565 14.707966
60.570 15.043468
60.575 15.209014
60.580 15.378742
60.585 15.234101
60.590 14.856537
60.595 14.511456
60.600 15.146915
60.605 15.396879
60.610 15.223014
60.615 15.312545
60.620 15.479654
60.625 16.079376
60.630 16.361206
60.635 15.925325
60.640 15.521389
60.645 15.58921
60.650 15.428321
60.655 15.303349
60.660 14.859016
60.665 14.33099
60.670 14.091022
60.675 14.096468
60.680 13.992308
60.685 14.167439
60.690 14.368367
60.695 14.614458
60.700 14.444247
60.705 14.730493
60.710 14.989024
60.715 15.430362
60.720 15.778681
60.725 16.180674
60.730 16.232559
60.735 16.614223
60.740 16.316957
60.745 16.255655
60.750 15.798142
60.755 15.84479
60.760 16.250963
60.765 16.27021
60.770 16.519585
60.775 16.739365
60.780 17.231525
60.785 17.374344
60.790 16.917105
60.795 16.124863
60.800 16.448366
60.805 15.827313
60.810 15.2311
60.815 14.551661
60.820 14.561391
60.825 14.329712
60.830 14.1888
60.835 13.566046
60.840 13.897295
60.845 14.514898
60.850 15.348965
60.855 16.137873
60.860 16.467871
60.865 17.103733
60.870 17.335815
60.875 17.185093
60.880 17.055979
60.885 16.775011
60.890 16.23991
60.895 15.94016
60.900 15.635068
60.905 15.536722
60.910 15.237137
60.915 14.968348
60.920 14.889744
60.925 14.731779
60.930 14.528505
60.935 14.890669
60.940 15.229449
60.945 14.986665
60.950 15.200464
60.955 14.886426
60.960 14.967344
60.965 15.215319
60.970 15.128943
60.975 15.127679
60.980 15.629148
60.985 15.952863
60.990 16.000633
60.995 16.130276
61.000 16.077383
61.005 15.909443
61.010 15.816915
61.015 15.794433
61.020 15.259305
61.025 15.008321
61.030 14.592681
61.035 14.745141
61.040 14.578505
61.045 14.65471
61.050 14.623756
61.055 14.628874
61.060 14.968557
61.065 15.225471
61.070 15.365951
61.075 15.485735
61.080 15.810402
61.085 16.083296
61.090 16.45686
61.095 16.33783
61.100 16.803968
61.105 16.644239
61.110 16.524866
61.115 15.975402
61.120 15.813581
61.125 15.959404
61.130 15.697666
61.135 15.59927
61.140 15.475616
61.145 14.889964
61.150 14.626284
61.155 14.121617
61.160 14.037109
61.165 14.840239
61.170 15.087959
61.175 15.508963
61.180 15.891328
61.185 16.697777
61.190 17.139116
61.195 17.437237
61.200 17.326813
61.205 17.134085
61.210 17.078337
61.215 17.161093
61.220 17.202925
61.225 17.218937
61.230 17.215506
61.235 16.775784
61.240 16.608744
61.245 16.647062
61.250 16.899384
61.255 16.586742
61.260 16.760931
61.265 16.720984
61.270 16.980707
61.275 16.983753
61.280 17.006779
61.285 16.729513
61.290 16.446169
61.295 15.837211
61.300 15.401217
61.305 15.113514
61.310 14.920825
61.315 14.801877
61.320 14.776105
61.325 14.830476
61.330 15.065639
61.335 15.001454
61.340 15.186856
61.345 15.530261
61.350 15.382668
61.355 15.199366
61.360 15.091249
61.365 14.808339
61.370 14.877598
61.375 14.737098
61.380 14.62689
61.385 14.960147
61.390 15.339362
61.395 15.600487
61.400 15.569281
61.405 16.165674
61.410 16.284269
61.415 16.628284
61.420 16.58646
61.425 16.640181
61.430 16.91469
61.435 16.835411
61.440 16.184324
61.445 15.818319
61.450 15.331016
61.455 14.983659
61.460 14.277123
61.465 13.706315
61.470 13.636119
61.475 13.859716
61.480 13.538554
61.485 13.612705
61.490 13.914742
61.495 14.315194
61.500 14.611156
61.505 14.481503
61.510 14.241991
61.515 14.720856
61.520 14.67067
61.525 14.529741
61.530 14.484003
61.535 14.548162
61.540 14.849987
61.545 14.956829
61.550 15.186452
61.555 15.375739
61.560 15.681688
61.565 16.090944
61.570 16.210909
61.575 16.650908
61.580 16.560413
61.585 16.453947
61.590 15.93005
61.595 15.738905
61.600 15.448894
61.605 15.23541
61.610 15.460648
61.615 15.653322
61.620 15.62826
61.625 15.752366
61.630 15.705943
61.635 15.787004
61.640 15.676565
61.645 14.900352
61.650 14.929449
61.655 15.353647
61.660 16.075024
61.665 16.344885
61.670 16.15888
61.675 16.180462
61.680 16.358395
61.685 15.879034
61.690 15.322835
61.695 15.158117
61.700 14.991771
61.705 15.310605
61.710 15.776672
61.715 16.028053
61.720 16.674965
61.725 16.747276
61.730 16.831055
61.735 17.086731
61.740 17.009377
61.745 16.733116
61.750 16.491543
61.755 15.996069
61.760 16.206129
61.765 15.876615
61.770 15.72919
61.775 15.671278
61.780 15.49814
61.785 15.425168
61.790 15.666885
61.795 15.686105
61.800 15.806224
61.805 15.710835
61.810 15.700675
61.815 16.055773
61.820 15.824879
61.825 15.918901
61.830 15.962371
61.835 15.566076
61.840 15.660924
61.845 15.442677
61.850 15.301438
61.855 15.507318
61.860 15.49692
61.865 15.755465
61.870 16.251575
61.875 16.501862
61.880 17.170216
61.885 17.383154
61.890 17.366875
61.895 16.880285
61.900 16.5186
61.905 16.208025
61.910 15.789001
61.915 15.142156
61.920 15.10041
61.925 14.814158
61.930 15.038855
61.935 15.136489
61.940 14.864491
61.945 14.610521
61.950 14.931646
61.955 15.642948
61.960 15.742257
61.965 15.793681
61.970 16.058798
61.975 16.382671
61.980 16.693848
61.985 16.224907
61.990 15.769627
61.995 15.678617
62.000 16.059076
62.005 16.109856
62.010 16.326723
62.015 16.162996
62.020 16.213737
62.025 16.124704
62.030 15.984889
62.035 15.694269
62.040 15.984561
62.045 16.151928
62.050 16.406078
62.055 16.350252
62.060 16.734629
62.065 16.646557
62.070 16.359955
62.075 16.105677
62.080 15.502212
62.085 15.567168
62.090 15.390959
62.095 14.873253
62.100 15.043296
62.105 15.175873
62.110 15.592586
62.115 16.036631
62.120 15.967861
62.125 16.382729
62.130 16.713688
62.135 17.227074
62.140 16.95569
62.145 16.012272
62.150 15.88051
62.155 15.861769
62.160 15.673545
62.165 15.329736
62.170 15.21629
62.175 15.502362
62.180 15.318356
62.185 15.470271
62.190 15.647113
62.195 15.279151
62.200 15.298403
62.205 14.618615
62.210 14.569206
62.215 15.263816
62.220 15.03391
62.225 14.862691
62.230 14.835965
62.235 14.485085
62.240 14.531798
62.245 14.409575
62.250 14.295337
62.255 14.186225
62.260 14.223826
62.265 14.73723
62.270 15.577917
62.275 15.406343
62.280 14.995069
62.285 14.688495
62.290 14.764707
62.295 14.61666
62.300 14.389846
62.305 14.200641
62.310 14.815822
62.315 15.410181
62.320 15.86757
62.325 16.277508
62.330 16.241896
62.335 16.384861
62.340 17.028044
62.345 17.181215
62.350 16.975485
62.355 17.115078
62.360 16.991581
62.365 17.297079
62.370 16.957788
62.375 15.994361
62.380 15.264106
62.385 14.749503
62.390 13.858036
62.395 13.588865
62.400 13.593657
62.405 13.838729
62.410 14.830087
62.415 15.804597
62.420 16.795872
62.425 17.881041
62.430 17.92285
62.435 17.521059
62.440 17.312202
62.445 17.092245
62.450 17.281746
62.455 17.299063
62.460 16.772852
62.465 17.002312
62.470 17.57913
62.475 18.158442
62.480 18.195538
62.485 17.867485
62.490 17.779337
62.495 17.730965
62.500 17.531483
62.505 16.996767
62.510 17.126091
62.515 17.310324
62.520 16.946753
62.525 17.150663
62.530 17.353071
62.535 17.629093
62.540 17.335894
62.545 16.73291
62.550 15.934154
62.555 15.326265
62.560 14.6404
62.565 14.136801
62.570 13.779655
62.575 14.270995
62.580 14.882425
62.585 15.1237
62.590 15.345175
62.595 15.35919
62.600 15.826724
62.605 16.048939
62.610 15.891713
62.615 15.277511
62.620 15.697974
62.625 16.10784
62.630 16.387409
62.635 16.321754
62.640 16.534809
62.645 16.340439
62.650 16.571033
62.655 16.586515
62.660 16.636055
62.665 16.590986
62.670 16.487597
62.675 16.481033
62.680 16.289515
62.685 15.928838
62.690 16.2848
62.695 16.31214
62.700 15.919783
62.705 16.209892
62.710 16.883001
62.715 17.692366
62.720 17.888542
62.725 17.013372
62.730 16.91593
62.735 17.613953
62.740 17.352535
62.745 17.158415
62.750 16.868786
62.755 17.090313
62.760 17.420694
62.765 17.363768
62.770 16.90731
62.775 16.879482
62.780 16.477571
62.785 16.287621
62.790 16.359066
62.795 16.628435
62.800 17.055944
62.805 17.326052
62.810 17.684587
62.815 17.63839
62.820 17.828453
62.825 17.534508
62.830 16.898407
62.835 16.928946
62.840 16.88372
62.845 16.19478
62.850 15.813397
62.855 15.666217
62.860 16.488226
62.865 17.499496
62.870 17.35144
62.875 17.53418
62.880 17.94779
62.885 18.240856
62.890 17.858873
62.895 17.140133
62.900 16.470003
62.905 15.807234
62.910 15.306214
62.915 14.773761
62.920 14.460603
62.925 14.550839
62.930 13.979406
62.935 14.078895
62.940 14.835979
62.945 14.566946
62.950 14.568934
62.955 14.818975
62.960 15.18897
62.965 15.643955
62.970 15.81323
62.975 16.041002
62.980 16.858509
62.985 17.399244
62.990 17.825077
62.995 17.811766
63.000 18.052059
63.005 18.067743
63.010 17.921322
63.015 17.756695
63.020 17.692293
63.025 17.44862
63.030 17.210308
63.035 16.829405
63.040 16.40712
63.045 15.752694
63.050 15.564942
63.055 15.553129
63.060 15.813128
63.065 16.13061
63.070 16.169594
63.075 16.091141
63.080 16.164238
63.085 16.120853
63.090 15.834312
63.095 15.755002
63.100 15.775453
63.105 16.195362
63.110 16.918055
63.115 17.487133
63.120 17.69751
63.125 18.196592
63.130 17.824377
63.135 18.262314
63.140 18.083414
63.145 17.358385
63.150 16.796207
63.155 17.07988
63.160 16.858822
63.165 17.313026
63.170 17.07383
63.175 17.489897
63.180 18.008888
63.185 17.995844
63.190 17.603321
63.195 17.336981
63.200 17.066345
63.205 16.403709
63.210 15.844087
63.215 15.67562
63.220 16.029198
63.225 16.722155
63.230 17.273212
63.235 17.455227
63.240 18.098799
63.245 18.031927
63.250 18.570414
63.255 18.932528
63.260 18.578154
63.265 18.380789
63.270 18.007105
63.275 17.9419
63.280 18.383848
63.285 18.441313
63.290 18.244457
63.295 17.974459
63.300 17.764225
63.305 18.427437
63.310 18.894146
63.315 19.031139
63.320 18.480709
63.325 18.612801
63.330 19.231236
63.335 19.553963
63.340 18.812189
63.345 18.22723
63.350 17.805922
63.355 17.60828
63.360 17.218195
63.365 16.684818
63.370 16.287786
63.375 17.023397
63.380 17.846563
63.385 18.510036
63.390 19.288263
63.395 19.337616
63.400 19.679996
63.405 19.939863
63.410 19.429018
63.415 18.776613
63.420 18.499578
63.425 18.10252
63.430 17.976755
63.435 17.997253
63.440 18.057072
63.445 17.996048
63.450 17.355167
63.455 17.175417
63.460 17.460104
63.465 17.94924
63.470 17.630844
63.475 17.554392
63.480 17.825935
63.485 18.489464
63.490 18.159225
63.495 17.916346
63.500 17.52519
63.505 17.654367
63.510 17.47043
63.515 17.446829
63.520 17.6071
63.525 18.524677
63.530 18.763317
63.535 19.068396
63.540 19.080315
63.545 18.525854
63.550 18.101437
63.555 17.312616
63.560 16.945799
63.565 17.089661
63.570 16.370747
63.575 16.506786
63.580 16.79991
63.585 17.343761
63.590 17.346685
63.595 17.417727
63.600 16.998779
63.605 17.132669
63.610 17.203016
63.615 17.784443
63.620 18.014742
63.625 18.462997
63.630 18.28718
63.635 18.26729
63.640 18.557045
63.645 18.601948
63.650 18.376747
63.655 17.871956
63.660 17.508924
63.665 17.532303
63.670 17.798128
63.675 17.740755
63.680 17.339125
63.685 17.113302
63.690 17.240852
63.695 17.492031
63.700 16.791945
63.705 16.866049
63.710 16.851746
63.715 17.358486
63.720 17.550116
63.725 18.03808
63.730 18.632217
63.735 19.325666
63.740 20.024923
63.745 19.825775
63.750 19.60268
63.755 19.312704
63.760 18.556355
63.765 18.182831
63.770 18.008099
63.775 17.910473
63.780 18.814079
63.785 19.020872
63.790 18.981699
63.795 19.525007
63.800 19.513113
63.805 19.336712
63.810 17.714071
63.815 16.68367
63.820 16.500355
63.825 16.672369
63.830 16.886005
63.835 17.445459
63.840 18.361727
63.845 19.929977
63.850 20.428047
63.855 20.229637
63.860 19.632748
63.865 19.333509
63.870 19.205782
63.875 19.662264
63.880 19.828903
63.885 19.588444
63.890 20.283672
63.895 21.085382
63.900 21.25798
63.905 21.40801
63.910 21.097931
63.915 20.937292
63.920 21.729359
63.925 22.174065
63.930 22.216415
63.935 22.256641
63.940 21.823914
63.945 21.920067
63.950 21.93725
63.955 21.900417
63.960 22.275717
63.965 22.752487
63.970 23.428293
63.975 24.743095
63.980 25.139772
63.985 25.382269
63.990 25.715836
63.995 25.828253
64.000 26.280416
64.005 26.603334
64.010 26.539589
64.015 27.181482
64.020 27.897182
64.025 28.119297
64.030 28.43952
64.035 28.605619
64.040 28.326397
64.045 27.970863
64.050 27.911667
64.055 27.833197
64.060 27.792242
64.065 27.355242
64.070 27.275099
64.075 27.838905
64.080 27.996878
64.085 27.845961
64.090 27.787048
64.095 27.920994
64.100 27.98621
64.105 27.964504
64.110 27.498104
64.115 28.276251
64.120 29.080084
64.125 30.277573
64.130 31.118259
64.135 31.62719
64.140 32.084011
64.145 33.18697
64.150 32.962894
64.155 33.089329
64.160 32.362946
64.165 32.192287
64.170 32.956135
64.175 32.602486
64.180 32.403103
64.185 32.660309
64.190 33.021893
64.195 33.93771
64.200 34.111935
64.205 33.709091
64.210 34.181488
64.215 34.911282
64.220 36.040058
64.225 36.357357
64.230 37.015343
64.235 37.355701
64.240 37.843975
64.245 38.233585
64.250 37.854553
64.255 37.772606
64.260 37.9445
64.265 38.137417
64.270 38.905136
64.275 38.891197
64.280 39.369156
64.285 39.227921
64.290 38.403412
64.295 38.171276
64.300 37.861309
64.305 37.583572
64.310 37.481548
64.315 36.838825
64.320 37.045631
64.325 37.670971
64.330 37.228893
64.335 36.483284
64.340 35.949497
64.345 36.114265
64.350 36.629719
64.355 37.211731
64.360 37.782875
64.365 38.470478
64.370 39.366238
64.375 39.487469
64.380 39.203041
64.385 38.891956
64.390 38.509769
64.395 37.40242
64.400 37.239365
64.405 36.90255
64.410 37.710152
64.415 38.646446
64.420 38.654171
64.425 38.810272
64.430 38.421272
64.435 38.33559
64.440 37.996059
64.445 37.780075
64.450 36.978256
64.455 36.260559
64.460 35.912415
64.465 35.826218
64.470 35.033756
64.475 34.715927
64.480 33.399647
64.485 32.432774
64.490 32.343788
64.495 32.904545
64.500 32.986656
64.505 32.108574
64.510 31.74992
64.515 32.105885
64.520 32.591267
64.525 32.102062
64.530 31.050966
64.535 30.565899
64.540 30.163435
64.545 29.398809
64.550 28.949589
64.555 27.54159
64.560 27.207018
64.565 26.385529
64.570 26.155893
64.575 25.566076
64.580 25.529701
64.585 25.738953
64.590 26.047426
64.595 25.602507
64.600 25.10914
64.605 24.870893
64.610 25.074661
64.615 24.467215
64.620 23.975389
64.625 24.012535
64.630 24.390114
64.635 24.477711
64.640 24.155321
64.645 24.116102
64.650 24.378109
64.655 24.144236
64.660 24.070751
64.665 23.496233
64.670 23.38867
64.675 23.055798
64.680 23.078638
64.685 22.361355
64.690 22.200487
64.695 21.720934
64.700 21.568676
64.705 21.174471
64.710 21.145126
64.715 20.907356
64.720 20.73641
64.725 20.443726
64.730 20.47933
64.735 20.623493
64.740 20.596027
64.745 20.341917
64.750 20.816051
64.755 21.37011
64.760 21.554386
64.765 21.807194
64.770 22.083464
64.775 22.037556
64.780 22.046139
64.785 21.746481
64.790 21.829517
64.795 22.124521
64.800 22.552526
64.805 22.522989
64.810 22.356037
64.815 22.064053
64.820 22.087391
64.825 21.727819
64.830 21.362068
64.835 19.963825
64.840 20.114502
64.845 20.242586
64.850 20.556196
64.855 20.627941
64.860 20.90851
64.865 20.607697
64.870 20.71314
64.875 19.980389
64.880 19.788465
64.885 19.369465
64.890 18.64452
64.895 18.118444
64.900 18.131222
64.905 18.262104
64.910 19.255486
64.915 19.840944
64.920 20.148113
64.925 20.450542
64.930 20.866062
64.935 21.325123
64.940 21.643011
64.945 21.213213
64.950 20.885201
64.955 20.966639
64.960 20.706602
64.965 19.87973
64.970 19.731932
64.975 19.739475
64.980 19.899368
64.985 19.58507
64.990 20.132845
64.995 20.163584
65.000 20.378571
65.005 19.791822
65.010 19.979767
65.015 19.532324
65.020 20.720629
65.025 20.642815
65.030 21.253239
65.035 21.823242
65.040 22.419046
65.045 22.461868
65.050 22.374348
65.055 21.373943
65.060 21.288696
65.065 21.590832
65.070 21.773315
65.075 21.605953
65.080 21.186066
65.085 21.864159
65.090 22.119728
65.095 22.192369
65.100 21.887947
65.105 21.642254
65.110 21.588219
65.115 22.271772
65.120 22.451984
65.125 22.115473
65.130 21.530008
65.135 21.258852
65.140 21.853685
65.145 22.00108
65.150 21.301121
65.155 20.678911
65.160 19.763742
65.165 19.718019
65.170 19.840366
65.175 19.822353
65.180 19.877518
65.185 20.309389
65.190 20.792894
65.195 21.26309
65.200 21.263397
65.205 20.974743
65.210 20.813681
65.215 20.409397
65.220 20.607225
65.225 21.130484
65.230 21.435539
65.235 21.463404
65.240 21.755064
65.245 21.632181
65.250 21.752146
65.255 21.510031
65.260 21.387794
65.265 21.077644
65.270 20.961535
65.275 21.469278
65.280 21.50202
65.285 21.473598
65.290 21.363653
65.295 21.412275
65.300 22.250259
65.305 22.472519
65.310 21.818903
65.315 21.387264
65.320 21.43927
65.325 21.165876
65.330 20.802137
65.335 20.972158
65.340 21.095922
65.345 21.231695
65.350 22.049219
65.355 22.304415
65.360 22.935699
65.365 23.337709
65.370 23.089167
65.375 23.00036
65.380 22.724562
65.385 22.352419
65.390 22.479507
65.395 22.179411
65.400 22.167784
65.405 22.666395
65.410 23.463058
65.415 24.237705
65.420 24.5473
65.425 24.474031
65.430 25.020905
65.435 25.451988
65.440 25.560905
65.445 25.494499
65.450 26.018269
65.455 26.464104
65.460 26.742558
65.465 26.447107
65.470 26.485556
65.475 26.960695
65.480 27.278172
65.485 27.392319
65.490 27.28413
65.495 27.743513
65.500 28.517117
65.505 28.853144
65.510 28.90938
65.515 29.148861
65.520 29.081175
65.525 29.683105
65.530 29.706478
65.535 30.203243
65.540 30.499262
65.545 30.972582
65.550 31.951433
65.555 33.143696
65.560 32.845604
65.565 32.738838
65.570 33.046154
65.575 33.349365
65.580 34.61171
65.585 35.38969
65.590 35.107426
65.595 35.799118
65.600 36.933605
65.605 37.013691
65.610 38.172386
65.615 38.168999
65.620 37.490627
65.625 37.882011
65.630 38.66626
65.635 39.791794
65.640 40.556366
65.645 41.140709
65.650 40.79216
65.655 41.19569
65.660 41.938347
65.665 42.183857
65.670 41.544926
65.675 41.092407
65.680 41.457909
65.685 42.102203
65.690 42.477833
65.695 41.887821
65.700 41.453461
65.705 40.898849
65.710 40.54472
65.715 40.485683
65.720 40.674107
65.725 40.845955
65.730 41.732815
65.735 42.490299
65.740 43.125546
65.745 42.81786
65.750 42.197506
65.755 41.995674
65.760 41.69331
65.765 40.979103
65.770 41.372566
65.775 41.821381
65.780 42.144276
65.785 41.946667
65.790 42.077129
65.795 42.562096
65.800 41.893459
65.805 41.433575
65.810 40.555553
65.815 40.151665
65.820 40.161461
65.825 39.434494
65.830 39.701042
65.835 40.128689
65.840 39.367554
65.845 39.870758
65.850 40.272549
65.855 40.945435
65.860 41.404591
65.865 41.799431
65.870 41.972279
65.875 41.477726
65.880 40.977875
65.885 40.407463
65.890 40.26096
65.895 39.688889
65.900 39.020023
65.905 38.558178
65.910 38.725224
65.915 38.756035
65.920 38.879372
65.925 37.856277
65.930 36.989681
65.935 35.981453
65.940 35.278503
65.945 34.953655
65.950 34.958179
65.955 35.120659
65.960 35.209312
65.965 35.673649
65.970 36.36874
65.975 36.718575
65.980 36.856869
65.985 36.243732
65.990 35.225014
65.995 34.878403
66.000 34.747875
66.005 34.540058
66.010 34.005638
66.015 33.864079
66.020 33.59243
66.025 33.58115
66.030 33.044399
66.035 32.202095
66.040 32.168922
66.045 32.266525
66.050 32.246441
66.055 31.982897
66.060 31.313177
66.065 30.755798
66.070 29.210806
66.075 28.93788
66.080 28.665628
66.085 28.327673
66.090 27.973009
66.095 27.798092
66.100 27.908787
66.105 28.376556
66.110 27.256067
66.115 26.383121
66.120 26.687092
66.125 27.266901
66.130 27.287992
66.135 27.027653
66.140 26.559439
66.145 26.729168
66.150 27.134071
66.155 26.296654
66.160 25.786753
66.165 25.68041
66.170 25.019262
66.175 25.432816
66.180 25.505955
66.185 24.894657
66.190 24.624109
66.195 24.398212
66.200 23.832119
66.205 23.873657
66.210 23.26791
66.215 22.739859
66.220 22.536123
66.225 22.558146
66.230 22.776621
66.235 23.408314
66.240 23.643917
66.245 23.508297
66.250 23.908587
66.255 24.000566
66.260 23.153257
66.265 22.546608
66.270 22.076103
66.275 21.285307
66.280 21.394653
66.285 20.852345
66.290 20.725889
66.295 21.166838
66.300 20.832214
66.305 20.676804
66.310 21.402679
66.315 21.170229
66.320 21.396587
66.325 21.66991
66.330 21.218737
66.335 20.938862
66.340 20.528635
66.345 19.914106
66.350 19.515442
66.355 19.201086
66.360 19.089504
66.365 19.604736
66.370 19.959791
66.375 19.876595
66.380 20.200712
66.385 20.104763
66.390 20.110247
66.395 20.086618
66.400 19.962427
66.405 19.409775
66.410 19.257483
66.415 18.929571
66.420 19.193815
66.425 19.025434
66.430 18.994444
66.435 18.643398
66.440 18.977894
66.445 18.716179
66.450 18.53558
66.455 19.020445
66.460 18.745975
66.465 18.583731
66.470 18.59849
66.475 18.674086
66.480 19.512953
66.485 19.717134
66.490 19.587317
66.495 19.996342
66.500 19.738947
66.505 19.720036
66.510 19.289026
66.515 19.088366
66.520 18.782354
66.525 18.655855
66.530 18.322149
66.535 18.157227
66.540 18.493055
66.545 18.591291
66.550 17.959843
66.555 18.075617
66.560 17.844816
66.565 18.048172
66.570 18.696209
66.575 18.470854
66.580 18.518633
66.585 19.227848
66.590 19.2605
66.595 19.476143
66.600 19.039068
66.605 18.414597
66.610 18.228014
66.615 17.765451
66.620 17.645483
66.625 17.879015
66.630 17.382458
66.635 16.956583
66.640 16.903471
66.645 16.894121
66.650 16.603067
66.655 15.674202
66.660 14.961291
66.665 15.011099
66.670 15.213894
66.675 15.135069
66.680 15.323699
66.685 15.772661
66.690 16.587307
66.695 16.8585
66.700 17.126413
66.705 17.563511
66.710 17.655701
66.715 17.75539
66.720 17.585871
66.725 17.770971
66.730 18.128147
66.735 18.963266
66.740 19.160633
66.745 19.468933
66.750 19.425816
66.755 19.422119
66.760 19.56568
66.765 19.451061
66.770 19.109751
66.775 18.739656
66.780 18.838663
66.785 19.384613
66.790 19.667173
66.795 19.007221
66.800 18.342714
66.805 18.120739
66.810 18.165384
66.815 17.818731
66.820 17.430761
66.825 17.409321
66.830 18.17487
66.835 18.740805
66.840 19.122265
66.845 19.096853
66.850 19.003775
66.855 18.632664
66.860 18.273777
66.865 18.4608
66.870 17.971775
66.875 17.426794
66.880 17.179056
66.885 16.980244
66.890 17.183107
66.895 17.387281
66.900 17.378824
66.905 17.703751
66.910 18.239273
66.915 18.765512
66.920 19.071051
66.925 19.326094
66.930 19.143951
66.935 18.852007
66.940 18.671671
66.945 18.554731
66.950 19.019388
66.955 18.938757
66.960 18.621626
66.965 19.248327
66.970 19.179533
66.975 19.177086
66.980 19.358541
66.985 18.745583
66.990 18.754314
66.995 19.037373
67.000 18.704006
67.005 18.517618
67.010 18.685898
67.015 18.314959
67.020 18.725386
67.025 19.001078
67.030 18.589481
67.035 18.792725
67.040 18.976917
67.045 18.869793
67.050 18.631496
67.055 18.364628
67.060 17.942125
67.065 17.74992
67.070 17.066536
67.075 16.864397
67.080 16.458527
67.085 16.604599
67.090 16.905729
67.095 16.97121
67.100 17.346537
67.105 17.0434
67.110 16.502796
67.115 17.027264
67.120 17.30831
67.125 17.342194
67.130 17.104231
67.135 17.005676
67.140 17.691809
67.145 18.335157
67.150 18.156895
67.155 17.932606
67.160 18.188984
67.165 18.496796
67.170 18.611713
67.175 18.508509
67.180 18.349796
67.185 18.315989
67.190 18.304026
67.195 18.151655
67.200 18.339333
67.205 18.488958
67.210 19.121811
67.215 19.290056
67.220 19.740654
67.225 19.94747
67.230 19.765522
67.235 19.5056
67.240 19.474089
67.245 18.931831
67.250 18.870409
67.255 18.405375
67.260 18.275131
67.265 18.324579
67.270 18.446821
67.275 18.733109
67.280 18.74909
67.285 18.400072
67.290 18.291716
67.295 17.922106
67.300 18.206282
67.305 18.141609
67.310 17.577091
67.315 17.048479
67.320 17.395592
67.325 17.503374
67.330 18.12195
67.335 18.205727
67.340 17.947987
67.345 18.372816
67.350 18.587681
67.355 18.295082
67.360 17.636913
67.365 16.454542
67.370 16.562132
67.375 16.723291
67.380 16.306412
67.385 16.045734
67.390 16.548668
67.395 17.574196
67.400 17.629904
67.405 17.128502
67.410 17.073719
67.415 17.484278
67.420 18.076981
67.425 17.681265
67.430 17.083082
67.435 17.565845
67.440 17.32572
67.445 16.879063
67.450 16.467112
67.455 15.947593
67.460 16.390783
67.465 16.364256
67.470 16.2915
67.475 16.794044
67.480 17.021513
67.485 17.613228
67.490 18.4697
67.495 18.535204
67.500 19.443699
67.505 19.42819
67.510 19.262266
67.515 19.245033
67.520 18.935976
67.525 18.31023
67.530 18.196177
67.535 18.224623
67.540 18.572893
67.545 18.420578
67.550 18.609968
67.555 19.12842
67.560 19.253668
67.565 19.154177
67.570 18.857794
67.575 18.890669
67.580 19.306904
67.585 19.270693
67.590 19.173933
67.595 19.530142
67.600 19.300858
67.605 18.956207
67.610 18.768831
67.615 18.266035
67.620 18.378109
67.625 18.465845
67.630 18.414268
67.635 18.790672
67.640 18.612118
67.645 18.623541
67.650 18.825544
67.655 18.633846
67.660 18.517494
67.665 18.248892
67.670 18.225039
67.675 18.312042
67.680 19.020512
67.685 19.812658
67.690 19.508366
67.695 18.770273
67.700 18.819727
67.705 18.518581
67.710 18.422569
67.715 17.822071
67.720 17.073414
67.725 16.856659
67.730 16.967211
67.735 17.057011
67.740 17.899069
67.745 18.447121
67.750 18.357256
67.755 18.234932
67.760 18.258884
67.765 18.118168
67.770 17.61137
67.775 16.958534
67.780 16.224085
67.785 16.021347
67.790 16.217867
67.795 16.296675
67.800 16.108616
67.805 15.932125
67.810 16.130188
67.815 16.725183
67.820 17.215273
67.825 17.172688
67.830 17.851665
67.835 18.552416
67.840 18.750566
67.845 18.071018
67.850 17.605127
67.855 17.232519
67.860 17.32015
67.865 17.408649
67.870 17.661301
67.875 18.215342
67.880 18.874807
67.885 18.683308
67.890 18.899172
67.895 18.858847
67.900 19.382675
67.905 19.79637
67.910 20.004681
67.915 20.437647
67.920 20.752003
67.925 20.692753
67.930 20.586695
67.935 19.282291
67.940 18.941021
67.945 19.145157
67.950 18.629845
67.955 18.756348
67.960 18.732161
67.965 18.748974
67.970 19.574152
67.975 19.600437
67.980 19.433956
67.985 19.813263
67.990 19.814222
67.995 20.03643
68.000 19.786131
68.005 19.364021
68.010 19.066795
68.015 18.626583
68.020 18.561018
68.025 18.179964
68.030 17.598986
68.035 17.732124
68.040 17.479267
68.045 17.188637
68.050 17.293324
68.055 17.370346
68.060 17.505058
68.065 17.764008
68.070 17.847242
68.075 17.540308
68.080 17.293081
68.085 17.401033
68.090 17.131481
68.095 17.434336
68.100 17.679327
68.105 17.298143
68.110 17.558386
68.115 17.430449
68.120 17.60849
68.125 18.128458
68.130 17.766813
68.135 17.029036
68.140 17.024263
68.145 16.814814
68.150 17.270172
68.155 17.155577
68.160 17.278475
68.165 17.978727
68.170 18.446722
68.175 18.935577
68.180 19.383276
68.185 19.485468
68.190 19.279922
68.195 19.147203
68.200 18.997559
68.205 19.126497
68.210 19.303589
68.215 19.623928
68.220 19.461168
68.225 19.676598
68.230 19.813148
68.235 19.427053
68.240 19.06336
68.245 18.33061
68.250 17.984274
68.255 18.797792
68.260 19.068882
68.265 19.418344
68.270 19.982834
68.275 20.627703
68.280 20.701046
68.285 20.659027
68.290 19.428715
68.295 18.375729
68.300 18.181524
68.305 18.175785
68.310 17.906414
68.315 18.631414
68.320 18.256584
68.325 18.339556
68.330 18.267546
68.335 18.347229
68.340 18.010267
68.345 18.315908
68.350 18.354275
68.355 19.155291
68.360 20.216223
68.365 20.768541
68.370 21.038774
68.375 21.045897
68.380 20.762726
68.385 20.574883
68.390 19.959574
68.395 19.231718
68.400 18.839352
68.405 18.608181
68.410 18.670444
68.415 19.553949
68.420 19.748253
68.425 19.584547
68.430 19.488787
68.435 19.834206
68.440 20.191235
68.445 20.318279
68.450 19.610868
68.455 19.685324
68.460 19.55575
68.465 19.386721
68.470 18.907192
68.475 18.422457
68.480 18.446901
68.485 18.741993
68.490 19.396563
68.495 20.324821
68.500 20.76918
68.505 20.53677
68.510 20.509613
68.515 20.297253
68.520 19.814358
68.525 19.554522
68.530 19.489056
68.535 19.939987
68.540 19.946236
68.545 19.831171
68.550 20.153725
68.555 20.147465
68.560 19.904974
68.565 19.796637
68.570 19.683474
68.575 20.002029
68.580 20.132246
68.585 20.225828
68.590 20.726408
68.595 21.07597
68.600 21.310123
68.605 21.7148
68.610 22.159452
68.615 22.503323
68.620 22.035439
68.625 20.806921
68.630 20.874453
68.635 20.773857
68.640 20.790487
68.645 21.017841
68.650 21.332975
68.655 22.27899
68.660 23.778704
68.665 24.168447
68.670 24.262449
68.675 24.429605
68.680 24.612692
68.685 24.60704
68.690 24.536261
68.695 23.967796
68.700 23.295088
68.705 23.50082
68.710 23.713312
68.715 23.812826
68.720 23.811522
68.725 24.612225
68.730 25.57069
68.735 26.680233
68.740 27.256239
68.745 27.604303
68.750 27.918623
68.755 27.646732
68.760 28.039486
68.765 29.165039
68.770 29.490191
68.775 29.93239
68.780 30.499788
68.785 30.918449
68.790 31.868523
68.795 31.756382
68.800 31.031261
68.805 30.84305
68.810 30.789883
68.815 30.7726
68.820 30.978388
68.825 30.648884
68.830 31.880915
68.835 32.886265
68.840 34.051903
68.845 34.728622
68.850 35.320229
68.855 35.94339
68.860 35.891224
68.865 35.346416
68.870 34.557636
68.875 34.683125
68.880 35.235462
68.885 35.175182
68.890 35.34462
68.895 35.74633
68.900 36.043842
68.905 36.917637
68.910 36.205204
68.915 35.608135
68.920 35.963676
68.925 36.434719
68.930 36.924122
68.935 37.600834
68.940 37.839184
68.945 37.228127
68.950 36.709404
68.955 36.575054
68.960 36.077991
68.965 36.420338
68.970 36.805328
68.975 37.187149
68.980 38.016685
68.985 38.687363
68.990 38.540527
68.995 38.538677
69.000 38.546749
69.005 37.735439
69.010 37.031807
69.015 37.449501
69.020 37.787598
69.025 38.21093
69.030 38.282806
69.035 37.159302
69.040 37.406879
69.045 37.550335
69.050 37.054485
69.055 36.947823
69.060 37.130112
69.065 37.057232
69.070 37.640823
69.075 37.294563
69.080 37.020638
69.085 37.190186
69.090 36.7799
69.095 37.255089
69.100 38.448975
69.105 38.874691
69.110 38.602543
69.115 39.003708
69.120 38.411381
69.125 37.931973
69.130 36.810055
69.135 35.349041
69.140 33.595474
69.145 33.398998
69.150 32.49382
69.155 32.49789
69.160 32.335918
69.165 32.701035
69.170 33.618095
69.175 34.417839
69.180 34.641209
69.185 35.361027
69.190 34.479156
69.195 34.399498
69.200 33.744858
69.205 33.390537
69.210 32.436363
69.215 31.781507
69.220 31.617355
69.225 31.738729
69.230 31.331432
69.235 30.876299
69.240 30.428476
69.245 30.511463
69.250 29.939594
69.255 29.704529
69.260 29.983208
69.265 29.802116
69.270 29.827284
69.275 29.938667
69.280 29.935661
69.285 29.617966
69.290 28.748375
69.295 27.831289
69.300 27.568005
69.305 26.987875
69.310 27.331177
69.315 27.365065
69.320 27.515577
69.325 27.515587
69.330 27.098141
69.335 26.75481
69.340 26.217808
69.345 25.262051
69.350 24.70656
69.355 24.807913
69.360 25.496357
69.365 26.118639
69.370 25.85837
69.375 25.157869
69.380 24.731672
69.385 23.833918
69.390 23.012804
69.395 22.329567
69.400 22.616726
69.405 23.557289
69.410 23.547087
69.415 22.903315
69.420 23.099878
69.425 23.07416
69.430 23.107893
69.435 22.683975
69.440 22.697565
69.445 23.14715
69.450 23.05764
69.455 23.233038
69.460 23.471422
69.465 22.666641
69.470 22.18552
69.475 21.87875
69.480 22.108522
69.485 22.22217
69.490 21.802977
69.495 21.643278
69.500 22.599329
69.505 22.682291
69.510 22.61323
69.515 22.723572
69.520 22.176531
69.525 22.007517
69.530 21.569788
69.535 20.628374
69.540 20.860008
69.545 20.395338
69.550 20.421743
69.555 20.750135
69.560 21.096693
69.565 21.248438
69.570 21.279913
69.575 20.633512
69.580 20.287413
69.585 20.003407
69.590 19.964598
69.595 20.185749
69.600 20.024063
69.605 20.189943
69.610 20.793846
69.615 20.644548
69.620 20.683838
69.625 20.420576
69.630 20.313202
69.635 21.187769
69.640 21.832493
69.645 21.797676
69.650 21.835419
69.655 21.305748
69.660 21.196154
69.665 20.250254
69.670 19.732525
69.675 19.663706
69.680 19.766077
69.685 20.169573
69.690 20.428467
69.695 21.003063
69.700 21.537853
69.705 20.68996
69.710 19.70998
69.715 19.76829
69.720 20.359249
69.725 20.878252
69.730 20.211014
69.735 19.872524
69.740 20.27607
69.745 20.767208
69.750 20.442003
69.755 19.843233
69.760 19.57847
69.765 19.447643
69.770 19.472675
69.775 19.207697
69.780 18.927439
69.785 18.514835
69.790 18.040609
69.795 17.866224
69.800 18.591848
69.805 19.074499
69.810 19.526989
69.815 19.728828
69.820 20.112143
69.825 20.47751
69.830 20.890238
69.835 20.202929
69.840 19.297409
69.845 18.65477
69.850 18.27228
69.855 18.111639
69.860 18.125322
69.865 17.823885
69.870 17.575186
69.875 17.920511
69.880 18.159018
69.885 18.110111
69.890 18.175911
69.895 17.845684
69.900 17.730122
69.905 17.912905
69.910 18.325033
69.915 18.129427
69.920 18.296705
69.925 18.121572
69.930 17.913078
69.935 17.952444
69.940 17.960728
69.945 17.786493
69.950 17.814375
69.955 17.889174
69.960 17.908974
69.965 18.09936
69.970 17.927843
69.975 17.623528
69.980 17.109184
69.985 17.177876
69.990 17.007122
69.995 16.741671
70.000 16.089727
70.005 16.084301
70.010 16.107086
70.015 16.504889
70.020 16.605713
70.025 16.721586
70.030 17.170469
70.035 17.713802
70.040 17.526943
70.045 17.220638
70.050 16.863344
70.055 16.699366
70.060 16.950972
70.065 16.741106
70.070 16.771803
70.075 17.612442
70.080 18.237513
70.085 18.511684
70.090 18.692675
70.095 18.489128
70.100 18.1413
70.105 18.00235
70.110 17.881287
70.115 17.532608
70.120 17.667175
70.125 17.170374
70.130 17.848759
70.135 18.804356
70.140 18.88113
70.145 19.105003
70.150 19.74444
70.155 19.31303
70.160 19.202986
70.165 18.420021
70.170 17.303019
70.175 17.358389
70.180 16.566725
70.185 16.399727
70.190 16.969454
70.195 17.354382
70.200 18.119543
70.205 18.942024
70.210 19.191044
70.215 19.2665
70.220 19.255325
70.225 18.655785
70.230 18.413099
70.235 18.282194
70.240 17.693813
70.245 17.524143
70.250 17.662247
70.255 17.677588
70.260 18.279638
70.265 18.212214
70.270 17.77356
70.275 17.543804
70.280 17.691019
70.285 17.980839
70.290 17.943083
70.295 17.771402
70.300 17.985086
70.305 18.124722
70.310 18.712339
70.315 18.184973
70.320 18.311903
70.325 18.223707
70.330 18.165646
70.335 18.124168
70.340 18.501989
70.345 18.902494
70.350 18.851044
70.355 18.447763
70.360 18.387188
70.365 18.732597
70.370 19.051855
70.375 18.77903
70.380 18.507221
70.385 18.898108
70.390 19.117701
70.395 19.379875
70.400 19.16692
70.405 18.70034
70.410 18.391964
70.415 17.419485
70.420 17.466818
70.425 17.517448
70.430 17.148878
70.435 17.106297
70.440 17.618572
70.445 18.267776
70.450 18.52284
70.455 18.060841
70.460 17.857641
70.465 17.966698
70.470 17.645882
70.475 17.047888
70.480 16.886383
70.485 17.372904
70.490 18.050894
70.495 18.206341
70.500 18.492899
70.505 18.376352
70.510 18.358828
70.515 18.575249
70.520 18.319891
70.525 18.108873
70.530 18.245651
70.535 18.27067
70.540 18.853428
70.545 19.16857
70.550 19.764235
70.555 19.808947
70.560 19.370684
70.565 19.610964
70.570 19.358664
70.575 19.232956
70.580 18.740137
70.585 18.042543
70.590 18.095348
70.595 18.505678
70.600 18.34705
70.605 18.744375
70.610 18.573048
70.615 18.814123
70.620 19.243837
70.625 19.045322
70.630 19.068605
70.635 18.386288
70.640 17.611734
70.645 17.119801
70.650 16.248785
70.655 15.726942
70.660 15.373169
70.665 14.60666
70.670 14.70785
70.675 14.774958
70.680 14.645151
70.685 15.286887
70.690 15.31729
70.695 15.321524
70.700 15.576352
70.705 15.906505
70.710 16.878809
70.715 17.787754
70.720 18.092812
70.725 17.892624
70.730 18.181314
70.735 18.327675
70.740 17.992388
70.745 17.325556
70.750 16.691065
70.755 16.148556
70.760 16.395456
70.765 16.641699
70.770 16.917501
70.775 16.977777
70.780 17.323597
70.785 17.368553
70.790 18.059225
70.795 18.111099
70.800 17.700905
70.805 17.213943
70.810 17.178228
70.815 17.303265
70.820 17.774393
70.825 17.04837
70.830 17.448204
70.835 17.605879
70.840 17.69878
70.845 17.434013
70.850 17.440861
70.855 17.512144
70.860 17.391367
70.865 17.135458
70.870 17.718138
70.875 18.196266
70.880 18.340881
70.885 18.253996
70.890 18.466974
70.895 18.47905
70.900 18.165289
70.905 17.289146
70.910 16.989573
70.915 17.528925
70.920 17.331522
70.925 17.157648
70.930 17.447229
70.935 18.186838
70.940 18.671263
70.945 18.513714
70.950 18.500626
70.955 18.551392
70.960 17.878761
70.965 17.635027
70.970 17.568151
70.975 17.586054
70.980 17.78727
70.985 17.778639
70.990 18.190254
70.995 18.31308
71.000 17.73822
71.005 17.313042
71.010 17.032761
71.015 17.045578
71.020 17.073256
71.025 17.057663
71.030 17.5373
71.035 17.309484
71.040 17.259056
71.045 17.236259
71.050 16.945271
71.055 17.089712
71.060 17.117741
71.065 17.226801
71.070 17.470989
71.075 17.580353
71.080 17.421688
71.085 17.233349
71.090 16.867659
71.095 16.883081
71.100 16.761448
71.105 16.832726
71.110 17.09804
71.115 17.37443
71.120 18.175898
71.125 18.192154
71.130 18.650856
71.135 19.222664
71.140 19.352852
71.145 18.754549
71.150 18.409849
71.155 18.109396
71.160 17.990889
71.165 17.622841
71.170 17.779037
71.175 18.317148
71.180 18.842674
71.185 18.993002
71.190 19.147612
71.195 18.859644
71.200 18.735395
71.205 18.511421
71.210 18.72703
71.215 18.77247
71.220 18.356905
71.225 18.60074
71.230 19.445967
71.235 18.981308
71.240 18.129337
71.245 17.075787
71.250 16.823359
71.255 17.071438
71.260 16.673773
71.265 16.682869
71.270 17.499655
71.275 18.206299
71.280 18.35675
71.285 18.548935
71.290 18.647432
71.295 18.861685
71.300 17.761871
71.305 17.984585
71.310 17.77832
71.315 17.880262
71.320 18.162741
71.325 17.852596
71.330 18.090496
71.335 18.566593
71.340 18.549685
71.345 19.075102
71.350 18.701601
71.355 18.65839
71.360 18.630611
71.365 18.780226
71.370 17.813227
71.375 17.438829
71.380 17.779013
71.385 18.366364
71.390 18.216303
71.395 17.612226
71.400 17.971607
71.405 18.525255
71.410 18.360817
71.415 18.382584
71.420 18.323851
71.425 18.741425
71.430 18.872849
71.435 18.63196
71.440 18.761618
71.445 18.616692
71.450 18.761545
71.455 18.837072
71.460 18.643848
71.465 18.74836
71.470 18.531309
71.475 18.58275
71.480 18.620625
71.485 18.503281
71.490 18.615034
71.495 18.952999
71.500 19.568598
71.505 19.858601
71.510 19.690332
71.515 19.82221
71.520 19.680475
71.525 19.46269
71.530 18.711201
71.535 17.627502
71.540 17.354055
71.545 17.741001
71.550 17.061562
71.555 16.184805
71.560 15.693461
71.565 16.034929
71.570 17.162642
71.575 16.892002
71.580 17.027817
71.585 18.128281
71.590 18.744068
71.595 19.182613
71.600 19.169184
71.605 19.566622
71.610 19.670832
71.615 19.324402
71.620 18.636784
71.625 18.465612
71.630 18.162169
71.635 17.813944
71.640 17.340981
71.645 17.607975
71.650 17.225636
71.655 17.313419
71.660 17.297585
71.665 16.97434
71.670 16.794781
71.675 17.001192
71.680 17.035219
71.685 17.092598
71.690 17.188753
71.695 18.024359
71.700 17.999361
71.705 17.820827
71.710 17.569492
71.715 17.850796
71.720 18.165234
71.725 18.196625
71.730 17.973965
71.735 18.833731
71.740 19.109734
71.745 18.233341
71.750 18.258795
71.755 18.104099
71.760 17.894854
71.765 18.035604
71.770 17.597099
71.775 17.726719
71.780 18.191021
71.785 18.463327
71.790 18.02297
71.795 17.718874
71.800 17.455458
71.805 17.244175
71.810 17.392317
71.815 16.809965
71.820 16.604298
71.825 16.380836
71.830 16.739538
71.835 17.02161
71.840 17.358219
71.845 17.316185
71.850 17.514448
71.855 17.068802
71.860 17.243109
71.865 16.891073
71.870 16.354015
71.875 16.151634
71.880 16.506689
71.885 16.466368
71.890 16.616943
71.895 16.819109
71.900 16.720789
71.905 16.850294
71.910 16.346123
71.915 15.983612
71.920 16.605818
71.925 17.258636
71.930 17.498955
71.935 17.203564
71.940 17.542311
71.945 17.856806
71.950 18.51335
71.955 18.056398
71.960 17.50878
71.965 17.60985
71.970 18.050591
71.975 18.100142
71.980 18.375347
71.985 17.850605
71.990 17.486809
71.995 17.524059
72.000 17.000854
72.005 17.004961
72.010 16.150473
72.015 15.360983
72.020 15.858185
72.025 16.081621
72.030 16.321209
72.035 16.487303
72.040 17.104391
72.045 17.776052
72.050 18.103045
72.055 18.090561
72.060 17.789421
72.065 17.708073
72.070 17.504776
72.075 16.985369
72.080 17.294081
72.085 17.38032
72.090 17.21768
72.095 16.980604
72.100 16.700363
72.105 16.917902
72.110 17.33815
72.115 17.164255
72.120 17.407799
72.125 17.714825
72.130 17.86388
72.135 18.006847
72.140 17.485435
72.145 16.982033
72.150 16.369942
72.155 16.306824
72.160 16.935699
72.165 17.061619
72.170 17.755693
72.175 17.909224
72.180 17.882299
72.185 17.669014
72.190 17.12142
72.195 16.655748
72.200 16.546734
72.205 16.254921
72.210 15.967481
72.215 16.592318
72.220 16.808317
72.225 17.051329
72.230 16.994127
72.235 17.316616
72.240 17.45521
72.245 18.089338
72.250 18.359257
72.255 18.631599
72.260 19.255329
72.265 19.531565
72.270 19.086361
72.275 18.75124
72.280 18.502399
72.285 18.848167
72.290 19.061653
72.295 18.352346
72.300 17.99222
72.305 18.151375
72.310 18.542849
72.315 18.347879
72.320 17.555948
72.325 17.373011
72.330 17.268353
72.335 17.880566
72.340 17.324913
72.345 16.802233
72.350 17.255306
72.355 17.402939
72.360 17.785433
72.365 18.276131
72.370 18.665159
72.375 19.503706
72.380 20.11883
72.385 19.328148
72.390 19.295816
72.395 19.079069
72.400 18.70821
72.405 18.571955
72.410 18.094313
72.415 17.7731
72.420 18.147259
72.425 17.846092
72.430 17.846819
72.435 17.960188
72.440 17.872236
72.445 17.695135
72.450 17.89469
72.455 17.371635
72.460 17.278141
72.465 16.54883
72.470 15.940459
72.475 15.929122
72.480 16.266893
72.485 16.986822
72.490 16.881695
72.495 16.741955
72.500 16.826969
72.505 16.62397
72.510 16.419756
72.515 15.905333
72.520 15.60192
72.525 15.936232
72.530 16.22072
72.535 16.949492
72.540 17.117094
72.545 16.98805
72.550 16.921583
72.555 16.919884
72.560 17.157213
72.565 17.543295
72.570 17.092447
72.575 17.118101
72.580 17.461794
72.585 17.766788
72.590 17.333132
72.595 16.788868
72.600 16.591751
72.605 16.658201
72.610 16.367329
72.615 15.737799
72.620 14.61319
72.625 14.821212
72.630 15.137321
72.635 15.481633
72.640 15.686984
72.645 15.838695
72.650 15.930795
72.655 16.521805
72.660 16.125666
72.665 16.04221
72.670 15.824186
72.675 15.589414
72.680 15.69445
72.685 15.340226
72.690 15.517436
72.695 15.823145
72.700 15.399528
72.705 15.635418
72.710 16.021442
72.715 16.871237
72.720 17.360598
72.725 17.671724
72.730 17.614937
72.735 18.384775
72.740 18.530455
72.745 17.794989
72.750 16.902796
72.755 16.470295
72.760 16.47201
72.765 16.378914
72.770 15.862175
72.775 15.709745
72.780 15.510783
72.785 15.849668
72.790 15.408319
72.795 15.067279
72.800 14.952994
72.805 14.764056
72.810 14.876749
72.815 15.325085
72.820 15.524742
72.825 15.379177
72.830 15.377937
72.835 15.299083
72.840 14.812544
72.845 14.696113
72.850 15.293612
72.855 15.844443
72.860 16.070402
72.865 15.599046
72.870 16.048603
72.875 16.746021
72.880 16.749687
72.885 15.901282
72.890 16.073814
72.895 16.025621
72.900 16.245398
72.905 16.253998
72.910 15.997869
72.915 15.926228
72.920 16.27409
72.925 16.496752
72.930 16.973198
72.935 16.604078
72.940 16.5086
72.945 16.704088
72.950 16.395323
72.955 16.540165
72.960 16.53294
72.965 17.057955
72.970 17.143457
72.975 17.195757
72.980 17.575949
72.985 17.589361
72.990 16.924217
72.995 16.362761
73.000 16.058008
