!@!!GADDS PLOTSO FILE: Chi integration type
!@!!Title/SampleName: map-c0
!@!!Comment: ?
!@!!User: Bruker Instrument Administrator
!@!!Site: University of Illinois Chicago
!@!!Frame: map-c0_01_000.gfrm
!@!!Wavelengths    1.54184   1.54056   1.54439
!@!!Frame angles: 2Theta: 63.000 Omega: 50.000 Phi: 0.000 Chi: 90.000
!@!!Integration range: 2Theta: 53.000 to 73.000  Gamma: -105.000 to -75.000
!@!!Integration method: bin normalized
!@!N
!@!SS
!@!M
!@!L 0.0 0.0 0.0 0.0
!@!XDegrees
!@!YCounts
53.000 5.9344
53.005 6.13569
53.010 5.831494
53.015 5.676487
53.020 5.629397
53.025 5.52941
53.030 5.548909
53.035 5.595321
53.040 5.550854
53.045 5.745242
53.050 5.900812
53.055 5.72041
53.060 5.413485
53.065 5.470722
53.070 5.22772
53.075 4.866849
53.080 4.938709
53.085 4.73189
53.090 5.100693
53.095 5.125697
53.100 4.754546
53.105 5.161595
53.110 5.432927
53.115 5.763034
53.120 6.125676
53.125 5.82021
53.130 6.152221
53.135 6.371384
53.140 5.999982
53.145 5.887715
53.150 5.897863
53.155 5.934073
53.160 5.736794
53.165 5.607189
53.170 5.453931
53.175 5.974682
53.180 5.932643
53.185 5.955189
53.190 5.893293
53.195 5.828936
53.200 5.962465
53.205 5.853333
53.210 5.841889
53.215 6.311908
53.220 6.238242
53.225 6.356532
53.230 6.372047
53.235 6.212852
53.240 6.410124
53.245 6.413232
53.250 5.784196
53.255 5.779073
53.260 5.84118
53.265 5.970849
53.270 5.848269
53.275 5.67279
53.280 5.319437
53.285 5.598768
53.290 6.040481
53.295 6.023341
53.300 6.146884
53.305 6.340948
53.310 6.466788
53.315 6.274367
53.320 6.393303
53.325 6.212931
53.330 6.255846
53.335 6.150778
53.340 6.05193
53.345 6.365076
53.350 6.460536
53.355 6.179533
53.360 5.811442
53.365 6.064948
53.370 6.244841
53.375 6.017306
53.380 5.921557
53.385 6.035053
53.390 5.942569
53.395 6.046611
53.400 5.897461
53.405 6.293474
53.410 6.632794
53.415 6.721172
53.420 6.813237
53.425 6.881332
53.430 6.913473
53.435 6.784364
53.440 6.475067
53.445 6.355849
53.450 6.338637
53.455 6.289281
53.460 6.005771
53.465 5.918414
53.470 6.063335
53.475 6.468766
53.480 6.37494
53.485 6.243869
53.490 6.113695
53.495 6.206328
53.500 6.329528
53.505 5.79756
53.510 5.225851
53.515 5.111665
53.520 5.230485
53.525 5.798161
53.530 5.984028
53.535 5.97719
53.540 5.847826
53.545 5.855553
53.550 5.843051
53.555 6.036777
53.560 5.840502
53.565 5.713042
53.570 5.683757
53.575 6.116463
53.580 6.406177
53.585 6.59657
53.590 6.518532
53.595 6.264027
53.600 6.447005
53.605 6.305532
53.610 6.226471
53.615 6.438012
53.620 6.290233
53.625 6.058465
53.630 5.989687
53.635 6.340485
53.640 6.627813
53.645 6.467628
53.650 6.491738
53.655 6.45661
53.660 6.75597
53.665 6.70213
53.670 6.522349
53.675 6.622858
53.680 6.352549
53.685 6.140043
53.690 5.995296
53.695 6.035699
53.700 6.111397
53.705 6.13309
53.710 6.161393
53.715 6.48455
53.720 6.700625
53.725 6.797799
53.730 6.74388
53.735 6.614967
53.740 6.712248
53.745 6.652309
53.750 6.328278
53.755 6.183012
53.760 6.276606
53.765 6.394567
53.770 6.269858
53.775 6.127019
53.780 6.179491
53.785 6.329727
53.790 6.499263
53.795 5.975526
53.800 5.90823
53.805 5.732136
53.810 5.54904
53.815 5.391533
53.820 5.450499
53.825 5.622598
53.830 6.292743
53.835 6.310355
53.840 6.568173
53.845 7.070055
53.850 7.148591
53.855 6.932942
53.860 6.779796
53.865 6.586496
53.870 6.478483
53.875 6.067406
53.880 5.603452
53.885 5.665991
53.890 5.84538
53.895 6.168962
53.900 6.386917
53.905 6.671161
53.910 7.424863
53.915 7.378392
53.920 7.166125
53.925 6.859065
53.930 6.666776
53.935 6.453638
53.940 6.353887
53.945 6.140581
53.950 6.756158
53.955 7.207805
53.960 7.418051
53.965 7.396683
53.970 7.326695
53.975 7.412561
53.980 7.464366
53.985 6.885798
53.990 6.853479
53.995 6.921629
54.000 7.338969
54.005 7.610991
54.010 7.548753
54.015 7.544641
54.020 7.803029
54.025 7.827363
54.030 7.806508
54.035 7.94817
54.040 8.147771
54.045 7.843647
54.050 7.659369
54.055 7.606531
54.060 7.523203
54.065 6.93712
54.070 6.406427
54.075 6.021055
54.080 6.439077
54.085 6.442263
54.090 6.227149
54.095 6.435743
54.100 6.554725
54.105 6.625265
54.110 6.935373
54.115 7.040212
54.120 6.802329
54.125 7.019492
54.130 6.944339
54.135 7.709721
54.140 8.026109
54.145 7.581962
54.150 7.283192
54.155 7.25038
54.160 7.494887
54.165 7.527895
54.170 7.011137
54.175 6.89204
54.180 7.500713
54.185 7.879684
54.190 7.771053
54.195 7.579195
54.200 7.595816
54.205 7.671361
54.210 7.819353
54.215 7.518033
54.220 7.362222
54.225 7.630215
54.230 7.629493
54.235 7.916804
54.240 8.093834
54.245 7.699273
54.250 7.640194
54.255 7.720937
54.260 8.196125
54.265 8.39484
54.270 8.810518
54.275 8.681776
54.280 8.700756
54.285 8.396213
54.290 8.336524
54.295 7.93686
54.300 7.044263
54.305 6.470473
54.310 6.253542
54.315 6.598132
54.320 7.218027
54.325 7.2002
54.330 7.351627
54.335 7.604579
54.340 7.739183
54.345 7.660718
54.350 7.26063
54.355 7.100776
54.360 6.871898
54.365 6.646452
54.370 6.778704
54.375 6.676349
54.380 6.862107
54.385 7.018971
54.390 6.889455
54.395 7.165639
54.400 7.429809
54.405 7.16186
54.410 6.979727
54.415 6.558331
54.420 6.436106
54.425 6.612733
54.430 6.264856
54.435 6.09333
54.440 6.621143
54.445 7.272435
54.450 7.46759
54.455 7.301527
54.460 6.828749
54.465 6.929955
54.470 7.049578
54.475 6.737756
54.480 6.805237
54.485 7.065536
54.490 7.646189
54.495 8.138245
54.500 8.096091
54.505 8.062905
54.510 7.692536
54.515 7.580584
54.520 7.623438
54.525 7.454586
54.530 7.442346
54.535 7.230436
54.540 7.354891
54.545 7.492965
54.550 7.497206
54.555 7.538159
54.560 7.421688
54.565 7.807193
54.570 8.031768
54.575 7.927098
54.580 8.2661
54.585 8.31174
54.590 8.158219
54.595 7.852242
54.600 7.22023
54.605 6.830009
54.610 7.090416
54.615 6.707125
54.620 6.513843
54.625 6.046446
54.630 5.798011
54.635 5.724636
54.640 5.805542
54.645 5.954984
54.650 5.934625
54.655 6.203875
54.660 6.563591
54.665 6.598507
54.670 7.037639
54.675 6.900149
54.680 6.447442
54.685 6.351638
54.690 6.714998
54.695 7.271225
54.700 7.42307
54.705 7.07175
54.710 7.051025
54.715 7.087889
54.720 7.251593
54.725 6.704154
54.730 6.47167
54.735 6.846142
54.740 7.132498
54.745 7.506705
54.750 7.659787
54.755 7.722804
54.760 7.871675
54.765 8.045135
54.770 7.923292
54.775 7.889975
54.780 7.998168
54.785 8.09995
54.790 7.663285
54.795 7.213348
54.800 7.040751
54.805 7.349545
54.810 7.540375
54.815 7.502661
54.820 7.549346
54.825 8.05321
54.830 8.255716
54.835 8.185518
54.840 7.947493
54.845 7.913518
54.850 7.917518
54.855 7.803493
54.860 7.793812
54.865 8.10006
54.870 8.239684
54.875 8.076082
54.880 8.346372
54.885 8.393968
54.890 8.755787
54.895 9.26995
54.900 9.200798
54.905 9.204792
54.910 9.256783
54.915 9.151273
54.920 8.95662
54.925 8.415164
54.930 8.136499
54.935 7.883841
54.940 7.402423
54.945 7.106516
54.950 6.622816
54.955 6.566642
54.960 6.716866
54.965 6.841873
54.970 7.002351
54.975 7.31636
54.980 7.443929
54.985 7.389656
54.990 6.939632
54.995 6.511428
55.000 6.136596
55.005 6.517854
55.010 6.439727
55.015 6.704082
55.020 7.135195
55.025 7.541133
55.030 7.737911
55.035 7.857835
55.040 7.839797
55.045 8.064644
55.050 7.969777
55.055 7.814749
55.060 7.842716
55.065 8.138231
55.070 8.224247
55.075 8.115357
55.080 7.968412
55.085 8.14023
55.090 8.412706
55.095 8.547546
55.100 8.033951
55.105 8.534668
55.110 8.989113
55.115 9.280743
55.120 9.097557
55.125 9.087756
55.130 9.096036
55.135 9.168084
55.140 8.787493
55.145 8.286313
55.150 7.918717
55.155 8.221744
55.160 8.163573
55.165 8.4079
55.170 8.455532
55.175 8.532781
55.180 9.006126
55.185 9.361842
55.190 9.226822
55.195 8.965251
55.200 8.597847
55.205 8.183741
55.210 7.837053
55.215 7.815461
55.220 7.785325
55.225 7.625336
55.230 8.009185
55.235 8.15412
55.240 8.321951
55.245 7.94934
55.250 7.65009
55.255 7.149894
55.260 6.806714
55.265 6.851811
55.270 7.005929
55.275 7.146482
55.280 7.376037
55.285 7.224453
55.290 7.527429
55.295 7.555255
55.300 7.266207
55.305 7.340214
55.310 7.380196
55.315 7.328508
55.320 7.446197
55.325 7.445096
55.330 7.382367
55.335 7.149817
55.340 6.732404
55.345 6.560653
55.350 6.637709
55.355 6.683109
55.360 6.619272
55.365 6.770019
55.370 7.152194
55.375 7.615918
55.380 7.90023
55.385 7.995949
55.390 7.752541
55.395 7.882244
55.400 7.832984
55.405 7.899861
55.410 7.650371
55.415 7.484465
55.420 7.435743
55.425 7.389803
55.430 7.862028
55.435 8.22936
55.440 8.233633
55.445 8.327942
55.450 8.814801
55.455 9.181645
55.460 9.616881
55.465 9.307593
55.470 9.592535
55.475 9.511479
55.480 9.199804
55.485 9.098303
55.490 9.0414
55.495 8.933099
55.500 8.727944
55.505 8.216153
55.510 8.492484
55.515 8.417543
55.520 8.529214
55.525 8.564199
55.530 8.07317
55.535 8.006828
55.540 8.211567
55.545 8.456185
55.550 8.855373
55.555 8.947496
55.560 9.050061
55.565 9.363922
55.570 9.234131
55.575 8.976257
55.580 9.164124
55.585 8.790233
55.590 8.564538
55.595 8.338663
55.600 8.484656
55.605 9.045005
55.610 9.130492
55.615 8.735541
55.620 9.0819
55.625 9.210664
55.630 9.741609
55.635 9.920511
55.640 9.191853
55.645 9.067935
55.650 9.1146
55.655 8.844442
55.660 8.482886
55.665 8.200291
55.670 7.986785
55.675 8.010076
55.680 7.761305
55.685 7.487873
55.690 7.351398
55.695 7.451132
55.700 7.39704
55.705 7.848486
55.710 8.168221
55.715 8.386037
55.720 8.379758
55.725 8.729922
55.730 8.580958
55.735 8.226424
55.740 7.745285
55.745 7.888991
55.750 7.930901
55.755 8.007442
55.760 7.874906
55.765 8.276366
55.770 8.453542
55.775 8.723615
55.780 9.052079
55.785 9.292297
55.790 9.240455
55.795 9.367731
55.800 9.368101
55.805 9.381448
55.810 8.837732
55.815 8.193208
55.820 8.042377
55.825 7.795182
55.830 7.47471
55.835 7.691024
55.840 8.136611
55.845 8.710371
55.850 8.965703
55.855 9.413413
55.860 9.96958
55.865 10.139146
55.870 9.393307
55.875 9.195159
55.880 8.956839
55.885 8.460086
55.890 7.828241
55.895 7.618393
55.900 7.594376
55.905 8.022758
55.910 8.529908
55.915 8.527214
55.920 8.944826
55.925 9.393437
55.930 9.359003
55.935 9.501195
55.940 9.331802
55.945 9.010034
55.950 9.223385
55.955 9.059872
55.960 8.950085
55.965 9.085886
55.970 8.740348
55.975 8.737955
55.980 8.69961
55.985 8.596972
55.990 9.041659
55.995 8.737202
56.000 8.584625
56.005 8.939375
56.010 9.122693
56.015 8.884162
56.020 8.950226
56.025 8.619845
56.030 9.128153
56.035 9.430573
56.040 9.379955
56.045 9.261392
56.050 9.557848
56.055 9.824465
56.060 9.928631
56.065 9.509597
56.070 9.688555
56.075 9.530787
56.080 9.655372
56.085 9.15079
56.090 8.506995
56.095 8.408051
56.100 8.249385
56.105 8.222844
56.110 8.041883
56.115 7.761292
56.120 8.226174
56.125 8.382858
56.130 8.29674
56.135 8.24028
56.140 8.022817
56.145 8.101658
56.150 7.973809
56.155 7.996856
56.160 8.269174
56.165 8.519707
56.170 8.479299
56.175 8.25737
56.180 8.197738
56.185 8.157314
56.190 7.950098
56.195 7.761209
56.200 7.943155
56.205 7.818183
56.210 7.92198
56.215 8.814844
56.220 9.227035
56.225 9.512469
56.230 9.643748
56.235 9.583927
56.240 9.912639
56.245 9.862731
56.250 9.144238
56.255 9.044952
56.260 9.257607
56.265 9.543487
56.270 9.349593
56.275 9.131624
56.280 9.086497
56.285 9.218593
56.290 9.359632
56.295 9.071087
56.300 8.674175
56.305 9.433557
56.310 9.753039
56.315 9.994831
56.320 10.043051
56.325 9.792006
56.330 10.158108
56.335 10.338246
56.340 9.979981
56.345 9.942246
56.350 9.847148
56.355 9.715569
56.360 9.323671
56.365 8.8886
56.370 8.720175
56.375 8.691029
56.380 8.734871
56.385 8.851833
56.390 8.938249
56.395 8.612405
56.400 8.613728
56.405 8.598569
56.410 8.062891
56.415 7.707569
56.420 7.209527
56.425 7.481626
56.430 8.00437
56.435 7.898424
56.440 8.135937
56.445 8.660076
56.450 9.024017
56.455 9.019608
56.460 8.701054
56.465 8.499223
56.470 8.692883
56.475 8.706886
56.480 8.792867
56.485 8.89668
56.490 9.31511
56.495 9.265833
56.500 9.413029
56.505 9.441623
56.510 9.190853
56.515 8.897744
56.520 8.993228
56.525 8.962575
56.530 9.188213
56.535 9.368557
56.540 9.03988
56.545 9.226559
56.550 9.392821
56.555 9.427991
56.560 9.672704
56.565 9.702826
56.570 9.36113
56.575 9.508
56.580 9.207693
56.585 8.889396
56.590 8.875484
56.595 8.874274
56.600 8.716472
56.605 9.013756
56.610 9.297873
56.615 9.627922
56.620 9.741019
56.625 9.452337
56.630 9.228998
56.635 9.170628
56.640 8.8307
56.645 8.76435
56.650 8.578958
56.655 8.958544
56.660 8.738758
56.665 8.902897
56.670 9.769884
56.675 10.464092
56.680 10.607818
56.685 10.534799
56.690 10.184415
56.695 10.473746
56.700 10.210681
56.705 9.724686
56.710 9.123477
56.715 8.759568
56.720 8.691912
56.725 8.763324
56.730 9.214117
56.735 9.064588
56.740 8.968554
56.745 9.162006
56.750 9.93855
56.755 10.484483
56.760 10.852173
56.765 10.574315
56.770 10.600158
56.775 10.538101
56.780 10.930284
56.785 10.628179
56.790 10.334358
56.795 10.064818
56.800 10.341853
56.805 10.811098
56.810 10.780758
56.815 10.092843
56.820 9.60642
56.825 9.340492
56.830 9.247466
56.835 9.370546
56.840 9.415819
56.845 9.788834
56.850 10.38159
56.855 10.833622
56.860 10.800617
56.865 10.491583
56.870 9.89145
56.875 9.893227
56.880 9.783143
56.885 9.615111
56.890 9.437338
56.895 9.657942
56.900 9.597161
56.905 9.62624
56.910 9.682589
56.915 9.407196
56.920 9.385075
56.925 9.783845
56.930 9.776405
56.935 9.925537
56.940 10.010531
56.945 9.627075
56.950 9.570797
56.955 9.541961
56.960 9.733257
56.965 10.149815
56.970 10.039541
56.975 9.998065
56.980 10.520746
56.985 10.764724
56.990 10.689847
56.995 10.687916
57.000 10.442451
57.005 10.61339
57.010 10.628087
57.015 10.43586
57.020 10.28699
57.025 10.216747
57.030 9.897196
57.035 9.75913
57.040 9.84844
57.045 9.902291
57.050 9.751512
57.055 9.68162
57.060 9.47545
57.065 9.701837
57.070 9.637259
57.075 9.368749
57.080 9.395948
57.085 9.253093
57.090 9.332169
57.095 9.552606
57.100 9.736048
57.105 10.061666
57.110 10.414312
57.115 10.8771
57.120 11.123068
57.125 11.253652
57.130 11.155748
57.135 10.827119
57.140 10.759436
57.145 10.441072
57.150 9.722537
57.155 9.42204
57.160 9.089316
57.165 8.792827
57.170 8.568568
57.175 8.675905
57.180 9.135802
57.185 9.754726
57.190 10.702006
57.195 10.962555
57.200 11.32231
57.205 11.863877
57.210 11.586526
57.215 11.597982
57.220 11.160879
57.225 10.641032
57.230 10.853558
57.235 10.977463
57.240 11.202691
57.245 11.052559
57.250 10.788617
57.255 11.158232
57.260 10.979058
57.265 10.706554
57.270 10.519339
57.275 10.078365
57.280 10.3743
57.285 10.948299
57.290 10.824432
57.295 11.347098
57.300 11.628348
57.305 11.736159
57.310 11.863535
57.315 11.86281
57.320 11.332067
57.325 11.321808
57.330 11.466328
57.335 11.417899
57.340 11.359683
57.345 11.684421
57.350 12.361004
57.355 12.666861
57.360 12.137963
57.365 11.425633
57.370 11.17402
57.375 10.972572
57.380 10.434159
57.385 9.906264
57.390 10.128992
57.395 10.968679
57.400 10.789578
57.405 10.622477
57.410 10.337281
57.415 10.300459
57.420 10.118618
57.425 10.215559
57.430 9.881186
57.435 10.18508
57.440 10.585505
57.445 11.208448
57.450 11.537832
57.455 11.351637
57.460 11.125896
57.465 11.058978
57.470 11.157354
57.475 11.14281
57.480 10.44875
57.485 10.235173
57.490 10.467946
57.495 10.294169
57.500 10.245343
57.505 10.084372
57.510 10.068559
57.515 10.417912
57.520 10.225928
57.525 10.097022
57.530 10.7913
57.535 11.183984
57.540 11.284892
57.545 11.513726
57.550 11.567535
57.555 12.040325
57.560 11.97662
57.565 12.069715
57.570 11.73469
57.575 11.762552
57.580 11.679659
57.585 11.941622
57.590 11.927982
57.595 11.826247
57.600 11.520018
57.605 11.349062
57.610 11.048059
57.615 11.083323
57.620 10.94107
57.625 10.865784
57.630 10.488586
57.635 10.693425
57.640 10.78435
57.645 10.798445
57.650 10.78239
57.655 10.963931
57.660 11.01639
57.665 10.738278
57.670 10.551348
57.675 11.168915
57.680 11.25604
57.685 11.072769
57.690 10.810823
57.695 11.235757
57.700 11.539328
57.705 11.152508
57.710 10.734197
57.715 10.703061
57.720 10.496549
57.725 9.917707
57.730 9.650959
57.735 9.780377
57.740 9.866671
57.745 10.098173
57.750 10.314856
57.755 10.733519
57.760 11.331746
57.765 11.153005
57.770 11.448689
57.775 11.588045
57.780 11.66799
57.785 11.793511
57.790 11.735259
57.795 11.318306
57.800 11.033941
57.805 10.665244
57.810 10.53965
57.815 10.060094
57.820 9.994037
57.825 9.765071
57.830 9.955363
57.835 10.809232
57.840 10.900387
57.845 11.00927
57.850 11.187021
57.855 10.934017
57.860 11.508714
57.865 11.763913
57.870 11.506969
57.875 11.505235
57.880 11.297052
57.885 10.984669
57.890 10.993597
57.895 10.282661
57.900 10.239403
57.905 10.384406
57.910 10.561133
57.915 11.096864
57.920 11.42935
57.925 11.632863
57.930 11.76966
57.935 12.248686
57.940 12.128605
57.945 11.924823
57.950 11.848263
57.955 11.772549
57.960 11.564606
57.965 11.626325
57.970 10.971708
57.975 11.373126
57.980 11.387294
57.985 11.179795
57.990 11.142626
57.995 11.162231
58.000 11.714122
58.005 11.868764
58.010 11.351756
58.015 11.424912
58.020 11.190155
58.025 11.354789
58.030 11.576718
58.035 11.296392
58.040 11.685469
58.045 12.00525
58.050 12.336778
58.055 12.921675
58.060 12.978231
58.065 12.99218
58.070 13.078546
58.075 13.513514
58.080 13.653932
58.085 13.713404
58.090 13.800415
58.095 13.61694
58.100 13.477911
58.105 13.402951
58.110 13.720328
58.115 13.901361
58.120 13.63335
58.125 13.827784
58.130 13.509549
58.135 13.101248
58.140 12.65232
58.145 11.75113
58.150 11.245699
58.155 11.167776
58.160 10.861314
58.165 11.477983
58.170 11.740297
58.175 11.378117
58.180 11.585881
58.185 12.003609
58.190 12.140161
58.195 11.930005
58.200 11.684515
58.205 11.839156
58.210 11.960747
58.215 11.654552
58.220 11.680181
58.225 11.540207
58.230 11.661402
58.235 11.6689
58.240 11.960224
58.245 11.972139
58.250 12.135833
58.255 12.509609
58.260 13.348347
58.265 13.982682
58.270 14.132895
58.275 14.054501
58.280 14.144046
58.285 13.805495
58.290 13.484509
58.295 13.105098
58.300 12.857749
58.305 12.820978
58.310 12.708562
58.315 12.316133
58.320 12.595512
58.325 12.506667
58.330 12.290378
58.335 12.644333
58.340 13.004434
58.345 13.488623
58.350 14.310086
58.355 14.355343
58.360 14.136337
58.365 14.056213
58.370 13.7066
58.375 13.760973
58.380 14.118406
58.385 14.608194
58.390 15.113918
58.395 15.321271
58.400 15.365938
58.405 15.6938
58.410 15.954053
58.415 15.56338
58.420 15.292631
58.425 15.479956
58.430 16.19198
58.435 16.911072
58.440 16.961527
58.445 17.092123
58.450 17.149883
58.455 17.651691
58.460 17.658167
58.465 17.160822
58.470 17.177637
58.475 17.1668
58.480 17.795752
58.485 18.164513
58.490 18.556713
58.495 19.295847
58.500 19.881529
58.505 19.658911
58.510 19.791698
58.515 19.496723
58.520 19.293652
58.525 18.314095
58.530 17.827543
58.535 17.906986
58.540 18.347847
58.545 18.664061
58.550 18.962702
58.555 19.4063
58.560 20.365749
58.565 20.563492
58.570 20.360363
58.575 20.391785
58.580 20.870165
58.585 21.349594
58.590 21.943865
58.595 22.652164
58.600 22.877312
58.605 23.830563
58.610 24.054113
58.615 24.022833
58.620 24.196354
58.625 24.69385
58.630 25.475288
58.635 26.232849
58.640 26.708494
58.645 26.853245
58.650 26.931822
58.655 27.263275
58.660 26.707256
58.665 25.786331
58.670 25.125191
58.675 25.027943
58.680 25.084227
58.685 24.789696
58.690 24.089359
58.695 24.648458
58.700 25.357286
58.705 25.756956
58.710 25.641432
58.715 25.58112
58.720 25.825109
58.725 26.192368
58.730 25.527578
58.735 24.97785
58.740 25.068951
58.745 25.414312
58.750 25.68825
58.755 25.546934
58.760 25.248943
58.765 24.593416
58.770 24.268608
58.775 24.176901
58.780 23.286755
58.785 23.081335
58.790 23.049398
58.795 23.18112
58.800 23.656784
58.805 23.807245
58.810 23.455353
58.815 23.889641
58.820 23.967834
58.825 24.027969
58.830 24.141273
58.835 24.389547
58.840 24.18572
58.845 23.53075
58.850 22.659958
58.855 22.074249
58.860 21.807133
58.865 20.964481
58.870 20.433714
58.875 20.430971
58.880 20.9692
58.885 21.188124
58.890 20.926317
58.895 20.510359
58.900 20.907843
58.905 19.715508
58.910 18.968031
58.915 18.524536
58.920 17.876749
58.925 17.642271
58.930 17.336809
58.935 17.222315
58.940 17.407681
58.945 17.407135
58.950 17.250385
58.955 17.05917
58.960 16.759951
58.965 16.366129
58.970 15.736349
58.975 16.121912
58.980 15.781549
58.985 15.473495
58.990 15.322605
58.995 15.038441
59.000 14.996189
59.005 14.867647
59.010 14.272605
59.015 14.048874
59.020 13.478475
59.025 13.398561
59.030 13.33305
59.035 13.345724
59.040 13.90963
59.045 14.227228
59.050 14.67668
59.055 14.974794
59.060 15.270775
59.065 15.587734
59.070 15.02093
59.075 14.497409
59.080 13.976255
59.085 13.487899
59.090 13.015234
59.095 12.675131
59.100 12.740273
59.105 13.193634
59.110 12.810974
59.115 12.794294
59.120 12.890288
59.125 12.929927
59.130 12.631719
59.135 12.327752
59.140 12.116423
59.145 12.017367
59.150 12.071909
59.155 12.029966
59.160 12.335365
59.165 12.265217
59.170 12.587425
59.175 12.599416
59.180 12.713232
59.185 12.565323
59.190 12.533697
59.195 12.845918
59.200 13.095083
59.205 12.454702
59.210 12.718558
59.215 12.564324
59.220 12.540544
59.225 12.712131
59.230 12.26933
59.235 12.190406
59.240 12.651951
59.245 12.820861
59.250 13.309899
59.255 13.19641
59.260 12.825662
59.265 12.671601
59.270 12.420452
59.275 12.202244
59.280 11.922819
59.285 11.034835
59.290 10.951148
59.295 11.34145
59.300 11.511224
59.305 11.510009
59.310 11.295459
59.315 11.214272
59.320 11.568979
59.325 11.755447
59.330 11.891748
59.335 12.146957
59.340 12.367305
59.345 12.637595
59.350 12.826827
59.355 13.039674
59.360 12.977331
59.365 12.409577
59.370 12.279093
59.375 12.026772
59.380 11.933246
59.385 11.668348
59.390 11.373866
59.395 10.920214
59.400 11.09076
59.405 11.130101
59.410 11.016902
59.415 10.766853
59.420 10.785738
59.425 11.144244
59.430 11.777514
59.435 11.957994
59.440 12.142218
59.445 12.348633
59.450 12.256968
59.455 12.400871
59.460 12.697077
59.465 12.293627
59.470 11.624799
59.475 11.272333
59.480 11.642388
59.485 12.129699
59.490 11.784555
59.495 11.699101
59.500 12.072869
59.505 12.831036
59.510 13.444637
59.515 13.388896
59.520 13.322741
59.525 13.581997
59.530 13.378415
59.535 13.725724
59.540 13.345892
59.545 12.72213
59.550 12.972464
59.555 13.065464
59.560 13.043772
59.565 12.997881
59.570 12.687858
59.575 12.45807
59.580 12.070286
59.585 11.09598
59.590 10.647447
59.595 10.65278
59.600 10.453724
59.605 10.583127
59.610 11.139914
59.615 11.971136
59.620 12.418046
59.625 12.467188
59.630 12.207821
59.635 12.167949
59.640 11.755711
59.645 11.628238
59.650 11.559023
59.655 11.328637
59.660 11.25851
59.665 11.645364
59.670 11.832664
59.675 12.66809
59.680 12.930707
59.685 13.337972
59.690 14.32471
59.695 14.886912
59.700 14.91339
59.705 14.613309
59.710 14.018184
59.715 13.565462
59.720 13.170292
59.725 12.49456
59.730 12.276652
59.735 12.09022
59.740 11.978415
59.745 11.889425
59.750 11.854769
59.755 11.740144
59.760 11.92327
59.765 11.993784
59.770 12.045034
59.775 12.584727
59.780 12.879241
59.785 12.903955
59.790 12.938565
59.795 12.561286
59.800 12.463903
59.805 12.533072
59.810 12.326213
59.815 12.532707
59.820 12.500743
59.825 12.730047
59.830 12.799489
59.835 12.697549
59.840 12.613224
59.845 12.524964
59.850 12.128504
59.855 12.144019
59.860 12.026234
59.865 12.34635
59.870 12.69651
59.875 12.355721
59.880 11.946734
59.885 11.61272
59.890 11.668618
59.895 11.541108
59.900 11.499247
59.905 11.62257
59.910 11.733868
59.915 11.721144
59.920 11.612609
59.925 11.454498
59.930 11.410395
59.935 11.373943
59.940 10.991881
59.945 11.841042
59.950 12.667937
59.955 13.026227
59.960 13.383656
59.965 13.346223
59.970 13.07438
59.975 13.436656
59.980 13.214647
59.985 12.940951
59.990 13.410105
59.995 13.479455
60.000 13.900354
60.005 13.661742
60.010 13.065375
60.015 12.864182
60.020 13.10705
60.025 13.068606
60.030 12.623919
60.035 12.214729
60.040 12.569161
60.045 13.327778
60.050 13.797523
60.055 13.222312
60.060 12.725204
60.065 12.996702
60.070 13.399354
60.075 13.355444
60.080 13.107727
60.085 12.78863
60.090 12.693102
60.095 13.085065
60.100 13.535737
60.105 13.225025
60.110 13.279001
60.115 12.969123
60.120 12.784856
60.125 12.764138
60.130 12.403129
60.135 12.114223
60.140 12.174229
60.145 12.025993
60.150 11.834546
60.155 12.118123
60.160 12.623877
60.165 12.767916
60.170 12.934705
60.175 13.018222
60.180 13.332204
60.185 14.532635
60.190 14.667959
60.195 14.615095
60.200 14.414082
60.205 14.302228
60.210 14.440906
60.215 14.367527
60.220 13.446284
60.225 13.537555
60.230 13.93756
60.235 13.984562
60.240 14.499087
60.245 14.575762
60.250 13.863512
60.255 13.872037
60.260 13.22451
60.265 12.895619
60.270 12.889568
60.275 12.4028
60.280 12.136982
60.285 12.29818
60.290 12.320745
60.295 12.505482
60.300 12.312572
60.305 11.867123
60.310 11.915639
60.315 11.92195
60.320 12.118114
60.325 12.104254
60.330 12.319406
60.335 12.782103
60.340 13.108447
60.345 13.036264
60.350 13.293769
60.355 13.38472
60.360 13.511424
60.365 13.577188
60.370 13.197507
60.375 13.010823
60.380 12.842402
60.385 13.128794
60.390 12.799676
60.395 12.550696
60.400 12.961473
60.405 13.534165
60.410 13.56703
60.415 13.75208
60.420 13.235554
60.425 13.03008
60.430 13.097665
60.435 12.257401
60.440 11.699642
60.445 11.61229
60.450 11.377417
60.455 11.582719
60.460 12.010049
60.465 12.517241
60.470 13.341061
60.475 13.771435
60.480 14.442809
60.485 14.601822
60.490 14.646966
60.495 14.758434
60.500 14.241688
60.505 14.091968
60.510 13.780577
60.515 13.276856
60.520 13.263745
60.525 13.175573
60.530 12.747853
60.535 12.266914
60.540 12.049931
60.545 12.335335
60.550 12.329331
60.555 12.35549
60.560 12.21777
60.565 12.236479
60.570 12.92757
60.575 13.191859
60.580 13.16302
60.585 12.907192
60.590 12.418518
60.595 12.871068
60.600 13.137091
60.605 13.029765
60.610 12.522177
60.615 12.851465
60.620 13.405918
60.625 13.729915
60.630 13.661493
60.635 13.590202
60.640 13.769848
60.645 14.51799
60.650 14.549056
60.655 13.934636
60.660 13.796738
60.665 13.661839
60.670 13.472645
60.675 13.205501
60.680 12.721723
60.685 12.698811
60.690 13.484309
60.695 13.521202
60.700 13.303808
60.705 13.33551
60.710 13.194358
60.715 13.235185
60.720 13.216995
60.725 13.20084
60.730 13.619175
60.735 14.143956
60.740 14.631381
60.745 14.636852
60.750 14.357008
60.755 14.195301
60.760 14.082678
60.765 13.815076
60.770 13.756484
60.775 13.437516
60.780 13.059948
60.785 12.965425
60.790 13.148215
60.795 13.407411
60.800 13.225671
60.805 12.535276
60.810 12.684483
60.815 13.190668
60.820 13.33732
60.825 12.740566
60.830 12.56802
60.835 12.34763
60.840 12.642601
60.845 12.442341
60.850 12.133769
60.855 11.903369
60.860 11.742441
60.865 11.761944
60.870 11.636816
60.875 11.334501
60.880 11.286287
60.885 11.095315
60.890 10.934645
60.895 11.1942
60.900 11.306907
60.905 11.618949
60.910 11.780424
60.915 12.045353
60.920 12.141069
60.925 12.292936
60.930 12.211407
60.935 11.701856
60.940 11.824689
60.945 11.848166
60.950 11.756071
60.955 12.146634
60.960 12.52355
60.965 12.863335
60.970 13.35311
60.975 13.058535
60.980 13.171255
60.985 13.178895
60.990 13.0249
60.995 12.752531
61.000 12.797163
61.005 13.262022
61.010 13.702045
61.015 13.797929
61.020 14.530551
61.025 14.864799
61.030 14.363619
61.035 14.417312
61.040 14.338445
61.045 13.942567
61.050 13.455244
61.055 12.425958
61.060 12.365803
61.065 13.033807
61.070 12.813078
61.075 12.522626
61.080 12.575729
61.085 13.260788
61.090 13.065157
61.095 13.038994
61.100 13.059715
61.105 12.812565
61.110 12.653333
61.115 13.111279
61.120 13.166287
61.125 13.57816
61.130 13.205053
61.135 12.95787
61.140 12.973893
61.145 12.978983
61.150 12.700651
61.155 12.580214
61.160 12.61216
61.165 12.468495
61.170 12.157745
61.175 12.268947
61.180 12.049681
61.185 11.669846
61.190 11.487167
61.195 11.731676
61.200 12.106763
61.205 12.773906
61.210 12.719763
61.215 12.610845
61.220 12.877506
61.225 13.363142
61.230 13.963411
61.235 13.718502
61.240 13.092037
61.245 13.434922
61.250 14.011661
61.255 14.039836
61.260 13.463356
61.265 12.824655
61.270 13.326667
61.275 13.634791
61.280 13.546311
61.285 13.164359
61.290 12.901868
61.295 12.896541
61.300 12.606461
61.305 12.34094
61.310 12.2373
61.315 12.330756
61.320 12.647799
61.325 12.914377
61.330 13.099141
61.335 12.804187
61.340 12.657399
61.345 12.718723
61.350 12.688059
61.355 12.906981
61.360 13.14689
61.365 13.49851
61.370 14.051711
61.375 13.991714
61.380 13.935761
61.385 13.920679
61.390 13.694016
61.395 13.314142
61.400 13.187156
61.405 13.139453
61.410 13.569801
61.415 13.557689
61.420 13.320839
61.425 13.59605
61.430 13.758839
61.435 13.838345
61.440 14.178678
61.445 14.321359
61.450 15.036784
61.455 15.05878
61.460 14.557963
61.465 14.332642
61.470 14.693934
61.475 14.713094
61.480 14.302941
61.485 13.908046
61.490 14.128844
61.495 14.412288
61.500 14.212038
61.505 13.742701
61.510 13.150452
61.515 13.081862
61.520 12.779561
61.525 12.282669
61.530 11.964275
61.535 11.906482
61.540 11.920508
61.545 12.513307
61.550 12.213373
61.555 12.374428
61.560 13.066732
61.565 13.169443
61.570 13.048825
61.575 12.96419
61.580 13.042522
61.585 13.447481
61.590 13.201422
61.595 12.967956
61.600 13.875784
61.605 14.551289
61.610 14.637042
61.615 14.375245
61.620 14.566739
61.625 14.830192
61.630 14.892982
61.635 14.08937
61.640 13.791527
61.645 14.114125
61.650 14.553836
61.655 14.242801
61.660 14.072684
61.665 13.967157
61.670 14.355039
61.675 14.526178
61.680 14.159114
61.685 13.444008
61.690 13.434237
61.695 13.921972
61.700 14.151146
61.705 14.345161
61.710 14.116586
61.715 14.06086
61.720 14.556396
61.725 14.705122
61.730 14.41368
61.735 14.279497
61.740 13.875101
61.745 13.932416
61.750 13.525308
61.755 13.548154
61.760 13.224804
61.765 13.261045
61.770 13.686114
61.775 13.952317
61.780 14.19073
61.785 15.058093
61.790 15.181961
61.795 15.617156
61.800 15.631612
61.805 15.033107
61.810 14.630545
61.815 14.714476
61.820 14.204057
61.825 14.094135
61.830 14.195235
61.835 14.074283
61.840 14.40305
61.845 15.230291
61.850 14.944415
61.855 15.120652
61.860 15.017858
61.865 15.311312
61.870 15.565714
61.875 15.500128
61.880 15.373381
61.885 15.855705
61.890 16.104959
61.895 15.870611
61.900 15.782011
61.905 15.814922
61.910 15.390126
61.915 14.599607
61.920 14.249165
61.925 14.275452
61.930 14.05157
61.935 13.813758
61.940 13.960477
61.945 14.146367
61.950 14.556417
61.955 14.693954
61.960 14.128173
61.965 14.292985
61.970 13.892182
61.975 13.706181
61.980 13.348524
61.985 13.020014
61.990 12.828261
61.995 13.118829
62.000 13.131373
62.005 13.332645
62.010 13.377975
62.015 13.39843
62.020 13.698301
62.025 13.771068
62.030 13.478143
62.035 13.513773
62.040 13.344157
62.045 13.517278
62.050 13.888763
62.055 13.67707
62.060 13.35169
62.065 13.597895
62.070 13.546892
62.075 13.935024
62.080 14.021316
62.085 14.312637
62.090 14.376057
62.095 14.633998
62.100 14.694778
62.105 14.605247
62.110 13.906631
62.115 13.913806
62.120 13.739287
62.125 14.18138
62.130 13.973398
62.135 13.347219
62.140 13.114914
62.145 13.459158
62.150 13.171475
62.155 13.113666
62.160 12.87229
62.165 13.239217
62.170 13.919894
62.175 14.500572
62.180 14.475547
62.185 14.247207
62.190 14.213674
62.195 13.99591
62.200 13.639784
62.205 13.051126
62.210 13.0154
62.215 12.99536
62.220 13.063206
62.225 13.544618
62.230 13.891922
62.235 14.201175
62.240 14.932354
62.245 14.585676
62.250 14.234167
62.255 13.506271
62.260 12.671845
62.265 12.218527
62.270 11.954991
62.275 11.526011
62.280 11.559928
62.285 11.786454
62.290 12.483602
62.295 12.575901
62.300 13.147117
62.305 13.283684
62.310 13.524938
62.315 13.569717
62.320 13.640838
62.325 13.809647
62.330 14.176954
62.335 14.066522
62.340 14.316319
62.345 13.770906
62.350 14.104996
62.355 13.687046
62.360 13.362524
62.365 13.378639
62.370 13.32921
62.375 13.38056
62.380 13.477927
62.385 13.009808
62.390 13.182916
62.395 13.374548
62.400 13.297577
62.405 13.374069
62.410 13.620162
62.415 14.425841
62.420 14.856069
62.425 14.900376
62.430 14.798949
62.435 14.719315
62.440 14.373966
62.445 13.974572
62.450 14.216976
62.455 14.252392
62.460 14.809234
62.465 15.304307
62.470 15.61021
62.475 16.231848
62.480 16.183517
62.485 15.041607
62.490 14.661536
62.495 14.322089
62.500 13.982398
62.505 14.096265
62.510 13.84982
62.515 13.829879
62.520 14.409405
62.525 14.563353
62.530 14.515231
62.535 14.608992
62.540 14.273289
62.545 14.202744
62.550 14.343429
62.555 14.374243
62.560 14.489514
62.565 14.582151
62.570 14.615925
62.575 14.53082
62.580 14.440459
62.585 14.095327
62.590 14.191311
62.595 14.038363
62.600 13.77613
62.605 14.028195
62.610 13.586999
62.615 13.323974
62.620 13.056737
62.625 13.201815
62.630 13.668457
62.635 13.5907
62.640 13.260612
62.645 13.850856
62.650 14.380217
62.655 15.261501
62.660 15.117242
62.665 14.677253
62.670 14.407748
62.675 14.24566
62.680 14.534488
62.685 14.425193
62.690 14.127201
62.695 13.9096
62.700 14.352843
62.705 15.01515
62.710 15.222085
62.715 15.13927
62.720 15.476394
62.725 15.152596
62.730 15.40041
62.735 15.33522
62.740 15.376888
62.745 15.617955
62.750 15.752877
62.755 16.103209
62.760 16.34507
62.765 15.906156
62.770 15.668903
62.775 15.338509
62.780 14.876625
62.785 14.268702
62.790 13.747714
62.795 14.158766
62.800 14.619034
62.805 14.943894
62.810 14.823989
62.815 14.836897
62.820 14.884562
62.825 14.640438
62.830 13.895504
62.835 13.2785
62.840 13.285132
62.845 12.883973
62.850 13.055682
62.855 13.165961
62.860 13.206957
62.865 13.782936
62.870 13.478395
62.875 12.75951
62.880 13.097064
62.885 12.884744
62.890 13.005207
62.895 12.912793
62.900 13.50552
62.905 14.384122
62.910 14.738496
62.915 14.401868
62.920 14.30924
62.925 14.481851
62.930 14.425982
62.935 13.758032
62.940 13.299404
62.945 13.052093
62.950 13.552312
62.955 13.418782
62.960 13.459954
62.965 13.849914
62.970 14.048435
62.975 14.261711
62.980 14.834559
62.985 14.613907
62.990 14.932238
62.995 15.349869
63.000 15.22788
63.005 14.995472
63.010 14.866548
63.015 14.628686
63.020 14.740132
63.025 14.481645
63.030 13.590126
63.035 13.464206
63.040 13.587778
63.045 14.119417
63.050 14.62092
63.055 14.891632
63.060 15.325675
63.065 15.702297
63.070 15.950887
63.075 15.979573
63.080 15.761956
63.085 15.656209
63.090 15.764665
63.095 15.386755
63.100 15.294116
63.105 15.179832
63.110 15.236538
63.115 15.165154
63.120 15.26282
63.125 15.438078
63.130 15.863847
63.135 15.891016
63.140 16.159685
63.145 16.030315
63.150 15.7797
63.155 15.190029
63.160 14.553049
63.165 14.340252
63.170 14.432905
63.175 13.816825
63.180 13.972226
63.185 13.926215
63.190 14.292657
63.195 14.584307
63.200 14.795194
63.205 14.692755
63.210 14.842324
63.215 14.640318
63.220 14.557213
63.225 14.413887
63.230 14.0296
63.235 13.717566
63.240 13.987654
63.245 13.927331
63.250 14.129525
63.255 14.678892
63.260 14.872656
63.265 15.08847
63.270 14.966537
63.275 14.816043
63.280 15.626411
63.285 15.858392
63.290 15.541278
63.295 15.440684
63.300 15.275784
63.305 15.277065
63.310 15.187696
63.315 14.790085
63.320 14.626534
63.325 15.026997
63.330 15.173034
63.335 15.296624
63.340 15.295059
63.345 15.036062
63.350 15.293236
63.355 15.252669
63.360 14.751829
63.365 15.059762
63.370 15.376446
63.375 15.495927
63.380 15.671824
63.385 15.445997
63.390 15.382932
63.395 15.356552
63.400 14.884831
63.405 14.28831
63.410 14.336425
63.415 14.080802
63.420 14.07147
63.425 14.277591
63.430 14.360273
63.435 14.297327
63.440 14.536096
63.445 14.416543
63.450 14.39819
63.455 14.493965
63.460 14.003708
63.465 13.810367
63.470 13.880249
63.475 13.914744
63.480 13.740967
63.485 13.741261
63.490 13.760835
63.495 13.72419
63.500 14.083158
63.505 14.299071
63.510 14.654882
63.515 14.932502
63.520 14.93702
63.525 15.270511
63.530 16.350567
63.535 16.82486
63.540 17.003492
63.545 16.886946
63.550 16.993057
63.555 16.761492
63.560 15.658938
63.565 14.92573
63.570 14.50514
63.575 14.722219
63.580 15.041946
63.585 15.29276
63.590 15.517933
63.595 15.787359
63.600 15.616613
63.605 15.561811
63.610 15.284658
63.615 14.890634
63.620 15.019726
63.625 15.137827
63.630 15.068614
63.635 15.473022
63.640 15.112473
63.645 15.243879
63.650 15.619695
63.655 15.666438
63.660 15.536961
63.665 16.179472
63.670 16.124762
63.675 16.484333
63.680 16.709009
63.685 16.320045
63.690 15.959975
63.695 16.145449
63.700 16.088619
63.705 16.021595
63.710 15.944509
63.715 15.565349
63.720 15.382483
63.725 15.67589
63.730 15.015203
63.735 14.901869
63.740 15.336723
63.745 15.53158
63.750 15.466778
63.755 15.349771
63.760 15.342392
63.765 15.806957
63.770 15.668525
63.775 15.42775
63.780 14.842497
63.785 14.782372
63.790 14.900483
63.795 15.057769
63.800 15.194447
63.805 14.785692
63.810 14.89095
63.815 15.222178
63.820 15.299263
63.825 15.720009
63.830 15.320968
63.835 14.768248
63.840 15.087887
63.845 14.899197
63.850 15.070143
63.855 15.204047
63.860 14.648374
63.865 15.077121
63.870 15.198805
63.875 15.490159
63.880 15.84628
63.885 15.440604
63.890 15.6978
63.895 16.010277
63.900 16.156136
63.905 16.359047
63.910 16.046333
63.915 16.205244
63.920 16.5711
63.925 16.32465
63.930 16.140553
63.935 15.858922
63.940 15.268097
63.945 15.232435
63.950 15.153342
63.955 15.295959
63.960 15.425938
63.965 15.495374
63.970 15.672532
63.975 16.061943
63.980 16.208687
63.985 16.487196
63.990 16.737137
63.995 17.288784
64.000 17.776739
64.005 17.990362
64.010 19.046574
64.015 19.731632
64.020 19.374462
64.025 19.248354
64.030 18.646574
64.035 18.2267
64.040 18.381144
64.045 17.52129
64.050 17.13586
64.055 17.364719
64.060 17.630783
64.065 18.386471
64.070 19.008949
64.075 19.098478
64.080 20.192024
64.085 20.558134
64.090 21.08346
64.095 21.369022
64.100 21.255499
64.105 21.335674
64.110 21.509958
64.115 21.288839
64.120 21.069077
64.125 20.50448
64.130 19.960514
64.135 19.860348
64.140 19.741894
64.145 19.514517
64.150 19.902082
64.155 20.747267
64.160 21.322529
64.165 22.557659
64.170 23.594707
64.175 24.40126
64.180 24.925402
64.185 24.93667
64.190 24.929899
64.195 25.073229
64.200 25.145174
64.205 24.793661
64.210 24.839376
64.215 25.020288
64.220 25.491791
64.225 25.993141
64.230 26.244987
64.235 26.129557
64.240 26.367931
64.245 26.698393
64.250 27.449959
64.255 27.591589
64.260 27.654543
64.265 28.822718
64.270 29.646076
64.275 30.204109
64.280 30.174177
64.285 29.85043
64.290 31.261719
64.295 31.694704
64.300 31.005812
64.305 31.02066
64.310 31.497551
64.315 31.4928
64.320 31.347946
64.325 31.824484
64.330 32.807556
64.335 33.736736
64.340 34.634342
64.345 35.900776
64.350 37.149593
64.355 38.500122
64.360 38.892521
64.365 39.157288
64.370 39.895725
64.375 41.367714
64.380 41.713142
64.385 42.072849
64.390 41.866882
64.395 42.157475
64.400 42.599678
64.405 42.879135
64.410 42.083
64.415 42.026245
64.420 41.809116
64.425 42.638763
64.430 43.101536
64.435 43.927868
64.440 44.024166
64.445 43.401291
64.450 42.347446
64.455 42.829823
64.460 42.965298
64.465 43.547222
64.470 42.908527
64.475 42.567287
64.480 43.390373
64.485 43.563675
64.490 42.849102
64.495 42.229809
64.500 41.398521
64.505 41.490227
64.510 41.439339
64.515 40.769413
64.520 40.170773
64.525 39.109478
64.530 38.724903
64.535 37.946526
64.540 36.733597
64.545 36.228817
64.550 36.638603
64.555 37.734287
64.560 38.466881
64.565 37.873287
64.570 37.166004
64.575 37.392326
64.580 36.249901
64.585 35.165897
64.590 34.316532
64.595 33.856808
64.600 33.703735
64.605 34.192127
64.610 33.888153
64.615 34.150162
64.620 34.057049
64.625 33.762844
64.630 33.324917
64.635 32.556667
64.640 31.399078
64.645 31.102175
64.650 31.11138
64.655 30.912205
64.660 31.289
64.665 31.294516
64.670 31.2561
64.675 31.489773
64.680 31.008989
64.685 29.807274
64.690 29.756435
64.695 28.829714
64.700 27.741602
64.705 27.580456
64.710 26.810337
64.715 25.821041
64.720 25.862474
64.725 25.782686
64.730 25.991215
64.735 26.238899
64.740 25.952
64.745 25.165659
64.750 25.482121
64.755 25.308527
64.760 24.615013
64.765 24.603237
64.770 24.671091
64.775 23.825932
64.780 23.255056
64.785 23.01897
64.790 22.963078
64.795 22.523085
64.800 21.989117
64.805 21.793215
64.810 22.334291
64.815 22.894028
64.820 22.507059
64.825 21.999569
64.830 21.792208
64.835 21.556591
64.840 21.630402
64.845 21.53701
64.850 21.480528
64.855 22.180433
64.860 21.783243
64.865 21.897751
64.870 21.86083
64.875 21.805185
64.880 21.805382
64.885 21.29146
64.890 20.655209
64.895 20.965023
64.900 21.31428
64.905 21.82925
64.910 21.364504
64.915 21.092012
64.920 21.201302
64.925 21.43224
64.930 21.388205
64.935 20.983156
64.940 21.486254
64.945 21.661627
64.950 21.401144
64.955 21.516901
64.960 21.322781
64.965 21.533569
64.970 21.577084
64.975 21.097176
64.980 21.798275
64.985 22.984642
64.990 23.362457
64.995 23.990858
65.000 24.009485
65.005 24.0914
65.010 24.6975
65.015 25.078373
65.020 25.259274
65.025 25.118629
65.030 25.584829
65.035 26.230312
65.040 26.119576
65.045 26.446804
65.050 26.701149
65.055 26.475895
65.060 27.672277
65.065 27.984102
65.070 28.106985
65.075 29.391788
65.080 29.40608
65.085 29.835833
65.090 30.801683
65.095 30.637405
65.100 31.129318
65.105 31.775
65.110 31.73315
65.115 31.597492
65.120 31.515814
65.125 31.867386
65.130 32.039494
65.135 32.337559
65.140 32.253891
65.145 32.192272
65.150 32.416897
65.155 32.673763
65.160 33.428436
65.165 33.615471
65.170 33.173473
65.175 33.423046
65.180 33.2887
65.185 32.918671
65.190 32.219238
65.195 31.500151
65.200 31.204184
65.205 31.447294
65.210 31.919508
65.215 31.76853
65.220 31.653849
65.225 32.098579
65.230 31.987135
65.235 32.495438
65.240 32.789261
65.245 32.388134
65.250 32.956188
65.255 34.009987
65.260 34.521793
65.265 35.04319
65.270 35.164322
65.275 34.842316
65.280 34.742428
65.285 34.416523
65.290 34.238747
65.295 33.892471
65.300 34.05003
65.305 33.372166
65.310 33.263794
65.315 33.244053
65.320 33.090046
65.325 32.878864
65.330 32.207539
65.335 31.056925
65.340 31.54167
65.345 31.336115
65.350 31.666243
65.355 32.236992
65.360 32.699726
65.365 32.913761
65.370 33.127747
65.375 33.218803
65.380 33.377579
65.385 33.472031
65.390 32.708351
65.395 32.863785
65.400 33.360008
65.405 33.883297
65.410 33.343082
65.415 33.584282
65.420 33.655209
65.425 33.561272
65.430 32.944012
65.435 32.83094
65.440 32.658958
65.445 32.563683
65.450 31.892794
65.455 31.652002
65.460 31.7292
65.465 31.925179
65.470 31.458971
65.475 31.128141
65.480 31.858759
65.485 32.193901
65.490 32.628143
65.495 33.326466
65.500 33.353497
65.505 34.230179
65.510 34.263386
65.515 34.075836
65.520 34.159523
65.525 33.671371
65.530 32.997368
65.535 32.774529
65.540 32.138805
65.545 32.088543
65.550 32.042713
65.555 31.951687
65.560 31.837379
65.565 31.132492
65.570 31.181606
65.575 30.635475
65.580 30.40329
65.585 30.5434
65.590 30.199642
65.595 30.444025
65.600 30.746775
65.605 30.720654
65.610 31.829561
65.615 32.020966
65.620 30.766123
65.625 30.692698
65.630 30.384317
65.635 30.123356
65.640 29.970369
65.645 29.343388
65.650 28.836771
65.655 29.558598
65.660 29.985294
65.665 30.001799
65.670 29.967991
65.675 30.143024
65.680 30.447094
65.685 30.409399
65.690 29.853985
65.695 29.018379
65.700 28.796576
65.705 28.511963
65.710 28.405848
65.715 28.238813
65.720 28.167049
65.725 28.51869
65.730 29.075512
65.735 29.459627
65.740 29.104359
65.745 28.655102
65.750 29.048983
65.755 28.732147
65.760 27.625141
65.765 26.669485
65.770 26.165735
65.775 26.593758
65.780 26.38398
65.785 25.518583
65.790 26.080803
65.795 26.379242
65.800 26.043522
65.805 25.420254
65.810 25.085453
65.815 24.917864
65.820 24.438505
65.825 23.494661
65.830 23.611528
65.835 23.124712
65.840 23.303587
65.845 23.32863
65.850 23.593279
65.855 23.344851
65.860 22.510674
65.865 22.12606
65.870 22.670105
65.875 22.555424
65.880 22.059692
65.885 21.68572
65.890 21.213947
65.895 21.390619
65.900 21.406382
65.905 21.193001
65.910 21.434978
65.915 21.662157
65.920 21.510897
65.925 21.819487
65.930 22.002697
65.935 21.854122
65.940 21.57284
65.945 21.164715
65.950 20.892368
65.955 20.654596
65.960 20.70545
65.965 20.828476
65.970 20.993502
65.975 20.433928
65.980 20.199707
65.985 20.09897
65.990 19.4872
65.995 19.375574
66.000 18.985023
66.005 19.194288
66.010 19.586433
66.015 19.448961
66.020 19.671087
66.025 19.78145
66.030 19.119652
66.035 18.805696
66.040 19.002602
66.045 18.479448
66.050 18.009733
66.055 17.602798
66.060 17.66572
66.065 18.182854
66.070 18.171782
66.075 17.624849
66.080 17.944633
66.085 18.275249
66.090 18.514793
66.095 18.312315
66.100 17.949738
66.105 17.955908
66.110 18.431484
66.115 18.54924
66.120 18.607845
66.125 18.424086
66.130 18.408178
66.135 18.664694
66.140 18.106701
66.145 17.878881
66.150 17.507164
66.155 17.258526
66.160 17.43642
66.165 17.099607
66.170 17.085606
66.175 16.535828
66.180 15.863547
66.185 15.700029
66.190 15.516847
66.195 15.75525
66.200 16.162067
66.205 15.866944
66.210 16.311102
66.215 16.783222
66.220 17.381002
66.225 17.224966
66.230 17.114542
66.235 16.849237
66.240 16.435654
66.245 16.750343
66.250 16.389812
66.255 15.882262
66.260 16.001484
66.265 16.015459
66.270 16.15801
66.275 16.297522
66.280 15.789165
66.285 16.013203
66.290 15.910155
66.295 15.432888
66.300 14.891949
66.305 14.976144
66.310 15.066442
66.315 14.687043
66.320 14.569175
66.325 14.764602
66.330 14.726195
66.335 15.244058
66.340 15.13346
66.345 15.558134
66.350 16.695745
66.355 17.155521
66.360 17.296217
66.365 17.462137
66.370 17.226126
66.375 17.273951
66.380 16.995867
66.385 16.444921
66.390 16.277733
66.395 16.38957
66.400 16.347115
66.405 16.592169
66.410 16.398014
66.415 15.976167
66.420 15.916797
66.425 15.63566
66.430 15.119768
66.435 15.068147
66.440 15.098045
66.445 15.934188
66.450 16.551842
66.455 16.674366
66.460 16.589725
66.465 17.000883
66.470 16.773241
66.475 16.313099
66.480 15.835599
66.485 16.091049
66.490 16.196518
66.495 16.351639
66.500 16.104326
66.505 16.465693
66.510 16.977375
66.515 17.088951
66.520 17.107683
66.525 17.2626
66.530 17.318432
66.535 17.66564
66.540 17.677488
66.545 17.318935
66.550 16.341965
66.555 15.730038
66.560 15.414824
66.565 15.385048
66.570 14.969324
66.575 14.762948
66.580 14.904011
66.585 15.501448
66.590 16.088358
66.595 16.409384
66.600 16.210356
66.605 16.076126
66.610 15.749063
66.615 15.546014
66.620 15.030358
66.625 15.251146
66.630 15.331751
66.635 15.813793
66.640 16.478764
66.645 17.117887
66.650 17.48838
66.655 17.917179
66.660 17.787678
66.665 17.461418
66.670 17.415991
66.675 17.074955
66.680 16.90645
66.685 17.183567
66.690 16.717951
66.695 16.246487
66.700 16.332485
66.705 16.231974
66.710 16.402288
66.715 16.06167
66.720 15.955635
66.725 16.499161
66.730 16.941982
66.735 17.317616
66.740 17.159132
66.745 16.974737
66.750 17.32897
66.755 17.490938
66.760 17.145515
66.765 16.810736
66.770 16.784609
66.775 16.903984
66.780 16.919676
66.785 16.427193
66.790 16.036884
66.795 16.637001
66.800 16.458878
66.805 16.344053
66.810 16.697144
66.815 16.96703
66.820 16.92034
66.825 17.355721
66.830 17.826708
66.835 18.05512
66.840 18.015045
66.845 17.579912
66.850 17.846701
66.855 18.104372
66.860 17.785622
66.865 17.113869
66.870 17.240717
66.875 17.20715
66.880 16.834867
66.885 16.522179
66.890 16.138632
66.895 16.866749
66.900 16.964794
66.905 16.659971
66.910 16.646101
66.915 17.103842
66.920 16.986097
66.925 16.956944
66.930 16.134834
66.935 15.773355
66.940 15.980969
66.945 15.590147
66.950 15.354928
66.955 14.99257
66.960 14.949247
66.965 15.201817
66.970 15.055068
66.975 15.545584
66.980 15.899236
66.985 16.115551
66.990 16.560581
66.995 16.628538
67.000 16.816933
67.005 17.300426
67.010 17.441933
67.015 17.538248
67.020 17.531034
67.025 17.827209
67.030 18.010477
67.035 17.993071
67.040 17.625942
67.045 17.194307
67.050 17.243143
67.055 17.03698
67.060 16.741613
67.065 16.114283
67.070 15.657451
67.075 16.173012
67.080 16.189007
67.085 16.005159
67.090 15.78542
67.095 15.448024
67.100 15.973438
67.105 16.147964
67.110 16.019159
67.115 16.087568
67.120 16.510586
67.125 16.603806
67.130 16.898319
67.135 17.180471
67.140 16.880802
67.145 16.606432
67.150 16.736099
67.155 16.63419
67.160 17.050615
67.165 17.221457
67.170 16.530979
67.175 16.145905
67.180 16.196836
67.185 16.25296
67.190 16.398577
67.195 16.508087
67.200 16.190569
67.205 16.49371
67.210 17.458654
67.215 16.916723
67.220 16.410067
67.225 16.237375
67.230 16.360706
67.235 16.66712
67.240 16.703274
67.245 15.913039
67.250 15.536846
67.255 14.89963
67.260 14.212588
67.265 13.619215
67.270 13.894828
67.275 14.208286
67.280 14.526309
67.285 15.635208
67.290 16.368326
67.295 16.821438
67.300 16.672258
67.305 16.175533
67.310 15.873178
67.315 15.476302
67.320 15.645006
67.325 15.623696
67.330 15.672603
67.335 15.853399
67.340 16.145124
67.345 16.501434
67.350 16.871548
67.355 16.789595
67.360 16.453165
67.365 16.335951
67.370 16.186211
67.375 16.22163
67.380 15.819398
67.385 15.779561
67.390 15.443586
67.395 15.643543
67.400 15.965886
67.405 15.799011
67.410 15.746458
67.415 16.034628
67.420 15.770726
67.425 16.432831
67.430 16.424475
67.435 15.738125
67.440 16.228567
67.445 16.797642
67.450 16.846157
67.455 16.969166
67.460 16.527449
67.465 16.393988
67.470 16.450191
67.475 16.046423
67.480 15.305882
67.485 15.500038
67.490 15.581347
67.495 15.551746
67.500 16.390127
67.505 16.550425
67.510 16.391939
67.515 16.616066
67.520 16.510855
67.525 17.001738
67.530 16.764435
67.535 16.290848
67.540 16.726114
67.545 16.879786
67.550 16.923975
67.555 16.797707
67.560 16.266283
67.565 16.262447
67.570 16.178473
67.575 15.638344
67.580 15.99139
67.585 16.105812
67.590 16.034328
67.595 15.697451
67.600 15.311304
67.605 15.471326
67.610 15.792233
67.615 16.130739
67.620 16.614111
67.625 17.163315
67.630 18.411993
67.635 19.595764
67.640 19.609303
67.645 19.889994
67.650 19.130592
67.655 18.725073
67.660 18.256901
67.665 17.82803
67.670 17.716572
67.675 17.98662
67.680 17.843195
67.685 17.452747
67.690 16.871775
67.695 17.612745
67.700 16.865631
67.705 16.219696
67.710 16.044615
67.715 15.643146
67.720 16.377092
67.725 16.774469
67.730 16.217237
67.735 16.647642
67.740 16.47485
67.745 16.531271
67.750 16.741705
67.755 16.39595
67.760 16.371754
67.765 16.536314
67.770 16.488392
67.775 16.464695
67.780 16.464901
67.785 16.523436
67.790 16.688988
67.795 16.284344
67.800 16.066959
67.805 16.152903
67.810 16.419058
67.815 16.365349
67.820 16.361576
67.825 16.587233
67.830 17.045254
67.835 17.501423
67.840 16.954151
67.845 16.639223
67.850 16.41856
67.855 16.552528
67.860 16.427847
67.865 16.076439
67.870 15.924174
67.875 16.797979
67.880 17.002716
67.885 16.877319
67.890 16.81937
67.895 16.722992
67.900 16.399929
67.905 16.539268
67.910 16.370485
67.915 15.933552
67.920 16.073952
67.925 15.690122
67.930 15.751607
67.935 15.976703
67.940 15.787103
67.945 15.705462
67.950 16.399008
67.955 16.612642
67.960 16.701914
67.965 17.177814
67.970 17.921381
67.975 18.190826
67.980 18.348387
67.985 18.515038
67.990 18.429722
67.995 18.554222
68.000 18.154224
68.005 18.00354
68.010 18.294685
68.015 18.150301
68.020 17.711954
68.025 17.667784
68.030 17.131872
68.035 16.698582
68.040 16.237183
68.045 16.183212
68.050 16.2062
68.055 15.953313
68.060 15.751267
68.065 16.052847
68.070 16.179821
68.075 16.245607
68.080 16.223366
68.085 16.736105
68.090 17.110081
68.095 17.521614
68.100 17.475172
68.105 17.83293
68.110 18.083769
68.115 18.279861
68.120 17.656223
68.125 17.37462
68.130 17.647947
68.135 18.138582
68.140 18.859585
68.145 18.314547
68.150 18.203489
68.155 18.734993
68.160 19.328083
68.165 19.21909
68.170 18.902397
68.175 18.655579
68.180 18.806387
68.185 19.074635
68.190 19.435198
68.195 19.71423
68.200 19.862392
68.205 20.136381
68.210 19.647615
68.215 19.63958
68.220 19.164244
68.225 19.063787
68.230 19.421286
68.235 19.568012
68.240 19.23032
68.245 19.299257
68.250 19.291634
68.255 19.510765
68.260 19.661579
68.265 19.380596
68.270 19.646969
68.275 20.001402
68.280 20.636019
68.285 20.662769
68.290 21.193523
68.295 21.016359
68.300 20.99515
68.305 21.663258
68.310 22.330072
68.315 22.605524
68.320 23.539181
68.325 23.755241
68.330 24.225071
68.335 23.752905
68.340 23.625872
68.345 24.245192
68.350 24.767689
68.355 24.507818
68.360 24.465893
68.365 24.915464
68.370 25.626312
68.375 25.46369
68.380 25.765263
68.385 26.096001
68.390 26.670174
68.395 26.730572
68.400 27.02079
68.405 27.303478
68.410 27.421259
68.415 27.534744
68.420 28.282625
68.425 28.758457
68.430 29.180445
68.435 28.549877
68.440 27.977579
68.445 27.896421
68.450 28.329082
68.455 27.950359
68.460 27.996941
68.465 28.229359
68.470 29.099916
68.475 30.545527
68.480 30.871555
68.485 30.505245
68.490 30.852232
68.495 31.296909
68.500 31.138302
68.505 31.29278
68.510 31.014528
68.515 31.070696
68.520 31.331377
68.525 30.690403
68.530 30.364138
68.535 30.020361
68.540 29.309246
68.545 29.515398
68.550 29.294994
68.555 28.818806
68.560 28.578196
68.565 28.597921
68.570 29.717676
68.575 29.505081
68.580 29.328371
68.585 29.282925
68.590 29.679552
68.595 30.220253
68.600 30.082069
68.605 29.814188
68.610 30.574949
68.615 30.976068
68.620 31.704578
68.625 32.037083
68.630 32.093281
68.635 32.046654
68.640 32.099251
68.645 31.830505
68.650 31.660887
68.655 31.819529
68.660 31.864857
68.665 31.336878
68.670 31.090622
68.675 31.075115
68.680 31.242498
68.685 30.739584
68.690 30.349028
68.695 30.184128
68.700 30.604322
68.705 31.09502
68.710 30.743952
68.715 30.05294
68.720 29.726542
68.725 29.887114
68.730 30.121525
68.735 30.32995
68.740 30.370157
68.745 30.75404
68.750 31.670938
68.755 31.86784
68.760 31.252817
68.765 30.961666
68.770 30.833899
68.775 30.821278
68.780 30.915598
68.785 31.048656
68.790 31.475878
68.795 31.808098
68.800 31.84399
68.805 31.573071
68.810 31.317854
68.815 31.007236
68.820 29.99267
68.825 29.250589
68.830 28.657133
68.835 29.200186
68.840 29.660311
68.845 29.332121
68.850 29.669106
68.855 30.25065
68.860 30.760056
68.865 30.295927
68.870 29.552736
68.875 29.294233
68.880 29.925579
68.885 28.751835
68.890 28.362841
68.895 28.931608
68.900 29.109627
68.905 28.826717
68.910 28.424162
68.915 28.107159
68.920 28.367081
68.925 28.217726
68.930 27.582672
68.935 27.135521
68.940 26.409269
68.945 25.09495
68.950 24.848064
68.955 24.69355
68.960 24.347389
68.965 23.743677
68.970 23.886181
68.975 24.832138
68.980 25.555119
68.985 25.427229
68.990 25.347445
68.995 26.060823
69.000 26.719999
69.005 26.733366
69.010 26.993195
69.015 26.500593
69.020 25.762814
69.025 25.534637
69.030 24.805216
69.035 24.560854
69.040 24.262833
69.045 23.722071
69.050 24.282076
69.055 24.654066
69.060 25.203297
69.065 25.474388
69.070 25.552195
69.075 25.700455
69.080 26.013453
69.085 25.330252
69.090 25.216799
69.095 24.266056
69.100 24.003595
69.105 22.818563
69.110 21.88965
69.115 21.552351
69.120 21.599571
69.125 21.558134
69.130 21.450666
69.135 21.628668
69.140 22.277485
69.145 22.787771
69.150 23.155258
69.155 22.852896
69.160 22.19352
69.165 21.935316
69.170 21.313543
69.175 20.840014
69.180 20.358765
69.185 20.475777
69.190 20.457777
69.195 20.651028
69.200 20.804043
69.205 20.788692
69.210 20.684452
69.215 20.983221
69.220 21.147976
69.225 21.702799
69.230 22.086
69.235 22.171671
69.240 21.752775
69.245 20.825312
69.250 19.389679
69.255 18.828093
69.260 18.517139
69.265 18.108404
69.270 17.662405
69.275 17.723358
69.280 18.56617
69.285 18.207798
69.290 18.426399
69.295 18.499348
69.300 19.332249
69.305 19.744806
69.310 20.022263
69.315 19.908152
69.320 20.086792
69.325 19.804499
69.330 19.383207
69.335 18.700048
69.340 18.366337
69.345 17.751102
69.350 17.393137
69.355 17.374893
69.360 17.337818
69.365 16.764275
69.370 16.858311
69.375 16.474443
69.380 16.666483
69.385 16.521973
69.390 16.680843
69.395 16.718224
69.400 17.1891
69.405 17.026855
69.410 17.743341
69.415 17.868515
69.420 17.977041
69.425 17.921215
69.430 18.2848
69.435 18.629713
69.440 18.991596
69.445 18.7374
69.450 19.035629
69.455 19.026005
69.460 18.995562
69.465 18.729956
69.470 18.346916
69.475 17.99511
69.480 17.4102
69.485 16.846294
69.490 16.923941
69.495 16.556011
69.500 16.375319
69.505 16.268177
69.510 16.428379
69.515 16.933735
69.520 17.172668
69.525 17.184584
69.530 17.384506
69.535 17.544874
69.540 17.476427
69.545 17.306564
69.550 17.152439
69.555 17.087276
69.560 16.769564
69.565 16.282545
69.570 16.656397
69.575 16.715714
69.580 16.901686
69.585 17.041437
69.590 17.120358
69.595 17.430143
69.600 17.337845
69.605 16.985815
69.610 17.345385
69.615 17.321468
69.620 16.496981
69.625 16.164686
69.630 15.869128
69.635 15.99313
69.640 15.806564
69.645 15.022702
69.650 15.035434
69.655 15.543628
69.660 15.75269
69.665 15.710074
69.670 16.11128
69.675 16.263853
69.680 16.474293
69.685 16.969883
69.690 16.975401
69.695 17.213345
69.700 18.401491
69.705 17.679995
69.710 17.508274
69.715 17.33964
69.720 17.419823
69.725 17.447786
69.730 17.306566
69.735 17.020184
69.740 17.814514
69.745 18.396242
69.750 18.660398
69.755 18.317066
69.760 18.060528
69.765 17.700972
69.770 17.374063
69.775 17.148031
69.780 16.987848
69.785 16.879814
69.790 16.90423
69.795 17.428038
69.800 17.406843
69.805 17.281939
69.810 16.635775
69.815 16.149672
69.820 15.975119
69.825 15.735588
69.830 15.552155
69.835 15.505981
69.840 15.493508
69.845 15.91051
69.850 16.18754
69.855 16.579662
69.860 16.732635
69.865 16.769634
69.870 16.596151
69.875 16.651001
69.880 16.643473
69.885 16.700535
69.890 16.618671
69.895 16.116858
69.900 16.95207
69.905 17.586344
69.910 18.059929
69.915 17.938074
69.920 17.683809
69.925 17.588655
69.930 18.476284
69.935 17.591101
69.940 17.027071
69.945 16.664207
69.950 16.417326
69.955 16.489977
69.960 16.24501
69.965 15.928595
69.970 16.09675
69.975 15.982085
69.980 15.933042
69.985 15.643727
69.990 15.109292
69.995 15.118093
70.000 15.368258
70.005 15.340445
70.010 15.324357
70.015 15.043791
70.020 15.689432
70.025 15.960853
70.030 15.863126
70.035 14.843478
70.040 14.879163
70.045 15.009557
70.050 15.273887
70.055 15.298476
70.060 15.622517
70.065 15.982082
70.070 16.625389
70.075 17.054945
70.080 17.735144
70.085 17.658257
70.090 17.520502
70.095 17.144714
70.100 17.315762
70.105 16.942152
70.110 16.027241
70.115 15.764875
70.120 15.763899
70.125 16.791885
70.130 17.21385
70.135 17.060402
70.140 17.446188
70.145 17.603733
70.150 18.061647
70.155 18.22278
70.160 17.565659
70.165 16.93014
70.170 16.890676
70.175 17.59528
70.180 17.217031
70.185 16.668819
70.190 16.280533
70.195 16.064215
70.200 16.033646
70.205 15.934793
70.210 15.72765
70.215 15.914384
70.220 16.051521
70.225 16.372223
70.230 16.478842
70.235 16.566244
70.240 16.346754
70.245 16.108606
70.250 16.622536
70.255 16.358162
70.260 16.344263
70.265 16.443642
70.270 16.851431
70.275 16.779016
70.280 16.829542
70.285 16.718615
70.290 16.829895
70.295 17.035675
70.300 17.140448
70.305 17.07807
70.310 17.192232
70.315 17.546015
70.320 17.703838
70.325 17.480516
70.330 16.959211
70.335 16.677641
70.340 16.207525
70.345 16.221794
70.350 16.037914
70.355 15.239939
70.360 15.403948
70.365 15.383862
70.370 15.47371
70.375 16.254204
70.380 16.816078
70.385 16.883123
70.390 17.150269
70.395 17.359053
70.400 17.978113
70.405 17.826891
70.410 17.836853
70.415 16.922316
70.420 16.682205
70.425 16.766588
70.430 16.30534
70.435 15.751774
70.440 15.774877
70.445 15.259531
70.450 15.525126
70.455 16.273741
70.460 16.70579
70.465 17.017038
70.470 17.182644
70.475 16.884802
70.480 17.148989
70.485 16.746716
70.490 16.093262
70.495 15.480028
70.500 15.647306
70.505 15.974373
70.510 16.356712
70.515 16.62557
70.520 16.661133
70.525 16.713751
70.530 16.977484
70.535 16.687658
70.540 16.559944
70.545 16.337051
70.550 15.847538
70.555 16.129843
70.560 15.930834
70.565 16.226259
70.570 16.286507
70.575 16.645264
70.580 16.723337
70.585 16.533489
70.590 16.526869
70.595 16.57193
70.600 16.71035
70.605 16.912432
70.610 17.466009
70.615 17.948326
70.620 17.845512
70.625 17.382059
70.630 17.587996
70.635 17.684052
70.640 17.35606
70.645 16.868565
70.650 16.229225
70.655 16.538738
70.660 17.199808
70.665 16.893509
70.670 16.881693
70.675 16.960983
70.680 16.561842
70.685 16.987831
70.690 16.496569
70.695 15.722406
70.700 16.177443
70.705 15.464718
70.710 15.616385
70.715 16.436319
70.720 16.606289
70.725 17.540136
70.730 17.997366
70.735 17.684147
70.740 17.700344
70.745 17.361723
70.750 16.875135
70.755 16.979073
70.760 16.457569
70.765 16.832066
70.770 17.091108
70.775 17.071295
70.780 16.753445
70.785 16.164616
70.790 15.999316
70.795 15.990233
70.800 15.684534
70.805 16.024761
70.810 16.577791
70.815 16.485056
70.820 16.862095
70.825 16.948591
70.830 16.62262
70.835 17.058241
70.840 16.872095
70.845 16.826817
70.850 16.85338
70.855 16.16485
70.860 15.990402
70.865 15.978436
70.870 15.36465
70.875 15.217826
70.880 15.924783
70.885 16.597532
70.890 17.255665
70.895 17.337021
70.900 17.456057
70.905 17.471165
70.910 17.186796
70.915 17.053814
70.920 17.335443
70.925 17.55958
70.930 17.208679
70.935 17.215523
70.940 17.296654
70.945 17.115814
70.950 16.483349
70.955 15.914583
70.960 15.937736
70.965 16.039539
70.970 16.092228
70.975 16.633163
70.980 17.304909
70.985 17.743671
70.990 17.539976
70.995 17.4023
71.000 16.833858
71.005 16.768991
71.010 16.101664
71.015 15.427227
71.020 15.513685
71.025 16.198874
71.030 16.693001
71.035 17.112291
71.040 16.695261
71.045 16.956881
71.050 17.239685
71.055 16.625282
71.060 15.738448
71.065 15.318879
71.070 14.999018
71.075 15.057429
71.080 14.889885
71.085 14.870126
71.090 15.220171
71.095 15.289275
71.100 15.807191
71.105 16.158648
71.110 15.930178
71.115 15.668801
71.120 15.744547
71.125 15.897624
71.130 15.829385
71.135 15.129848
71.140 15.022641
71.145 15.174544
71.150 14.889858
71.155 15.179475
71.160 15.291618
71.165 15.710164
71.170 16.038244
71.175 16.186874
71.180 16.756844
71.185 17.053837
71.190 17.339674
71.195 17.132835
71.200 17.246075
71.205 17.695011
71.210 17.513029
71.215 17.472893
71.220 16.973745
71.225 16.571859
71.230 16.782471
71.235 16.321556
71.240 16.162474
71.245 17.116909
71.250 17.43951
71.255 17.730988
71.260 18.292412
71.265 19.11953
71.270 18.889162
71.275 18.631414
71.280 17.427105
71.285 17.375771
71.290 17.338112
71.295 16.254093
71.300 16.086046
71.305 16.184355
71.310 16.42816
71.315 16.601231
71.320 16.363144
71.325 16.65144
71.330 16.875795
71.335 17.097361
71.340 16.804125
71.345 16.492138
71.350 16.562365
71.355 16.496372
71.360 16.336874
71.365 16.082102
71.370 16.231415
71.375 16.725191
71.380 16.880131
71.385 17.105215
71.390 17.373152
71.395 17.177395
71.400 17.021566
71.405 16.298861
71.410 16.071838
71.415 15.88233
71.420 16.078596
71.425 16.117123
71.430 16.482088
71.435 15.976683
71.440 15.938891
71.445 15.781227
71.450 15.610786
71.455 15.062143
71.460 14.612741
71.465 14.426311
71.470 15.494822
71.475 15.911063
71.480 16.12105
71.485 16.46603
71.490 16.938353
71.495 16.926033
71.500 16.825659
71.505 16.535063
71.510 16.242744
71.515 16.958578
71.520 16.986671
71.525 17.259249
71.530 17.277449
71.535 17.259647
71.540 17.338303
71.545 17.60466
71.550 16.889668
71.555 16.452616
71.560 16.152052
71.565 15.945153
71.570 16.069302
71.575 15.970918
71.580 15.754989
71.585 15.98737
71.590 16.068403
71.595 16.507427
71.600 16.621384
71.605 16.146778
71.610 16.357611
71.615 16.396095
71.620 16.387522
71.625 16.356752
71.630 16.936483
71.635 17.315929
71.640 18.073563
71.645 17.981852
71.650 18.368147
71.655 18.581987
71.660 18.486843
71.665 17.797298
71.670 17.295263
71.675 16.86236
71.680 16.895451
71.685 16.44099
71.690 16.694157
71.695 16.892979
71.700 17.086414
71.705 17.627678
71.710 17.45977
71.715 17.651272
71.720 17.835415
71.725 17.488409
71.730 17.289482
71.735 16.923218
71.740 16.954262
71.745 16.662083
71.750 16.436928
71.755 15.808105
71.760 15.96314
71.765 16.046379
71.770 15.864843
71.775 15.830242
71.780 16.413116
71.785 16.480433
71.790 16.669258
71.795 16.239473
71.800 16.978333
71.805 17.201569
71.810 16.908937
71.815 16.76071
71.820 17.067709
71.825 16.985868
71.830 17.187447
71.835 16.326982
71.840 15.849582
71.845 15.852734
71.850 15.940005
71.855 15.918955
71.860 15.808563
71.865 15.816888
71.870 15.979509
71.875 16.21376
71.880 15.756156
71.885 15.256457
71.890 15.312879
71.895 15.489043
71.900 15.476476
71.905 15.642524
71.910 15.443938
71.915 15.655074
71.920 15.605027
71.925 15.280066
71.930 14.928614
71.935 14.670393
71.940 14.481885
71.945 15.104192
71.950 15.756528
71.955 15.984453
71.960 15.875985
71.965 16.004532
71.970 16.16478
71.975 16.535135
71.980 16.587063
71.985 16.195673
71.990 16.574436
71.995 16.664425
72.000 16.322876
72.005 16.223812
72.010 16.026442
72.015 15.566676
72.020 15.6845
72.025 15.465085
72.030 15.834765
72.035 15.990733
72.040 16.355593
72.045 16.349409
72.050 16.081621
72.055 15.620294
72.060 15.591291
72.065 15.213151
72.070 15.008739
72.075 14.82795
72.080 14.752922
72.085 15.075035
72.090 15.366296
72.095 15.231333
72.100 15.858475
72.105 16.259298
72.110 15.951628
72.115 15.678273
72.120 15.598836
72.125 15.943194
72.130 15.716556
72.135 15.189376
72.140 14.967937
72.145 15.571406
72.150 15.353724
72.155 15.171322
72.160 15.487834
72.165 15.96537
72.170 16.26861
72.175 16.155598
72.180 16.492785
72.185 17.21204
72.190 16.908882
72.195 16.790276
72.200 16.357771
72.205 16.198675
72.210 16.250854
72.215 16.197115
72.220 16.641802
72.225 16.061338
72.230 15.528918
72.235 15.29046
72.240 15.026835
72.245 14.731722
72.250 14.174463
72.255 14.341567
72.260 14.938924
72.265 15.329595
72.270 15.68286
72.275 15.876881
72.280 15.898894
72.285 15.631782
72.290 15.271993
72.295 15.621452
72.300 15.827454
72.305 15.772598
72.310 15.58892
72.315 15.92291
72.320 15.311572
72.325 15.162893
72.330 15.304648
72.335 15.687703
72.340 15.82672
72.345 16.237045
72.350 16.397217
72.355 16.921572
72.360 16.669991
72.365 16.144253
72.370 16.341722
72.375 16.17312
72.380 16.317879
72.385 15.721082
72.390 15.551629
72.395 15.549717
72.400 15.836011
72.405 15.903215
72.410 15.667736
72.415 15.249253
72.420 15.763742
72.425 16.236427
72.430 16.689808
72.435 16.909763
72.440 16.718714
72.445 16.747952
72.450 17.106731
72.455 17.015608
72.460 16.448334
72.465 16.270149
72.470 15.941437
72.475 15.689039
72.480 15.797325
72.485 15.820616
72.490 16.50741
72.495 16.51729
72.500 16.344776
72.505 16.617611
72.510 17.223164
72.515 17.657106
72.520 17.923759
72.525 17.944536
72.530 17.773584
72.535 17.969589
72.540 18.145357
72.545 17.702538
72.550 17.04458
72.555 16.577436
72.560 16.234703
72.565 15.82601
72.570 15.250265
72.575 14.839516
72.580 15.070546
72.585 15.523766
72.590 15.494875
72.595 15.991048
72.600 16.34103
72.605 16.242094
72.610 15.691787
72.615 15.268019
72.620 15.109257
72.625 15.033926
72.630 14.615502
72.635 14.407796
72.640 15.070171
72.645 15.625742
72.650 15.305453
72.655 14.81536
72.660 14.276302
72.665 14.456065
72.670 14.456596
72.675 14.1666
72.680 14.290128
72.685 14.876934
72.690 15.907228
72.695 15.858991
72.700 15.870514
72.705 15.493721
72.710 15.015404
72.715 14.555972
72.720 13.573652
72.725 12.771111
72.730 13.155691
72.735 13.391802
72.740 14.460586
72.745 15.114258
72.750 15.26916
72.755 15.762027
72.760 16.6849
72.765 16.302677
72.770 16.183529
72.775 15.822486
72.780 15.550661
72.785 15.711697
72.790 15.508372
72.795 15.358289
72.800 15.58753
72.805 15.508492
72.810 15.292326
72.815 15.439391
72.820 15.448522
72.825 15.714581
72.830 15.404328
72.835 15.370911
72.840 15.520608
72.845 15.515466
72.850 15.714977
72.855 15.540488
72.860 15.362149
72.865 15.16318
72.870 14.750546
72.875 14.837513
72.880 14.720652
72.885 14.673437
72.890 14.60815
72.895 15.14061
72.900 15.372797
72.905 16.123867
72.910 16.644264
72.915 16.658875
72.920 16.826519
72.925 17.131004
72.930 16.900852
72.935 17.209925
72.940 16.725914
72.945 16.792067
72.950 16.65119
72.955 16.19079
72.960 16.364319
72.965 16.320387
72.970 16.06568
72.975 16.131104
72.980 16.102243
72.985 16.416813
72.990 16.13806
72.995 15.593178
73.000 16.227219
