!@!!GADDS PLOTSO FILE: Chi integration type
!@!!Title/SampleName: map-50
!@!!Comment: ?
!@!!User: Bruker Instrument Administrator
!@!!Site: University of Illinois Chicago
!@!!Frame: map-50_01_000.gfrm
!@!!Wavelengths    1.54184   1.54056   1.54439
!@!!Frame angles: 2Theta: 63.000 Omega: 50.000 Phi: 0.000 Chi: 90.000
!@!!Integration range: 2Theta: 53.000 to 73.000  Gamma: -105.000 to -75.000
!@!!Integration method: bin normalized
!@!N
!@!SS
!@!M
!@!L 0.0 0.0 0.0 0.0
!@!XDegrees
!@!YCounts
53.000 11.543748
53.005 12.015261
53.010 12.166221
53.015 11.432867
53.020 11.082185
53.025 11.298332
53.030 11.147477
53.035 10.428079
53.040 9.93597
53.045 10.447828
53.050 10.850348
53.055 10.898603
53.060 10.608137
53.065 10.71855
53.070 11.212162
53.075 11.447845
53.080 11.057581
53.085 10.924153
53.090 10.871093
53.095 10.815002
53.100 10.765553
53.105 10.697705
53.110 10.626698
53.115 10.152434
53.120 10.26496
53.125 10.13447
53.130 10.189429
53.135 10.416929
53.140 10.20164
53.145 10.39256
53.150 10.773184
53.155 10.731983
53.160 11.123384
53.165 11.182943
53.170 11.090402
53.175 10.981045
53.180 10.881261
53.185 10.939398
53.190 10.746986
53.195 10.67668
53.200 10.529083
53.205 10.329954
53.210 10.201329
53.215 10.005625
53.220 10.098791
53.225 10.21644
53.230 10.401679
53.235 10.555489
53.240 10.526337
53.245 11.010757
53.250 11.274652
53.255 11.277567
53.260 10.720245
53.265 10.786274
53.270 11.389414
53.275 11.772251
53.280 11.523108
53.285 11.030272
53.290 11.019677
53.295 11.092114
53.300 10.511429
53.305 10.11706
53.310 10.271276
53.315 10.528381
53.320 10.934229
53.325 11.172915
53.330 11.240002
53.335 11.445027
53.340 11.330209
53.345 10.980597
53.350 10.765274
53.355 10.661841
53.360 10.692456
53.365 11.07619
53.370 11.085717
53.375 11.195142
53.380 11.235824
53.385 11.107552
53.390 11.453289
53.395 11.50112
53.400 11.115849
53.405 10.919869
53.410 10.997179
53.415 11.185858
53.420 11.387362
53.425 11.358009
53.430 11.891483
53.435 12.147956
53.440 12.236074
53.445 12.059443
53.450 11.567875
53.455 11.241747
53.460 11.295478
53.465 10.856588
53.470 10.569848
53.475 10.726974
53.480 10.646108
53.485 10.931124
53.490 10.739895
53.495 10.485929
53.500 10.490514
53.505 10.618847
53.510 10.353687
53.515 9.916195
53.520 9.991972
53.525 10.254945
53.530 9.857719
53.535 10.036012
53.540 10.236219
53.545 10.63866
53.550 10.947758
53.555 10.70019
53.560 10.897511
53.565 11.430591
53.570 11.311143
53.575 11.11246
53.580 11.348001
53.585 11.304656
53.590 11.837346
53.595 11.661969
53.600 11.751739
53.605 11.800749
53.610 11.619759
53.615 11.771354
53.620 11.901205
53.625 11.25354
53.630 10.90937
53.635 11.039113
53.640 11.261717
53.645 11.102962
53.650 11.123115
53.655 10.339976
53.660 10.4288
53.665 10.754986
53.670 10.353003
53.675 10.125582
53.680 10.053497
53.685 10.155776
53.690 10.712241
53.695 10.902056
53.700 11.110939
53.705 11.758142
53.710 12.071599
53.715 12.440054
53.720 12.361123
53.725 12.097631
53.730 12.195148
53.735 11.654363
53.740 11.511456
53.745 11.392385
53.750 10.943296
53.755 10.768237
53.760 10.542433
53.765 10.388812
53.770 10.2969
53.775 10.41313
53.780 10.573303
53.785 11.181128
53.790 11.760089
53.795 11.720024
53.800 11.306005
53.805 11.361156
53.810 11.561766
53.815 11.50629
53.820 10.898053
53.825 10.457557
53.830 10.792974
53.835 10.939919
53.840 10.907676
53.845 10.398997
53.850 10.463467
53.855 11.1573
53.860 11.998359
53.865 12.070066
53.870 11.892854
53.875 12.110144
53.880 12.649343
53.885 12.626672
53.890 12.474751
53.895 12.021688
53.900 11.8539
53.905 11.978903
53.910 11.678268
53.915 11.58704
53.920 11.529332
53.925 11.153815
53.930 11.163679
53.935 11.333449
53.940 11.393838
53.945 11.625893
53.950 10.88931
53.955 10.765727
53.960 10.882992
53.965 11.136187
53.970 11.342733
53.975 11.122303
53.980 10.997407
53.985 11.527621
53.990 11.8901
53.995 11.845579
54.000 11.605289
54.005 11.704267
54.010 11.842233
54.015 11.656996
54.020 11.61937
54.025 11.686292
54.030 11.578333
54.035 11.962296
54.040 12.602715
54.045 12.868979
54.050 13.197401
54.055 12.909225
54.060 12.953887
54.065 12.89349
54.070 12.138225
54.075 11.38647
54.080 11.392981
54.085 11.557734
54.090 11.311828
54.095 11.127712
54.100 10.993267
54.105 11.219169
54.110 11.552716
54.115 11.430824
54.120 11.316311
54.125 11.826982
54.130 12.000381
54.135 12.426424
54.140 12.332572
54.145 11.682261
54.150 11.583964
54.155 11.643674
54.160 11.863086
54.165 12.394446
54.170 12.453344
54.175 12.410786
54.180 12.525954
54.185 12.935631
54.190 12.543646
54.195 12.189725
54.200 12.136107
54.205 12.041619
54.210 12.089489
54.215 12.20805
54.220 12.024527
54.225 12.542377
54.230 12.846041
54.235 13.223421
54.240 13.414417
54.245 13.7473
54.250 13.829215
54.255 13.82806
54.260 13.688857
54.265 13.308514
54.270 12.527802
54.275 12.201159
54.280 11.367931
54.285 11.246547
54.290 11.270396
54.295 10.980688
54.300 11.013379
54.305 11.338527
54.310 11.645656
54.315 12.272419
54.320 12.022684
54.325 12.480501
54.330 12.682323
54.335 12.812699
54.340 12.626433
54.345 12.53611
54.350 12.779467
54.355 12.541708
54.360 12.054107
54.365 11.861402
54.370 11.721619
54.375 11.678661
54.380 11.630041
54.385 11.299652
54.390 11.59226
54.395 11.669718
54.400 11.690506
54.405 11.727868
54.410 11.636272
54.415 11.737235
54.420 11.977859
54.425 11.837051
54.430 11.92567
54.435 12.02907
54.440 11.991349
54.445 12.72532
54.450 12.647552
54.455 12.390593
54.460 12.264514
54.465 12.222688
54.470 12.471125
54.475 12.213221
54.480 11.938553
54.485 11.9817
54.490 12.363242
54.495 12.803486
54.500 12.728181
54.505 12.630263
54.510 12.440967
54.515 12.276602
54.520 12.312046
54.525 12.689419
54.530 12.467534
54.535 12.437423
54.540 12.739768
54.545 12.629736
54.550 12.405929
54.555 12.210489
54.560 11.875109
54.565 12.200087
54.570 12.028022
54.575 11.412534
54.580 11.493836
54.585 11.9768
54.590 11.791368
54.595 11.537512
54.600 11.176109
54.605 11.767045
54.610 12.438836
54.615 12.35966
54.620 12.456212
54.625 12.202251
54.630 12.027905
54.635 11.877751
54.640 11.308132
54.645 11.001
54.650 10.629387
54.655 10.077376
54.660 10.360788
54.665 10.63797
54.670 10.999603
54.675 10.621241
54.680 11.079031
54.685 11.672101
54.690 12.029602
54.695 11.841706
54.700 11.800551
54.705 12.155852
54.710 12.508616
54.715 12.319357
54.720 12.057465
54.725 11.970518
54.730 11.844827
54.735 11.575934
54.740 11.532757
54.745 11.573487
54.750 11.625684
54.755 11.68259
54.760 11.918925
54.765 12.064318
54.770 12.546021
54.775 12.747543
54.780 13.002152
54.785 13.040745
54.790 13.200896
54.795 13.496373
54.800 13.31486
54.805 13.202987
54.810 12.563623
54.815 12.224174
54.820 12.190587
54.825 11.660025
54.830 11.692898
54.835 11.671719
54.840 11.927062
54.845 12.532315
54.850 12.767175
54.855 13.349799
54.860 13.666391
54.865 13.616289
54.870 13.481552
54.875 13.271437
54.880 12.864219
54.885 12.197477
54.890 11.630957
54.895 11.41489
54.900 11.419342
54.905 11.692862
54.910 12.084591
54.915 12.629787
54.920 13.003939
54.925 13.030447
54.930 13.016073
54.935 12.694105
54.940 12.328576
54.945 11.987535
54.950 12.028938
54.955 12.251036
54.960 12.164688
54.965 12.083865
54.970 12.136422
54.975 12.244649
54.980 12.589154
54.985 12.640919
54.990 12.862737
54.995 12.695292
55.000 12.893674
55.005 13.40003
55.010 12.940108
55.015 12.196498
55.020 11.532537
55.025 11.658723
55.030 12.029475
55.035 11.720882
55.040 11.443692
55.045 11.80981
55.050 12.249342
55.055 12.374357
55.060 12.415522
55.065 12.12896
55.070 12.029355
55.075 12.00093
55.080 12.010769
55.085 12.210793
55.090 12.356024
55.095 12.49758
55.100 13.122575
55.105 13.546174
55.110 13.519911
55.115 13.752841
55.120 13.388778
55.125 13.028337
55.130 12.660814
55.135 12.106694
55.140 11.908189
55.145 11.644667
55.150 11.450573
55.155 11.874266
55.160 11.846361
55.165 12.031328
55.170 12.236359
55.175 12.283778
55.180 12.631459
55.185 12.759498
55.190 13.074641
55.195 14.028272
55.200 13.863707
55.205 13.783731
55.210 14.258251
55.215 14.378109
55.220 13.503767
55.225 12.94311
55.230 12.622719
55.235 13.17837
55.240 13.230629
55.245 12.761509
55.250 12.611533
55.255 13.234143
55.260 13.273114
55.265 13.171367
55.270 13.078928
55.275 13.479929
55.280 13.487493
55.285 13.205727
55.290 13.20219
55.295 13.479573
55.300 13.144341
55.305 12.742084
55.310 13.049406
55.315 13.141542
55.320 13.267733
55.325 12.994751
55.330 12.424903
55.335 12.442836
55.340 11.931614
55.345 11.434555
55.350 11.638126
55.355 11.47557
55.360 11.671825
55.365 12.157992
55.370 12.236958
55.375 12.656652
55.380 12.383389
55.385 12.444364
55.390 12.920642
55.395 13.042616
55.400 12.756819
55.405 12.606716
55.410 12.685056
55.415 12.91469
55.420 13.271556
55.425 13.717661
55.430 13.655107
55.435 14.054295
55.440 14.340542
55.445 14.599215
55.450 14.785461
55.455 14.202952
55.460 14.109618
55.465 14.675435
55.470 14.769491
55.475 14.833945
55.480 14.456689
55.485 14.513074
55.490 14.794921
55.495 14.35388
55.500 14.15084
55.505 14.138606
55.510 14.05356
55.515 14.044855
55.520 13.871445
55.525 13.776067
55.530 13.872626
55.535 13.679416
55.540 13.539899
55.545 13.394814
55.550 13.511033
55.555 13.363079
55.560 13.229242
55.565 13.064721
55.570 12.727053
55.575 12.796243
55.580 12.926404
55.585 12.647038
55.590 12.84666
55.595 12.297162
55.600 12.175117
55.605 11.982668
55.610 11.91374
55.615 11.758302
55.620 11.68959
55.625 12.036895
55.630 12.539078
55.635 12.843984
55.640 13.257414
55.645 13.55291
55.650 13.783823
55.655 14.367372
55.660 13.954312
55.665 13.645681
55.670 13.558469
55.675 13.30181
55.680 13.139926
55.685 12.809243
55.690 12.041362
55.695 12.275187
55.700 13.100012
55.705 13.283999
55.710 13.476617
55.715 13.548941
55.720 13.696265
55.725 13.687716
55.730 13.574817
55.735 13.401096
55.740 13.477878
55.745 13.317949
55.750 13.031021
55.755 13.568039
55.760 13.776036
55.765 14.172904
55.770 14.735529
55.775 14.866302
55.780 15.487137
55.785 15.714587
55.790 15.374158
55.795 15.744613
55.800 15.27283
55.805 14.590747
55.810 14.413347
55.815 14.568881
55.820 14.965036
55.825 14.720983
55.830 14.124574
55.835 14.008334
55.840 14.546207
55.845 14.327817
55.850 14.085305
55.855 13.520521
55.860 13.455705
55.865 13.794044
55.870 13.829528
55.875 14.462063
55.880 15.134219
55.885 15.254833
55.890 15.700793
55.895 15.735628
55.900 15.570525
55.905 15.103318
55.910 14.445036
55.915 13.749279
55.920 13.325287
55.925 13.053475
55.930 13.078917
55.935 13.053674
55.940 13.256942
55.945 13.090219
55.950 13.620728
55.955 14.064049
55.960 14.086537
55.965 14.301266
55.970 14.32563
55.975 14.133304
55.980 14.185286
55.985 13.662527
55.990 13.385068
55.995 13.703637
56.000 13.827382
56.005 14.201822
56.010 14.775722
56.015 14.715801
56.020 14.714115
56.025 14.590732
56.030 14.397922
56.035 14.391518
56.040 14.026135
56.045 13.447373
56.050 13.665372
56.055 14.208461
56.060 14.833184
56.065 15.20847
56.070 14.768866
56.075 14.609277
56.080 14.553756
56.085 14.058752
56.090 13.561959
56.095 13.238198
56.100 12.909314
56.105 13.311578
56.110 13.776219
56.115 14.082997
56.120 14.634911
56.125 14.833366
56.130 14.447572
56.135 14.470901
56.140 14.254765
56.145 13.807871
56.150 13.573576
56.155 13.54341
56.160 13.47343
56.165 13.839888
56.170 13.932193
56.175 14.083113
56.180 13.90498
56.185 13.54631
56.190 13.381081
56.195 13.407022
56.200 12.773602
56.205 12.717864
56.210 12.762202
56.215 12.811741
56.220 12.879061
56.225 12.71575
56.230 13.001721
56.235 13.723926
56.240 13.565171
56.245 13.60607
56.250 13.64021
56.255 13.281641
56.260 13.381045
56.265 13.307869
56.270 13.043878
56.275 13.042366
56.280 12.95189
56.285 13.756076
56.290 13.940742
56.295 13.886148
56.300 13.659061
56.305 13.759247
56.310 14.105369
56.315 14.127085
56.320 13.298417
56.325 13.027162
56.330 12.876921
56.335 12.840912
56.340 12.671537
56.345 12.651567
56.350 13.294047
56.355 14.308969
56.360 14.771312
56.365 15.097023
56.370 15.404144
56.375 15.465771
56.380 15.05563
56.385 14.536254
56.390 14.467772
56.395 14.370604
56.400 14.311079
56.405 14.467123
56.410 14.531568
56.415 14.468117
56.420 13.828969
56.425 13.838015
56.430 13.975508
56.435 14.068717
56.440 13.648566
56.445 13.151334
56.450 13.169742
56.455 13.454402
56.460 13.282885
56.465 13.010732
56.470 12.777101
56.475 13.167282
56.480 13.19643
56.485 13.348922
56.490 14.249288
56.495 14.013753
56.500 13.92745
56.505 13.950275
56.510 13.637404
56.515 13.481644
56.520 13.369466
56.525 13.188991
56.530 12.911109
56.535 12.640921
56.540 12.209061
56.545 12.278831
56.550 12.320988
56.555 11.791285
56.560 11.274002
56.565 11.792563
56.570 12.127996
56.575 12.769335
56.580 13.232784
56.585 13.292728
56.590 13.052931
56.595 13.760683
56.600 13.858991
56.605 13.967174
56.610 13.584496
56.615 13.889939
56.620 13.832326
56.625 14.053072
56.630 13.8433
56.635 13.927654
56.640 14.278798
56.645 13.849889
56.650 14.082486
56.655 14.880137
56.660 15.485847
56.665 15.634729
56.670 15.241374
56.675 15.39037
56.680 15.948186
56.685 15.669766
56.690 15.619663
56.695 15.352854
56.700 15.759794
56.705 16.219641
56.710 15.978768
56.715 15.693104
56.720 15.51965
56.725 15.467599
56.730 15.161804
56.735 14.45278
56.740 13.746683
56.745 13.972966
56.750 13.7199
56.755 13.727477
56.760 13.336571
56.765 13.208445
56.770 13.258049
56.775 13.208492
56.780 13.27313
56.785 13.68922
56.790 14.335006
56.795 14.669974
56.800 14.888647
56.805 15.418504
56.810 15.471766
56.815 15.683641
56.820 15.699815
56.825 15.340286
56.830 15.365849
56.835 15.515503
56.840 15.282483
56.845 15.137566
56.850 14.586376
56.855 14.699353
56.860 14.859685
56.865 15.207362
56.870 15.16
56.875 14.637957
56.880 14.745652
56.885 14.983666
56.890 14.341114
56.895 14.056164
56.900 13.401128
56.905 13.500118
56.910 14.101799
56.915 13.511273
56.920 13.25891
56.925 13.22262
56.930 13.198869
56.935 13.265514
56.940 13.354698
56.945 13.420357
56.950 13.614802
56.955 13.55799
56.960 14.037046
56.965 13.950014
56.970 13.903785
56.975 14.465788
56.980 14.750511
56.985 14.876351
56.990 14.994904
56.995 15.300512
57.000 15.778952
57.005 16.078703
57.010 15.369367
57.015 15.588417
57.020 15.780663
57.025 15.843809
57.030 15.4781
57.035 15.322204
57.040 14.445683
57.045 14.36089
57.050 14.455757
57.055 14.213506
57.060 14.12545
57.065 13.809566
57.070 14.26494
57.075 15.320516
57.080 15.409389
57.085 15.242122
57.090 15.793736
57.095 15.785542
57.100 15.963318
57.105 15.354925
57.110 15.493298
57.115 15.204658
57.120 15.641216
57.125 15.592849
57.130 15.822165
57.135 16.186031
57.140 16.967731
57.145 17.073154
57.150 17.19903
57.155 16.485786
57.160 16.011364
57.165 15.676226
57.170 15.516169
57.175 14.875925
57.180 14.586826
57.185 14.705686
57.190 15.211043
57.195 15.618442
57.200 15.848041
57.205 15.789921
57.210 15.822615
57.215 15.835455
57.220 15.630362
57.225 15.668848
57.230 15.429822
57.235 15.14278
57.240 15.157342
57.245 14.992953
57.250 15.13341
57.255 15.256115
57.260 15.349625
57.265 15.886687
57.270 16.124073
57.275 16.074869
57.280 16.03154
57.285 16.180359
57.290 15.841471
57.295 15.304479
57.300 15.523242
57.305 15.222414
57.310 15.385159
57.315 15.765535
57.320 16.044807
57.325 16.230301
57.330 16.091124
57.335 15.852248
57.340 15.714565
57.345 15.305502
57.350 14.897236
57.355 14.28643
57.360 14.440576
57.365 14.623518
57.370 14.784546
57.375 14.971937
57.380 15.082894
57.385 15.043695
57.390 15.282297
57.395 15.457062
57.400 15.746784
57.405 15.981085
57.410 16.418367
57.415 16.214838
57.420 15.806499
57.425 15.530863
57.430 15.286995
57.435 14.752212
57.440 14.239268
57.445 14.209251
57.450 14.432293
57.455 15.079894
57.460 15.222903
57.465 14.984447
57.470 15.391232
57.475 15.68383
57.480 15.854053
57.485 15.753201
57.490 15.360408
57.495 15.364047
57.500 15.736171
57.505 15.268274
57.510 15.084128
57.515 15.090893
57.520 16.177921
57.525 17.041134
57.530 16.993921
57.535 16.774658
57.540 16.626722
57.545 16.220018
57.550 16.064013
57.555 16.114388
57.560 15.605323
57.565 16.353512
57.570 16.929976
57.575 17.014851
57.580 17.130224
57.585 17.296192
57.590 17.334097
57.595 17.311914
57.600 17.000122
57.605 17.00161
57.610 18.106695
57.615 18.441261
57.620 18.336506
57.625 17.412268
57.630 17.131477
57.635 16.795395
57.640 16.816362
57.645 16.515594
57.650 16.140295
57.655 15.664842
57.660 15.676243
57.665 15.56321
57.670 15.782811
57.675 15.756474
57.680 16.043455
57.685 16.471222
57.690 16.385065
57.695 16.386911
57.700 16.570019
57.705 16.460718
57.710 16.347197
57.715 16.451565
57.720 16.78373
57.725 17.191193
57.730 17.251961
57.735 16.956572
57.740 16.555542
57.745 16.237665
57.750 16.081505
57.755 16.097738
57.760 16.175436
57.765 16.915064
57.770 17.038473
57.775 17.199068
57.780 17.472628
57.785 17.501862
57.790 17.534185
57.795 17.603569
57.800 17.48259
57.805 17.75984
57.810 17.499422
57.815 17.166067
57.820 16.97554
57.825 16.838882
57.830 16.649
57.835 16.176987
57.840 16.349155
57.845 16.554106
57.850 17.041443
57.855 16.824474
57.860 17.029104
57.865 17.068132
57.870 17.246969
57.875 17.29351
57.880 17.461042
57.885 16.997789
57.890 16.803337
57.895 16.744209
57.900 17.404629
57.905 17.746778
57.910 17.325039
57.915 17.258171
57.920 17.417242
57.925 17.305361
57.930 16.893669
57.935 16.144651
57.940 16.139437
57.945 16.079159
57.950 16.009418
57.955 15.926208
57.960 16.245068
57.965 16.484257
57.970 16.46368
57.975 15.872086
57.980 15.690282
57.985 15.636385
57.990 15.599649
57.995 15.598096
58.000 15.652635
58.005 16.265909
58.010 16.940413
58.015 17.341263
58.020 17.768429
58.025 17.681938
58.030 17.406073
58.035 17.319796
58.040 17.012489
58.045 16.891142
58.050 17.274107
58.055 17.273127
58.060 17.116991
58.065 17.517223
58.070 17.754911
58.075 18.3601
58.080 18.446388
58.085 18.483868
58.090 18.610544
58.095 18.989498
58.100 19.22337
58.105 19.748032
58.110 19.399818
58.115 18.929985
58.120 18.620537
58.125 18.70882
58.130 18.892178
58.135 18.328819
58.140 17.522837
58.145 18.157263
58.150 18.159906
58.155 18.213564
58.160 17.846199
58.165 18.416235
58.170 18.855501
58.175 18.650423
58.180 18.371704
58.185 18.655941
58.190 18.819178
58.195 19.410576
58.200 19.12426
58.205 19.063932
58.210 18.959362
58.215 18.619328
58.220 18.847696
58.225 18.816616
58.230 18.559595
58.235 18.699261
58.240 18.982313
58.245 19.812342
58.250 20.402576
58.255 20.038445
58.260 19.390831
58.265 18.959135
58.270 18.289114
58.275 18.057028
58.280 18.265913
58.285 19.029522
58.290 20.02854
58.295 21.150881
58.300 21.879879
58.305 22.239832
58.310 22.987349
58.315 23.014771
58.320 22.948563
58.325 23.022463
58.330 22.90439
58.335 23.556458
58.340 24.049683
58.345 24.46431
58.350 25.434233
58.355 25.085293
58.360 24.576805
58.365 24.872421
58.370 24.955091
58.375 24.866522
58.380 24.320568
58.385 23.492317
58.390 23.312477
58.395 23.129963
58.400 22.619095
58.405 22.308876
58.410 22.434467
58.415 22.572624
58.420 22.449053
58.425 23.226803
58.430 24.205946
58.435 24.615408
58.440 24.960432
58.445 25.000532
58.450 25.076258
58.455 25.796394
58.460 25.184067
58.465 25.00388
58.470 25.094395
58.475 25.132813
58.480 25.104448
58.485 24.732586
58.490 24.578058
58.495 25.444473
58.500 25.273417
58.505 25.598879
58.510 25.989285
58.515 25.683121
58.520 25.474104
58.525 25.160004
58.530 24.882639
58.535 24.795597
58.540 24.519796
58.545 24.306671
58.550 24.762623
58.555 25.300785
58.560 25.860853
58.565 26.223551
58.570 26.80867
58.575 26.744938
58.580 26.654604
58.585 26.713835
58.590 27.225863
58.595 27.822668
58.600 28.124441
58.605 27.35865
58.610 27.068077
58.615 27.393839
58.620 28.185925
58.625 28.713482
58.630 28.522852
58.635 28.316275
58.640 29.128082
58.645 29.449759
58.650 29.139282
58.655 28.288721
58.660 27.929976
58.665 27.779961
58.670 27.419012
58.675 26.776978
58.680 26.233181
58.685 26.151396
58.690 26.350197
58.695 25.69828
58.700 24.752239
58.705 24.954163
58.710 25.186935
58.715 25.654303
58.720 25.460163
58.725 25.180683
58.730 24.379257
58.735 24.361685
58.740 24.111155
58.745 24.49362
58.750 24.735876
58.755 24.603954
58.760 24.468746
58.765 25.049225
58.770 25.115217
58.775 24.904564
58.780 24.140114
58.785 23.864527
58.790 24.357662
58.795 24.189678
58.800 23.937546
58.805 24.03208
58.810 24.536282
58.815 24.544603
58.820 24.646988
58.825 24.789045
58.830 24.63282
58.835 24.301226
58.840 23.898809
58.845 23.282173
58.850 22.860361
58.855 22.089788
58.860 21.507982
58.865 21.552446
58.870 22.446335
58.875 21.783638
58.880 21.273279
58.885 21.652147
58.890 22.110809
58.895 22.077667
58.900 21.980206
58.905 21.281851
58.910 21.610935
58.915 21.467588
58.920 21.033655
58.925 20.545765
58.930 21.124466
58.935 21.173988
58.940 21.291996
58.945 21.780621
58.950 22.20454
58.955 22.325785
58.960 22.082909
58.965 22.014069
58.970 21.286255
58.975 20.449539
58.980 20.242407
58.985 19.538378
58.990 19.272545
58.995 19.751835
59.000 19.520979
59.005 20.372807
59.010 21.083315
59.015 20.906139
59.020 20.99971
59.025 20.936934
59.030 20.346804
59.035 20.005203
59.040 19.625088
59.045 19.503695
59.050 19.468327
59.055 19.870977
59.060 19.990961
59.065 19.946365
59.070 20.164759
59.075 20.731871
59.080 20.923195
59.085 20.491398
59.090 20.330009
59.095 20.502977
59.100 20.984659
59.105 21.134386
59.110 21.025452
59.115 20.832994
59.120 21.649158
59.125 21.330484
59.130 21.553629
59.135 21.188271
59.140 21.297583
59.145 21.896215
59.150 22.318552
59.155 22.102306
59.160 22.16737
59.165 21.695526
59.170 21.798124
59.175 21.587135
59.180 20.613625
59.185 20.219465
59.190 19.887003
59.195 19.959631
59.200 19.823551
59.205 19.872166
59.210 20.287031
59.215 20.587252
59.220 20.228643
59.225 20.065939
59.230 19.69002
59.235 19.90078
59.240 19.375828
59.245 19.630503
59.250 19.705326
59.255 19.649284
59.260 19.944391
59.265 20.450481
59.270 20.905222
59.275 21.42008
59.280 20.748365
59.285 20.792036
59.290 21.072859
59.295 21.084314
59.300 20.762383
59.305 20.29495
59.310 20.236286
59.315 19.739492
59.320 19.484146
59.325 19.108551
59.330 18.743933
59.335 18.967859
59.340 18.706482
59.345 18.624706
59.350 18.892529
59.355 19.251167
59.360 19.625839
59.365 19.870825
59.370 19.371111
59.375 19.466185
59.380 19.336906
59.385 19.625719
59.390 19.509876
59.395 19.715918
59.400 19.870581
59.405 20.216013
59.410 20.389395
59.415 20.397339
59.420 19.82622
59.425 20.128227
59.430 19.997881
59.435 20.032742
59.440 19.898718
59.445 19.580427
59.450 19.511185
59.455 19.555712
59.460 19.647224
59.465 19.644333
59.470 19.405327
59.475 19.828142
59.480 20.198673
59.485 20.182821
59.490 20.020334
59.495 19.567202
59.500 19.864964
59.505 20.000202
59.510 19.60169
59.515 19.310801
59.520 19.056217
59.525 18.984575
59.530 18.995201
59.535 18.29166
59.540 18.017893
59.545 17.967005
59.550 18.262571
59.555 18.283611
59.560 18.145527
59.565 18.426395
59.570 18.554617
59.575 18.679028
59.580 18.276159
59.585 18.546326
59.590 19.22016
59.595 19.717335
59.600 19.467663
59.605 19.58922
59.610 20.410269
59.615 20.808586
59.620 20.184895
59.625 20.221445
59.630 19.543045
59.635 19.530416
59.640 19.452013
59.645 18.78886
59.650 18.980883
59.655 19.254303
59.660 19.031172
59.665 19.252813
59.670 18.90992
59.675 18.353579
59.680 18.352308
59.685 18.210199
59.690 18.161289
59.695 18.673965
59.700 19.185715
59.705 19.620224
59.710 19.700918
59.715 19.36731
59.720 19.212948
59.725 19.141754
59.730 18.443968
59.735 18.255199
59.740 18.626163
59.745 19.540857
59.750 19.655096
59.755 19.749363
59.760 19.600929
59.765 19.783249
59.770 19.36978
59.775 19.011141
59.780 18.706858
59.785 19.219252
59.790 19.44944
59.795 19.792883
59.800 20.144127
59.805 20.669395
59.810 21.20332
59.815 21.237003
59.820 20.796196
59.825 20.091711
59.830 19.924606
59.835 19.925962
59.840 19.794327
59.845 19.49934
59.850 19.411779
59.855 19.161816
59.860 19.684513
59.865 19.600863
59.870 19.243763
59.875 18.671953
59.880 18.471281
59.885 18.195177
59.890 18.256905
59.895 18.359797
59.900 18.632185
59.905 18.870865
59.910 19.127922
59.915 19.207344
59.920 19.64156
59.925 20.367741
59.930 20.080904
59.935 19.55695
59.940 19.361298
59.945 19.002199
59.950 18.678949
59.955 18.70122
59.960 18.270134
59.965 18.025805
59.970 17.788645
59.975 18.229002
59.980 18.441135
59.985 18.810846
59.990 18.71027
59.995 18.551279
60.000 19.088291
60.005 19.378448
60.010 19.17651
60.015 19.261265
60.020 18.920195
60.025 18.519123
60.030 18.911531
60.035 18.73917
60.040 18.385818
60.045 18.076504
60.050 18.27556
60.055 19.142378
60.060 19.194664
60.065 18.707239
60.070 19.116148
60.075 19.762678
60.080 20.099443
60.085 19.77265
60.090 19.540033
60.095 20.001978
60.100 20.127737
60.105 19.612303
60.110 19.391512
60.115 18.946634
60.120 18.682905
60.125 18.201876
60.130 17.731337
60.135 18.056776
60.140 18.18259
60.145 18.051302
60.150 18.169025
60.155 18.059956
60.160 18.184919
60.165 18.823616
60.170 18.931028
60.175 18.653761
60.180 18.792809
60.185 18.496868
60.190 18.598547
60.195 18.56201
60.200 17.919249
60.205 17.467176
60.210 17.233751
60.215 16.909201
60.220 16.731565
60.225 17.355108
60.230 17.387506
60.235 17.243462
60.240 17.338926
60.245 17.528664
60.250 17.971165
60.255 18.519146
60.260 18.25576
60.265 18.14187
60.270 18.49448
60.275 18.240763
60.280 17.883724
60.285 18.032269
60.290 18.630289
60.295 18.654951
60.300 18.711946
60.305 18.0355
60.310 18.27216
60.315 19.039518
60.320 18.938812
60.325 18.370148
60.330 18.193476
60.335 17.831783
60.340 18.078327
60.345 18.260414
60.350 18.33135
60.355 18.363909
60.360 17.967302
60.365 18.20974
60.370 18.803589
60.375 18.90519
60.380 18.696947
60.385 18.317743
60.390 18.40609
60.395 18.959127
60.400 18.612761
60.405 18.598986
60.410 19.284977
60.415 19.072659
60.420 19.229704
60.425 19.563082
60.430 19.123999
60.435 19.110327
60.440 18.855433
60.445 18.212648
60.450 18.507
60.455 18.357334
60.460 17.572231
60.465 17.158516
60.470 17.158781
60.475 17.614349
60.480 18.272663
60.485 18.127239
60.490 17.651283
60.495 18.037502
60.500 18.939106
60.505 19.115395
60.510 18.241833
60.515 17.57744
60.520 17.686234
60.525 17.851364
60.530 17.9132
60.535 17.390137
60.540 17.352776
60.545 17.860149
60.550 17.989225
60.555 17.785616
60.560 17.493996
60.565 17.886967
60.570 17.471451
60.575 17.014309
60.580 17.050451
60.585 17.158482
60.590 17.744471
60.595 18.234509
60.600 17.726717
60.605 18.311651
60.610 18.673506
60.615 18.82514
60.620 18.90727
60.625 19.018183
60.630 18.957018
60.635 18.8969
60.640 19.426708
60.645 19.655409
60.650 18.854231
60.655 18.464376
60.660 18.047489
60.665 18.224463
60.670 18.646107
60.675 18.118517
60.680 17.652576
60.685 18.021223
60.690 17.847178
60.695 17.664164
60.700 17.46982
60.705 16.952188
60.710 16.999697
60.715 16.890638
60.720 16.93128
60.725 16.970602
60.730 17.024809
60.735 16.923159
60.740 16.955437
60.745 16.958061
60.750 17.423981
60.755 17.408215
60.760 17.661604
60.765 17.871971
60.770 17.748781
60.775 17.17783
60.780 16.163799
60.785 15.72523
60.790 15.724516
60.795 15.569864
60.800 15.231285
60.805 15.346763
60.810 16.361879
60.815 17.441647
60.820 18.437824
60.825 19.068659
60.830 19.435133
60.835 19.1061
60.840 19.049051
60.845 18.703753
60.850 18.622561
60.855 17.527678
60.860 16.411987
60.865 16.082832
60.870 16.666693
60.875 16.86689
60.880 16.735968
60.885 16.666998
60.890 16.719961
60.895 17.008827
60.900 16.950869
60.905 17.038597
60.910 16.797707
60.915 16.704475
60.920 16.648399
60.925 16.722279
60.930 16.764818
60.935 17.347116
60.940 16.719162
60.945 16.539412
60.950 16.689013
60.955 16.241989
60.960 16.103661
60.965 15.876565
60.970 15.456916
60.975 15.955074
60.980 16.367594
60.985 16.256382
60.990 16.791727
60.995 17.499111
61.000 17.519535
61.005 17.37252
61.010 16.945854
61.015 16.664824
61.020 16.623394
61.025 16.333639
61.030 15.836095
61.035 16.225691
61.040 16.756618
61.045 17.206295
61.050 17.295
61.055 17.146397
61.060 16.726818
61.065 16.904158
61.070 16.507164
61.075 16.076052
61.080 15.944498
61.085 15.794539
61.090 16.035593
61.095 16.672398
61.100 16.957865
61.105 17.745506
61.110 17.987787
61.115 17.422428
61.120 17.262104
61.125 17.973497
61.130 18.028351
61.135 17.577986
61.140 17.072268
61.145 17.519297
61.150 18.194258
61.155 18.608377
61.160 18.546799
61.165 18.373861
61.170 18.457121
61.175 17.860828
61.180 17.694811
61.185 17.821087
61.190 18.056435
61.195 18.557684
61.200 19.171831
61.205 19.635382
61.210 20.303234
61.215 20.531214
61.220 20.662489
61.225 20.180723
61.230 19.580305
61.235 19.145229
61.240 18.906282
61.245 18.820137
61.250 18.49683
61.255 18.117998
61.260 18.297743
61.265 17.683725
61.270 17.600866
61.275 17.357418
61.280 16.856279
61.285 16.529163
61.290 16.801311
61.295 16.434637
61.300 16.453859
61.305 16.231142
61.310 16.052425
61.315 16.041065
61.320 16.289804
61.325 16.314262
61.330 16.670605
61.335 17.209625
61.340 17.529696
61.345 17.805735
61.350 18.116665
61.355 17.935484
61.360 17.591167
61.365 17.577087
61.370 16.998322
61.375 17.039368
61.380 17.06362
61.385 16.903152
61.390 16.876347
61.395 17.003418
61.400 16.544373
61.405 16.469734
61.410 16.078011
61.415 15.777983
61.420 16.168755
61.425 16.461937
61.430 16.220297
61.435 16.796394
61.440 17.382309
61.445 17.617901
61.450 17.928289
61.455 18.004972
61.460 17.578897
61.465 17.719334
61.470 17.645193
61.475 18.457561
61.480 19.078556
61.485 18.838541
61.490 18.629833
61.495 19.00635
61.500 19.251144
61.505 18.847057
61.510 18.348892
61.515 17.836718
61.520 17.47361
61.525 17.218956
61.530 17.046898
61.535 16.812325
61.540 16.918949
61.545 16.747873
61.550 16.956659
61.555 17.325449
61.560 17.94573
61.565 18.331652
61.570 18.407827
61.575 18.812639
61.580 19.152719
61.585 19.094049
61.590 19.216766
61.595 18.521654
61.600 18.260681
61.605 18.087776
61.610 17.461334
61.615 16.655041
61.620 16.314293
61.625 16.353516
61.630 16.666748
61.635 17.231075
61.640 17.346333
61.645 17.007811
61.650 17.205669
61.655 17.366407
61.660 17.222012
61.665 17.084839
61.670 16.717281
61.675 16.24917
61.680 17.023783
61.685 16.767422
61.690 16.629295
61.695 16.807354
61.700 16.303402
61.705 16.744246
61.710 17.42708
61.715 16.821114
61.720 17.421135
61.725 17.578764
61.730 16.989855
61.735 16.881397
61.740 16.57486
61.745 16.640471
61.750 16.83193
61.755 16.013496
61.760 16.216387
61.765 16.769482
61.770 17.177422
61.775 17.227558
61.780 16.833147
61.785 16.692585
61.790 17.184366
61.795 16.92227
61.800 16.784163
61.805 16.883635
61.810 17.007923
61.815 17.51317
61.820 17.559093
61.825 17.30681
61.830 17.610882
61.835 17.620605
61.840 17.238852
61.845 16.834888
61.850 16.613501
61.855 17.215534
61.860 17.640062
61.865 17.423428
61.870 17.883425
61.875 17.971821
61.880 17.917788
61.885 17.763325
61.890 16.936014
61.895 17.308535
61.900 17.701532
61.905 17.223492
61.910 17.793053
61.915 17.980577
61.920 18.142155
61.925 18.824556
61.930 18.491634
61.935 18.250544
61.940 18.212299
61.945 18.171665
61.950 18.514452
61.955 18.486128
61.960 18.28297
61.965 17.406666
61.970 17.378422
61.975 17.297234
61.980 17.301268
61.985 17.276758
61.990 17.296934
61.995 17.009697
62.000 17.441326
62.005 17.310474
62.010 17.717077
62.015 17.047106
62.020 16.897612
62.025 16.80928
62.030 16.654459
62.035 16.683922
62.040 17.030262
62.045 16.385027
62.050 16.373417
62.055 16.30595
62.060 16.06673
62.065 16.026192
62.070 16.035345
62.075 15.700907
62.080 15.824947
62.085 15.533884
62.090 15.529387
62.095 15.915071
62.100 15.943685
62.105 16.24559
62.110 16.46282
62.115 16.77438
62.120 17.587727
62.125 18.147852
62.130 18.40848
62.135 18.720438
62.140 19.035746
62.145 19.347843
62.150 20.218998
62.155 20.38772
62.160 20.625259
62.165 20.487371
62.170 20.671087
62.175 20.476809
62.180 20.45104
62.185 19.567389
62.190 18.753845
62.195 17.963232
62.200 17.66188
62.205 17.185635
62.210 16.500587
62.215 15.864283
62.220 15.322762
62.225 15.314661
62.230 15.111501
62.235 14.447504
62.240 14.033499
62.245 14.35363
62.250 14.716201
62.255 15.022516
62.260 15.163743
62.265 15.421935
62.270 15.645523
62.275 15.848752
62.280 15.267623
62.285 15.20064
62.290 15.031026
62.295 14.902986
62.300 15.650192
62.305 16.315228
62.310 16.894415
62.315 17.353323
62.320 17.545946
62.325 18.161251
62.330 18.427822
62.335 17.589317
62.340 17.413223
62.345 17.183346
62.350 16.995029
62.355 17.283978
62.360 17.247467
62.365 17.176706
62.370 17.589727
62.375 17.29249
62.380 17.505587
62.385 17.255499
62.390 16.601671
62.395 16.308474
62.400 16.520294
62.405 16.450581
62.410 17.221966
62.415 17.270092
62.420 17.78228
62.425 17.817247
62.430 17.863647
62.435 17.94845
62.440 18.297657
62.445 18.444162
62.450 18.379751
62.455 18.578369
62.460 18.865664
62.465 18.974447
62.470 19.345716
62.475 19.587934
62.480 19.385368
62.485 19.312506
62.490 19.440653
62.495 19.321047
62.500 18.866655
62.505 17.73765
62.510 17.467539
62.515 17.24946
62.520 17.518055
62.525 16.778788
62.530 16.738222
62.535 17.140989
62.540 17.382784
62.545 17.154922
62.550 17.008331
62.555 17.128616
62.560 17.322792
62.565 17.26475
62.570 17.137764
62.575 16.899826
62.580 17.137362
62.585 17.505766
62.590 17.40674
62.595 17.032795
62.600 16.708372
62.605 16.459677
62.610 16.338846
62.615 16.135963
62.620 16.108105
62.625 16.033583
62.630 16.789467
62.635 17.30938
62.640 17.644068
62.645 18.591333
62.650 18.756771
62.655 18.948338
62.660 19.147356
62.665 18.754112
62.670 18.689869
62.675 19.076475
62.680 18.951933
62.685 18.74184
62.690 17.778515
62.695 17.487413
62.700 17.163824
62.705 17.583408
62.710 17.838436
62.715 17.40061
62.720 17.391357
62.725 17.661898
62.730 18.382111
62.735 19.14538
62.740 18.806341
62.745 18.244011
62.750 18.436989
62.755 18.985029
62.760 19.428131
62.765 18.730541
62.770 17.821192
62.775 17.865292
62.780 18.220663
62.785 18.631687
62.790 17.956322
62.795 17.847025
62.800 18.056091
62.805 18.83757
62.810 18.863173
62.815 18.838493
62.820 18.32169
62.825 18.520817
62.830 18.61656
62.835 18.7917
62.840 18.449238
62.845 18.150566
62.850 18.26474
62.855 18.513626
62.860 18.21895
62.865 17.973364
62.870 17.525888
62.875 17.199209
62.880 17.012716
62.885 16.630957
62.890 16.505445
62.895 16.726379
62.900 17.126335
62.905 17.564037
62.910 17.980316
62.915 18.476555
62.920 18.823168
62.925 18.832701
62.930 18.669046
62.935 18.03916
62.940 17.829485
62.945 17.969866
62.950 17.523939
62.955 17.182024
62.960 16.945576
62.965 17.117662
62.970 17.842909
62.975 18.184855
62.980 17.927279
62.985 17.516216
62.990 17.792364
62.995 18.097385
63.000 17.880491
63.005 17.419426
63.010 17.377182
63.015 17.390339
63.020 17.619514
63.025 17.707556
63.030 17.807854
63.035 18.156193
63.040 17.949127
63.045 18.316826
63.050 18.379944
63.055 18.31809
63.060 18.297821
63.065 17.487492
63.070 17.513233
63.075 17.193333
63.080 16.995096
63.085 17.456167
63.090 18.079144
63.095 17.909271
63.100 17.882885
63.105 17.545284
63.110 17.749481
63.115 17.917053
63.120 18.045471
63.125 17.739422
63.130 17.874617
63.135 18.516352
63.140 19.03101
63.145 18.990561
63.150 18.185051
63.155 17.803383
63.160 18.110929
63.165 18.582483
63.170 18.673044
63.175 19.026329
63.180 19.389915
63.185 19.838579
63.190 19.952543
63.195 19.894653
63.200 19.755804
63.205 19.057102
63.210 18.769316
63.215 18.374022
63.220 18.366856
63.225 18.261187
63.230 18.084793
63.235 17.896471
63.240 18.020473
63.245 17.557444
63.250 17.888338
63.255 18.180599
63.260 18.145927
63.265 17.801867
63.270 17.739084
63.275 18.367271
63.280 19.189629
63.285 18.928453
63.290 18.626123
63.295 18.219168
63.300 18.698875
63.305 18.949039
63.310 18.8808
63.315 18.652462
63.320 19.022097
63.325 19.101379
63.330 19.058928
63.335 18.805847
63.340 17.802153
63.345 17.121149
63.350 16.850475
63.355 16.385567
63.360 15.71916
63.365 15.680335
63.370 15.929151
63.375 17.081596
63.380 17.656771
63.385 17.72632
63.390 18.09387
63.395 18.278847
63.400 18.355036
63.405 18.290058
63.410 17.940441
63.415 17.564905
63.420 17.66993
63.425 18.37908
63.430 19.740162
63.435 20.098005
63.440 19.953625
63.445 20.165121
63.450 20.480766
63.455 20.057207
63.460 19.59811
63.465 19.047295
63.470 18.755028
63.475 19.071823
63.480 19.545723
63.485 19.890945
63.490 20.16395
63.495 19.81801
63.500 19.832726
63.505 20.134996
63.510 20.365549
63.515 20.321772
63.520 20.484583
63.525 20.522919
63.530 20.716387
63.535 21.097807
63.540 20.952642
63.545 20.425579
63.550 19.839867
63.555 19.636511
63.560 19.863003
63.565 19.940851
63.570 19.27095
63.575 19.944981
63.580 19.975702
63.585 20.100157
63.590 20.358871
63.595 20.494762
63.600 20.542528
63.605 20.783571
63.610 19.960651
63.615 20.061293
63.620 20.260426
63.625 19.40476
63.630 18.561277
63.635 17.750069
63.640 17.521338
63.645 18.010153
63.650 17.905146
63.655 18.038908
63.660 18.433819
63.665 19.441086
63.670 20.426754
63.675 20.586613
63.680 20.506231
63.685 20.887716
63.690 20.900986
63.695 21.125799
63.700 20.760767
63.705 20.655888
63.710 20.946474
63.715 20.953241
63.720 20.612551
63.725 20.442596
63.730 20.527096
63.735 20.531643
63.740 20.839405
63.745 20.774843
63.750 20.685551
63.755 20.685925
63.760 20.838697
63.765 20.37726
63.770 20.575794
63.775 20.570444
63.780 21.232298
63.785 21.552717
63.790 22.271297
63.795 22.479263
63.800 22.804708
63.805 22.830881
63.810 22.601105
63.815 21.819283
63.820 21.404356
63.825 20.763199
63.830 20.489141
63.835 21.591684
63.840 21.642576
63.845 21.528872
63.850 21.537165
63.855 21.865086
63.860 21.651823
63.865 21.639305
63.870 21.199476
63.875 21.483221
63.880 21.8449
63.885 22.882509
63.890 23.128412
63.895 23.842476
63.900 23.236229
63.905 22.956076
63.910 23.328165
63.915 23.816694
63.920 23.126974
63.925 22.988041
63.930 22.735666
63.935 23.705938
63.940 23.76623
63.945 23.664257
63.950 23.836744
63.955 24.488449
63.960 25.407513
63.965 25.977816
63.970 26.352665
63.975 26.633245
63.980 26.370375
63.985 25.81815
63.990 25.985207
63.995 26.545168
64.000 26.64197
64.005 26.923841
64.010 27.408329
64.015 28.249264
64.020 29.460955
64.025 29.080368
64.030 28.446133
64.035 28.447538
64.040 28.158846
64.045 27.652296
64.050 27.52972
64.055 27.702528
64.060 28.105003
64.065 28.274473
64.070 28.102528
64.075 28.208786
64.080 28.925453
64.085 29.053596
64.090 28.800676
64.095 28.572399
64.100 28.534157
64.105 29.072474
64.110 29.413754
64.115 29.592604
64.120 29.396627
64.125 29.070168
64.130 29.386786
64.135 29.761719
64.140 29.701084
64.145 30.18964
64.150 29.971891
64.155 30.19142
64.160 30.654058
64.165 30.429562
64.170 29.92626
64.175 29.263855
64.180 28.578999
64.185 27.898043
64.190 27.53109
64.195 27.02869
64.200 27.040903
64.205 27.401403
64.210 28.095512
64.215 28.382406
64.220 29.756517
64.225 30.460197
64.230 31.459688
64.235 32.099342
64.240 32.292122
64.245 32.467892
64.250 32.144455
64.255 31.3309
64.260 31.636135
64.265 31.033384
64.270 30.726637
64.275 30.071215
64.280 29.675217
64.285 29.557938
64.290 29.653162
64.295 28.714956
64.300 29.176125
64.305 28.508514
64.310 28.70355
64.315 28.723677
64.320 28.494867
64.325 28.230131
64.330 28.801762
64.335 28.556559
64.340 29.016741
64.345 29.169752
64.350 29.303127
64.355 29.465973
64.360 29.614639
64.365 29.238199
64.370 29.061625
64.375 29.42597
64.380 29.276646
64.385 29.406593
64.390 30.106737
64.395 30.204138
64.400 29.964199
64.405 29.63563
64.410 29.215046
64.415 28.071548
64.420 27.182571
64.425 26.706579
64.430 26.570595
64.435 26.78973
64.440 27.448397
64.445 28.423124
64.450 29.756672
64.455 30.675432
64.460 30.941175
64.465 30.555639
64.470 30.730072
64.475 30.437141
64.480 29.862743
64.485 29.797802
64.490 29.745939
64.495 29.437288
64.500 29.663338
64.505 29.344631
64.510 29.13151
64.515 28.626465
64.520 27.856426
64.525 27.08033
64.530 26.778406
64.535 26.761837
64.540 26.138386
64.545 25.806078
64.550 25.767847
64.555 25.350521
64.560 24.885832
64.565 24.917255
64.570 24.9079
64.575 25.193859
64.580 24.905472
64.585 24.987705
64.590 25.397715
64.595 25.890081
64.600 25.468451
64.605 24.395306
64.610 23.999903
64.615 24.142208
64.620 23.404938
64.625 23.398355
64.630 23.431961
64.635 22.858969
64.640 22.797451
64.645 22.674314
64.650 22.122923
64.655 22.617012
64.660 23.150023
64.665 23.699986
64.670 24.698626
64.675 24.49473
64.680 24.805082
64.685 24.950741
64.690 25.123339
64.695 24.787271
64.700 24.537411
64.705 24.498581
64.710 25.613153
64.715 25.362185
64.720 25.269316
64.725 25.043613
64.730 24.786108
64.735 24.535707
64.740 23.934929
64.745 23.100414
64.750 23.376051
64.755 23.277973
64.760 23.04912
64.765 22.917084
64.770 22.845936
64.775 22.3242
64.780 22.650604
64.785 22.61725
64.790 23.149717
64.795 23.516432
64.800 23.716177
64.805 23.875624
64.810 24.765577
64.815 24.687298
64.820 24.616583
64.825 24.38287
64.830 23.988657
64.835 23.331228
64.840 23.145292
64.845 23.519609
64.850 23.743624
64.855 24.320305
64.860 24.186508
64.865 24.416424
64.870 24.289995
64.875 24.163687
64.880 23.536087
64.885 23.265404
64.890 22.880661
64.895 22.827782
64.900 22.602102
64.905 23.166395
64.910 23.44809
64.915 23.506338
64.920 23.003368
64.925 22.898952
64.930 22.520756
64.935 22.62422
64.940 22.650251
64.945 22.587097
64.950 22.432772
64.955 23.210793
64.960 23.908903
64.965 24.876753
64.970 25.185461
64.975 25.283705
64.980 25.665791
64.985 26.081511
64.990 25.649359
64.995 24.959518
65.000 24.286537
65.005 24.561728
65.010 24.871832
65.015 24.735985
65.020 24.945467
65.025 25.770803
65.030 26.661478
65.035 27.381289
65.040 27.259983
65.045 27.45656
65.050 27.610287
65.055 27.720058
65.060 26.707674
65.065 25.946625
65.070 25.406246
65.075 25.460463
65.080 25.517984
65.085 25.375353
65.090 24.982777
65.095 25.582043
65.100 25.592167
65.105 26.311184
65.110 26.389088
65.115 26.041035
65.120 26.06192
65.125 26.34943
65.130 26.838106
65.135 27.210161
65.140 26.947517
65.145 26.511003
65.150 26.710855
65.155 26.560043
65.160 26.606863
65.165 25.628656
65.170 24.967091
65.175 25.232323
65.180 25.742409
65.185 26.022779
65.190 25.975355
65.195 25.515018
65.200 25.57229
65.205 26.078657
65.210 25.801878
65.215 25.52191
65.220 24.827877
65.225 25.279112
65.230 25.464867
65.235 24.90995
65.240 24.72514
65.245 25.274323
65.250 24.919653
65.255 25.34321
65.260 25.129166
65.265 25.459616
65.270 25.844711
65.275 25.58494
65.280 25.050455
65.285 25.706009
65.290 25.942907
65.295 25.725191
65.300 25.151003
65.305 25.760715
65.310 25.863813
65.315 25.499012
65.320 25.199312
65.325 24.979477
65.330 24.701477
65.335 24.442032
65.340 24.53503
65.345 24.88096
65.350 24.944262
65.355 24.474009
65.360 24.082251
65.365 24.449173
65.370 24.820484
65.375 25.30327
65.380 25.785934
65.385 26.367382
65.390 27.04756
65.395 27.753933
65.400 28.24288
65.405 28.500286
65.410 27.520737
65.415 27.281483
65.420 27.652578
65.425 28.077919
65.430 28.056408
65.435 27.537945
65.440 27.847715
65.445 27.719246
65.450 27.098719
65.455 26.163595
65.460 25.831152
65.465 25.511557
65.470 25.54912
65.475 25.082563
65.480 26.157471
65.485 26.046804
65.490 26.526051
65.495 26.800211
65.500 27.198812
65.505 27.883995
65.510 28.821499
65.515 28.55855
65.520 29.363018
65.525 29.821238
65.530 29.520718
65.535 29.434595
65.540 29.072479
65.545 28.695078
65.550 28.879217
65.555 28.645197
65.560 28.665554
65.565 29.086637
65.570 28.964794
65.575 28.356161
65.580 28.264025
65.585 27.931213
65.590 27.629852
65.595 27.342106
65.600 27.170898
65.605 28.333101
65.610 29.093412
65.615 29.210056
65.620 29.934294
65.625 30.620749
65.630 30.764004
65.635 30.643713
65.640 29.939018
65.645 29.644403
65.650 29.459229
65.655 29.540192
65.660 29.417198
65.665 29.149178
65.670 29.974749
65.675 30.158991
65.680 30.050207
65.685 30.810863
65.690 30.315405
65.695 30.748512
65.700 30.827616
65.705 30.465508
65.710 31.384363
65.715 32.497597
65.720 32.874905
65.725 33.646095
65.730 34.774185
65.735 35.441704
65.740 35.057476
65.745 34.960632
65.750 34.783325
65.755 34.017452
65.760 33.544178
65.765 33.129135
65.770 33.033218
65.775 32.608761
65.780 32.301907
65.785 31.923628
65.790 32.017117
65.795 32.216576
65.800 31.953087
65.805 32.099964
65.810 32.974636
65.815 33.36364
65.820 34.648643
65.825 35.425514
65.830 35.480686
65.835 35.404114
65.840 35.441624
65.845 35.163223
65.850 35.335842
65.855 35.393581
65.860 35.003048
65.865 34.358387
65.870 34.196533
65.875 34.194675
65.880 34.992508
65.885 35.148964
65.890 35.154377
65.895 36.469364
65.900 37.263496
65.905 37.28297
65.910 37.415386
65.915 37.679207
65.920 37.773987
65.925 37.133305
65.930 36.053249
65.935 35.932301
65.940 36.413055
65.945 36.376083
65.950 35.782539
65.955 35.088055
65.960 35.778477
65.965 36.004471
65.970 36.46133
65.975 36.55101
65.980 36.881088
65.985 37.61562
65.990 38.782207
65.995 38.791504
66.000 38.71249
66.005 38.548603
66.010 38.917294
66.015 38.797516
66.020 38.595661
66.025 38.20953
66.030 38.279251
66.035 38.136871
66.040 37.908001
66.045 37.172253
66.050 37.165257
66.055 36.653522
66.060 36.138958
66.065 36.231945
66.070 36.512383
66.075 36.599243
66.080 36.985435
66.085 37.276836
66.090 37.733223
66.095 38.906376
66.100 39.664051
66.105 40.093609
66.110 40.493286
66.115 40.352028
66.120 39.588638
66.125 39.267582
66.130 38.0527
66.135 36.495819
66.140 36.403847
66.145 37.005215
66.150 37.487167
66.155 38.200081
66.160 38.426895
66.165 38.783852
66.170 39.291145
66.175 39.153877
66.180 38.444824
66.185 37.733322
66.190 37.727734
66.195 37.614674
66.200 36.936417
66.205 36.920815
66.210 37.09391
66.215 37.124493
66.220 37.493778
66.225 37.205353
66.230 36.383034
66.235 37.242912
66.240 36.820812
66.245 35.877094
66.250 36.018684
66.255 35.657795
66.260 35.362202
66.265 35.191486
66.270 34.164494
66.275 34.299965
66.280 35.042698
66.285 35.077805
66.290 35.472237
66.295 35.831299
66.300 36.715878
66.305 37.16972
66.310 36.466927
66.315 36.031921
66.320 35.141075
66.325 34.865814
66.330 34.677383
66.335 34.628693
66.340 35.062634
66.345 35.479698
66.350 35.34473
66.355 35.545368
66.360 35.417191
66.365 35.431042
66.370 35.384518
66.375 34.961624
66.380 34.00737
66.385 33.45837
66.390 33.342731
66.395 33.412186
66.400 33.142345
66.405 32.835201
66.410 33.18866
66.415 33.006725
66.420 32.744873
66.425 32.177811
66.430 32.136631
66.435 32.030087
66.440 31.514238
66.445 30.870192
66.450 31.043371
66.455 30.872728
66.460 30.559389
66.465 29.647654
66.470 29.38237
66.475 28.976345
66.480 28.903996
66.485 28.855576
66.490 29.192766
66.495 29.47497
66.500 29.735052
66.505 29.553944
66.510 29.045319
66.515 28.935549
66.520 29.163277
66.525 28.855587
66.530 28.218666
66.535 28.022673
66.540 27.987049
66.545 28.051023
66.550 28.150715
66.555 27.652843
66.560 27.238609
66.565 27.081705
66.570 26.868092
66.575 27.075214
66.580 26.643408
66.585 26.212854
66.590 26.179461
66.595 26.152096
66.600 25.648405
66.605 24.842884
66.610 24.249727
66.615 23.871969
66.620 23.716766
66.625 23.844246
66.630 23.189817
66.635 23.129725
66.640 23.903677
66.645 23.888176
66.650 23.691334
66.655 23.101974
66.660 22.564211
66.665 22.181946
66.670 21.903406
66.675 21.267534
66.680 21.807713
66.685 21.925953
66.690 21.921608
66.695 22.16453
66.700 23.082127
66.705 23.702757
66.710 23.789801
66.715 23.23826
66.720 23.144854
66.725 22.654436
66.730 22.067717
66.735 22.152491
66.740 21.904114
66.745 21.602297
66.750 22.004032
66.755 23.013096
66.760 23.893131
66.765 24.53907
66.770 24.417429
66.775 24.052654
66.780 24.408228
66.785 24.177908
66.790 22.965204
66.795 22.380167
66.800 22.368168
66.805 22.191006
66.810 21.82036
66.815 21.280306
66.820 21.275511
66.825 21.019865
66.830 21.052017
66.835 20.451662
66.840 20.432047
66.845 20.696293
66.850 20.446117
66.855 19.757191
66.860 19.043604
66.865 18.658587
66.870 18.465834
66.875 18.282839
66.880 18.392202
66.885 18.345238
66.890 18.882624
66.895 20.105988
66.900 20.714546
66.905 20.909821
66.910 20.266241
66.915 20.064299
66.920 20.223129
66.925 20.30162
66.930 20.205465
66.935 19.808611
66.940 20.434177
66.945 21.434525
66.950 21.566988
66.955 21.695662
66.960 21.492901
66.965 21.458948
66.970 21.072546
66.975 20.441046
66.980 20.854139
66.985 21.89323
66.990 21.608368
66.995 21.805813
67.000 21.995905
67.005 22.085632
67.010 22.29525
67.015 21.665031
67.020 20.787739
67.025 21.058638
67.030 20.87355
67.035 20.707737
67.040 20.600651
67.045 20.196898
67.050 20.048391
67.055 19.924231
67.060 20.046919
67.065 19.841331
67.070 19.791618
67.075 20.015001
67.080 20.070623
67.085 20.12553
67.090 20.58853
67.095 20.711605
67.100 20.812635
67.105 20.996584
67.110 21.015499
67.115 20.879812
67.120 21.137466
67.125 20.826735
67.130 20.488457
67.135 19.85746
67.140 19.247599
67.145 19.691422
67.150 20.178043
67.155 19.737425
67.160 20.157049
67.165 20.328171
67.170 21.23119
67.175 21.737755
67.180 21.372139
67.185 21.338284
67.190 21.368425
67.195 21.389898
67.200 21.043287
67.205 20.402443
67.210 19.656694
67.215 19.44602
67.220 19.66881
67.225 20.09103
67.230 19.84837
67.235 20.12866
67.240 20.937216
67.245 22.159605
67.250 22.25601
67.255 22.272953
67.260 22.275518
67.265 21.917107
67.270 21.698841
67.275 21.686989
67.280 21.098982
67.285 20.625607
67.290 19.835329
67.295 19.603622
67.300 19.757545
67.305 19.397657
67.310 19.150009
67.315 19.074444
67.320 19.174658
67.325 18.94512
67.330 19.003086
67.335 19.063345
67.340 19.703197
67.345 19.501139
67.350 19.769691
67.355 20.22595
67.360 20.65007
67.365 20.873137
67.370 20.556875
67.375 19.939632
67.380 19.717953
67.385 20.349909
67.390 21.009659
67.395 21.563662
67.400 21.672205
67.405 22.078564
67.410 21.895603
67.415 21.848207
67.420 20.698154
67.425 19.366934
67.430 18.582373
67.435 18.132532
67.440 18.216307
67.445 18.584471
67.450 18.859228
67.455 19.246532
67.460 19.782001
67.465 20.246946
67.470 20.57601
67.475 20.248545
67.480 20.701653
67.485 21.044395
67.490 21.29344
67.495 21.343166
67.500 21.546576
67.505 21.651426
67.510 21.887749
67.515 21.628767
67.520 21.637041
67.525 21.258316
67.530 21.053448
67.535 20.719486
67.540 20.513559
67.545 20.647255
67.550 20.297764
67.555 19.824327
67.560 20.188114
67.565 20.299637
67.570 20.270948
67.575 20.397465
67.580 19.814867
67.585 19.443148
67.590 19.242205
67.595 19.197079
67.600 19.472397
67.605 18.741102
67.610 18.592155
67.615 18.912506
67.620 19.302103
67.625 19.280514
67.630 19.29423
67.635 19.56189
67.640 20.411758
67.645 20.637524
67.650 20.866951
67.655 21.186872
67.660 21.403181
67.665 21.592617
67.670 21.745722
67.675 21.709143
67.680 22.285273
67.685 21.965967
67.690 21.364452
67.695 21.702021
67.700 20.859255
67.705 20.063864
67.710 20.018854
67.715 19.541512
67.720 19.475416
67.725 19.315025
67.730 19.599977
67.735 20.123837
67.740 20.202957
67.745 20.344378
67.750 20.824268
67.755 20.685064
67.760 20.986418
67.765 20.852751
67.770 20.703936
67.775 20.905262
67.780 20.585911
67.785 20.351116
67.790 20.993849
67.795 20.243271
67.800 19.527998
67.805 20.26366
67.810 20.460041
67.815 20.273689
67.820 20.129808
67.825 19.59931
67.830 20.05055
67.835 20.189383
67.840 19.157101
67.845 19.048691
67.850 19.237444
67.855 19.24515
67.860 19.431475
67.865 19.447517
67.870 19.545122
67.875 20.400169
67.880 20.334358
67.885 20.13269
67.890 20.723358
67.895 21.085646
67.900 21.594238
67.905 21.358328
67.910 20.392393
67.915 20.18638
67.920 20.036039
67.925 19.617828
67.930 19.108635
67.935 18.743956
67.940 18.679943
67.945 19.070145
67.950 18.982769
67.955 19.29775
67.960 19.00309
67.965 19.197916
67.970 19.793575
67.975 20.064272
67.980 20.366795
67.985 21.147406
67.990 22.001045
67.995 21.918411
68.000 21.444977
68.005 20.717175
68.010 20.470928
68.015 20.237688
68.020 19.535803
68.025 18.990633
68.030 18.901325
68.035 19.868315
68.040 20.86623
68.045 21.399002
68.050 21.948742
68.055 22.170561
68.060 21.571102
68.065 21.438986
68.070 20.893444
68.075 20.813717
68.080 20.666615
68.085 20.525467
68.090 20.154928
68.095 20.955847
68.100 21.630732
68.105 21.212866
68.110 20.754599
68.115 20.968946
68.120 20.620398
68.125 20.579821
68.130 20.333124
68.135 20.499449
68.140 20.909943
68.145 20.605543
68.150 20.274082
68.155 20.142511
68.160 20.00141
68.165 19.527561
68.170 19.00701
68.175 18.852266
68.180 17.851007
68.185 17.691132
68.190 17.717697
68.195 17.529892
68.200 17.600071
68.205 18.088261
68.210 18.414249
68.215 19.356657
68.220 19.766117
68.225 19.999889
68.230 20.4284
68.235 20.38888
68.240 20.07589
68.245 20.536945
68.250 20.298916
68.255 20.212931
68.260 20.708424
68.265 20.893448
68.270 21.086843
68.275 20.866442
68.280 20.114315
68.285 20.613932
68.290 20.50161
68.295 20.476498
68.300 20.395945
68.305 20.686357
68.310 20.831078
68.315 20.672716
68.320 20.406185
68.325 20.352497
68.330 20.201765
68.335 20.145842
68.340 19.577021
68.345 19.972494
68.350 20.274652
68.355 21.101482
68.360 21.222969
68.365 20.940258
68.370 21.070616
68.375 21.087408
68.380 21.414507
68.385 21.357157
68.390 20.253956
68.395 20.656036
68.400 20.642565
68.405 20.854454
68.410 21.121019
68.415 21.102831
68.420 21.470245
68.425 22.012348
68.430 22.084152
68.435 22.027975
68.440 21.993135
68.445 21.793467
68.450 21.558981
68.455 20.972054
68.460 20.941021
68.465 21.095354
68.470 21.368332
68.475 21.557339
68.480 21.936256
68.485 22.03323
68.490 22.21151
68.495 22.240641
68.500 21.995846
68.505 21.81175
68.510 21.836191
68.515 21.750849
68.520 22.169989
68.525 22.523857
68.530 22.973166
68.535 23.134478
68.540 23.150211
68.545 22.763031
68.550 22.794132
68.555 22.684378
68.560 22.831146
68.565 22.906214
68.570 23.296873
68.575 23.281742
68.580 23.123777
68.585 23.159618
68.590 23.277664
68.595 23.114779
68.600 23.245667
68.605 23.250305
68.610 23.284128
68.615 23.505018
68.620 23.340233
68.625 23.139177
68.630 22.850039
68.635 22.259398
68.640 22.821749
68.645 22.872416
68.650 23.288305
68.655 23.364058
68.660 23.255009
68.665 23.27424
68.670 22.864113
68.675 22.569708
68.680 23.537916
68.685 23.640829
68.690 23.980923
68.695 24.500427
68.700 24.795856
68.705 25.268148
68.710 25.057089
68.715 24.827106
68.720 24.924198
68.725 24.810259
68.730 24.861797
68.735 24.742149
68.740 24.525787
68.745 24.068714
68.750 23.073084
68.755 22.590605
68.760 22.127844
68.765 21.816046
68.770 21.784836
68.775 22.486927
68.780 23.161552
68.785 23.881908
68.790 24.183258
68.795 24.340328
68.800 24.680563
68.805 24.978498
68.810 24.621077
68.815 24.278919
68.820 24.497375
68.825 25.149607
68.830 25.142275
68.835 25.130102
68.840 25.237085
68.845 24.892452
68.850 24.844145
68.855 24.607117
68.860 24.414518
68.865 24.479607
68.870 24.192686
68.875 24.384764
68.880 25.252039
68.885 25.463051
68.890 25.666481
68.895 25.279657
68.900 25.692993
68.905 26.22612
68.910 26.417614
68.915 26.098871
68.920 26.457287
68.925 26.810474
68.930 27.65807
68.935 28.230864
68.940 27.930687
68.945 27.958162
68.950 28.762236
68.955 28.736366
68.960 28.575209
68.965 28.629824
68.970 28.978773
68.975 29.584465
68.980 29.718838
68.985 29.858065
68.990 29.886564
68.995 30.268591
69.000 30.480396
69.005 30.53562
69.010 29.826626
69.015 29.648521
69.020 29.391859
69.025 30.021648
69.030 29.042719
69.035 28.74925
69.040 28.509539
69.045 28.333738
69.050 28.222269
69.055 28.069326
69.060 27.835894
69.065 28.593502
69.070 28.685898
69.075 28.560966
69.080 29.41947
69.085 29.483068
69.090 29.72658
69.095 30.201672
69.100 30.749554
69.105 31.031746
69.110 31.753241
69.115 31.985031
69.120 32.265984
69.125 32.859863
69.130 33.338356
69.135 32.351074
69.140 32.598507
69.145 31.965412
69.150 31.215126
69.155 31.372038
69.160 30.419003
69.165 29.205957
69.170 29.392107
69.175 29.513657
69.180 30.12516
69.185 31.14006
69.190 31.829769
69.195 31.691616
69.200 32.13171
69.205 32.085804
69.210 32.265068
69.215 32.165569
69.220 31.221674
69.225 30.466789
69.230 31.177616
69.235 31.048534
69.240 31.687696
69.245 32.060635
69.250 32.039906
69.255 32.466351
69.260 32.347679
69.265 32.198013
69.270 32.853268
69.275 31.962048
69.280 31.567385
69.285 31.958292
69.290 32.240341
69.295 32.515827
69.300 32.761482
69.305 33.40081
69.310 33.835846
69.315 33.634483
69.320 33.401211
69.325 32.796841
69.330 33.489094
69.335 33.647221
69.340 33.060791
69.345 31.825806
69.350 31.057165
69.355 31.178989
69.360 31.837091
69.365 31.583153
69.370 30.471195
69.375 30.202003
69.380 31.434866
69.385 31.742029
69.390 31.451042
69.395 31.001614
69.400 31.200359
69.405 31.730337
69.410 32.392448
69.415 32.688286
69.420 32.508282
69.425 31.927546
69.430 31.681017
69.435 31.297606
69.440 31.344604
69.445 31.174141
69.450 31.189011
69.455 31.658653
69.460 31.914669
69.465 31.985172
69.470 31.745644
69.475 31.350681
69.480 30.700729
69.485 29.186699
69.490 29.124365
69.495 29.183979
69.500 29.529119
69.505 29.936697
69.510 29.901365
69.515 30.933668
69.520 32.386288
69.525 32.558147
69.530 32.790283
69.535 33.332001
69.540 33.347046
69.545 32.961304
69.550 31.658045
69.555 31.431204
69.560 31.638901
69.565 31.289528
69.570 31.439606
69.575 32.028805
69.580 32.583138
69.585 34.214985
69.590 33.397839
69.595 32.569675
69.600 31.867069
69.605 31.427811
69.610 30.964396
69.615 30.612158
69.620 29.087812
69.625 29.522285
69.630 30.686468
69.635 30.793417
69.640 30.32258
69.645 30.326283
69.650 30.070456
69.655 29.965506
69.660 29.967722
69.665 28.7173
69.670 28.50157
69.675 29.129168
69.680 29.442934
69.685 29.973812
69.690 30.703037
69.695 30.578518
69.700 30.748402
69.705 30.068071
69.710 29.400671
69.715 29.348881
69.720 28.617943
69.725 28.030142
69.730 28.135845
69.735 28.582521
69.740 28.68671
69.745 28.245567
69.750 27.875425
69.755 27.845947
69.760 27.727367
69.765 27.140314
69.770 26.786163
69.775 27.053043
69.780 27.266232
69.785 27.701281
69.790 28.166185
69.795 28.071447
69.800 28.297743
69.805 28.201927
69.810 27.869711
69.815 27.48925
69.820 26.99708
69.825 25.576216
69.830 25.511076
69.835 25.221045
69.840 25.013058
69.845 25.19334
69.850 24.416868
69.855 24.689306
69.860 25.003378
69.865 24.750469
69.870 24.774929
69.875 24.975805
69.880 24.509136
69.885 24.630787
69.890 24.140017
69.895 23.091791
69.900 22.726789
69.905 22.964504
69.910 22.341454
69.915 22.130032
69.920 22.094925
69.925 22.302652
69.930 22.647455
69.935 22.055941
69.940 21.740244
69.945 22.645542
69.950 23.238501
69.955 23.515125
69.960 24.05518
69.965 24.931206
69.970 25.532124
69.975 24.86659
69.980 23.933546
69.985 23.287893
69.990 23.049055
69.995 23.226959
70.000 23.299124
70.005 23.54324
70.010 23.688725
70.015 23.59943
70.020 24.147676
70.025 23.894299
70.030 22.792049
70.035 22.531151
70.040 21.544825
70.045 21.234936
70.050 21.676922
70.055 21.514441
70.060 21.344236
70.065 20.981905
70.070 20.47555
70.075 19.912899
70.080 19.559345
70.085 18.809082
70.090 18.75827
70.095 18.880613
70.100 19.376448
70.105 19.515205
70.110 20.415476
70.115 21.371292
70.120 21.431232
70.125 21.323078
70.130 21.099178
70.135 20.423431
70.140 20.659971
70.145 20.401474
70.150 19.573833
70.155 19.137133
70.160 19.021475
70.165 19.466906
70.170 19.932465
70.175 19.873741
70.180 19.7976
70.185 20.148314
70.190 20.523895
70.195 20.071449
70.200 19.434074
70.205 19.209948
70.210 18.824722
70.215 19.167809
70.220 18.573326
70.225 18.187838
70.230 18.295326
70.235 18.787865
70.240 19.623592
70.245 19.817984
70.250 20.304195
70.255 21.400093
70.260 21.841379
70.265 21.892664
70.270 21.241268
70.275 20.922609
70.280 21.146847
70.285 20.731308
70.290 20.448853
70.295 20.500557
70.300 20.847883
70.305 21.564095
70.310 21.145023
70.315 21.118135
70.320 20.754566
70.325 20.771755
70.330 21.012171
70.335 20.607975
70.340 20.376236
70.345 20.425743
70.350 20.127041
70.355 19.840015
70.360 19.352585
70.365 19.43681
70.370 19.364111
70.375 19.028141
70.380 18.725712
70.385 19.031353
70.390 19.720146
70.395 19.643194
70.400 19.327909
70.405 19.53215
70.410 19.151445
70.415 19.186377
70.420 19.376976
70.425 18.863945
70.430 18.866745
70.435 18.80361
70.440 18.555536
70.445 18.593094
70.450 18.264818
70.455 17.717028
70.460 18.085203
70.465 18.486374
70.470 19.042585
70.475 19.079184
70.480 19.303143
70.485 19.884432
70.490 20.263987
70.495 19.91889
70.500 19.201483
70.505 18.773861
70.510 19.510515
70.515 19.810223
70.520 19.520775
70.525 19.12274
70.530 19.271187
70.535 19.093071
70.540 19.20421
70.545 18.893412
70.550 18.328257
70.555 18.513557
70.560 19.282276
70.565 19.888754
70.570 20.397429
70.575 20.16983
70.580 20.492691
70.585 20.433886
70.590 20.225193
70.595 20.232916
70.600 19.832584
70.605 19.648682
70.610 20.065523
70.615 20.348318
70.620 20.589964
70.625 20.312347
70.630 19.948563
70.635 20.002993
70.640 19.835463
70.645 19.632551
70.650 19.526567
70.655 19.899559
70.660 20.031382
70.665 19.887785
70.670 19.950893
70.675 19.771294
70.680 19.491941
70.685 19.408678
70.690 19.344067
70.695 19.461939
70.700 19.929602
70.705 19.973854
70.710 20.158756
70.715 19.664379
70.720 19.282839
70.725 18.391083
70.730 17.873259
70.735 17.009548
70.740 16.360004
70.745 16.087814
70.750 16.860249
70.755 17.022583
70.760 17.140028
70.765 17.362087
70.770 17.903418
70.775 18.458406
70.780 18.882481
70.785 18.824465
70.790 19.347433
70.795 19.590727
70.800 19.731421
70.805 20.093832
70.810 19.92333
70.815 19.989632
70.820 19.696144
70.825 19.608408
70.830 19.862947
70.835 19.697165
70.840 19.87324
70.845 19.916515
70.850 20.119877
70.855 19.624268
70.860 19.391905
70.865 19.004892
70.870 19.14197
70.875 19.260557
70.880 19.150467
70.885 18.945551
70.890 19.493727
70.895 19.216917
70.900 19.85182
70.905 19.663074
70.910 19.76009
70.915 19.946402
70.920 20.017103
70.925 20.117998
70.930 20.122349
70.935 19.720161
70.940 19.472586
70.945 18.603188
70.950 18.790405
70.955 18.991343
70.960 18.972198
70.965 19.237997
70.970 19.109259
70.975 19.448149
70.980 19.845673
70.985 19.542419
70.990 18.938995
70.995 18.56156
71.000 18.254814
71.005 18.250101
71.010 17.90572
71.015 17.360699
71.020 16.947655
71.025 16.868395
71.030 17.107134
71.035 16.971985
71.040 16.714197
71.045 17.032904
71.050 17.169323
71.055 17.616674
71.060 18.055708
71.065 17.372437
71.070 17.66791
71.075 18.075686
71.080 18.262774
71.085 18.164087
71.090 18.46983
71.095 18.974339
71.100 19.120476
71.105 19.141685
71.110 18.795515
71.115 18.491083
71.120 18.408533
71.125 18.515821
71.130 18.639698
71.135 18.080673
71.140 18.219538
71.145 18.210636
71.150 18.276987
71.155 18.488512
71.160 18.305492
71.165 18.528709
71.170 19.098022
71.175 19.163984
71.180 19.631582
71.185 19.940599
71.190 20.359385
71.195 21.291512
71.200 21.372334
71.205 21.739599
71.210 21.438543
71.215 20.566967
71.220 19.574883
71.225 18.325464
71.230 17.494081
71.235 16.975126
71.240 17.029043
71.245 17.049196
71.250 17.645308
71.255 18.611761
71.260 18.726877
71.265 19.568449
71.270 19.578121
71.275 19.219166
71.280 19.530701
71.285 19.827593
71.290 19.95393
71.295 19.912241
71.300 19.339991
71.305 19.368376
71.310 18.856169
71.315 18.558678
71.320 18.454269
71.325 18.863623
71.330 18.959406
71.335 19.39859
71.340 19.814819
71.345 20.133032
71.350 19.991508
71.355 19.877722
71.360 19.799234
71.365 19.470331
71.370 18.436451
71.375 18.487497
71.380 18.933487
71.385 19.516068
71.390 19.533178
71.395 19.253071
71.400 19.724972
71.405 20.680983
71.410 20.290464
71.415 20.056223
71.420 19.771496
71.425 19.62537
71.430 19.584047
71.435 19.189651
71.440 19.052916
71.445 19.034302
71.450 18.772228
71.455 18.710522
71.460 18.653381
71.465 18.831573
71.470 18.415916
71.475 18.259432
71.480 18.609791
71.485 19.380713
71.490 19.124857
71.495 18.839399
71.500 19.097233
71.505 19.50387
71.510 19.029398
71.515 18.85788
71.520 18.839937
71.525 19.077723
71.530 19.302303
71.535 19.225628
71.540 19.451345
71.545 19.891459
71.550 19.290583
71.555 18.942587
71.560 19.234413
71.565 19.268034
71.570 18.531296
71.575 18.450756
71.580 18.569605
71.585 18.913446
71.590 18.956032
71.595 18.681763
71.600 19.264238
71.605 19.961483
71.610 20.16445
71.615 19.63085
71.620 19.224228
71.625 19.162699
71.630 19.135347
71.635 18.415918
71.640 17.941513
71.645 17.931816
71.650 18.488413
71.655 19.035152
71.660 18.872906
71.665 19.126953
71.670 19.092194
71.675 18.975784
71.680 18.964333
71.685 18.551836
71.690 17.788761
71.695 17.315624
71.700 17.370979
71.705 17.008492
71.710 17.471622
71.715 17.612337
71.720 17.980787
71.725 18.046143
71.730 18.404716
71.735 18.330046
71.740 18.371387
71.745 18.016848
71.750 17.852772
71.755 18.113863
71.760 18.599669
71.765 18.504936
71.770 19.032593
71.775 19.490295
71.780 18.919619
71.785 19.248951
71.790 18.932272
71.795 18.8223
71.800 18.474094
71.805 18.346201
71.810 18.111582
71.815 18.352474
71.820 18.370171
71.825 18.43355
71.830 18.478781
71.835 18.150171
71.840 18.376625
71.845 18.730722
71.850 18.592999
71.855 18.338949
71.860 18.040485
71.865 18.253405
71.870 18.477535
71.875 19.145969
71.880 19.393822
71.885 19.93726
71.890 20.241165
71.895 20.35882
71.900 20.564644
71.905 20.233725
71.910 19.141146
71.915 18.934849
71.920 18.13273
71.925 18.23827
71.930 18.144602
71.935 18.265432
71.940 18.588224
71.945 19.074789
71.950 18.882359
71.955 18.938608
71.960 19.140467
71.965 19.548758
71.970 19.428686
71.975 19.239929
71.980 18.603519
71.985 19.108208
71.990 19.257229
71.995 18.665283
72.000 18.079807
72.005 17.9564
72.010 17.724392
72.015 17.810909
72.020 17.526245
72.025 17.654331
72.030 17.384861
72.035 17.356857
72.040 17.181273
72.045 17.164982
72.050 17.604837
72.055 17.309097
72.060 18.044142
72.065 18.303787
72.070 18.934433
72.075 19.557337
72.080 19.456316
72.085 19.158892
72.090 19.488623
72.095 19.252398
72.100 19.635233
72.105 19.41119
72.110 19.400921
72.115 20.145914
72.120 20.350182
72.125 20.065895
72.130 19.862745
72.135 19.894413
72.140 19.696383
72.145 19.189402
72.150 18.988197
72.155 18.74122
72.160 18.829163
72.165 18.850952
72.170 18.778198
72.175 18.86503
72.180 19.187607
72.185 18.928213
72.190 19.297981
72.195 19.557129
72.200 19.411377
72.205 18.769442
72.210 18.583548
72.215 17.753145
72.220 17.9006
72.225 18.024759
72.230 17.514519
72.235 17.544538
72.240 17.913342
72.245 18.168474
72.250 18.722549
72.255 18.61862
72.260 18.0371
72.265 18.239624
72.270 18.29262
72.275 18.78266
72.280 18.886717
72.285 18.593929
72.290 18.4627
72.295 18.856779
72.300 19.202263
72.305 19.107645
72.310 18.657909
72.315 18.924862
72.320 19.068348
72.325 18.837093
72.330 18.744017
72.335 18.520393
72.340 18.945145
72.345 19.049099
72.350 19.533981
72.355 20.196819
72.360 19.78245
72.365 19.322598
72.370 18.999578
72.375 18.709826
72.380 18.554869
72.385 17.29261
72.390 17.15661
72.395 17.548412
72.400 17.643688
72.405 17.80097
72.410 18.030914
72.415 17.843513
72.420 18.255526
72.425 17.83647
72.430 17.650501
72.435 17.647404
72.440 17.543722
72.445 17.537798
72.450 17.125181
72.455 16.891226
72.460 17.314566
72.465 17.720053
72.470 17.924704
72.475 17.999681
72.480 18.195112
72.485 18.112057
72.490 18.315207
72.495 18.616432
72.500 18.190475
72.505 18.217321
72.510 18.237192
72.515 18.075998
72.520 18.060966
72.525 17.77421
72.530 17.84841
72.535 18.181307
72.540 18.816101
72.545 19.066729
72.550 19.859787
72.555 20.548124
72.560 20.418465
72.565 20.132114
72.570 19.76157
72.575 18.743435
72.580 18.424294
72.585 18.399281
72.590 18.519735
72.595 18.830759
72.600 19.219917
72.605 19.807793
72.610 19.970211
72.615 19.437229
72.620 19.375074
72.625 19.174593
72.630 19.124987
72.635 18.835922
72.640 18.336777
72.645 18.453138
72.650 18.313354
72.655 17.357258
72.660 17.468763
72.665 16.8997
72.670 16.266113
72.675 16.236343
72.680 16.578926
72.685 16.965065
72.690 17.240551
72.695 17.510557
72.700 17.949833
72.705 18.390081
72.710 18.385509
72.715 18.146118
72.720 18.44733
72.725 18.454576
72.730 17.935495
72.735 17.395029
72.740 17.708279
72.745 18.009739
72.750 17.853813
72.755 17.558861
72.760 17.721373
72.765 18.300604
72.770 18.575914
72.775 18.496109
72.780 18.295151
72.785 18.475544
72.790 18.39625
72.795 18.173534
72.800 17.957788
72.805 17.808527
72.810 17.333555
72.815 17.582417
72.820 17.368362
72.825 17.212992
72.830 17.023962
72.835 17.18622
72.840 17.598148
72.845 17.856831
72.850 17.637665
72.855 17.580143
72.860 17.016504
72.865 16.777969
72.870 16.984663
72.875 16.665895
72.880 16.327978
72.885 16.117044
72.890 16.299961
72.895 16.966665
72.900 16.805244
72.905 16.469606
72.910 16.912769
72.915 17.294216
72.920 17.501772
72.925 17.586649
72.930 17.927002
72.935 18.033169
72.940 17.862551
72.945 17.843733
72.950 17.083498
72.955 17.330814
72.960 17.100876
72.965 16.145735
72.970 16.384293
72.975 16.743202
72.980 16.871122
72.985 16.749184
72.990 16.159832
72.995 16.0084
73.000 16.390329
