!@!!GADDS PLOTSO FILE: Chi integration type
!@!!Title/SampleName: map-10f
!@!!Comment: ?
!@!!User: Bruker Instrument Administrator
!@!!Site: University of Illinois Chicago
!@!!Frame: map-10f_01_000.gfrm
!@!!Wavelengths    1.54184   1.54056   1.54439
!@!!Frame angles: 2Theta: 63.000 Omega: 50.000 Phi: 0.000 Chi: 90.000
!@!!Integration range: 2Theta: 53.000 to 73.000  Gamma: -105.000 to -75.000
!@!!Integration method: bin normalized
!@!N
!@!SS
!@!M
!@!L 0.0 0.0 0.0 0.0
!@!XDegrees
!@!YCounts
53.000 7.531475
53.005 7.562547
53.010 7.630569
53.015 7.577879
53.020 7.329577
53.025 7.474201
53.030 7.683252
53.035 7.629327
53.040 7.628975
53.045 7.787561
53.050 7.808735
53.055 8.180798
53.060 8.895098
53.065 9.200874
53.070 9.064495
53.075 9.301051
53.080 9.354193
53.085 9.398309
53.090 9.026865
53.095 8.358074
53.100 8.667812
53.105 9.053846
53.110 8.832177
53.115 9.050885
53.120 9.008976
53.125 9.137915
53.130 9.175864
53.135 8.784883
53.140 8.438452
53.145 8.589498
53.150 8.753944
53.155 9.539958
53.160 9.410895
53.165 9.366038
53.170 9.567243
53.175 9.888108
53.180 9.951637
53.185 9.492942
53.190 8.790249
53.195 9.294259
53.200 9.028566
53.205 8.831615
53.210 8.712527
53.215 8.474326
53.220 8.492481
53.225 8.986403
53.230 8.723771
53.235 8.914184
53.240 9.158319
53.245 9.114134
53.250 8.964506
53.255 8.544279
53.260 7.933487
53.265 8.044056
53.270 7.777313
53.275 7.341705
53.280 7.188207
53.285 7.429079
53.290 8.03467
53.295 8.09182
53.300 7.99272
53.305 8.155646
53.310 8.464992
53.315 8.699162
53.320 9.159959
53.325 9.299878
53.330 9.417853
53.335 9.553301
53.340 9.612074
53.345 9.431973
53.350 9.336084
53.355 8.593897
53.360 8.254269
53.365 8.385907
53.370 8.405055
53.375 8.545759
53.380 8.601521
53.385 8.571487
53.390 8.648918
53.395 9.006231
53.400 9.414219
53.405 10.03856
53.410 10.352962
53.415 10.138027
53.420 10.095977
53.425 10.019158
53.430 9.183537
53.435 8.351845
53.440 8.151362
53.445 7.94854
53.450 8.257543
53.455 8.473967
53.460 8.656322
53.465 8.964702
53.470 8.970929
53.475 8.583223
53.480 8.226982
53.485 7.675228
53.490 7.77242
53.495 7.999671
53.500 8.331759
53.505 8.238331
53.510 8.811526
53.515 9.103443
53.520 9.405932
53.525 9.186155
53.530 9.135816
53.535 8.893079
53.540 9.006486
53.545 8.834998
53.550 8.877545
53.555 8.75547
53.560 9.317764
53.565 9.475742
53.570 9.400323
53.575 9.243822
53.580 9.128162
53.585 9.380044
53.590 9.155765
53.595 8.358372
53.600 8.086975
53.605 8.424519
53.610 8.290419
53.615 8.342237
53.620 8.6704
53.625 8.813614
53.630 9.114208
53.635 9.204752
53.640 9.733938
53.645 9.926273
53.650 9.633542
53.655 9.265159
53.660 8.917328
53.665 9.130742
53.670 9.171507
53.675 8.88438
53.680 8.669133
53.685 8.562649
53.690 8.813819
53.695 9.314571
53.700 9.560078
53.705 9.642595
53.710 9.775208
53.715 9.892196
53.720 10.096579
53.725 9.854427
53.730 9.594653
53.735 9.204183
53.740 8.818994
53.745 9.179867
53.750 9.376088
53.755 9.496002
53.760 9.651394
53.765 9.444904
53.770 9.597929
53.775 9.387731
53.780 8.932117
53.785 8.524996
53.790 8.290775
53.795 7.978726
53.800 8.229497
53.805 8.402877
53.810 8.682539
53.815 8.572526
53.820 8.620766
53.825 8.77644
53.830 8.801986
53.835 8.467223
53.840 7.877275
53.845 7.81451
53.850 8.111221
53.855 7.945354
53.860 8.28048
53.865 8.236237
53.870 8.394016
53.875 8.604121
53.880 8.672815
53.885 8.641791
53.890 8.824252
53.895 8.672693
53.900 8.711562
53.905 8.826467
53.910 8.90532
53.915 9.246354
53.920 9.401573
53.925 9.42064
53.930 9.839519
53.935 9.760112
53.940 10.014509
53.945 9.939376
53.950 9.749263
53.955 9.413116
53.960 9.521364
53.965 9.332098
53.970 9.091221
53.975 8.601968
53.980 8.499889
53.985 8.696363
53.990 8.834664
53.995 8.772424
54.000 8.912269
54.005 9.378528
54.010 9.697672
54.015 9.866797
54.020 10.487019
54.025 10.629706
54.030 10.227328
54.035 9.747191
54.040 9.594187
54.045 9.383517
54.050 9.030869
54.055 8.381939
54.060 8.103344
54.065 7.980819
54.070 7.997319
54.075 8.076703
54.080 8.165991
54.085 8.102839
54.090 7.742821
54.095 7.602139
54.100 8.037696
54.105 8.220725
54.110 8.370586
54.115 8.600683
54.120 8.630725
54.125 8.976372
54.130 9.638443
54.135 9.872979
54.140 10.000463
54.145 9.297443
54.150 9.088673
54.155 9.310493
54.160 9.330451
54.165 8.953509
54.170 8.608285
54.175 8.595559
54.180 8.850635
54.185 9.261551
54.190 9.181923
54.195 9.288436
54.200 8.894135
54.205 8.896136
54.210 8.9895
54.215 9.014194
54.220 8.792489
54.225 8.819806
54.230 8.923355
54.235 9.512161
54.240 9.610624
54.245 9.404645
54.250 9.410219
54.255 9.653851
54.260 9.813299
54.265 10.184316
54.270 9.736256
54.275 9.72263
54.280 9.996776
54.285 9.746205
54.290 9.499074
54.295 9.281352
54.300 9.002734
54.305 9.148157
54.310 9.087639
54.315 9.21836
54.320 9.511005
54.325 9.685034
54.330 9.854645
54.335 9.690985
54.340 9.716077
54.345 9.891141
54.350 9.791192
54.355 9.418801
54.360 8.807628
54.365 8.574153
54.370 8.374367
54.375 8.257981
54.380 7.917831
54.385 7.924019
54.390 8.418406
54.395 8.657762
54.400 8.813337
54.405 9.101182
54.410 9.146044
54.415 9.715921
54.420 9.661981
54.425 9.798268
54.430 10.002357
54.435 10.271816
54.440 10.043792
54.445 9.455931
54.450 8.931905
54.455 9.007096
54.460 8.755433
54.465 8.62237
54.470 8.208359
54.475 8.487318
54.480 8.883657
54.485 9.235705
54.490 9.182407
54.495 9.432597
54.500 9.57858
54.505 9.658422
54.510 9.591617
54.515 9.43545
54.520 9.117179
54.525 8.841004
54.530 8.574819
54.535 8.235701
54.540 8.214862
54.545 8.35633
54.550 8.539454
54.555 8.874498
54.560 8.959881
54.565 9.410448
54.570 9.714406
54.575 9.944885
54.580 9.966843
54.585 9.91096
54.590 9.745211
54.595 9.618503
54.600 9.535152
54.605 9.584155
54.610 9.532299
54.615 9.382263
54.620 9.401842
54.625 9.611874
54.630 9.569488
54.635 9.532913
54.640 9.576678
54.645 9.822498
54.650 10.124835
54.655 9.608161
54.660 9.391212
54.665 9.158161
54.670 8.791901
54.675 8.390157
54.680 8.280633
54.685 8.562812
54.690 8.791996
54.695 8.907977
54.700 9.246859
54.705 9.357759
54.710 9.440526
54.715 9.883668
54.720 9.917951
54.725 9.930057
54.730 9.926548
54.735 9.665615
54.740 10.06099
54.745 9.491997
54.750 8.845005
54.755 9.008899
54.760 9.260492
54.765 9.281696
54.770 9.725066
54.775 10.165999
54.780 10.565076
54.785 10.725427
54.790 10.566473
54.795 10.538686
54.800 10.733488
54.805 10.314305
54.810 9.694414
54.815 9.37119
54.820 8.92874
54.825 8.795005
54.830 8.618188
54.835 8.416064
54.840 8.683198
54.845 9.336196
54.850 9.851569
54.855 9.685509
54.860 9.475207
54.865 9.528727
54.870 9.735415
54.875 9.461902
54.880 9.494868
54.885 9.609478
54.890 10.026396
54.895 10.269451
54.900 10.311734
54.905 9.984143
54.910 10.074939
54.915 9.817772
54.920 9.719043
54.925 9.399647
54.930 9.673717
54.935 9.349131
54.940 9.440676
54.945 9.154033
54.950 9.138166
54.955 9.057345
54.960 9.411326
54.965 9.303428
54.970 9.397883
54.975 9.484121
54.980 9.730269
54.985 9.872485
54.990 10.208132
54.995 10.307353
55.000 10.634639
55.005 10.640812
55.010 10.742265
55.015 10.141344
55.020 9.57922
55.025 9.142764
55.030 8.94299
55.035 9.054258
55.040 9.097996
55.045 9.158133
55.050 9.609032
55.055 9.98811
55.060 10.100042
55.065 9.837095
55.070 9.741817
55.075 9.71467
55.080 9.400197
55.085 9.25184
55.090 9.077954
55.095 9.076968
55.100 8.980181
55.105 8.921526
55.110 8.766999
55.115 8.855296
55.120 8.819081
55.125 9.121736
55.130 9.421145
55.135 9.389395
55.140 9.702641
55.145 9.988918
55.150 10.135817
55.155 10.395112
55.160 10.290328
55.165 10.464574
55.170 10.485417
55.175 10.257497
55.180 10.392162
55.185 10.252197
55.190 9.891295
55.195 9.451182
55.200 9.263186
55.205 9.334168
55.210 9.298717
55.215 8.943928
55.220 9.069593
55.225 9.353136
55.230 9.507351
55.235 9.102086
55.240 8.866266
55.245 9.042589
55.250 9.088878
55.255 8.873344
55.260 8.410106
55.265 8.375158
55.270 8.553729
55.275 8.882975
55.280 9.09753
55.285 9.505722
55.290 9.73813
55.295 9.78136
55.300 9.710796
55.305 10.027408
55.310 9.817098
55.315 9.60997
55.320 9.212128
55.325 9.154239
55.330 9.202112
55.335 9.257215
55.340 9.124574
55.345 8.938274
55.350 9.01612
55.355 9.334527
55.360 9.653648
55.365 10.086452
55.370 10.08667
55.375 9.630542
55.380 9.638309
55.385 9.702714
55.390 9.61302
55.395 9.290729
55.400 9.380934
55.405 9.981029
55.410 10.542702
55.415 10.328751
55.420 10.345717
55.425 10.563559
55.430 10.974089
55.435 10.54421
55.440 10.162828
55.445 9.930094
55.450 9.759385
55.455 9.563201
55.460 9.307499
55.465 9.592089
55.470 9.733286
55.475 9.884287
55.480 10.204567
55.485 10.477181
55.490 10.520081
55.495 10.762042
55.500 10.695057
55.505 10.76929
55.510 10.81079
55.515 11.081606
55.520 11.040241
55.525 11.05088
55.530 10.769547
55.535 10.694311
55.540 10.418051
55.545 9.998175
55.550 9.957639
55.555 10.138375
55.560 10.379483
55.565 10.822434
55.570 10.79644
55.575 10.909019
55.580 10.819133
55.585 10.379715
55.590 10.093025
55.595 9.816721
55.600 9.779214
55.605 9.910228
55.610 10.186658
55.615 10.432434
55.620 10.209138
55.625 9.878467
55.630 9.62237
55.635 9.016228
55.640 8.859464
55.645 8.913736
55.650 9.438615
55.655 10.096789
55.660 10.727334
55.665 10.936634
55.670 10.791921
55.675 10.66539
55.680 10.588368
55.685 10.102374
55.690 9.707002
55.695 9.176021
55.700 9.661899
55.705 9.900702
55.710 9.927876
55.715 9.699027
55.720 10.107777
55.725 10.519692
55.730 11.075897
55.735 10.851937
55.740 10.940955
55.745 10.689044
55.750 10.744846
55.755 10.444376
55.760 10.12967
55.765 9.536049
55.770 9.07841
55.775 9.03618
55.780 9.132043
55.785 9.121899
55.790 9.409522
55.795 10.080017
55.800 10.40274
55.805 10.627168
55.810 10.608618
55.815 10.683165
55.820 10.687644
55.825 10.345619
55.830 10.431143
55.835 10.471231
55.840 10.346727
55.845 10.70185
55.850 10.407235
55.855 10.284234
55.860 10.260743
55.865 9.723833
55.870 9.734873
55.875 9.933618
55.880 9.946867
55.885 10.093063
55.890 9.967782
55.895 9.931732
55.900 9.771879
55.905 9.983307
55.910 10.396822
55.915 10.640411
55.920 11.191949
55.925 11.439919
55.930 11.688193
55.935 11.787539
55.940 11.812161
55.945 11.762202
55.950 11.454844
55.955 11.06866
55.960 10.739787
55.965 10.59854
55.970 10.880612
55.975 10.466982
55.980 9.747122
55.985 9.501276
55.990 9.82868
55.995 10.292361
56.000 10.22638
56.005 9.965655
56.010 9.822804
56.015 10.012847
56.020 10.097214
56.025 9.56522
56.030 9.155593
56.035 9.117179
56.040 9.656919
56.045 10.114025
56.050 9.996416
56.055 10.269293
56.060 10.664695
56.065 10.96349
56.070 10.708834
56.075 9.996411
56.080 9.779919
56.085 9.580993
56.090 9.38705
56.095 9.157715
56.100 8.892394
56.105 8.863978
56.110 8.855406
56.115 8.855709
56.120 8.522092
56.125 8.40099
56.130 8.433824
56.135 8.729136
56.140 9.232607
56.145 9.660995
56.150 10.194201
56.155 10.949762
56.160 11.742435
56.165 11.859466
56.170 11.50915
56.175 11.457236
56.180 10.643521
56.185 10.013949
56.190 9.815634
56.195 9.285998
56.200 9.616401
56.205 9.960307
56.210 10.142566
56.215 10.792371
56.220 11.126582
56.225 10.840261
56.230 10.916891
56.235 10.555806
56.240 10.334484
56.245 10.129188
56.250 9.964445
56.255 9.680498
56.260 9.712513
56.265 9.85346
56.270 9.582337
56.275 9.595193
56.280 9.82396
56.285 10.379922
56.290 10.58588
56.295 10.158394
56.300 9.947881
56.305 10.297806
56.310 10.355803
56.315 10.129333
56.320 9.677758
56.325 9.939373
56.330 10.380562
56.335 10.319928
56.340 10.252007
56.345 9.934605
56.350 9.772266
56.355 9.8127
56.360 9.969603
56.365 9.781089
56.370 9.781238
56.375 9.747035
56.380 9.65304
56.385 10.210146
56.390 10.174554
56.395 9.935033
56.400 10.108348
56.405 9.946175
56.410 9.729425
56.415 9.643295
56.420 9.425282
56.425 9.678817
56.430 9.97214
56.435 10.250851
56.440 10.907793
56.445 11.346771
56.450 11.304613
56.455 10.972849
56.460 11.02039
56.465 10.269242
56.470 9.798227
56.475 9.635522
56.480 10.10212
56.485 10.19387
56.490 10.838646
56.495 10.959566
56.500 11.640402
56.505 11.706566
56.510 11.318043
56.515 11.019554
56.520 10.807961
56.525 10.558692
56.530 10.793993
56.535 10.619555
56.540 11.153201
56.545 11.206881
56.550 11.193791
56.555 11.396655
56.560 11.083052
56.565 11.112
56.570 11.358626
56.575 11.091184
56.580 11.34347
56.585 11.661539
56.590 11.551008
56.595 11.758082
56.600 11.631585
56.605 11.229451
56.610 11.181339
56.615 11.374466
56.620 11.485621
56.625 11.308466
56.630 10.755692
56.635 10.395524
56.640 10.03334
56.645 10.034211
56.650 9.889484
56.655 9.918894
56.660 10.431184
56.665 11.190234
56.670 11.865196
56.675 12.10702
56.680 11.785439
56.685 11.806591
56.690 11.903438
56.695 11.59208
56.700 11.166471
56.705 10.506063
56.710 10.575012
56.715 11.119047
56.720 10.567993
56.725 10.242867
56.730 10.270197
56.735 10.770813
56.740 11.174149
56.745 11.073748
56.750 10.836974
56.755 10.950321
56.760 10.940217
56.765 10.89454
56.770 10.797169
56.775 10.659175
56.780 10.951913
56.785 11.123559
56.790 11.434433
56.795 11.671987
56.800 11.482555
56.805 11.178498
56.810 11.178607
56.815 10.619705
56.820 10.786593
56.825 10.959193
56.830 10.890804
56.835 11.173841
56.840 10.898264
56.845 10.834548
56.850 10.857819
56.855 10.475894
56.860 9.607888
56.865 9.16623
56.870 9.064264
56.875 9.427416
56.880 9.592827
56.885 9.550397
56.890 9.655598
56.895 9.954123
56.900 10.432476
56.905 10.251492
56.910 9.813886
56.915 9.647498
56.920 9.423162
56.925 9.533966
56.930 9.76466
56.935 9.385446
56.940 9.362798
56.945 9.830194
56.950 10.075799
56.955 10.26324
56.960 9.843409
56.965 9.644946
56.970 9.699771
56.975 9.967773
56.980 9.278831
56.985 9.195864
56.990 9.329926
56.995 10.053279
57.000 10.307106
57.005 10.264684
57.010 10.077185
57.015 10.552744
57.020 10.572453
57.025 10.402869
57.030 9.764714
57.035 9.377293
57.040 9.252422
57.045 9.715981
57.050 9.815206
57.055 10.216703
57.060 10.302732
57.065 10.556455
57.070 10.98113
57.075 11.428936
57.080 11.135022
57.085 10.943484
57.090 10.929777
57.095 10.822304
57.100 10.778573
57.105 11.061223
57.110 11.316766
57.115 11.453127
57.120 11.484302
57.125 11.324947
57.130 11.47299
57.135 11.157138
57.140 10.420167
57.145 9.621486
57.150 9.203645
57.155 9.070709
57.160 9.531132
57.165 9.548796
57.170 9.528994
57.175 9.463052
57.180 10.133221
57.185 10.42434
57.190 10.078642
57.195 9.344172
57.200 9.237617
57.205 9.471096
57.210 9.743884
57.215 9.619505
57.220 9.963056
57.225 10.486044
57.230 10.891508
57.235 10.721456
57.240 10.695098
57.245 10.739358
57.250 10.826911
57.255 10.955152
57.260 10.95897
57.265 11.394837
57.270 12.009447
57.275 11.933064
57.280 11.969922
57.285 11.771886
57.290 11.396136
57.295 11.181392
57.300 10.616295
57.305 10.690469
57.310 10.754895
57.315 10.466561
57.320 10.298451
57.325 10.303441
57.330 10.239203
57.335 10.05131
57.340 10.155385
57.345 10.401223
57.350 10.967012
57.355 10.884189
57.360 11.160732
57.365 11.317006
57.370 11.301469
57.375 10.678566
57.380 11.017084
57.385 11.336931
57.390 11.525794
57.395 11.447877
57.400 11.71732
57.405 11.888523
57.410 12.061381
57.415 11.507775
57.420 10.790504
57.425 11.06655
57.430 11.246942
57.435 11.293722
57.440 11.333283
57.445 11.645636
57.450 11.350681
57.455 11.322325
57.460 10.593031
57.465 10.142842
57.470 9.721833
57.475 9.560273
57.480 9.523879
57.485 9.470649
57.490 9.667452
57.495 9.790381
57.500 9.680591
57.505 9.7189
57.510 9.563941
57.515 9.709055
57.520 10.303183
57.525 10.329638
57.530 10.568292
57.535 10.962132
57.540 11.255596
57.545 11.49835
57.550 11.106918
57.555 11.104575
57.560 11.145353
57.565 10.805746
57.570 11.024142
57.575 10.9238
57.580 10.885948
57.585 10.963376
57.590 11.400955
57.595 11.359972
57.600 11.449009
57.605 11.022055
57.610 10.631909
57.615 10.373507
57.620 10.117292
57.625 9.763439
57.630 10.283708
57.635 10.364292
57.640 10.444141
57.645 10.686564
57.650 10.823921
57.655 11.120941
57.660 11.207856
57.665 11.303335
57.670 11.346543
57.675 11.486531
57.680 11.986436
57.685 12.07751
57.690 11.801085
57.695 12.206878
57.700 11.996886
57.705 11.746272
57.710 11.672243
57.715 11.700185
57.720 11.723683
57.725 11.897616
57.730 11.842518
57.735 12.265538
57.740 12.266626
57.745 11.767351
57.750 11.830493
57.755 11.639735
57.760 11.447948
57.765 11.16227
57.770 10.935283
57.775 11.505076
57.780 11.85216
57.785 11.81376
57.790 12.127716
57.795 11.934712
57.800 11.144829
57.805 10.915145
57.810 10.962506
57.815 10.5116
57.820 10.304566
57.825 9.935514
57.830 10.010154
57.835 10.204569
57.840 10.050013
57.845 9.745688
57.850 9.994127
57.855 10.221305
57.860 10.562451
57.865 10.670873
57.870 10.997359
57.875 10.73626
57.880 10.61948
57.885 10.551155
57.890 10.296531
57.895 10.021118
57.900 9.799348
57.905 9.586151
57.910 9.939438
57.915 10.255589
57.920 10.267357
57.925 10.42252
57.930 10.555366
57.935 10.573348
57.940 10.613759
57.945 10.724298
57.950 10.336179
57.955 9.986533
57.960 9.902903
57.965 10.175367
57.970 10.092679
57.975 10.415755
57.980 10.355516
57.985 10.555881
57.990 10.662918
57.995 10.777661
58.000 10.659885
58.005 10.773819
58.010 10.526152
58.015 10.51386
58.020 11.140666
58.025 11.255392
58.030 11.298276
58.035 11.263841
58.040 11.444328
58.045 11.359437
58.050 11.298944
58.055 11.246323
58.060 11.781668
58.065 11.963913
58.070 12.203468
58.075 12.191133
58.080 12.960154
58.085 13.361979
58.090 12.85963
58.095 12.182603
58.100 12.184245
58.105 11.591866
58.110 11.358311
58.115 10.629075
58.120 10.131379
58.125 10.156897
58.130 10.157877
58.135 10.44224
58.140 10.838123
58.145 10.963808
58.150 10.97584
58.155 11.281511
58.160 11.437403
58.165 11.473184
58.170 11.413713
58.175 11.247334
58.180 10.883487
58.185 11.009353
58.190 10.626427
58.195 10.766631
58.200 10.438276
58.205 10.268024
58.210 10.99145
58.215 11.505853
58.220 11.549037
58.225 11.055375
58.230 11.112344
58.235 11.368392
58.240 11.347167
58.245 11.176114
58.250 10.789227
58.255 11.082818
58.260 11.454473
58.265 11.296882
58.270 11.413236
58.275 11.670538
58.280 11.879271
58.285 12.34882
58.290 11.832665
58.295 12.140838
58.300 12.118256
58.305 11.959723
58.310 11.601349
58.315 11.214018
58.320 11.095528
58.325 10.964696
58.330 11.03467
58.335 11.108366
58.340 10.811036
58.345 10.963964
58.350 10.811676
58.355 10.871095
58.360 11.119546
58.365 10.742932
58.370 10.962873
58.375 11.508513
58.380 11.376149
58.385 11.564815
58.390 11.401997
58.395 11.597803
58.400 11.766606
58.405 11.838606
58.410 11.524321
58.415 11.602951
58.420 11.431274
58.425 11.599525
58.430 11.812556
58.435 12.04791
58.440 11.947245
58.445 12.09689
58.450 12.273298
58.455 12.655575
58.460 12.616132
58.465 12.675789
58.470 12.620149
58.475 12.263667
58.480 12.658198
58.485 13.005937
58.490 12.886631
58.495 12.82653
58.500 12.587588
58.505 12.810854
58.510 13.484356
58.515 13.322308
58.520 13.257492
58.525 13.189054
58.530 13.115506
58.535 13.03535
58.540 12.603603
58.545 12.097822
58.550 11.622677
58.555 11.299698
58.560 11.056705
58.565 11.383096
58.570 11.32324
58.575 11.514318
58.580 11.404106
58.585 11.4812
58.590 11.537164
58.595 11.559595
58.600 11.124007
58.605 11.041102
58.610 11.01166
58.615 10.990008
58.620 10.9163
58.625 11.451641
58.630 12.029679
58.635 12.395372
58.640 12.390233
58.645 12.605191
58.650 13.045912
58.655 13.426846
58.660 13.225427
58.665 12.880831
58.670 12.879778
58.675 13.15941
58.680 12.749453
58.685 12.283651
58.690 12.066937
58.695 12.293249
58.700 12.060911
58.705 12.589086
58.710 12.46577
58.715 12.698092
58.720 12.906095
58.725 12.822503
58.730 12.759167
58.735 13.424047
58.740 13.215053
58.745 13.793561
58.750 13.90296
58.755 14.154145
58.760 14.666053
58.765 14.557254
58.770 13.796507
58.775 13.060054
58.780 13.038241
58.785 12.907482
58.790 13.018538
58.795 12.657031
58.800 12.669361
58.805 13.327758
58.810 13.459538
58.815 12.956079
58.820 12.691936
58.825 12.332523
58.830 12.203941
58.835 11.935061
58.840 12.258085
58.845 12.509896
58.850 12.69138
58.855 13.082003
58.860 13.222939
58.865 13.176641
58.870 12.961363
58.875 12.092303
58.880 11.538351
58.885 11.546637
58.890 11.665705
58.895 11.367177
58.900 11.588501
58.905 11.456102
58.910 12.078712
58.915 12.872177
58.920 12.866524
58.925 12.418948
58.930 12.470214
58.935 12.03306
58.940 12.027135
58.945 11.823643
58.950 11.527624
58.955 11.402637
58.960 11.899951
58.965 12.448812
58.970 12.916092
58.975 12.656318
58.980 12.505133
58.985 12.166808
58.990 11.990464
58.995 11.746702
59.000 11.134068
59.005 10.962961
59.010 11.025496
59.015 10.936018
59.020 11.292417
59.025 11.663172
59.030 11.611397
59.035 11.944913
59.040 12.005424
59.045 12.704753
59.050 12.75186
59.055 12.474804
59.060 12.259193
59.065 12.817266
59.070 12.9693
59.075 12.850618
59.080 12.272735
59.085 12.24219
59.090 12.194207
59.095 12.17126
59.100 11.581326
59.105 11.483264
59.110 11.685096
59.115 12.281508
59.120 12.533724
59.125 13.000126
59.130 12.991967
59.135 13.341922
59.140 13.362822
59.145 13.235798
59.150 12.998449
59.155 12.811989
59.160 12.93728
59.165 12.366165
59.170 12.08173
59.175 11.939003
59.180 12.242995
59.185 12.672854
59.190 13.079926
59.195 13.185583
59.200 13.688331
59.205 13.680717
59.210 13.667342
59.215 13.236006
59.220 13.258606
59.225 13.164072
59.230 12.885179
59.235 12.368858
59.240 12.328119
59.245 13.043005
59.250 13.324533
59.255 12.987347
59.260 12.739698
59.265 12.908651
59.270 13.783674
59.275 14.104665
59.280 13.668355
59.285 13.759385
59.290 13.983467
59.295 14.315947
59.300 14.093837
59.305 13.256923
59.310 12.692742
59.315 12.436276
59.320 12.182226
59.325 11.623201
59.330 11.459143
59.335 11.504609
59.340 12.2099
59.345 13.077403
59.350 13.185006
59.355 12.818464
59.360 13.253742
59.365 13.532341
59.370 13.559017
59.375 13.138206
59.380 12.550935
59.385 12.286716
59.390 12.793226
59.395 12.469301
59.400 12.07991
59.405 12.160656
59.410 12.258553
59.415 12.482275
59.420 12.868403
59.425 12.530228
59.430 12.784219
59.435 12.477026
59.440 12.644416
59.445 12.594239
59.450 12.328675
59.455 12.033485
59.460 12.14284
59.465 11.998497
59.470 12.629918
59.475 12.912558
59.480 13.386695
59.485 13.565946
59.490 13.446754
59.495 13.538326
59.500 14.163892
59.505 13.985876
59.510 13.236471
59.515 12.754244
59.520 12.798408
59.525 12.873095
59.530 12.330814
59.535 11.62604
59.540 11.513023
59.545 12.144204
59.550 11.819329
59.555 11.527477
59.560 11.685867
59.565 11.890363
59.570 12.109647
59.575 11.780857
59.580 11.309148
59.585 11.738105
59.590 12.269447
59.595 12.644445
59.600 12.699411
59.605 12.876048
59.610 13.053624
59.615 13.328236
59.620 13.19513
59.625 12.81375
59.630 12.874118
59.635 12.9785
59.640 12.95457
59.645 13.075091
59.650 13.135961
59.655 13.305912
59.660 13.003963
59.665 13.251205
59.670 13.43739
59.675 13.603668
59.680 13.606521
59.685 13.446431
59.690 13.321241
59.695 13.466733
59.700 13.55353
59.705 13.188278
59.710 13.278508
59.715 13.40305
59.720 13.57563
59.725 13.566661
59.730 13.734478
59.735 13.456333
59.740 13.81373
59.745 13.83002
59.750 14.053159
59.755 14.482471
59.760 14.659292
59.765 14.329967
59.770 14.215883
59.775 14.438585
59.780 14.281497
59.785 14.701231
59.790 14.345016
59.795 14.372169
59.800 14.796531
59.805 14.6177
59.810 14.280816
59.815 14.246867
59.820 13.786926
59.825 13.737052
59.830 13.681886
59.835 13.900847
59.840 14.069816
59.845 14.062723
59.850 14.048171
59.855 14.002418
59.860 14.123116
59.865 14.082055
59.870 13.760029
59.875 13.970398
59.880 13.968452
59.885 13.89289
59.890 13.80262
59.895 13.739329
59.900 14.072437
59.905 13.853651
59.910 13.365112
59.915 12.966037
59.920 13.457891
59.925 14.230085
59.930 14.769836
59.935 14.786274
59.940 15.125962
59.945 15.600725
59.950 15.9313
59.955 15.241002
59.960 14.709002
59.965 14.374987
59.970 14.340353
59.975 14.055065
59.980 13.820717
59.985 14.0877
59.990 14.293751
59.995 14.588591
60.000 14.574497
60.005 14.760635
60.010 15.46034
60.015 15.7377
60.020 15.061925
60.025 14.915409
60.030 14.928874
60.035 15.241483
60.040 14.711043
60.045 14.260294
60.050 14.290542
60.055 15.074052
60.060 15.501979
60.065 15.167389
60.070 15.046885
60.075 14.83738
60.080 14.599307
60.085 14.190763
60.090 13.878254
60.095 13.637897
60.100 13.566008
60.105 13.906862
60.110 14.296579
60.115 14.333055
60.120 14.43055
60.125 13.823592
60.130 13.720419
60.135 13.7132
60.140 13.277228
60.145 13.028039
60.150 12.885455
60.155 12.760131
60.160 13.09971
60.165 13.228786
60.170 13.715536
60.175 14.199295
60.180 14.871333
60.185 15.565993
60.190 15.526149
60.195 15.543626
60.200 15.356732
60.205 14.877728
60.210 14.196597
60.215 13.831477
60.220 13.712373
60.225 14.127553
60.230 14.841262
60.235 14.885061
60.240 14.712956
60.245 14.875138
60.250 14.138
60.255 14.465711
60.260 14.015306
60.265 13.56593
60.270 13.630612
60.275 13.834918
60.280 14.19687
60.285 14.484742
60.290 13.961006
60.295 13.90862
60.300 13.839352
60.305 13.64321
60.310 13.556849
60.315 13.974852
60.320 14.224933
60.325 13.801729
60.330 14.093351
60.335 14.241575
60.340 14.316047
60.345 14.299212
60.350 13.995222
60.355 14.237494
60.360 14.149494
60.365 13.779036
60.370 13.669935
60.375 13.825397
60.380 13.556692
60.385 13.045193
60.390 13.008311
60.395 13.130066
60.400 12.764551
60.405 12.237481
60.410 12.067357
60.415 11.853251
60.420 11.748216
60.425 11.469004
60.430 11.566186
60.435 12.010402
60.440 12.371082
60.445 12.466496
60.450 12.536684
60.455 12.680617
60.460 13.187653
60.465 13.633993
60.470 13.879397
60.475 13.798203
60.480 14.037846
60.485 14.322464
60.490 13.973072
60.495 13.494242
60.500 12.985912
60.505 12.807429
60.510 13.214959
60.515 13.245611
60.520 13.073604
60.525 13.274929
60.530 13.249293
60.535 13.521832
60.540 13.450031
60.545 12.730672
60.550 12.617037
60.555 12.609735
60.560 12.56779
60.565 12.524631
60.570 12.167075
60.575 12.273794
60.580 12.72143
60.585 12.686482
60.590 12.558737
60.595 12.908942
60.600 13.348894
60.605 13.651006
60.610 13.569951
60.615 13.313268
60.620 13.728634
60.625 13.931417
60.630 14.004776
60.635 13.835477
60.640 13.662971
60.645 13.892226
60.650 13.907071
60.655 13.553665
60.660 13.281234
60.665 12.814973
60.670 13.03126
60.675 12.712827
60.680 12.451141
60.685 12.565468
60.690 12.910263
60.695 13.243994
60.700 13.348939
60.705 13.24384
60.710 13.492123
60.715 13.014671
60.720 12.342021
60.725 12.296953
60.730 12.163079
60.735 12.051294
60.740 11.818563
60.745 12.2981
60.750 12.913448
60.755 13.187324
60.760 12.467531
60.765 12.473617
60.770 12.660058
60.775 12.383952
60.780 11.645414
60.785 11.268891
60.790 11.16452
60.795 11.663939
60.800 11.379212
60.805 11.254589
60.810 11.582851
60.815 11.634001
60.820 12.200979
60.825 12.385447
60.830 12.39434
60.835 12.410563
60.840 12.247124
60.845 12.219979
60.850 12.420025
60.855 11.949737
60.860 11.860241
60.865 11.896039
60.870 12.140285
60.875 12.440262
60.880 11.811446
60.885 11.605852
60.890 11.503173
60.895 11.368995
60.900 11.196952
60.905 11.162448
60.910 11.439223
60.915 11.946314
60.920 12.577292
60.925 13.100725
60.930 13.320891
60.935 13.57572
60.940 13.555853
60.945 13.106642
60.950 13.111541
60.955 12.448991
60.960 12.050669
60.965 11.351956
60.970 10.848442
60.975 10.878506
60.980 11.676136
60.985 11.984566
60.990 11.968908
60.995 12.099619
61.000 12.948676
61.005 13.124803
61.010 13.292257
61.015 13.343757
61.020 13.589482
61.025 13.891333
61.030 13.989363
61.035 13.885338
61.040 14.049534
61.045 13.600768
61.050 12.680508
61.055 12.120474
61.060 12.030684
61.065 11.891736
61.070 11.891066
61.075 11.817966
61.080 11.957214
61.085 11.769886
61.090 11.91232
61.095 12.00287
61.100 12.058123
61.105 12.02785
61.110 11.908137
61.115 12.12354
61.120 12.5425
61.125 12.232622
61.130 12.165006
61.135 12.12819
61.140 12.121197
61.145 12.029804
61.150 11.502708
61.155 11.860918
61.160 12.430759
61.165 12.489407
61.170 12.388666
61.175 12.303661
61.180 12.238171
61.185 12.535337
61.190 11.985818
61.195 12.116518
61.200 12.396636
61.205 12.320917
61.210 12.44349
61.215 12.519809
61.220 12.567552
61.225 12.736945
61.230 12.587057
61.235 12.435894
61.240 12.317872
61.245 12.006569
61.250 12.216723
61.255 12.593778
61.260 12.816213
61.265 12.275579
61.270 11.932055
61.275 11.638305
61.280 11.578094
61.285 11.459382
61.290 11.759803
61.295 11.33396
61.300 10.88246
61.305 11.277226
61.310 12.330288
61.315 12.780172
61.320 12.473413
61.325 12.002311
61.330 12.117095
61.335 12.775156
61.340 12.458097
61.345 12.100324
61.350 11.991975
61.355 12.203447
61.360 12.245115
61.365 12.922034
61.370 13.394078
61.375 13.248006
61.380 12.930031
61.385 12.670516
61.390 12.845091
61.395 12.626858
61.400 12.008606
61.405 10.888689
61.410 11.022017
61.415 11.140871
61.420 11.202031
61.425 11.374011
61.430 11.314547
61.435 11.51318
61.440 12.539071
61.445 12.687437
61.450 12.984463
61.455 13.089724
61.460 12.930869
61.465 12.943058
61.470 12.780131
61.475 12.531213
61.480 12.693949
61.485 12.478725
61.490 12.136631
61.495 11.615746
61.500 11.689568
61.505 11.736187
61.510 11.743196
61.515 11.650474
61.520 11.725245
61.525 12.247143
61.530 13.199369
61.535 13.326005
61.540 13.645279
61.545 13.89727
61.550 14.287303
61.555 14.931776
61.560 14.618809
61.565 14.242852
61.570 14.265856
61.575 14.020418
61.580 14.095888
61.585 13.709137
61.590 13.06151
61.595 12.964793
61.600 12.432402
61.605 12.396272
61.610 12.661617
61.615 12.51495
61.620 12.553146
61.625 13.137353
61.630 13.510465
61.635 14.064068
61.640 14.092646
61.645 14.296381
61.650 13.557045
61.655 13.102244
61.660 12.63984
61.665 12.546044
61.670 12.205703
61.675 11.768467
61.680 11.447254
61.685 12.163117
61.690 12.392459
61.695 12.719569
61.700 12.60971
61.705 12.37417
61.710 12.623342
61.715 11.805636
61.720 11.567553
61.725 11.627344
61.730 11.595709
61.735 11.930835
61.740 11.91689
61.745 11.906554
61.750 12.783784
61.755 13.678898
61.760 13.709362
61.765 13.362401
61.770 12.99059
61.775 13.489693
61.780 13.490724
61.785 12.359792
61.790 11.172339
61.795 11.049064
61.800 11.161739
61.805 11.373083
61.810 11.510445
61.815 11.504682
61.820 11.931548
61.825 11.756731
61.830 11.918227
61.835 11.946323
61.840 11.566061
61.845 11.250477
61.850 11.553399
61.855 11.912732
61.860 12.12488
61.865 11.982651
61.870 12.248529
61.875 12.549768
61.880 12.759416
61.885 12.794349
61.890 12.843143
61.895 13.158319
61.900 13.169808
61.905 12.822167
61.910 13.136329
61.915 13.117183
61.920 13.115581
61.925 13.607331
61.930 13.393804
61.935 13.393332
61.940 13.595634
61.945 13.303638
61.950 13.041325
61.955 12.75874
61.960 13.033387
61.965 13.350494
61.970 13.3818
61.975 13.402545
61.980 13.15555
61.985 13.043701
61.990 12.887121
61.995 12.123302
62.000 11.815112
62.005 11.93978
62.010 11.789578
62.015 11.82561
62.020 11.630766
62.025 11.574957
62.030 11.940947
62.035 12.019185
62.040 11.649975
62.045 12.024308
62.050 12.615587
62.055 13.211341
62.060 13.546481
62.065 13.217892
62.070 13.265339
62.075 13.545787
62.080 12.912942
62.085 12.180845
62.090 11.636815
62.095 11.772898
62.100 11.833031
62.105 11.549466
62.110 11.51667
62.115 12.081349
62.120 12.501604
62.125 12.607133
62.130 12.777738
62.135 13.683299
62.140 14.162582
62.145 14.141653
62.150 14.330989
62.155 14.20278
62.160 14.06539
62.165 13.893278
62.170 14.047525
62.175 14.27718
62.180 14.55637
62.185 14.21392
62.190 14.349864
62.195 14.34846
62.200 13.901649
62.205 13.024864
62.210 13.021798
62.215 13.067687
62.220 12.979486
62.225 12.830104
62.230 12.86772
62.235 13.113024
62.240 12.925403
62.245 12.762346
62.250 12.661005
62.255 12.730313
62.260 13.104921
62.265 13.140681
62.270 12.750839
62.275 12.905325
62.280 12.760989
62.285 12.646936
62.290 12.279993
62.295 12.031693
62.300 12.047701
62.305 12.162185
62.310 12.394859
62.315 12.350618
62.320 12.628308
62.325 12.942634
62.330 12.646404
62.335 12.634303
62.340 12.593472
62.345 12.744847
62.350 12.28382
62.355 12.154587
62.360 12.724383
62.365 13.079705
62.370 13.013869
62.375 12.984288
62.380 12.515631
62.385 12.767052
62.390 12.535024
62.395 12.30246
62.400 12.467165
62.405 12.578944
62.410 13.160823
62.415 13.235243
62.420 13.040691
62.425 13.304055
62.430 13.20717
62.435 12.971287
62.440 13.107965
62.445 12.953493
62.450 13.341594
62.455 14.002712
62.460 13.792719
62.465 13.779519
62.470 13.92651
62.475 14.077314
62.480 14.344277
62.485 13.790462
62.490 13.58382
62.495 13.686388
62.500 13.825492
62.505 13.820913
62.510 13.432274
62.515 13.2102
62.520 13.20473
62.525 13.714583
62.530 13.791496
62.535 13.37984
62.540 13.319972
62.545 13.118773
62.550 12.87914
62.555 12.47849
62.560 11.744703
62.565 11.281568
62.570 11.453873
62.575 11.403496
62.580 12.217695
62.585 13.285336
62.590 13.675653
62.595 13.654247
62.600 13.835138
62.605 13.917967
62.610 13.927454
62.615 13.373877
62.620 12.544963
62.625 12.660751
62.630 12.824903
62.635 12.91266
62.640 12.725392
62.645 12.49553
62.650 12.410603
62.655 12.766272
62.660 12.615777
62.665 12.796782
62.670 13.070086
62.675 14.02113
62.680 14.293518
62.685 14.27495
62.690 14.55863
62.695 15.149824
62.700 15.329723
62.705 14.737893
62.710 14.152333
62.715 14.358807
62.720 13.746802
62.725 13.54215
62.730 13.677854
62.735 13.385584
62.740 13.84954
62.745 13.92887
62.750 14.258674
62.755 14.361355
62.760 14.042901
62.765 13.654884
62.770 13.463474
62.775 13.549379
62.780 13.582097
62.785 13.772686
62.790 14.476049
62.795 14.237167
62.800 14.18277
62.805 14.971617
62.810 14.877975
62.815 14.584073
62.820 14.193603
62.825 13.873929
62.830 14.116869
62.835 14.052289
62.840 13.959656
62.845 13.906129
62.850 14.221269
62.855 14.581767
62.860 14.841634
62.865 15.304264
62.870 15.673315
62.875 15.178509
62.880 15.428412
62.885 14.890813
62.890 14.384822
62.895 14.543346
62.900 14.45864
62.905 14.614398
62.910 15.134963
62.915 15.261227
62.920 15.475552
62.925 15.612898
62.930 14.906898
62.935 14.194613
62.940 14.090621
62.945 13.40339
62.950 12.576447
62.955 12.179098
62.960 12.023786
62.965 11.925039
62.970 12.345445
62.975 12.256777
62.980 12.971326
62.985 13.419324
62.990 13.633554
62.995 13.921544
63.000 14.233068
63.005 14.000737
63.010 13.598153
63.015 13.399537
63.020 13.827754
63.025 14.086852
63.030 13.859416
63.035 13.820218
63.040 13.694657
63.045 13.442596
63.050 13.359362
63.055 12.978516
63.060 13.074623
63.065 13.043236
63.070 13.065875
63.075 13.265656
63.080 13.401079
63.085 13.300725
63.090 13.261293
63.095 13.03027
63.100 13.041914
63.105 13.142075
63.110 13.244536
63.115 13.246572
63.120 12.674799
63.125 12.446325
63.130 12.292801
63.135 11.903617
63.140 11.361734
63.145 10.704966
63.150 10.643681
63.155 11.410082
63.160 12.04169
63.165 12.72447
63.170 13.001904
63.175 13.453865
63.180 13.952332
63.185 14.408782
63.190 14.101176
63.195 13.195951
63.200 12.533304
63.205 12.816077
63.210 12.510946
63.215 12.454116
63.220 12.508208
63.225 13.151409
63.230 14.202102
63.235 14.493248
63.240 14.19542
63.245 14.098547
63.250 14.63583
63.255 14.352062
63.260 13.94451
63.265 13.305086
63.270 12.806205
63.275 13.126523
63.280 13.794601
63.285 13.797702
63.290 13.701512
63.295 13.603534
63.300 13.995203
63.305 14.49296
63.310 14.443012
63.315 14.150765
63.320 14.311661
63.325 14.142876
63.330 13.89864
63.335 13.490056
63.340 13.636796
63.345 13.50901
63.350 13.267009
63.355 12.81256
63.360 12.761541
63.365 12.899333
63.370 13.221377
63.375 13.440035
63.380 13.678919
63.385 13.49051
63.390 13.586516
63.395 14.083589
63.400 14.281123
63.405 14.194279
63.410 13.426479
63.415 12.683054
63.420 13.330418
63.425 13.130779
63.430 13.033381
63.435 13.037355
63.440 12.680649
63.445 12.985006
63.450 13.299967
63.455 13.249902
63.460 13.695477
63.465 13.250484
63.470 12.663497
63.475 13.212271
63.480 13.683447
63.485 14.027921
63.490 13.485141
63.495 13.254923
63.500 13.539666
63.505 13.820158
63.510 13.160614
63.515 12.775447
63.520 12.55442
63.525 12.443427
63.530 12.58454
63.535 12.700902
63.540 13.188777
63.545 13.5636
63.550 13.793699
63.555 13.731217
63.560 13.921459
63.565 14.297604
63.570 14.486938
63.575 14.111645
63.580 14.024146
63.585 13.836411
63.590 13.979491
63.595 14.109171
63.600 13.905538
63.605 13.25362
63.610 12.804231
63.615 12.543156
63.620 12.517309
63.625 12.271679
63.630 12.289228
63.635 11.752343
63.640 12.418442
63.645 13.230991
63.650 13.254952
63.655 13.942399
63.660 14.379438
63.665 14.401884
63.670 14.96422
63.675 14.479022
63.680 14.226396
63.685 14.192331
63.690 13.540863
63.695 13.306464
63.700 13.283834
63.705 13.446002
63.710 13.151034
63.715 13.426182
63.720 13.467453
63.725 13.336678
63.730 12.769778
63.735 12.469861
63.740 12.314317
63.745 12.96401
63.750 12.690372
63.755 13.02273
63.760 13.350119
63.765 13.38788
63.770 13.350658
63.775 13.113846
63.780 13.092152
63.785 13.202167
63.790 13.025134
63.795 12.939477
63.800 13.719745
63.805 14.224917
63.810 14.070167
63.815 13.777521
63.820 13.57765
63.825 13.513875
63.830 13.351521
63.835 12.748652
63.840 12.561877
63.845 12.708817
63.850 12.580332
63.855 12.679514
63.860 12.5467
63.865 12.747167
63.870 13.014297
63.875 12.923184
63.880 13.121788
63.885 13.802701
63.890 14.198232
63.895 14.643553
63.900 14.723735
63.905 14.872861
63.910 14.59757
63.915 14.175318
63.920 13.598506
63.925 13.528916
63.930 13.135821
63.935 12.736287
63.940 12.657465
63.945 12.722474
63.950 13.255789
63.955 13.981863
63.960 13.753839
63.965 13.708801
63.970 14.230358
63.975 14.023841
63.980 14.1948
63.985 14.068033
63.990 13.414226
63.995 13.509915
64.000 13.882591
64.005 13.8352
64.010 14.320601
64.015 14.631237
64.020 14.945394
64.025 15.264567
64.030 15.232273
64.035 15.165676
64.040 14.845692
64.045 14.250947
64.050 14.037403
64.055 13.662018
64.060 13.793192
64.065 13.975612
64.070 13.834877
64.075 13.89624
64.080 14.258598
64.085 14.375206
64.090 14.54999
64.095 14.039647
64.100 14.158225
64.105 14.179482
64.110 14.553655
64.115 14.308188
64.120 14.321615
64.125 13.896482
64.130 14.086535
64.135 13.837692
64.140 13.940624
64.145 13.690886
64.150 13.328337
64.155 13.036401
64.160 12.700504
64.165 12.254235
64.170 12.182006
64.175 12.331087
64.180 12.463607
64.185 13.117296
64.190 13.141411
64.195 13.758247
64.200 14.361239
64.205 14.678739
64.210 14.522855
64.215 14.093601
64.220 13.555573
64.225 13.456281
64.230 13.229447
64.235 12.924434
64.240 12.468193
64.245 12.046576
64.250 12.374889
64.255 12.69889
64.260 13.198656
64.265 13.935267
64.270 14.150816
64.275 14.115334
64.280 14.363426
64.285 14.265607
64.290 14.311369
64.295 14.042531
64.300 14.061471
64.305 14.488997
64.310 14.657727
64.315 15.057138
64.320 15.502713
64.325 15.66683
64.330 15.262976
64.335 14.353915
64.340 14.088204
64.345 14.56964
64.350 14.312395
64.355 13.787318
64.360 13.823208
64.365 14.292726
64.370 14.272844
64.375 14.340281
64.380 14.004182
64.385 14.178458
64.390 14.284242
64.395 14.192744
64.400 14.27664
64.405 14.723109
64.410 15.021592
64.415 15.226481
64.420 15.134542
64.425 15.33917
64.430 14.867184
64.435 14.427178
64.440 14.50992
64.445 14.335269
64.450 14.193662
64.455 14.193686
64.460 13.961281
64.465 14.453224
64.470 15.136683
64.475 15.214483
64.480 15.306922
64.485 15.339488
64.490 15.148375
64.495 15.066134
64.500 14.97148
64.505 15.369933
64.510 15.56026
64.515 15.243334
64.520 15.105819
64.525 15.248945
64.530 15.32004
64.535 15.519405
64.540 14.711022
64.545 14.62777
64.550 15.041096
64.555 15.250462
64.560 15.26981
64.565 15.400353
64.570 15.274382
64.575 14.907136
64.580 14.583705
64.585 15.051443
64.590 15.200169
64.595 15.456078
64.600 15.32207
64.605 15.566001
64.610 15.948864
64.615 15.72054
64.620 15.385307
64.625 14.921063
64.630 14.668257
64.635 14.694588
64.640 14.64035
64.645 14.736144
64.650 14.904836
64.655 14.627737
64.660 15.354515
64.665 15.095568
64.670 14.860674
64.675 15.228574
64.680 15.219957
64.685 15.211667
64.690 15.150381
64.695 14.678555
64.700 15.187673
64.705 15.355422
64.710 14.903642
64.715 14.251534
64.720 14.453211
64.725 14.684725
64.730 14.801052
64.735 15.038969
64.740 15.275708
64.745 15.825879
64.750 16.297766
64.755 16.565392
64.760 17.052794
64.765 17.104191
64.770 16.790083
64.775 16.63501
64.780 15.981657
64.785 15.758293
64.790 15.716695
64.795 15.636754
64.800 15.955872
64.805 16.067461
64.810 16.714825
64.815 17.037132
64.820 17.599445
64.825 17.313026
64.830 16.821188
64.835 16.683176
64.840 16.99086
64.845 16.254139
64.850 15.977577
64.855 15.76299
64.860 15.520013
64.865 15.485345
64.870 15.303646
64.875 15.162932
64.880 15.609948
64.885 15.727669
64.890 15.868247
64.895 15.771692
64.900 16.504086
64.905 16.49474
64.910 16.763155
64.915 16.832823
64.920 17.175945
64.925 17.381504
64.930 18.440416
64.935 18.467386
64.940 18.984625
64.945 19.048735
64.950 19.280275
64.955 19.529959
64.960 19.600031
64.965 19.308418
64.970 19.078392
64.975 18.687376
64.980 18.704544
64.985 18.857365
64.990 19.204117
64.995 18.934605
65.000 18.779108
65.005 19.115414
65.010 19.199522
65.015 19.541412
65.020 19.856707
65.025 19.60421
65.030 19.550457
65.035 19.489288
65.040 19.509909
65.045 19.530636
65.050 19.322506
65.055 19.237869
65.060 19.491804
65.065 19.898098
65.070 19.774218
65.075 19.518339
65.080 19.832464
65.085 19.793215
65.090 19.823568
65.095 19.867519
65.100 20.400906
65.105 21.216085
65.110 21.389887
65.115 21.5154
65.120 22.032137
65.125 22.321482
65.130 22.464916
65.135 22.102135
65.140 21.976866
65.145 21.768496
65.150 21.275188
65.155 20.798746
65.160 20.080511
65.165 19.242756
65.170 19.260603
65.175 18.723219
65.180 19.074512
65.185 19.453829
65.190 19.322083
65.195 19.574524
65.200 20.268408
65.205 20.28348
65.210 19.870916
65.215 19.359598
65.220 18.711111
65.225 18.080441
65.230 17.848097
65.235 17.304251
65.240 16.995102
65.245 17.142321
65.250 17.123377
65.255 17.056305
65.260 17.130648
65.265 17.450521
65.270 17.983452
65.275 17.890528
65.280 18.007629
65.285 17.706432
65.290 17.690804
65.295 17.519493
65.300 17.026033
65.305 16.776321
65.310 16.451761
65.315 16.373791
65.320 16.715879
65.325 17.256487
65.330 17.895922
65.335 18.333944
65.340 18.300348
65.345 18.6719
65.350 19.013826
65.355 18.758547
65.360 18.509125
65.365 18.382952
65.370 17.962002
65.375 17.92407
65.380 17.594151
65.385 17.293076
65.390 17.192793
65.395 17.266115
65.400 16.946613
65.405 16.827229
65.410 16.829041
65.415 17.109625
65.420 17.031633
65.425 17.08629
65.430 17.432039
65.435 17.312323
65.440 17.047916
65.445 17.440983
65.450 17.369495
65.455 16.899845
65.460 16.898439
65.465 16.825632
65.470 17.139786
65.475 17.506754
65.480 17.45207
65.485 17.634436
65.490 18.257399
65.495 18.715591
65.500 19.026979
65.505 18.820921
65.510 18.317822
65.515 17.791876
65.520 17.994274
65.525 18.561127
65.530 18.002378
65.535 17.249479
65.540 17.277498
65.545 17.621468
65.550 17.743559
65.555 17.854342
65.560 17.588066
65.565 17.516897
65.570 18.02693
65.575 18.480146
65.580 18.725115
65.585 18.844824
65.590 18.511332
65.595 18.155828
65.600 18.913267
65.605 19.018164
65.610 19.118433
65.615 18.307127
65.620 18.185297
65.625 18.350159
65.630 18.679743
65.635 18.178331
65.640 17.836517
65.645 18.251299
65.650 19.289379
65.655 19.390041
65.660 19.20645
65.665 19.438175
65.670 19.741188
65.675 20.165737
65.680 19.649984
65.685 19.775566
65.690 19.842171
65.695 19.7803
65.700 19.556833
65.705 19.656956
65.710 19.798372
65.715 20.039494
65.720 20.098261
65.725 20.266701
65.730 21.01075
65.735 21.010334
65.740 20.617025
65.745 20.314335
65.750 20.123486
65.755 19.985176
65.760 20.106005
65.765 19.528137
65.770 19.741398
65.775 19.836035
65.780 19.960812
65.785 20.887543
65.790 21.390091
65.795 21.749159
65.800 22.213781
65.805 22.594955
65.810 22.813726
65.815 22.76651
65.820 21.851091
65.825 21.505404
65.830 21.780348
65.835 21.977036
65.840 21.92568
65.845 22.33103
65.850 22.64926
65.855 22.779816
65.860 22.823099
65.865 22.904921
65.870 22.984123
65.875 22.706064
65.880 22.777594
65.885 22.857334
65.890 23.317499
65.895 23.107019
65.900 22.42009
65.905 22.239569
65.910 22.792879
65.915 23.164482
65.920 22.810984
65.925 22.736937
65.930 22.91217
65.935 23.153589
65.940 23.450336
65.945 22.988344
65.950 22.753725
65.955 22.597523
65.960 22.696268
65.965 22.412893
65.970 23.046333
65.975 22.653734
65.980 22.2869
65.985 22.676756
65.990 22.952869
65.995 23.107979
66.000 23.628136
66.005 23.000027
66.010 23.036301
66.015 23.134975
66.020 22.262112
66.025 22.322031
66.030 22.205051
66.035 22.016403
66.040 22.05632
66.045 22.564138
66.050 23.05405
66.055 23.862284
66.060 23.885273
66.065 23.77116
66.070 23.358213
66.075 23.817177
66.080 23.667028
66.085 23.225225
66.090 22.890869
66.095 23.260187
66.100 23.174522
66.105 23.300957
66.110 22.625381
66.115 22.289238
66.120 22.371111
66.125 22.000395
66.130 21.634052
66.135 22.158264
66.140 22.466619
66.145 22.544847
66.150 22.28442
66.155 22.1548
66.160 22.657545
66.165 23.269421
66.170 23.545441
66.175 23.631502
66.180 23.813507
66.185 24.436348
66.190 24.725601
66.195 24.004026
66.200 23.058945
66.205 22.36809
66.210 22.260469
66.215 22.339972
66.220 22.365244
66.225 22.545584
66.230 23.209356
66.235 23.724735
66.240 23.62096
66.245 23.128416
66.250 22.831278
66.255 22.88468
66.260 23.018982
66.265 23.001118
66.270 22.917215
66.275 22.751535
66.280 22.395817
66.285 22.024275
66.290 21.654877
66.295 21.41288
66.300 21.691143
66.305 21.643284
66.310 21.952568
66.315 22.786137
66.320 22.631907
66.325 21.789757
66.330 21.14333
66.335 20.712116
66.340 21.135466
66.345 21.359255
66.350 21.622278
66.355 22.616512
66.360 23.526979
66.365 23.902515
66.370 23.371246
66.375 22.684263
66.380 22.166147
66.385 21.716772
66.390 21.071672
66.395 20.814444
66.400 21.04512
66.405 21.39769
66.410 21.492891
66.415 21.061071
66.420 20.948507
66.425 21.19294
66.430 21.444546
66.435 21.130133
66.440 20.65966
66.445 20.00668
66.450 19.584234
66.455 19.351212
66.460 18.778246
66.465 18.257868
66.470 17.893972
66.475 18.148932
66.480 18.978853
66.485 19.538445
66.490 19.685488
66.495 19.872322
66.500 19.809248
66.505 20.060394
66.510 19.337751
66.515 18.891993
66.520 19.255732
66.525 19.069256
66.530 18.357477
66.535 17.86837
66.540 18.081263
66.545 18.323954
66.550 18.710741
66.555 18.199015
66.560 18.520102
66.565 18.993023
66.570 19.203836
66.575 18.823172
66.580 18.402466
66.585 17.665678
66.590 17.381405
66.595 17.060522
66.600 16.613365
66.605 16.732679
66.610 16.962627
66.615 17.231316
66.620 17.793219
66.625 17.714678
66.630 17.618322
66.635 17.541061
66.640 17.289606
66.645 16.987751
66.650 16.904512
66.655 16.446793
66.660 16.25705
66.665 16.172541
66.670 16.633213
66.675 16.671148
66.680 16.923483
66.685 16.778105
66.690 16.508568
66.695 16.341331
66.700 16.388226
66.705 16.043034
66.710 16.317116
66.715 16.252657
66.720 16.013966
66.725 16.347942
66.730 16.312216
66.735 16.256681
66.740 16.255066
66.745 15.608011
66.750 15.616264
66.755 15.909988
66.760 15.901116
66.765 16.012304
66.770 15.59691
66.775 15.608496
66.780 15.453159
66.785 14.570988
66.790 14.712735
66.795 15.208942
66.800 15.663383
66.805 15.928667
66.810 15.97987
66.815 16.09491
66.820 16.362001
66.825 16.382441
66.830 15.778036
66.835 15.128348
66.840 15.184731
66.845 15.031765
66.850 15.755197
66.855 16.448816
66.860 16.185448
66.865 16.307566
66.870 16.846025
66.875 17.050047
66.880 16.979702
66.885 16.166468
66.890 15.542284
66.895 15.15755
66.900 14.848639
66.905 14.585979
66.910 14.649015
66.915 14.314245
66.920 14.821519
66.925 14.730514
66.930 15.605728
66.935 16.018532
66.940 15.788239
66.945 15.928858
66.950 16.412527
66.955 15.971263
66.960 16.464067
66.965 15.881612
66.970 15.649659
66.975 15.71104
66.980 15.448978
66.985 15.432473
66.990 15.610692
66.995 15.340904
67.000 15.67323
67.005 16.118635
67.010 15.746693
67.015 15.42417
67.020 15.336373
67.025 14.835618
67.030 14.32119
67.035 14.091097
67.040 14.455266
67.045 14.8924
67.050 15.434587
67.055 15.604401
67.060 15.658365
67.065 15.499766
67.070 14.93673
67.075 14.449565
67.080 14.827077
67.085 15.022398
67.090 15.010417
67.095 15.204639
67.100 15.553966
67.105 16.47657
67.110 16.977398
67.115 16.565681
67.120 16.54364
67.125 16.812645
67.130 17.289358
67.135 17.183592
67.140 16.456669
67.145 16.529238
67.150 16.640797
67.155 16.388332
67.160 16.364328
67.165 16.270479
67.170 16.302994
67.175 16.395714
67.180 15.580612
67.185 15.621369
67.190 15.156614
67.195 14.750053
67.200 14.566878
67.205 14.56671
67.210 14.726844
67.215 14.996685
67.220 15.006917
67.225 15.346938
67.230 15.244748
67.235 15.119195
67.240 15.229798
67.245 15.058529
67.250 14.837562
67.255 15.214814
67.260 15.171825
67.265 15.227184
67.270 15.661507
67.275 15.145003
67.280 14.803104
67.285 14.66477
67.290 14.307981
67.295 14.198966
67.300 14.192139
67.305 13.8199
67.310 14.63385
67.315 15.315682
67.320 15.378727
67.325 15.232541
67.330 15.24315
67.335 15.392121
67.340 15.244096
67.345 15.14497
67.350 14.904626
67.355 15.032864
67.360 15.23394
67.365 15.388842
67.370 15.600897
67.375 15.916621
67.380 15.194506
67.385 14.990803
67.390 14.942879
67.395 14.936687
67.400 14.787059
67.405 14.325541
67.410 14.04567
67.415 14.186416
67.420 14.447776
67.425 14.199991
67.430 14.765326
67.435 14.787475
67.440 15.179696
67.445 15.65842
67.450 15.717758
67.455 15.655692
67.460 15.795079
67.465 15.153275
67.470 15.098929
67.475 14.721404
67.480 14.509804
67.485 14.602487
67.490 14.284986
67.495 14.381332
67.500 14.555115
67.505 14.866119
67.510 15.241902
67.515 15.641638
67.520 15.940563
67.525 16.39481
67.530 16.585165
67.535 16.268534
67.540 15.660057
67.545 15.189919
67.550 14.821024
67.555 14.777097
67.560 14.617224
67.565 14.500153
67.570 14.977958
67.575 15.543308
67.580 15.85853
67.585 15.806047
67.590 15.268377
67.595 14.996704
67.600 14.520996
67.605 14.067067
67.610 13.907211
67.615 13.668629
67.620 13.795857
67.625 14.204558
67.630 14.484414
67.635 14.939633
67.640 15.272511
67.645 15.59801
67.650 15.716697
67.655 15.434773
67.660 15.660421
67.665 15.343549
67.670 14.726284
67.675 14.443901
67.680 14.081786
67.685 13.996132
67.690 14.470088
67.695 14.551265
67.700 14.902175
67.705 14.845945
67.710 14.823059
67.715 15.257508
67.720 15.50144
67.725 14.872474
67.730 14.023206
67.735 13.786312
67.740 14.473254
67.745 14.531578
67.750 14.459445
67.755 14.13639
67.760 14.667879
67.765 15.810224
67.770 16.352686
67.775 16.675632
67.780 16.616404
67.785 16.563623
67.790 17.062155
67.795 17.136337
67.800 16.92314
67.805 16.522877
67.810 16.45339
67.815 16.468126
67.820 16.951151
67.825 17.004448
67.830 17.146839
67.835 16.849234
67.840 17.292677
67.845 16.888865
67.850 16.448536
67.855 16.26071
67.860 16.129467
67.865 16.057755
67.870 16.681023
67.875 16.19006
67.880 16.485594
67.885 17.017628
67.890 16.659132
67.895 16.154556
67.900 15.713518
67.905 15.45797
67.910 15.91151
67.915 15.969893
67.920 15.403297
67.925 15.49012
67.930 15.870453
67.935 16.161461
67.940 16.25659
67.945 16.006758
67.950 15.881992
67.955 16.025011
67.960 15.851493
67.965 15.779203
67.970 14.893087
67.975 14.039065
67.980 13.866759
67.985 13.786734
67.990 14.256425
67.995 14.254055
68.000 14.511414
68.005 15.182768
68.010 15.476892
68.015 15.726776
68.020 15.766763
68.025 15.776117
68.030 15.984488
68.035 15.829973
68.040 15.912959
68.045 16.171989
68.050 15.766818
68.055 15.309536
68.060 15.059423
68.065 14.463263
68.070 14.199421
68.075 14.07577
68.080 14.033263
68.085 14.572802
68.090 14.753292
68.095 14.60083
68.100 14.916035
68.105 14.813614
68.110 15.143047
68.115 15.095042
68.120 14.597701
68.125 15.149184
68.130 15.869331
68.135 16.620928
68.140 17.035904
68.145 16.726763
68.150 16.690737
68.155 17.208206
68.160 16.416954
68.165 15.620917
68.170 15.169216
68.175 15.278461
68.180 15.753224
68.185 15.856207
68.190 15.870629
68.195 16.204277
68.200 16.327883
68.205 16.46162
68.210 16.19141
68.215 15.94002
68.220 16.192463
68.225 16.241142
68.230 16.468924
68.235 16.485088
68.240 16.09234
68.245 16.468517
68.250 16.566336
68.255 16.20916
68.260 15.78512
68.265 15.942838
68.270 16.030979
68.275 16.56456
68.280 16.108053
68.285 15.509491
68.290 15.241611
68.295 15.111518
68.300 14.689507
68.305 14.191421
68.310 13.120225
68.315 12.92942
68.320 13.169715
68.325 13.435018
68.330 13.749372
68.335 13.818762
68.340 14.156694
68.345 13.996677
68.350 13.822738
68.355 13.87241
68.360 13.862002
68.365 13.708276
68.370 13.439527
68.375 13.270659
68.380 13.331149
68.385 13.693582
68.390 13.731058
68.395 13.821392
68.400 13.958463
68.405 14.000758
68.410 14.097867
68.415 14.996669
68.420 15.261323
68.425 15.257012
68.430 14.884484
68.435 14.562771
68.440 14.763174
68.445 15.26246
68.450 14.784053
68.455 14.633933
68.460 14.690554
68.465 14.999537
68.470 15.079024
68.475 15.303642
68.480 15.216925
68.485 15.136749
68.490 15.227201
68.495 15.397976
68.500 14.835742
68.505 14.967738
68.510 14.844847
68.515 14.758821
68.520 14.779314
68.525 15.072173
68.530 15.115467
68.535 15.453823
68.540 15.359225
68.545 14.927157
68.550 14.555493
68.555 14.670867
68.560 14.66717
68.565 14.927348
68.570 15.568397
68.575 16.065809
68.580 16.250399
68.585 15.906118
68.590 15.749987
68.595 15.464559
68.600 15.10458
68.605 14.274179
68.610 13.762184
68.615 13.764928
68.620 14.392944
68.625 14.586596
68.630 14.770923
68.635 14.992445
68.640 15.306116
68.645 15.622999
68.650 15.779879
68.655 15.176698
68.660 14.711433
68.665 14.215708
68.670 14.277983
68.675 14.656058
68.680 14.646389
68.685 15.175241
68.690 15.596887
68.695 15.375574
68.700 15.367828
68.705 15.174713
68.710 14.624447
68.715 14.279432
68.720 13.963161
68.725 14.11744
68.730 14.505955
68.735 15.082678
68.740 15.447266
68.745 15.594744
68.750 15.570808
68.755 15.378128
68.760 15.167311
68.765 15.377277
68.770 14.760046
68.775 14.317801
68.780 14.382496
68.785 15.005515
68.790 15.118224
68.795 14.776327
68.800 14.269524
68.805 14.684116
68.810 14.909888
68.815 14.840328
68.820 14.082802
68.825 14.233753
68.830 14.368063
68.835 14.304337
68.840 14.07895
68.845 14.30778
68.850 14.59794
68.855 14.917895
68.860 15.258248
68.865 15.669575
68.870 15.769972
68.875 15.948432
68.880 15.738914
68.885 15.840944
68.890 16.044661
68.895 16.206169
68.900 16.807133
68.905 17.141722
68.910 17.547066
68.915 17.099894
68.920 16.892591
68.925 16.640942
68.930 16.597832
68.935 16.326242
68.940 16.48246
68.945 16.032854
68.950 15.774958
68.955 15.760871
68.960 15.595935
68.965 15.914577
68.970 16.105532
68.975 16.404324
68.980 16.910336
68.985 17.42972
68.990 17.685614
68.995 17.896996
69.000 17.613819
69.005 17.43252
69.010 16.996704
69.015 16.552126
69.020 16.309532
69.025 16.344296
69.030 16.014658
69.035 15.533693
69.040 15.78154
69.045 16.435955
69.050 17.249876
69.055 17.750521
69.060 17.882933
69.065 17.88085
69.070 17.904356
69.075 17.815733
69.080 17.200624
69.085 16.734367
69.090 16.781582
69.095 16.98284
69.100 18.04635
69.105 18.704702
69.110 18.652765
69.115 18.59902
69.120 18.309616
69.125 17.912102
69.130 17.93812
69.135 16.898348
69.140 17.089689
69.145 17.713558
69.150 18.438604
69.155 19.094513
69.160 19.059397
69.165 18.799915
69.170 19.273396
69.175 18.25561
69.180 18.253452
69.185 18.628395
69.190 18.56356
69.195 18.98802
69.200 19.203205
69.205 18.925289
69.210 19.274809
69.215 19.1126
69.220 18.96295
69.225 19.118948
69.230 18.718332
69.235 18.595844
69.240 18.93096
69.245 19.092932
69.250 18.368069
69.255 17.78883
69.260 17.795273
69.265 18.090328
69.270 18.359856
69.275 18.003536
69.280 18.363564
69.285 19.192602
69.290 19.565203
69.295 19.656321
69.300 19.758171
69.305 19.296297
69.310 19.083897
69.315 18.913277
69.320 18.381269
69.325 18.221649
69.330 17.845587
69.335 18.015532
69.340 18.234203
69.345 18.996223
69.350 19.454409
69.355 19.802385
69.360 20.309357
69.365 20.460108
69.370 20.952814
69.375 21.191065
69.380 21.199732
69.385 20.442238
69.390 20.542337
69.395 20.247549
69.400 20.114161
69.405 19.025272
69.410 19.053972
69.415 19.210482
69.420 19.581976
69.425 19.949785
69.430 19.840006
69.435 20.241266
69.440 20.565315
69.445 20.444323
69.450 19.988796
69.455 20.122936
69.460 19.905996
69.465 20.141071
69.470 20.118713
69.475 19.654514
69.480 19.899918
69.485 20.271969
69.490 20.106739
69.495 20.213047
69.500 20.85791
69.505 21.528656
69.510 21.851
69.515 22.136181
69.520 22.20298
69.525 22.254385
69.530 22.533873
69.535 22.0138
69.540 21.761217
69.545 21.959547
69.550 21.624783
69.555 21.39432
69.560 21.282055
69.565 21.00783
69.570 21.578936
69.575 21.934378
69.580 21.96723
69.585 22.00053
69.590 22.217459
69.595 21.610538
69.600 21.318272
69.605 20.498713
69.610 19.970505
69.615 19.954866
69.620 19.875311
69.625 19.408747
69.630 19.838717
69.635 19.645193
69.640 19.547331
69.645 19.659508
69.650 19.317766
69.655 19.293673
69.660 19.479496
69.665 19.506998
69.670 19.603718
69.675 20.107277
69.680 19.897549
69.685 20.212553
69.690 20.182554
69.695 19.730097
69.700 19.3326
69.705 19.29965
69.710 18.982988
69.715 18.613377
69.720 18.0979
69.725 17.914728
69.730 18.058928
69.735 18.758192
69.740 18.396223
69.745 18.485682
69.750 18.888096
69.755 18.914974
69.760 19.601032
69.765 19.837118
69.770 19.56885
69.775 19.543383
69.780 19.357471
69.785 19.449896
69.790 19.16185
69.795 18.688011
69.800 17.844154
69.805 17.386057
69.810 18.15093
69.815 17.671463
69.820 17.487986
69.825 17.680605
69.830 17.934885
69.835 18.083166
69.840 17.791471
69.845 17.499695
69.850 17.673927
69.855 17.271214
69.860 16.882837
69.865 16.235651
69.870 16.452351
69.875 16.745541
69.880 16.774853
69.885 17.286713
69.890 17.654011
69.895 18.026369
69.900 18.678631
69.905 18.681679
69.910 18.552691
69.915 17.889936
69.920 17.306173
69.925 16.938375
69.930 16.372108
69.935 15.758374
69.940 15.280193
69.945 15.428809
69.950 15.683496
69.955 16.118567
69.960 15.873123
69.965 15.385058
69.970 15.859454
69.975 16.233841
69.980 15.856791
69.985 15.022641
69.990 14.857973
69.995 15.299357
70.000 16.036001
70.005 15.947906
70.010 15.921329
70.015 16.268129
70.020 16.595011
70.025 16.61908
70.030 16.834475
70.035 16.334949
70.040 15.603724
70.045 14.797311
70.050 14.531705
70.055 14.762471
70.060 14.152456
70.065 14.050786
70.070 14.524182
70.075 15.025695
70.080 16.175949
70.085 16.360037
70.090 16.707846
70.095 16.807041
70.100 16.536486
70.105 16.353558
70.110 16.107861
70.115 15.592357
70.120 15.346673
70.125 15.158036
70.130 15.290413
70.135 15.311213
70.140 15.180012
70.145 15.247226
70.150 14.87258
70.155 14.862369
70.160 14.986814
70.165 14.956413
70.170 15.545545
70.175 15.940126
70.180 16.046961
70.185 16.515879
70.190 16.354797
70.195 16.265799
70.200 16.104185
70.205 15.662317
70.210 15.428347
70.215 15.841493
70.220 16.064899
70.225 16.049635
70.230 15.994918
70.235 15.935658
70.240 15.479826
70.245 14.827024
70.250 14.462293
70.255 13.951844
70.260 14.221251
70.265 14.221387
70.270 13.991965
70.275 14.250339
70.280 14.534821
70.285 15.044113
70.290 15.023117
70.295 14.58292
70.300 14.368583
70.305 14.418391
70.310 14.51694
70.315 14.486571
70.320 13.806328
70.325 13.845287
70.330 14.173809
70.335 14.652549
70.340 14.787167
70.345 14.363876
70.350 13.989061
70.355 14.350366
70.360 14.725016
70.365 14.735334
70.370 14.830416
70.375 14.763979
70.380 14.933352
70.385 15.118218
70.390 15.005972
70.395 14.718486
70.400 14.549684
70.405 14.784174
70.410 14.888523
70.415 15.097444
70.420 14.9129
70.425 14.949082
70.430 14.973403
70.435 14.873919
70.440 14.928754
70.445 15.64989
70.450 15.788405
70.455 15.818992
70.460 15.504853
70.465 15.642399
70.470 16.219048
70.475 16.011734
70.480 15.13413
70.485 15.046882
70.490 15.218645
70.495 15.158947
70.500 14.577043
70.505 13.910698
70.510 13.73644
70.515 14.078025
70.520 13.630766
70.525 13.897418
70.530 14.643588
70.535 14.850778
70.540 14.502251
70.545 14.650907
70.550 14.233144
70.555 14.728294
70.560 14.889317
70.565 14.481202
70.570 14.94266
70.575 15.221404
70.580 15.342816
70.585 15.702264
70.590 15.924583
70.595 15.952027
70.600 15.660705
70.605 15.405469
70.610 14.960032
70.615 14.856828
70.620 14.701531
70.625 14.143345
70.630 14.002446
70.635 13.967802
70.640 14.321181
70.645 14.626619
70.650 14.992657
70.655 15.259048
70.660 15.175557
70.665 14.636381
70.670 14.133026
70.675 14.076882
70.680 13.965144
70.685 13.494882
70.690 12.866514
70.695 12.924684
70.700 13.598372
70.705 14.280561
70.710 14.391685
70.715 13.94066
70.720 13.982527
70.725 14.375383
70.730 14.56019
70.735 14.33285
70.740 13.839528
70.745 13.566482
70.750 14.077947
70.755 14.505369
70.760 14.201738
70.765 14.106227
70.770 14.370977
70.775 14.938034
70.780 15.336085
70.785 15.493792
70.790 15.438636
70.795 15.788174
70.800 15.752325
70.805 15.404993
70.810 14.81141
70.815 14.618662
70.820 14.139494
70.825 13.613451
70.830 13.427249
70.835 13.091159
70.840 13.026384
70.845 13.269827
70.850 13.907785
70.855 14.179181
70.860 14.157436
70.865 14.081793
70.870 13.917126
70.875 14.188251
70.880 14.155955
70.885 13.646638
70.890 13.795795
70.895 14.039775
70.900 14.334239
70.905 14.604426
70.910 14.701379
70.915 14.809117
70.920 14.727849
70.925 14.987591
70.930 14.98689
70.935 14.922392
70.940 14.348567
70.945 14.183815
70.950 14.307891
70.955 14.71126
70.960 14.405477
70.965 14.214164
70.970 14.456217
70.975 14.491659
70.980 14.197874
70.985 13.58712
70.990 13.080057
70.995 12.734678
71.000 13.002565
71.005 13.240715
71.010 13.083143
71.015 13.029076
71.020 13.19082
71.025 13.015841
71.030 13.1588
71.035 12.930578
71.040 12.682843
71.045 13.192828
71.050 13.328529
71.055 13.608168
71.060 14.002701
71.065 13.446741
71.070 13.466579
71.075 13.980824
71.080 14.079941
71.085 14.067965
71.090 14.414082
71.095 14.771993
71.100 15.098969
71.105 15.665623
71.110 15.283415
71.115 15.223948
71.120 15.547488
71.125 15.475698
71.130 15.891709
71.135 16.081656
71.140 15.868675
71.145 15.713615
71.150 15.334272
71.155 15.107813
71.160 15.000023
71.165 15.112876
71.170 15.015205
71.175 14.733839
71.180 15.054852
71.185 15.315021
71.190 15.355459
71.195 15.398068
71.200 14.934355
71.205 14.716254
71.210 15.246162
71.215 15.137358
71.220 15.000628
71.225 14.631386
71.230 14.304296
71.235 14.649565
71.240 14.588642
71.245 13.806664
71.250 13.674099
71.255 13.866079
71.260 13.735139
71.265 13.858718
71.270 13.735753
71.275 14.141534
71.280 14.212831
71.285 14.200901
71.290 14.042826
71.295 14.169419
71.300 14.004001
71.305 13.816037
71.310 13.504477
71.315 13.546064
71.320 13.776746
71.325 13.838403
71.330 13.522753
71.335 14.082313
71.340 14.742994
71.345 15.050349
71.350 14.713615
71.355 14.488204
71.360 14.710292
71.365 14.606223
71.370 13.739892
71.375 13.489248
71.380 13.445219
71.385 13.832797
71.390 13.549452
71.395 13.589087
71.400 13.784918
71.405 14.286928
71.410 14.218445
71.415 14.294324
71.420 14.516503
71.425 15.312745
71.430 15.147972
71.435 15.006386
71.440 14.550955
71.445 14.525476
71.450 14.167482
71.455 13.602342
71.460 12.924317
71.465 13.064778
71.470 13.150255
71.475 13.358466
71.480 13.659857
71.485 13.984828
71.490 14.200812
71.495 14.434056
71.500 14.178041
71.505 13.94358
71.510 13.690306
71.515 13.411695
71.520 13.238471
71.525 13.647767
71.530 13.719291
71.535 13.833552
71.540 14.012137
71.545 14.370486
71.550 14.45329
71.555 14.627193
71.560 14.533179
71.565 14.473962
71.570 14.623999
71.575 14.88898
71.580 14.992288
71.585 15.256011
71.590 15.115485
71.595 15.06671
71.600 15.273068
71.605 15.4957
71.610 15.196332
71.615 15.069601
71.620 14.869624
71.625 14.708649
71.630 14.981405
71.635 14.842802
71.640 14.42915
71.645 13.943889
71.650 13.246387
71.655 13.191381
71.660 12.877964
71.665 12.623593
71.670 12.517111
71.675 12.908073
71.680 13.240835
71.685 13.654419
71.690 13.495843
71.695 13.327988
71.700 13.627185
71.705 13.488069
71.710 13.33877
71.715 13.097928
71.720 12.795066
71.725 13.174986
71.730 13.356752
71.735 13.460843
71.740 13.973688
71.745 13.830937
71.750 13.951086
71.755 14.143224
71.760 14.43801
71.765 14.53379
71.770 14.013726
71.775 13.606513
71.780 13.748647
71.785 14.038672
71.790 13.695199
71.795 13.441599
71.800 13.786071
71.805 14.029422
71.810 14.600215
71.815 14.573793
71.820 14.559325
71.825 14.893791
71.830 14.920431
71.835 14.386361
71.840 14.301756
71.845 14.287928
71.850 14.527314
71.855 14.792835
71.860 14.558456
71.865 14.390963
71.870 14.451263
71.875 14.939795
71.880 15.223769
71.885 14.998662
71.890 14.88423
71.895 15.125123
71.900 15.06721
71.905 14.687476
71.910 14.667481
71.915 14.118248
71.920 13.831435
71.925 13.65818
71.930 13.426115
71.935 13.459801
71.940 13.476339
71.945 12.806636
71.950 13.08684
71.955 12.855872
71.960 12.780719
71.965 12.979775
71.970 12.987075
71.975 12.772976
71.980 13.010936
71.985 13.267352
71.990 13.23752
71.995 13.172037
72.000 13.575569
72.005 13.987195
72.010 14.479823
72.015 14.059703
72.020 14.093193
72.025 14.339422
72.030 13.634507
72.035 13.185521
72.040 13.089294
72.045 13.017884
72.050 13.199012
72.055 12.981318
72.060 13.461899
72.065 14.275534
72.070 14.276725
72.075 13.96475
72.080 13.879408
72.085 14.030194
72.090 14.113067
72.095 14.233064
72.100 14.467852
72.105 14.578846
72.110 14.356697
72.115 14.771802
72.120 15.473363
72.125 15.907456
72.130 15.944729
72.135 15.83696
72.140 15.849081
72.145 15.71042
72.150 14.877617
72.155 14.481701
72.160 14.209801
72.165 13.831679
72.170 13.763673
72.175 13.892133
72.180 14.162669
72.185 13.83153
72.190 13.576829
72.195 13.228902
72.200 12.873067
72.205 12.957714
72.210 12.905147
72.215 12.804161
72.220 13.016636
72.225 13.216588
72.230 13.355742
72.235 13.649851
72.240 13.382282
72.245 13.891817
72.250 14.342739
72.255 14.227333
72.260 13.934975
72.265 14.178158
72.270 14.27537
72.275 14.030771
72.280 13.215425
72.285 13.333166
72.290 13.960262
72.295 14.576901
72.300 14.335901
72.305 14.213816
72.310 14.449251
72.315 14.832108
72.320 14.192723
72.325 14.235929
72.330 14.140454
72.335 14.483866
72.340 14.761769
72.345 15.01689
72.350 15.454961
72.355 15.458006
72.360 15.211606
72.365 15.104316
72.370 15.066298
72.375 15.261033
72.380 14.806298
72.385 14.13783
72.390 13.920029
72.395 13.091765
72.400 12.405667
72.405 12.072333
72.410 11.714882
72.415 11.674939
72.420 11.520069
72.425 11.195773
72.430 11.316925
72.435 11.472654
72.440 11.734599
72.445 11.870207
72.450 12.335831
72.455 13.187222
72.460 13.586971
72.465 13.949801
72.470 13.991018
72.475 14.508075
72.480 14.563203
72.485 14.451978
72.490 14.1441
72.495 14.403273
72.500 14.283398
72.505 13.949399
72.510 13.295233
72.515 13.237768
72.520 13.520365
72.525 13.49859
72.530 13.194809
72.535 13.139073
72.540 13.602631
72.545 13.991817
72.550 14.203412
72.555 14.046096
72.560 14.245788
72.565 14.321206
72.570 14.295738
72.575 14.114523
72.580 13.862147
72.585 14.103521
72.590 14.35702
72.595 14.175055
72.600 14.107289
72.605 14.164426
72.610 13.983307
72.615 13.859751
72.620 13.090522
72.625 13.16703
72.630 13.215833
72.635 13.146367
72.640 13.031412
72.645 13.295392
72.650 13.418938
72.655 13.707856
72.660 13.938172
72.665 13.999934
72.670 14.175801
72.675 14.406362
72.680 14.752912
72.685 14.938373
72.690 15.079304
72.695 14.733808
72.700 14.722766
72.705 14.608355
72.710 14.052102
72.715 13.228878
72.720 12.474485
72.725 12.380516
72.730 12.856607
72.735 12.685373
72.740 12.879916
72.745 13.065117
72.750 13.26503
72.755 13.953176
72.760 14.172107
72.765 14.180962
72.770 14.231918
72.775 13.957787
72.780 14.218916
72.785 13.781853
72.790 13.060342
72.795 12.460212
72.800 12.610187
72.805 13.305617
72.810 13.819525
72.815 14.043196
72.820 14.250093
72.825 14.892308
72.830 15.098756
72.835 14.844616
72.840 14.760316
72.845 14.337781
72.850 14.040783
72.855 14.205429
72.860 13.906129
72.865 13.869665
72.870 13.603426
72.875 13.751404
72.880 14.230309
72.885 14.470857
72.890 14.507014
72.895 14.984889
72.900 15.062545
72.905 15.211071
72.910 14.753941
72.915 14.620862
72.920 14.153383
72.925 14.093844
72.930 13.643049
72.935 13.239823
72.940 13.514182
72.945 13.839031
72.950 13.942926
72.955 14.20211
72.960 14.225239
72.965 14.358099
72.970 14.277226
72.975 13.553595
72.980 13.280881
72.985 13.325591
72.990 13.060658
72.995 12.92221
73.000 12.497591
