!@!!GADDS PLOTSO FILE: Chi integration type
!@!!Title/SampleName: map-140
!@!!Comment: ?
!@!!User: Bruker Instrument Administrator
!@!!Site: University of Illinois Chicago
!@!!Frame: map-140_01_000.gfrm
!@!!Wavelengths    1.54184   1.54056   1.54439
!@!!Frame angles: 2Theta: 63.000 Omega: 50.000 Phi: 0.000 Chi: 90.000
!@!!Integration range: 2Theta: 53.000 to 73.000  Gamma: -105.000 to -75.000
!@!!Integration method: bin normalized
!@!N
!@!SS
!@!M
!@!L 0.0 0.0 0.0 0.0
!@!XDegrees
!@!YCounts
53.000 7.954278
53.005 8.55748
53.010 8.833535
53.015 8.975914
53.020 8.675575
53.025 8.554613
53.030 8.645773
53.035 8.46912
53.040 7.863871
53.045 7.629857
53.050 7.450124
53.055 7.827954
53.060 8.20952
53.065 8.255034
53.070 7.991952
53.075 8.059949
53.080 8.429701
53.085 8.473541
53.090 8.249048
53.095 8.166279
53.100 8.494574
53.105 8.952687
53.110 9.042548
53.115 8.723228
53.120 8.984479
53.125 9.251879
53.130 9.190078
53.135 8.726372
53.140 8.50735
53.145 8.470122
53.150 8.743425
53.155 8.894092
53.160 8.987954
53.165 9.395674
53.170 9.799221
53.175 10.05888
53.180 10.279927
53.185 10.132281
53.190 9.487171
53.195 9.063138
53.200 8.574059
53.205 8.186467
53.210 7.76064
53.215 7.932856
53.220 8.351975
53.225 8.670763
53.230 8.441182
53.235 8.32455
53.240 8.505625
53.245 8.68049
53.250 8.028315
53.255 7.350799
53.260 7.561564
53.265 7.66199
53.270 7.584242
53.275 7.917915
53.280 8.099104
53.285 8.497252
53.290 8.633397
53.295 8.315569
53.300 8.77443
53.305 8.791988
53.310 8.763085
53.315 8.659128
53.320 8.905083
53.325 9.154483
53.330 9.341824
53.335 9.082494
53.340 8.723021
53.345 8.753053
53.350 8.607555
53.355 8.37999
53.360 8.236001
53.365 8.04112
53.370 8.432861
53.375 8.844868
53.380 9.082907
53.385 9.22598
53.390 9.56074
53.395 10.221636
53.400 10.303243
53.405 10.284524
53.410 10.05755
53.415 9.852368
53.420 9.557887
53.425 9.630299
53.430 9.106653
53.435 9.09995
53.440 9.141844
53.445 9.228888
53.450 9.605306
53.455 9.683839
53.460 9.412457
53.465 9.368812
53.470 9.46342
53.475 9.232864
53.480 9.170631
53.485 9.097281
53.490 9.109231
53.495 9.372206
53.500 9.543991
53.505 9.776985
53.510 10.17507
53.515 10.025855
53.520 10.182769
53.525 10.353389
53.530 10.297681
53.535 10.200488
53.540 9.988825
53.545 10.301844
53.550 10.330136
53.555 10.110349
53.560 10.027909
53.565 10.260576
53.570 10.138767
53.575 9.696779
53.580 9.431524
53.585 9.67216
53.590 9.59616
53.595 8.912074
53.600 9.199458
53.605 9.436112
53.610 9.090016
53.615 8.460328
53.620 8.241953
53.625 8.531874
53.630 8.985248
53.635 8.741777
53.640 9.272179
53.645 9.740335
53.650 10.309218
53.655 10.751657
53.660 10.642921
53.665 10.104263
53.670 9.759336
53.675 9.613972
53.680 9.33362
53.685 8.896832
53.690 9.065971
53.695 8.980762
53.700 9.296718
53.705 9.117635
53.710 9.307361
53.715 9.714129
53.720 9.642658
53.725 9.545584
53.730 10.010917
53.735 10.437669
53.740 10.826348
53.745 10.485453
53.750 10.138024
53.755 10.146791
53.760 9.894708
53.765 9.867859
53.770 9.405203
53.775 8.937865
53.780 9.169548
53.785 9.431957
53.790 9.665075
53.795 10.145904
53.800 10.310207
53.805 10.569779
53.810 11.223989
53.815 11.269426
53.820 11.052266
53.825 10.702806
53.830 9.960105
53.835 9.462143
53.840 9.221982
53.845 8.783723
53.850 8.869596
53.855 9.175596
53.860 9.383814
53.865 9.821978
53.870 10.330329
53.875 10.221419
53.880 10.104218
53.885 10.019041
53.890 9.90097
53.895 10.023029
53.900 9.968699
53.905 10.032466
53.910 10.15779
53.915 10.533864
53.920 10.903955
53.925 10.994574
53.930 11.005756
53.935 10.904782
53.940 10.605871
53.945 10.760758
53.950 10.226552
53.955 9.5454
53.960 9.357139
53.965 9.608742
53.970 9.618374
53.975 9.362273
53.980 9.0509
53.985 9.512246
53.990 10.067128
53.995 9.735344
54.000 9.220444
54.005 9.313427
54.010 10.125887
54.015 10.096532
54.020 9.289434
54.025 8.852201
54.030 9.48574
54.035 9.767725
54.040 9.640096
54.045 9.623737
54.050 9.808527
54.055 10.30042
54.060 10.158839
54.065 9.625236
54.070 9.68207
54.075 9.4286
54.080 9.57618
54.085 9.704765
54.090 9.520494
54.095 9.893936
54.100 10.057194
54.105 10.217936
54.110 10.26269
54.115 9.752382
54.120 9.927446
54.125 9.898722
54.130 9.656152
54.135 10.006235
54.140 10.634003
54.145 10.914129
54.150 11.227786
54.155 11.027329
54.160 11.077631
54.165 10.822288
54.170 10.507106
54.175 9.704268
54.180 9.562799
54.185 9.560033
54.190 9.780597
54.195 9.818596
54.200 10.038837
54.205 9.971242
54.210 10.325558
54.215 10.409675
54.220 10.713477
54.225 10.76958
54.230 11.058408
54.235 11.20468
54.240 10.909312
54.245 10.669148
54.250 10.474434
54.255 10.23722
54.260 9.878501
54.265 9.399412
54.270 8.960443
54.275 8.547702
54.280 8.042531
54.285 8.230429
54.290 8.360088
54.295 8.760258
54.300 8.963857
54.305 9.551134
54.310 10.190228
54.315 10.38804
54.320 10.402831
54.325 10.40118
54.330 10.291786
54.335 10.352931
54.340 10.291558
54.345 10.918082
54.350 11.26531
54.355 11.274205
54.360 10.996838
54.365 11.050056
54.370 11.086318
54.375 10.926417
54.380 10.366912
54.385 10.062365
54.390 9.977036
54.395 9.777343
54.400 9.853841
54.405 10.145583
54.410 10.339953
54.415 10.134773
54.420 10.135746
54.425 10.431417
54.430 10.763673
54.435 10.551088
54.440 10.65154
54.445 10.655862
54.450 10.87974
54.455 11.076115
54.460 10.779188
54.465 10.476718
54.470 10.09701
54.475 9.942811
54.480 10.25883
54.485 10.233611
54.490 10.248281
54.495 10.514761
54.500 10.768965
54.505 10.992053
54.510 10.408507
54.515 10.098567
54.520 10.052476
54.525 9.865726
54.530 10.248131
54.535 10.41327
54.540 10.501828
54.545 10.59848
54.550 10.79136
54.555 10.599621
54.560 10.469139
54.565 10.271302
54.570 10.026161
54.575 10.106818
54.580 9.936474
54.585 9.913583
54.590 9.842199
54.595 9.931202
54.600 10.53682
54.605 10.40043
54.610 10.382863
54.615 10.783566
54.620 11.274027
54.625 11.592773
54.630 11.458588
54.635 11.033751
54.640 10.444117
54.645 10.142747
54.650 10.040259
54.655 9.950774
54.660 10.148785
54.665 9.789233
54.670 9.803391
54.675 10.458906
54.680 10.631009
54.685 11.178621
54.690 11.045728
54.695 10.981198
54.700 11.606936
54.705 11.542763
54.710 12.028129
54.715 11.710122
54.720 10.816043
54.725 10.633895
54.730 10.097523
54.735 10.060358
54.740 10.253839
54.745 9.90563
54.750 9.824943
54.755 10.12338
54.760 10.23789
54.765 10.137874
54.770 10.12135
54.775 9.818275
54.780 10.068282
54.785 10.19427
54.790 9.998446
54.795 9.939591
54.800 10.056355
54.805 10.058243
54.810 9.991309
54.815 9.802554
54.820 9.866128
54.825 9.998141
54.830 10.161143
54.835 10.193686
54.840 9.985402
54.845 9.831717
54.850 10.15457
54.855 10.106532
54.860 9.788375
54.865 9.617089
54.870 9.662229
54.875 9.964326
54.880 10.241681
54.885 9.964676
54.890 9.987947
54.895 10.082282
54.900 10.230577
54.905 10.206878
54.910 10.178563
54.915 9.79265
54.920 9.731029
54.925 9.727788
54.930 9.80488
54.935 9.55956
54.940 9.776732
54.945 9.918229
54.950 10.555019
54.955 10.492366
54.960 10.553767
54.965 10.799864
54.970 11.214089
54.975 10.715604
54.980 10.825719
54.985 10.815042
54.990 11.102728
54.995 11.228456
55.000 10.803638
55.005 10.560779
55.010 10.702581
55.015 10.038613
55.020 10.341957
55.025 10.64255
55.030 10.415143
55.035 10.488391
55.040 10.69101
55.045 10.6077
55.050 10.937538
55.055 10.816936
55.060 10.740891
55.065 11.175584
55.070 11.106686
55.075 11.011722
55.080 11.106673
55.085 10.60816
55.090 10.006715
55.095 9.613138
55.100 9.409136
55.105 9.403223
55.110 9.304438
55.115 9.269046
55.120 9.797135
55.125 9.960334
55.130 10.291435
55.135 10.738124
55.140 10.903967
55.145 11.194525
55.150 11.342319
55.155 10.996237
55.160 10.804549
55.165 10.064993
55.170 9.998476
55.175 10.618577
55.180 10.844746
55.185 10.783416
55.190 10.925806
55.195 11.481741
55.200 11.770818
55.205 11.359113
55.210 11.140755
55.215 11.094585
55.220 11.453773
55.225 11.828214
55.230 11.934529
55.235 11.794058
55.240 11.621639
55.245 11.143116
55.250 10.628705
55.255 10.280989
55.260 10.060671
55.265 10.144373
55.270 10.868361
55.275 10.981401
55.280 11.045384
55.285 11.342196
55.290 11.135297
55.295 10.992997
55.300 10.652645
55.305 10.249683
55.310 10.405413
55.315 10.06988
55.320 10.119396
55.325 10.092696
55.330 10.132858
55.335 9.983369
55.340 10.092101
55.345 10.481402
55.350 10.827877
55.355 10.853935
55.360 10.97251
55.365 10.954292
55.370 10.849811
55.375 10.612299
55.380 10.017282
55.385 10.008128
55.390 9.589791
55.395 9.295432
55.400 9.212441
55.405 9.118007
55.410 8.950852
55.415 9.145766
55.420 9.410462
55.425 9.844304
55.430 10.295252
55.435 10.296256
55.440 10.486324
55.445 10.364202
55.450 10.583196
55.455 10.483932
55.460 10.492923
55.465 10.370797
55.470 10.843261
55.475 10.872161
55.480 10.836735
55.485 10.95369
55.490 11.170838
55.495 10.979339
55.500 10.665444
55.505 10.260821
55.510 10.330377
55.515 9.891121
55.520 9.592016
55.525 9.195067
55.530 9.21589
55.535 9.151894
55.540 8.823923
55.545 8.97636
55.550 9.431569
55.555 9.460749
55.560 9.450832
55.565 9.741131
55.570 9.865848
55.575 10.490759
55.580 10.875903
55.585 10.719329
55.590 10.85311
55.595 11.18072
55.600 11.161042
55.605 11.430962
55.610 10.96461
55.615 10.890427
55.620 11.026368
55.625 10.606008
55.630 10.392002
55.635 10.279311
55.640 10.522212
55.645 10.783298
55.650 10.978803
55.655 11.046706
55.660 11.216247
55.665 11.729065
55.670 11.665314
55.675 11.387353
55.680 11.428236
55.685 11.362837
55.690 11.600231
55.695 11.344941
55.700 10.56341
55.705 10.60637
55.710 10.412457
55.715 10.086056
55.720 9.895963
55.725 9.631284
55.730 9.930348
55.735 9.818474
55.740 9.778849
55.745 10.13735
55.750 10.070694
55.755 10.294159
55.760 10.161494
55.765 10.42956
55.770 10.871115
55.775 10.62174
55.780 10.260071
55.785 10.25767
55.790 9.966107
55.795 10.145697
55.800 10.26696
55.805 10.548166
55.810 10.65129
55.815 10.845081
55.820 11.136118
55.825 11.207172
55.830 10.810824
55.835 10.849254
55.840 10.442647
55.845 10.086996
55.850 9.584282
55.855 9.41796
55.860 9.408541
55.865 9.286448
55.870 8.890096
55.875 9.417263
55.880 10.146357
55.885 10.567064
55.890 10.075265
55.895 10.173421
55.900 10.622196
55.905 10.887705
55.910 10.634181
55.915 10.42537
55.920 10.523058
55.925 11.12297
55.930 11.031554
55.935 11.065685
55.940 10.86655
55.945 11.205527
55.950 11.713967
55.955 11.672395
55.960 11.357466
55.965 11.03046
55.970 10.42748
55.975 10.366828
55.980 9.568042
55.985 9.327808
55.990 9.178583
55.995 9.642456
56.000 9.807925
56.005 9.870149
56.010 10.072696
56.015 10.761088
56.020 10.558377
56.025 10.620669
56.030 10.475088
56.035 10.41081
56.040 10.277987
56.045 10.12404
56.050 9.713384
56.055 9.743055
56.060 9.74744
56.065 9.993709
56.070 10.415064
56.075 10.79408
56.080 10.553136
56.085 10.494095
56.090 10.584055
56.095 10.430947
56.100 9.947838
56.105 9.741244
56.110 9.8537
56.115 10.200454
56.120 9.95463
56.125 10.105602
56.130 10.520393
56.135 10.519618
56.140 10.910181
56.145 10.804547
56.150 11.194594
56.155 11.660992
56.160 11.565563
56.165 11.829329
56.170 12.197091
56.175 11.748093
56.180 11.363645
56.185 10.824585
56.190 11.112214
56.195 10.909945
56.200 10.70195
56.205 10.110022
56.210 10.381997
56.215 10.673297
56.220 10.720684
56.225 10.906625
56.230 11.339873
56.235 11.449029
56.240 11.688936
56.245 11.48123
56.250 11.257487
56.255 11.036258
56.260 10.590698
56.265 10.583138
56.270 10.512597
56.275 10.823988
56.280 10.704718
56.285 11.1998
56.290 11.555358
56.295 11.904502
56.300 11.969816
56.305 12.166403
56.310 12.085934
56.315 12.129925
56.320 11.905896
56.325 11.912841
56.330 11.802268
56.335 11.563015
56.340 11.038433
56.345 10.771867
56.350 10.877481
56.355 11.398949
56.360 11.334048
56.365 11.011455
56.370 10.835922
56.375 10.649307
56.380 10.636215
56.385 10.498484
56.390 9.699007
56.395 9.582373
56.400 9.911394
56.405 10.180638
56.410 10.940708
56.415 11.668118
56.420 12.690329
56.425 13.41158
56.430 13.815001
56.435 13.998112
56.440 14.319991
56.445 14.049028
56.450 14.047535
56.455 13.580867
56.460 13.282402
56.465 12.717772
56.470 11.891278
56.475 11.576749
56.480 11.316236
56.485 10.767879
56.490 11.241596
56.495 11.213295
56.500 11.187034
56.505 11.445845
56.510 11.316735
56.515 11.609371
56.520 11.682922
56.525 11.084743
56.530 10.966566
56.535 11.237158
56.540 11.30301
56.545 11.674054
56.550 11.715234
56.555 11.684287
56.560 11.702287
56.565 11.617498
56.570 11.528263
56.575 11.383927
56.580 11.346312
56.585 11.829782
56.590 12.172248
56.595 12.172824
56.600 12.111217
56.605 12.280523
56.610 12.165477
56.615 11.754384
56.620 11.286872
56.625 11.720333
56.630 11.86758
56.635 12.011881
56.640 11.858635
56.645 12.094296
56.650 12.682049
56.655 12.503853
56.660 12.357569
56.665 12.973055
56.670 13.174045
56.675 13.829869
56.680 13.993752
56.685 13.780995
56.690 13.988826
56.695 13.777798
56.700 13.343237
56.705 12.88802
56.710 12.271343
56.715 12.366152
56.720 12.175415
56.725 12.611505
56.730 12.614807
56.735 12.84561
56.740 13.720201
56.745 13.633686
56.750 13.104045
56.755 13.070973
56.760 12.53163
56.765 12.061199
56.770 11.633828
56.775 11.62115
56.780 11.488487
56.785 11.674522
56.790 11.788405
56.795 11.913235
56.800 12.33183
56.805 12.692263
56.810 12.719025
56.815 12.891841
56.820 12.800541
56.825 12.630323
56.830 12.087667
56.835 11.656871
56.840 11.12029
56.845 10.762315
56.850 10.719869
56.855 10.57286
56.860 10.580913
56.865 11.538811
56.870 11.948542
56.875 12.059596
56.880 12.38738
56.885 12.466405
56.890 12.856094
56.895 13.017241
56.900 11.893533
56.905 12.159761
56.910 12.337322
56.915 12.121121
56.920 11.485987
56.925 11.04917
56.930 11.211419
56.935 11.856949
56.940 11.369924
56.945 11.217079
56.950 11.271696
56.955 11.617562
56.960 12.031868
56.965 11.764826
56.970 11.977583
56.975 12.327181
56.980 11.777995
56.985 11.756757
56.990 11.977048
56.995 11.476897
57.000 11.380801
57.005 11.075095
57.010 11.145373
57.015 11.771893
57.020 11.977606
57.025 12.113229
57.030 12.327528
57.035 12.488192
57.040 12.476931
57.045 12.413641
57.050 12.346601
57.055 11.92846
57.060 11.071881
57.065 11.027919
57.070 10.895957
57.075 10.469028
57.080 10.141926
57.085 9.846034
57.090 10.310559
57.095 10.419619
57.100 10.451244
57.105 10.892007
57.110 11.142653
57.115 10.965862
57.120 11.12047
57.125 10.771908
57.130 10.84748
57.135 10.802858
57.140 10.50753
57.145 10.557251
57.150 10.616051
57.155 10.548361
57.160 11.027068
57.165 11.707128
57.170 11.920552
57.175 12.046335
57.180 12.106377
57.185 12.174567
57.190 12.555972
57.195 12.390194
57.200 12.428185
57.205 12.061728
57.210 12.062658
57.215 12.199154
57.220 12.03209
57.225 11.692992
57.230 11.61055
57.235 11.158704
57.240 11.099222
57.245 11.029176
57.250 10.939095
57.255 10.977725
57.260 10.589308
57.265 10.746537
57.270 11.191547
57.275 11.4093
57.280 11.290074
57.285 11.425987
57.290 11.41565
57.295 11.812534
57.300 11.541357
57.305 11.239674
57.310 10.917708
57.315 11.575946
57.320 11.830513
57.325 11.950484
57.330 12.223711
57.335 12.222844
57.340 12.359679
57.345 12.671644
57.350 11.796226
57.355 11.956453
57.360 12.525014
57.365 12.74386
57.370 13.093487
57.375 13.13009
57.380 13.458684
57.385 13.671182
57.390 13.621955
57.395 13.231353
57.400 12.781492
57.405 12.508077
57.410 12.388573
57.415 12.134876
57.420 12.335594
57.425 11.865534
57.430 11.596844
57.435 12.04215
57.440 12.030624
57.445 12.071585
57.450 11.813993
57.455 11.777191
57.460 11.960279
57.465 11.729417
57.470 11.193535
57.475 11.070656
57.480 11.674034
57.485 12.020429
57.490 11.777801
57.495 12.00545
57.500 12.312951
57.505 12.458734
57.510 12.464598
57.515 12.005265
57.520 12.14459
57.525 11.800335
57.530 11.05695
57.535 11.202854
57.540 11.266722
57.545 11.459085
57.550 11.510843
57.555 11.009532
57.560 11.339688
57.565 11.465179
57.570 11.209798
57.575 11.320509
57.580 11.2099
57.585 11.024459
57.590 11.502101
57.595 11.707893
57.600 11.837435
57.605 11.668309
57.610 11.071747
57.615 10.726837
57.620 11.239466
57.625 11.161006
57.630 11.468506
57.635 12.030265
57.640 12.609155
57.645 13.093719
57.650 13.418923
57.655 13.332542
57.660 12.978563
57.665 12.208154
57.670 11.490951
57.675 10.705889
57.680 10.639977
57.685 10.729571
57.690 10.922887
57.695 10.593151
57.700 10.568397
57.705 10.348354
57.710 10.39271
57.715 10.018119
57.720 9.5912
57.725 9.389358
57.730 9.975439
57.735 10.379589
57.740 10.647011
57.745 10.758837
57.750 10.766054
57.755 10.37962
57.760 10.447887
57.765 10.353315
57.770 10.372631
57.775 10.661814
57.780 10.668748
57.785 10.94167
57.790 11.474918
57.795 11.961972
57.800 12.038033
57.805 12.250611
57.810 12.467843
57.815 12.357003
57.820 12.469563
57.825 12.329145
57.830 11.911992
57.835 12.089118
57.840 11.813273
57.845 11.944887
57.850 12.172711
57.855 12.081828
57.860 12.353249
57.865 12.480419
57.870 12.113803
57.875 12.268889
57.880 12.344148
57.885 13.148358
57.890 13.046284
57.895 12.909342
57.900 12.614931
57.905 12.816058
57.910 12.597469
57.915 12.463751
57.920 12.058178
57.925 12.230923
57.930 12.505492
57.935 12.509647
57.940 12.187011
57.945 12.239865
57.950 12.03021
57.955 11.627159
57.960 11.245977
57.965 10.703219
57.970 10.841456
57.975 10.835023
57.980 10.74576
57.985 10.454783
57.990 10.946214
57.995 11.561887
58.000 11.548234
58.005 11.892356
58.010 12.432585
58.015 12.759787
58.020 12.668697
58.025 12.720876
58.030 12.704305
58.035 13.107475
58.040 13.043629
58.045 12.70688
58.050 12.670918
58.055 13.382174
58.060 13.262515
58.065 13.501285
58.070 13.512404
58.075 12.94594
58.080 12.343337
58.085 12.124619
58.090 11.616678
58.095 11.353732
58.100 10.91836
58.105 11.027797
58.110 11.152671
58.115 11.312593
58.120 11.067928
58.125 10.588609
58.130 10.314969
58.135 10.565013
58.140 10.514853
58.145 10.956568
58.150 10.966205
58.155 10.847028
58.160 11.087641
58.165 11.250612
58.170 11.487107
58.175 11.382665
58.180 10.664957
58.185 10.541559
58.190 10.703287
58.195 10.970545
58.200 10.93464
58.205 10.758556
58.210 11.324102
58.215 11.793294
58.220 11.724626
58.225 11.789984
58.230 11.894823
58.235 12.17372
58.240 11.741295
58.245 11.315587
58.250 11.328054
58.255 11.891268
58.260 11.689562
58.265 11.77963
58.270 11.404313
58.275 11.194953
58.280 11.513494
58.285 11.968704
58.290 11.646734
58.295 11.712773
58.300 12.012185
58.305 11.922291
58.310 12.19412
58.315 12.230637
58.320 12.044714
58.325 12.483721
58.330 12.502927
58.335 12.244064
58.340 12.637712
58.345 12.369457
58.350 12.346512
58.355 12.657866
58.360 12.712635
58.365 12.822379
58.370 12.978356
58.375 12.834435
58.380 12.871513
58.385 12.512977
58.390 12.200137
58.395 12.227409
58.400 11.878163
58.405 11.697806
58.410 11.726415
58.415 11.895326
58.420 11.754481
58.425 11.898033
58.430 11.928872
58.435 11.864682
58.440 11.69115
58.445 11.693971
58.450 11.480012
58.455 12.053224
58.460 12.239569
58.465 12.62744
58.470 12.698197
58.475 13.341528
58.480 13.88213
58.485 14.184515
58.490 14.064944
58.495 14.158964
58.500 14.330958
58.505 14.261826
58.510 13.905442
58.515 13.357097
58.520 13.05468
58.525 13.377914
58.530 13.184409
58.535 13.192134
58.540 13.63167
58.545 13.607461
58.550 14.082289
58.555 14.236261
58.560 13.508515
58.565 12.910475
58.570 12.294742
58.575 12.454109
58.580 12.322478
58.585 12.504505
58.590 12.50254
58.595 12.763988
58.600 12.937269
58.605 13.26538
58.610 13.053721
58.615 13.251908
58.620 12.952209
58.625 13.503494
58.630 13.748267
58.635 13.903162
58.640 13.804842
58.645 13.566141
58.650 13.580748
58.655 13.990963
58.660 13.679315
58.665 13.553744
58.670 13.93766
58.675 14.076277
58.680 14.341663
58.685 14.164474
58.690 14.105804
58.695 14.414375
58.700 14.429916
58.705 14.011215
58.710 13.759545
58.715 13.602362
58.720 13.52424
58.725 13.524664
58.730 13.145514
58.735 13.187901
58.740 13.473272
58.745 13.379105
58.750 13.566781
58.755 13.400373
58.760 13.276669
58.765 13.26578
58.770 13.235794
58.775 12.851173
58.780 13.18391
58.785 13.249968
58.790 13.288397
58.795 13.646338
58.800 13.340861
58.805 13.002863
58.810 13.112618
58.815 13.032261
58.820 13.06757
58.825 12.811896
58.830 12.531844
58.835 12.507416
58.840 13.011344
58.845 12.835798
58.850 12.273225
58.855 11.83498
58.860 11.853085
58.865 11.934995
58.870 12.365021
58.875 12.740729
58.880 13.065623
58.885 13.29451
58.890 14.090541
58.895 14.414304
58.900 14.434719
58.905 13.629726
58.910 12.61628
58.915 12.031816
58.920 12.088131
58.925 11.372794
58.930 11.218763
58.935 11.414783
58.940 12.318009
58.945 12.45295
58.950 12.673729
58.955 12.8686
58.960 12.677296
58.965 12.188013
58.970 11.898685
58.975 11.716726
58.980 11.989649
58.985 12.002276
58.990 11.88607
58.995 12.521693
59.000 12.954695
59.005 13.143815
59.010 13.132058
59.015 13.212228
59.020 14.185137
59.025 14.644554
59.030 14.97773
59.035 14.994901
59.040 15.247562
59.045 15.35243
59.050 15.130802
59.055 14.341489
59.060 13.732195
59.065 13.040873
59.070 12.977028
59.075 12.907686
59.080 12.807501
59.085 13.059961
59.090 13.409992
59.095 13.056151
59.100 13.54711
59.105 13.735273
59.110 13.790478
59.115 13.648932
59.120 13.390494
59.125 13.39147
59.130 13.745608
59.135 13.132183
59.140 12.47193
59.145 12.231809
59.150 12.043662
59.155 11.874758
59.160 11.945341
59.165 12.476073
59.170 13.272547
59.175 13.650667
59.180 13.806123
59.185 14.216653
59.190 14.297865
59.195 14.032914
59.200 13.60637
59.205 13.075482
59.210 13.015284
59.215 12.405026
59.220 12.13078
59.225 12.14992
59.230 12.473083
59.235 12.330191
59.240 12.393093
59.245 12.829006
59.250 13.611326
59.255 13.82659
59.260 13.726035
59.265 13.65711
59.270 13.34889
59.275 12.849307
59.280 12.238391
59.285 11.773362
59.290 11.903576
59.295 12.138061
59.300 12.035158
59.305 12.447488
59.310 12.526774
59.315 12.774256
59.320 13.201775
59.325 13.081237
59.330 12.695782
59.335 12.647836
59.340 12.292815
59.345 12.688492
59.350 12.531369
59.355 12.355071
59.360 12.425728
59.365 12.42732
59.370 12.585196
59.375 12.487307
59.380 11.952317
59.385 11.957213
59.390 12.34756
59.395 12.389999
59.400 12.628046
59.405 12.586688
59.410 13.203044
59.415 14.162039
59.420 14.313153
59.425 13.726432
59.430 13.775757
59.435 13.569988
59.440 13.271063
59.445 12.930836
59.450 11.760149
59.455 11.493134
59.460 11.495051
59.465 11.696203
59.470 11.727498
59.475 11.936177
59.480 11.996572
59.485 12.858654
59.490 12.796527
59.495 12.823409
59.500 12.430788
59.505 12.476329
59.510 12.493252
59.515 12.264154
59.520 11.824476
59.525 12.066432
59.530 12.077925
59.535 11.954479
59.540 12.064006
59.545 11.743707
59.550 11.900171
59.555 12.329309
59.560 12.716224
59.565 13.285986
59.570 13.128054
59.575 12.793624
59.580 13.100387
59.585 13.307014
59.590 13.249467
59.595 12.814558
59.600 12.853001
59.605 13.552522
59.610 14.410142
59.615 14.793543
59.620 14.189697
59.625 14.028529
59.630 14.684144
59.635 14.467824
59.640 14.506378
59.645 14.203334
59.650 14.444076
59.655 15.115484
59.660 15.030575
59.665 14.573092
59.670 14.178178
59.675 13.555708
59.680 13.05915
59.685 13.061131
59.690 13.186912
59.695 13.291091
59.700 13.392666
59.705 13.657037
59.710 13.796634
59.715 14.118683
59.720 14.041985
59.725 13.904976
59.730 14.032072
59.735 13.945086
59.740 13.960425
59.745 14.077379
59.750 13.744245
59.755 13.134953
59.760 12.799595
59.765 12.461903
59.770 12.042942
59.775 12.346511
59.780 12.941577
59.785 13.712492
59.790 14.205713
59.795 14.563386
59.800 15.035788
59.805 15.663782
59.810 15.325782
59.815 14.664693
59.820 14.40823
59.825 14.462094
59.830 14.095021
59.835 13.52456
59.840 12.916342
59.845 13.247712
59.850 13.151643
59.855 12.769761
59.860 12.331894
59.865 12.092314
59.870 12.39121
59.875 12.379999
59.880 12.10972
59.885 12.174123
59.890 12.603112
59.895 12.609023
59.900 13.144823
59.905 13.335347
59.910 13.475889
59.915 13.192653
59.920 13.292279
59.925 13.624661
59.930 13.854722
59.935 13.379813
59.940 13.150103
59.945 13.642693
59.950 14.000907
59.955 13.992782
59.960 13.334245
59.965 13.425002
59.970 13.722685
59.975 13.698861
59.980 13.151953
59.985 13.087484
59.990 13.044828
59.995 13.649284
60.000 13.854117
60.005 13.626431
60.010 14.135437
60.015 14.503117
60.020 14.232751
60.025 14.181074
60.030 14.220275
60.035 14.501895
60.040 14.780122
60.045 14.858091
60.050 15.317624
60.055 15.576042
60.060 15.378975
60.065 15.289533
60.070 15.386073
60.075 15.646184
60.080 15.498978
60.085 15.671385
60.090 15.907074
60.095 16.166613
60.100 15.862741
60.105 15.548059
60.110 15.319272
60.115 15.000875
60.120 14.577179
60.125 14.286895
60.130 13.902063
60.135 14.172858
60.140 14.434525
60.145 14.350201
60.150 14.697361
60.155 14.34614
60.160 14.22124
60.165 14.675058
60.170 14.329593
60.175 13.938115
60.180 13.754891
60.185 13.310247
60.190 13.765152
60.195 13.806248
60.200 13.504352
60.205 13.837414
60.210 13.483972
60.215 13.280911
60.220 13.339908
60.225 13.108489
60.230 13.08098
60.235 12.947675
60.240 13.294535
60.245 14.006791
60.250 14.292044
60.255 14.389791
60.260 14.393952
60.265 14.491225
60.270 14.586292
60.275 14.258327
60.280 14.358161
60.285 14.119641
60.290 13.730962
60.295 13.782679
60.300 13.831822
60.305 14.001281
60.310 13.852582
60.315 13.651613
60.320 13.923324
60.325 13.618369
60.330 13.292163
60.335 13.016347
60.340 12.871326
60.345 13.296045
60.350 13.436852
60.355 13.365609
60.360 13.41389
60.365 13.667255
60.370 14.003491
60.375 13.901241
60.380 13.013464
60.385 12.047291
60.390 12.193874
60.395 12.425879
60.400 11.705549
60.405 11.491186
60.410 11.502175
60.415 12.00979
60.420 12.550212
60.425 12.605985
60.430 12.701874
60.435 13.021452
60.440 13.032195
60.445 12.971028
60.450 13.476925
60.455 13.9403
60.460 13.966181
60.465 14.201271
60.470 14.376579
60.475 14.192001
60.480 14.180676
60.485 13.151843
60.490 12.43801
60.495 12.279568
60.500 12.588369
60.505 12.455966
60.510 12.492943
60.515 12.147081
60.520 12.102427
60.525 12.249646
60.530 11.753913
60.535 10.883901
60.540 11.040454
60.545 10.970321
60.550 10.901235
60.555 11.126832
60.560 11.171682
60.565 11.744836
60.570 12.16472
60.575 12.275318
60.580 12.918149
60.585 13.618155
60.590 14.028077
60.595 14.555544
60.600 14.356997
60.605 13.81714
60.610 13.260508
60.615 12.956559
60.620 12.969253
60.625 13.120876
60.630 12.463904
60.635 12.885241
60.640 13.276604
60.645 13.616521
60.650 13.67699
60.655 13.364088
60.660 12.938034
60.665 12.896501
60.670 12.030733
60.675 12.063336
60.680 11.892136
60.685 11.689399
60.690 11.601378
60.695 11.322104
60.700 11.199438
60.705 11.860099
60.710 11.920871
60.715 11.866355
60.720 11.862887
60.725 12.090771
60.730 12.118805
60.735 12.109607
60.740 12.383133
60.745 12.61277
60.750 12.608006
60.755 12.845585
60.760 12.461473
60.765 12.289317
60.770 12.46231
60.775 11.902181
60.780 11.624275
60.785 11.472662
60.790 11.142923
60.795 11.259641
60.800 11.270741
60.805 11.3262
60.810 11.412074
60.815 11.278967
60.820 11.371612
60.825 11.937929
60.830 12.285907
60.835 12.620854
60.840 12.348718
60.845 12.628992
60.850 13.228389
60.855 13.534412
60.860 13.132289
60.865 13.412623
60.870 13.434462
60.875 13.595867
60.880 13.502631
60.885 13.363797
60.890 13.353196
60.895 13.463936
60.900 13.387227
60.905 13.602067
60.910 13.371454
60.915 12.919273
60.920 12.934721
60.925 12.706983
60.930 12.264093
60.935 12.244244
60.940 12.466741
60.945 12.272393
60.950 12.35226
60.955 12.237216
60.960 12.476454
60.965 12.318143
60.970 11.754941
60.975 11.227745
60.980 11.965096
60.985 12.316057
60.990 12.186716
60.995 12.299942
61.000 12.674613
61.005 13.758569
61.010 14.011353
61.015 13.12723
61.020 12.946462
61.025 13.231187
61.030 13.038145
61.035 13.010522
61.040 12.277594
61.045 12.125011
61.050 12.329481
61.055 12.114367
61.060 11.932346
61.065 11.810688
61.070 11.791568
61.075 11.713124
61.080 11.987481
61.085 12.252178
61.090 11.858352
61.095 11.778732
61.100 12.035496
61.105 11.96438
61.110 12.025581
61.115 12.116816
61.120 12.560711
61.125 13.488122
61.130 13.466436
61.135 13.401152
61.140 13.241099
61.145 12.864108
61.150 12.238962
61.155 11.740396
61.160 11.625879
61.165 11.897271
61.170 12.00272
61.175 12.090149
61.180 12.457039
61.185 13.042889
61.190 13.05213
61.195 12.868813
61.200 12.965788
61.205 12.651569
61.210 12.68656
61.215 12.484541
61.220 12.202003
61.225 12.155855
61.230 12.035571
61.235 11.950493
61.240 12.006516
61.245 12.245164
61.250 12.498415
61.255 12.35028
61.260 12.821804
61.265 12.807964
61.270 12.686423
61.275 12.810534
61.280 12.530905
61.285 12.911259
61.290 13.545029
61.295 13.044766
61.300 13.019574
61.305 12.707562
61.310 12.717643
61.315 12.968608
61.320 12.625948
61.325 12.416748
61.330 12.259055
61.335 12.271565
61.340 12.376923
61.345 12.286501
61.350 11.840622
61.355 11.812572
61.360 11.664098
61.365 12.10107
61.370 11.875005
61.375 12.101974
61.380 11.556931
61.385 11.810894
61.390 11.231121
61.395 10.728238
61.400 10.122027
61.405 9.779817
61.410 10.171748
61.415 10.431089
61.420 10.240349
61.425 10.768009
61.430 10.774852
61.435 11.189901
61.440 11.495322
61.445 11.377311
61.450 11.550943
61.455 12.060913
61.460 12.335295
61.465 12.874138
61.470 12.857381
61.475 13.413049
61.480 13.751551
61.485 13.419177
61.490 12.458038
61.495 11.912541
61.500 12.311598
61.505 12.615868
61.510 12.651285
61.515 12.684489
61.520 12.773096
61.525 13.419017
61.530 14.165658
61.535 13.595791
61.540 13.445354
61.545 12.768044
61.550 12.218458
61.555 12.478795
61.560 12.810944
61.565 12.291832
61.570 12.322713
61.575 12.344608
61.580 12.597262
61.585 13.0724
61.590 13.028227
61.595 12.372611
61.600 12.559443
61.605 12.612918
61.610 12.55549
61.615 12.755348
61.620 12.854535
61.625 12.893484
61.630 12.847834
61.635 12.650283
61.640 12.624033
61.645 12.614284
61.650 12.443438
61.655 12.207207
61.660 12.17427
61.665 12.206547
61.670 12.412905
61.675 12.334037
61.680 12.402077
61.685 12.311312
61.690 12.242187
61.695 12.435044
61.700 12.457836
61.705 12.278111
61.710 11.634207
61.715 11.122329
61.720 10.869486
61.725 10.468759
61.730 10.082749
61.735 10.200362
61.740 10.481679
61.745 10.925972
61.750 11.40657
61.755 11.812045
61.760 12.255431
61.765 12.749947
61.770 12.944438
61.775 13.443778
61.780 13.5904
61.785 12.812663
61.790 12.344625
61.795 12.277603
61.800 12.07159
61.805 11.636951
61.810 11.448707
61.815 11.675515
61.820 12.579325
61.825 12.798263
61.830 12.949834
61.835 13.168237
61.840 13.229938
61.845 12.872527
61.850 12.833316
61.855 13.248584
61.860 13.594398
61.865 13.892816
61.870 13.368771
61.875 13.299743
61.880 13.322474
61.885 12.75741
61.890 12.549378
61.895 12.185846
61.900 11.741161
61.905 12.11652
61.910 11.790715
61.915 11.894501
61.920 12.237463
61.925 11.431986
61.930 11.924087
61.935 12.35923
61.940 12.567416
61.945 13.164948
61.950 13.228811
61.955 13.440328
61.960 13.657038
61.965 13.088208
61.970 13.126765
61.975 13.119678
61.980 12.590827
61.985 12.199913
61.990 12.306884
61.995 12.99049
62.000 13.402574
62.005 13.143792
62.010 12.914609
62.015 13.10372
62.020 13.178276
62.025 12.995805
62.030 12.674051
62.035 12.395661
62.040 12.075561
62.045 12.528691
62.050 13.019418
62.055 13.322993
62.060 13.55724
62.065 13.843932
62.070 14.133183
62.075 13.945592
62.080 13.291996
62.085 13.328889
62.090 13.280937
62.095 13.567612
62.100 13.355528
62.105 13.369246
62.110 13.618079
62.115 13.819989
62.120 13.703617
62.125 13.715435
62.130 12.927269
62.135 12.788662
62.140 12.619978
62.145 12.650706
62.150 12.938305
62.155 13.001402
62.160 13.301948
62.165 13.78667
62.170 13.874796
62.175 14.027685
62.180 14.366802
62.185 13.987363
62.190 13.420861
62.195 12.79336
62.200 12.531682
62.205 12.5057
62.210 12.927808
62.215 12.83265
62.220 13.162879
62.225 13.762614
62.230 14.32557
62.235 14.667573
62.240 14.330615
62.245 13.493595
62.250 13.24262
62.255 13.038873
62.260 12.898047
62.265 12.328446
62.270 11.740721
62.275 12.038666
62.280 12.295918
62.285 12.134643
62.290 12.215703
62.295 12.216368
62.300 12.865334
62.305 12.998199
62.310 13.510592
62.315 13.669708
62.320 13.980893
62.325 14.066053
62.330 13.590816
62.335 13.110306
62.340 12.866632
62.345 12.415343
62.350 12.569684
62.355 12.50033
62.360 12.061676
62.365 12.544639
62.370 12.509364
62.375 12.628093
62.380 12.679132
62.385 12.483886
62.390 12.379072
62.395 12.578798
62.400 12.394458
62.405 12.630495
62.410 12.672527
62.415 13.079598
62.420 13.110062
62.425 13.399967
62.430 13.475623
62.435 13.44482
62.440 13.351099
62.445 13.762321
62.450 13.574843
62.455 14.247195
62.460 14.02575
62.465 14.075355
62.470 14.183255
62.475 14.729007
62.480 14.720625
62.485 14.413124
62.490 13.736246
62.495 13.747771
62.500 13.728998
62.505 13.879082
62.510 13.521026
62.515 12.839253
62.520 12.785598
62.525 12.735519
62.530 12.831586
62.535 13.200052
62.540 13.122666
62.545 13.019567
62.550 13.168345
62.555 13.285958
62.560 13.422035
62.565 12.918146
62.570 12.308452
62.575 11.918297
62.580 11.533946
62.585 11.661715
62.590 11.376592
62.595 11.016281
62.600 11.376896
62.605 11.528259
62.610 11.394807
62.615 11.495913
62.620 11.592011
62.625 11.631475
62.630 11.837589
62.635 11.90265
62.640 12.231906
62.645 12.897002
62.650 13.271456
62.655 13.055035
62.660 13.814129
62.665 14.374063
62.670 14.32003
62.675 14.185759
62.680 14.473558
62.685 14.61552
62.690 15.260051
62.695 15.021701
62.700 14.597083
62.705 14.445104
62.710 14.703121
62.715 14.309259
62.720 14.257454
62.725 13.901937
62.730 13.802668
62.735 13.920994
62.740 14.351559
62.745 14.099709
62.750 13.874712
62.755 13.647219
62.760 13.344558
62.765 13.440084
62.770 13.61257
62.775 13.583496
62.780 13.779922
62.785 13.96417
62.790 14.231494
62.795 14.629577
62.800 14.590961
62.805 14.661695
62.810 14.641844
62.815 14.575971
62.820 14.734257
62.825 14.953277
62.830 14.543697
62.835 14.333279
62.840 13.892781
62.845 13.552893
62.850 13.418017
62.855 13.186708
62.860 12.9436
62.865 13.399486
62.870 13.322477
62.875 12.96232
62.880 13.028412
62.885 13.056627
62.890 13.159966
62.895 12.998418
62.900 12.96357
62.905 12.999125
62.910 13.203392
62.915 13.6739
62.920 13.772292
62.925 14.034324
62.930 13.966738
62.935 13.885847
62.940 14.251745
62.945 14.379826
62.950 14.291676
62.955 14.283857
62.960 13.651148
62.965 13.574012
62.970 13.511489
62.975 13.605889
62.980 13.703572
62.985 13.576074
62.990 14.067338
62.995 14.608172
63.000 14.712179
63.005 14.422276
63.010 14.400698
63.015 14.144803
63.020 13.542241
63.025 12.959316
63.030 12.76902
63.035 12.770958
63.040 12.981105
63.045 12.938497
63.050 13.420218
63.055 14.111779
63.060 14.018717
63.065 14.466573
63.070 14.861705
63.075 14.441355
63.080 14.073807
63.085 13.397253
63.090 13.163259
63.095 12.999742
63.100 12.611012
63.105 12.620539
63.110 12.969223
63.115 13.123302
63.120 13.095087
63.125 13.333749
63.130 13.884331
63.135 13.448371
63.140 13.078613
63.145 12.779715
63.150 12.558396
63.155 12.949621
63.160 12.376177
63.165 11.934503
63.170 12.378448
63.175 12.461888
63.180 12.492897
63.185 12.947943
63.190 12.573862
63.195 12.40804
63.200 12.125404
63.205 11.755259
63.210 12.061928
63.215 12.214306
63.220 12.04216
63.225 12.681103
63.230 13.576684
63.235 14.079191
63.240 14.663697
63.245 14.420094
63.250 14.657136
63.255 15.093412
63.260 14.833302
63.265 14.45525
63.270 14.454155
63.275 14.625886
63.280 15.022099
63.285 14.696364
63.290 14.002611
63.295 14.068725
63.300 14.262756
63.305 14.00306
63.310 13.545416
63.315 13.402034
63.320 13.317128
63.325 13.603548
63.330 13.037343
63.335 12.721146
63.340 12.656163
63.345 12.450381
63.350 12.620562
63.355 13.034649
63.360 13.55628
63.365 14.122245
63.370 14.621052
63.375 14.798042
63.380 14.837291
63.385 14.275279
63.390 13.617233
63.395 13.20421
63.400 12.831619
63.405 12.374625
63.410 12.420044
63.415 12.533909
63.420 13.158393
63.425 13.513718
63.430 13.754124
63.435 13.865897
63.440 13.540064
63.445 13.582178
63.450 13.623445
63.455 13.611324
63.460 13.661968
63.465 13.259052
63.470 13.251704
63.475 13.700467
63.480 13.830098
63.485 13.714356
63.490 13.542494
63.495 13.40015
63.500 13.404369
63.505 13.203758
63.510 13.388488
63.515 13.36576
63.520 13.153459
63.525 12.901733
63.530 13.206665
63.535 13.784974
63.540 13.967631
63.545 14.069681
63.550 14.061341
63.555 14.015169
63.560 13.911152
63.565 13.218495
63.570 12.635049
63.575 12.84152
63.580 12.332255
63.585 12.1917
63.590 12.073451
63.595 12.247269
63.600 13.137237
63.605 13.406388
63.610 12.940776
63.615 13.211563
63.620 13.043766
63.625 13.00315
63.630 12.937185
63.635 12.349014
63.640 11.70867
63.645 11.509736
63.650 11.427606
63.655 11.7747
63.660 12.255145
63.665 12.155677
63.670 12.443005
63.675 13.023699
63.680 13.218691
63.685 13.35644
63.690 13.741731
63.695 14.163697
63.700 14.381742
63.705 14.180499
63.710 14.247072
63.715 14.142175
63.720 13.772119
63.725 12.956873
63.730 12.712113
63.735 12.637077
63.740 12.645335
63.745 12.463031
63.750 12.596698
63.755 12.492781
63.760 12.550247
63.765 12.155816
63.770 12.1266
63.775 12.584428
63.780 13.242416
63.785 13.429703
63.790 14.119232
63.795 14.817624
63.800 14.922805
63.805 14.922328
63.810 14.260568
63.815 13.331391
63.820 12.86775
63.825 12.711737
63.830 11.892216
63.835 11.816475
63.840 12.118007
63.845 12.784842
63.850 13.597816
63.855 14.107813
63.860 13.915351
63.865 14.165532
63.870 14.810762
63.875 15.110967
63.880 15.093409
63.885 14.905852
63.890 14.879291
63.895 14.970531
63.900 15.289588
63.905 14.952556
63.910 14.20829
63.915 13.727356
63.920 13.500173
63.925 13.252276
63.930 12.958816
63.935 12.629642
63.940 12.439735
63.945 12.658371
63.950 12.73501
63.955 12.517212
63.960 12.868602
63.965 13.547851
63.970 13.368138
63.975 13.365656
63.980 13.711946
63.985 13.529529
63.990 13.881921
63.995 14.28586
64.000 14.243082
64.005 14.460134
64.010 14.732605
64.015 14.928264
64.020 15.571413
64.025 15.161361
64.030 14.368439
64.035 14.031812
64.040 14.141891
64.045 14.206944
64.050 14.021402
64.055 13.661369
64.060 13.802834
64.065 14.137679
64.070 14.078252
64.075 13.608839
64.080 13.151974
64.085 12.683418
64.090 13.008207
64.095 12.925417
64.100 12.539873
64.105 12.658361
64.110 13.081701
64.115 13.413569
64.120 14.125363
64.125 14.159744
64.130 14.190882
64.135 14.322155
64.140 14.076608
64.145 14.08073
64.150 13.664681
64.155 13.698874
64.160 13.834104
64.165 13.938855
64.170 14.176514
64.175 14.421771
64.180 14.417622
64.185 13.993118
64.190 13.413094
64.195 12.855599
64.200 13.07428
64.205 12.586736
64.210 12.282198
64.215 12.309573
64.220 12.982832
64.225 13.240232
64.230 13.463387
64.235 13.059846
64.240 13.466308
64.245 13.729687
64.250 13.852695
64.255 13.423205
64.260 13.274345
64.265 13.723923
64.270 13.913914
64.275 14.26009
64.280 14.465081
64.285 14.247189
64.290 14.736008
64.295 14.900892
64.300 14.488886
64.305 14.30741
64.310 13.90223
64.315 13.774733
64.320 13.455834
64.325 12.830844
64.330 12.434624
64.335 12.693891
64.340 12.797095
64.345 12.895721
64.350 12.934015
64.355 13.430098
64.360 14.212928
64.365 14.568136
64.370 14.66374
64.375 15.132957
64.380 15.435942
64.385 15.666158
64.390 15.367376
64.395 15.384146
64.400 15.853667
64.405 15.597341
64.410 15.896718
64.415 15.974645
64.420 16.070007
64.425 16.813213
64.430 17.079422
64.435 17.359425
64.440 17.381907
64.445 17.396893
64.450 17.038095
64.455 16.929735
64.460 16.925482
64.465 16.70359
64.470 15.942523
64.475 15.394319
64.480 14.769803
64.485 14.769593
64.490 14.657448
64.495 14.376657
64.500 14.240644
64.505 14.631744
64.510 14.572272
64.515 14.393963
64.520 14.53864
64.525 14.498627
64.530 14.202283
64.535 13.754648
64.540 13.705738
64.545 14.033195
64.550 14.063629
64.555 13.648808
64.560 13.668058
64.565 14.162436
64.570 14.284237
64.575 14.195253
64.580 14.553142
64.585 14.630739
64.590 14.842233
64.595 15.006853
64.600 14.877036
64.605 15.086748
64.610 15.328547
64.615 15.414857
64.620 15.797206
64.625 15.56023
64.630 15.583242
64.635 15.263525
64.640 15.794002
64.645 15.745923
64.650 15.791235
64.655 15.345134
64.660 15.128177
64.665 14.187363
64.670 14.029295
64.675 13.389641
64.680 13.673368
64.685 13.745445
64.690 14.052042
64.695 14.070196
64.700 14.737621
64.705 14.626369
64.710 14.902829
64.715 15.388732
64.720 15.698176
64.725 15.941087
64.730 16.230253
64.735 16.211184
64.740 16.746029
64.745 16.939835
64.750 16.084421
64.755 15.775344
64.760 15.656777
64.765 15.850617
64.770 15.680439
64.775 15.458564
64.780 15.153287
64.785 15.504524
64.790 15.373374
64.795 15.626127
64.800 15.964099
64.805 16.76173
64.810 16.893297
64.815 16.542885
64.820 16.600348
64.825 17.297979
64.830 17.393566
64.835 17.549953
64.840 18.124863
64.845 19.346481
64.850 19.500237
64.855 19.773075
64.860 19.95101
64.865 20.252829
64.870 19.765614
64.875 19.164999
64.880 18.52528
64.885 19.612043
64.890 19.698626
64.895 19.892559
64.900 19.967098
64.905 20.733322
64.910 21.196844
64.915 21.919645
64.920 22.054798
64.925 21.765833
64.930 21.848717
64.935 22.264925
64.940 21.961695
64.945 21.402632
64.950 21.594883
64.955 21.533947
64.960 21.954714
64.965 21.742815
64.970 21.833273
64.975 21.83066
64.980 22.244637
64.985 21.740305
64.990 22.164604
64.995 21.764256
65.000 21.411016
65.005 22.013073
65.010 22.775192
65.015 22.892975
65.020 23.36314
65.025 23.164597
65.030 23.988674
65.035 24.348764
65.040 23.731934
65.045 23.588783
65.050 23.616503
65.055 23.495434
65.060 24.16847
65.065 24.202438
65.070 24.231728
65.075 24.123226
65.080 24.017508
65.085 23.981361
65.090 23.891983
65.095 23.449341
65.100 23.057835
65.105 23.096554
65.110 22.726248
65.115 22.82655
65.120 22.87414
65.125 22.665171
65.130 22.114763
65.135 21.395874
65.140 20.764221
65.145 21.223679
65.150 21.696524
65.155 21.368956
65.160 21.489035
65.165 21.99593
65.170 22.342886
65.175 22.526297
65.180 21.927681
65.185 20.739452
65.190 20.930456
65.195 20.244736
65.200 20.638824
65.205 20.446762
65.210 20.15443
65.215 19.676172
65.220 19.540047
65.225 19.189241
65.230 18.827885
65.235 17.599541
65.240 17.378508
65.245 17.901014
65.250 18.357698
65.255 18.391197
65.260 18.4368
65.265 18.395472
65.270 18.808268
65.275 19.182472
65.280 18.351278
65.285 18.089136
65.290 18.166965
65.295 18.250092
65.300 18.19499
65.305 17.904268
65.310 17.5511
65.315 18.264223
65.320 18.191811
65.325 18.341728
65.330 18.281874
65.335 18.651321
65.340 18.706593
65.345 18.501913
65.350 18.343237
65.355 18.60527
65.360 17.801292
65.365 17.72349
65.370 17.429277
65.375 17.917177
65.380 18.440744
65.385 18.245651
65.390 18.19903
65.395 18.441196
65.400 18.18129
65.405 18.1539
65.410 17.844221
65.415 17.960402
65.420 17.86079
65.425 18.082031
65.430 18.266804
65.435 18.324528
65.440 18.429171
65.445 18.301033
65.450 18.091139
65.455 17.940819
65.460 17.532873
65.465 17.392115
65.470 17.608015
65.475 16.904541
65.480 16.473574
65.485 16.575331
65.490 16.61447
65.495 16.469978
65.500 16.724627
65.505 16.422642
65.510 16.58552
65.515 16.638914
65.520 15.642917
65.525 15.406336
65.530 15.045021
65.535 14.551473
65.540 14.740534
65.545 15.288571
65.550 15.478864
65.555 16.06056
65.560 16.609797
65.565 17.164379
65.570 17.548302
65.575 17.174795
65.580 16.306593
65.585 16.214951
65.590 16.518696
65.595 16.385361
65.600 16.345871
65.605 16.768682
65.610 17.153408
65.615 18.050177
65.620 18.104948
65.625 17.827477
65.630 17.975882
65.635 17.852409
65.640 17.490057
65.645 17.654587
65.650 17.57412
65.655 17.688633
65.660 17.555326
65.665 17.22275
65.670 17.034512
65.675 17.49485
65.680 18.042976
65.685 17.783983
65.690 17.80335
65.695 17.746012
65.700 17.587845
65.705 17.414326
65.710 17.290335
65.715 16.888882
65.720 17.469242
65.725 18.098307
65.730 18.486868
65.735 19.160685
65.740 19.683304
65.745 19.596897
65.750 19.529165
65.755 19.120131
65.760 18.743835
65.765 19.148821
65.770 19.052383
65.775 19.153036
65.780 19.712048
65.785 20.047758
65.790 20.749561
65.795 21.383154
65.800 21.230837
65.805 21.665449
65.810 21.604717
65.815 20.722048
65.820 20.748205
65.825 20.356152
65.830 19.985332
65.835 19.56469
65.840 18.690235
65.845 18.595936
65.850 18.305456
65.855 17.452368
65.860 17.626709
65.865 18.103031
65.870 18.529598
65.875 18.814144
65.880 18.610521
65.885 19.362167
65.890 19.875799
65.895 19.556208
65.900 19.227793
65.905 19.398668
65.910 19.63306
65.915 20.46113
65.920 20.112524
65.925 21.358057
65.930 21.268051
65.935 21.264793
65.940 21.157118
65.945 21.101654
65.950 20.973116
65.955 21.575729
65.960 21.149536
65.965 20.965073
65.970 21.315451
65.975 21.882767
65.980 22.31283
65.985 22.468922
65.990 22.195383
65.995 22.43466
66.000 22.502193
66.005 21.982664
66.010 21.556585
66.015 21.246021
66.020 21.419308
66.025 21.180202
66.030 20.830585
66.035 21.107508
66.040 21.49041
66.045 21.68384
66.050 21.77685
66.055 21.672218
66.060 21.78973
66.065 22.117073
66.070 22.202717
66.075 22.039618
66.080 22.164585
66.085 22.033886
66.090 21.840014
66.095 21.825794
66.100 21.738518
66.105 21.567734
66.110 21.575415
66.115 21.996778
66.120 21.974669
66.125 21.836674
66.130 21.72514
66.135 21.771391
66.140 21.922386
66.145 21.48988
66.150 21.222303
66.155 21.19379
66.160 21.304543
66.165 21.019627
66.170 21.125542
66.175 21.633236
66.180 21.96031
66.185 21.564617
66.190 21.457724
66.195 21.73937
66.200 21.953291
66.205 21.56431
66.210 21.242842
66.215 21.146921
66.220 21.108191
66.225 21.341211
66.230 21.246965
66.235 21.944616
66.240 22.74087
66.245 22.915133
66.250 23.414387
66.255 23.594725
66.260 23.115782
66.265 22.816936
66.270 21.995127
66.275 21.046883
66.280 20.361471
66.285 19.893869
66.290 19.711317
66.295 20.263342
66.300 20.407728
66.305 21.125029
66.310 21.619589
66.315 22.089447
66.320 22.062931
66.325 22.014727
66.330 21.776316
66.335 21.769402
66.340 21.552069
66.345 21.774975
66.350 21.388744
66.355 21.092937
66.360 20.462505
66.365 20.358303
66.370 20.175064
66.375 19.08676
66.380 18.03676
66.385 17.948603
66.390 18.576918
66.395 18.833868
66.400 18.121609
66.405 17.774956
66.410 18.266762
66.415 18.712
66.420 18.464115
66.425 17.862183
66.430 17.8841
66.435 17.815041
66.440 17.577364
66.445 16.790581
66.450 16.218309
66.455 15.832995
66.460 15.988673
66.465 16.113411
66.470 16.874632
66.475 16.963509
66.480 17.6633
66.485 17.745232
66.490 18.185322
66.495 18.222153
66.500 17.884789
66.505 17.329437
66.510 16.942425
66.515 16.637238
66.520 17.023472
66.525 16.896336
66.530 16.936598
66.535 17.220379
66.540 17.905066
66.545 18.20788
66.550 18.218843
66.555 18.892818
66.560 18.225599
66.565 17.676991
66.570 17.575684
66.575 17.431139
66.580 17.783596
66.585 17.422686
66.590 16.693977
66.595 16.881428
66.600 16.651134
66.605 16.33873
66.610 16.216917
66.615 15.913783
66.620 15.573798
66.625 15.342907
66.630 15.453285
66.635 15.732841
66.640 15.719065
66.645 15.18309
66.650 15.02509
66.655 15.371451
66.660 15.220208
66.665 15.174846
66.670 15.383343
66.675 15.490804
66.680 15.762305
66.685 15.604522
66.690 15.358722
66.695 15.638607
66.700 15.784703
66.705 15.621551
66.710 15.525467
66.715 15.436581
66.720 15.439251
66.725 15.255694
66.730 14.773336
66.735 14.45693
66.740 14.153435
66.745 13.820642
66.750 14.167912
66.755 13.815591
66.760 14.057333
66.765 14.500851
66.770 14.554585
66.775 14.985432
66.780 15.260147
66.785 15.299373
66.790 15.486796
66.795 14.921396
66.800 14.516203
66.805 14.613174
66.810 14.177575
66.815 13.88939
66.820 13.377785
66.825 12.966616
66.830 12.757673
66.835 13.107534
66.840 13.083576
66.845 13.185491
66.850 13.57776
66.855 14.04766
66.860 14.600868
66.865 14.998913
66.870 14.653221
66.875 14.269747
66.880 14.514118
66.885 14.0899
66.890 13.745451
66.895 13.438909
66.900 13.256441
66.905 13.559629
66.910 13.959601
66.915 13.548279
66.920 14.311484
66.925 14.669435
66.930 15.302575
66.935 15.518546
66.940 15.43173
66.945 15.178361
66.950 14.894428
66.955 14.451586
66.960 13.972016
66.965 13.09111
66.970 13.200515
66.975 13.202587
66.980 13.258332
66.985 13.409498
66.990 13.227289
66.995 13.585625
67.000 14.063151
67.005 13.86783
67.010 13.696604
67.015 13.874218
67.020 14.139787
67.025 14.442264
67.030 14.260906
67.035 14.650936
67.040 15.018954
67.045 15.450839
67.050 15.404683
67.055 15.025931
67.060 14.548997
67.065 14.535887
67.070 14.048524
67.075 13.807362
67.080 13.707002
67.085 13.736386
67.090 13.824553
67.095 14.355942
67.100 14.384773
67.105 14.496135
67.110 14.422359
67.115 14.263648
67.120 14.299162
67.125 14.61069
67.130 14.3194
67.135 14.293511
67.140 13.884361
67.145 13.629575
67.150 13.48608
67.155 13.355635
67.160 13.209927
67.165 13.388675
67.170 13.526936
67.175 13.815672
67.180 14.257231
67.185 14.893863
67.190 15.271626
67.195 15.597879
67.200 15.678129
67.205 16.128759
67.210 16.137518
67.215 15.443338
67.220 14.848525
67.225 14.393762
67.230 13.992961
67.235 13.386932
67.240 13.039647
67.245 13.069283
67.250 13.14391
67.255 13.175314
67.260 13.369953
67.265 13.270967
67.270 13.510736
67.275 13.405872
67.280 13.362751
67.285 13.72256
67.290 14.072244
67.295 13.812492
67.300 14.02237
67.305 13.963168
67.310 14.328067
67.315 13.99985
67.320 13.091345
67.325 12.461046
67.330 12.567728
67.335 12.150949
67.340 12.168005
67.345 12.216909
67.350 12.655105
67.355 13.817369
67.360 14.292603
67.365 14.266747
67.370 14.253567
67.375 14.294301
67.380 14.870437
67.385 14.999613
67.390 14.780486
67.395 14.981973
67.400 15.289963
67.405 16.028189
67.410 16.05397
67.415 15.598586
67.420 14.884488
67.425 14.858442
67.430 14.784756
67.435 14.869246
67.440 14.860554
67.445 14.780801
67.450 15.19583
67.455 15.545877
67.460 15.685226
67.465 15.70433
67.470 15.713652
67.475 15.503834
67.480 15.705759
67.485 15.787445
67.490 15.827202
67.495 15.412948
67.500 14.898339
67.505 14.338712
67.510 14.437712
67.515 14.081374
67.520 13.944721
67.525 13.86493
67.530 13.497102
67.535 13.46643
67.540 13.393601
67.545 13.418737
67.550 13.077303
67.555 12.921243
67.560 13.381567
67.565 13.768053
67.570 13.909871
67.575 14.495917
67.580 14.644022
67.585 14.675693
67.590 14.328387
67.595 13.646822
67.600 13.765958
67.605 13.940908
67.610 13.904828
67.615 13.647411
67.620 14.000546
67.625 14.385183
67.630 14.990666
67.635 14.936868
67.640 15.137628
67.645 14.832646
67.650 14.773347
67.655 14.936571
67.660 15.04849
67.665 14.588316
67.670 14.644042
67.675 14.272343
67.680 14.332244
67.685 15.046766
67.690 14.381074
67.695 14.008135
67.700 14.148151
67.705 14.131285
67.710 13.987867
67.715 13.5123
67.720 12.77848
67.725 12.446439
67.730 12.690061
67.735 12.591845
67.740 12.652001
67.745 12.913083
67.750 13.582933
67.755 13.992957
67.760 14.592786
67.765 14.245123
67.770 14.318514
67.775 14.174219
67.780 13.536242
67.785 13.709426
67.790 13.984515
67.795 13.732224
67.800 13.5539
67.805 13.556441
67.810 13.918347
67.815 14.188231
67.820 14.066631
67.825 13.654289
67.830 13.975302
67.835 14.614423
67.840 14.51759
67.845 14.512329
67.850 14.52649
67.855 14.259783
67.860 14.417731
67.865 14.487037
67.870 14.175487
67.875 13.876949
67.880 14.1179
67.885 14.547322
67.890 14.440311
67.895 14.19567
67.900 13.845053
67.905 13.926192
67.910 14.635139
67.915 14.308401
67.920 14.595099
67.925 14.656209
67.930 14.718714
67.935 14.693814
67.940 14.482664
67.945 13.98313
67.950 14.005482
67.955 13.118926
67.960 13.092041
67.965 13.46007
67.970 14.005099
67.975 14.613873
67.980 14.566983
67.985 14.330987
67.990 14.316024
67.995 14.320942
68.000 14.022397
68.005 14.010715
68.010 13.376894
68.015 13.527324
68.020 14.485708
68.025 14.755022
68.030 14.770226
68.035 14.580298
68.040 14.34237
68.045 14.560879
68.050 14.396341
68.055 13.905134
68.060 13.829488
68.065 13.504138
68.070 13.665687
68.075 14.018662
68.080 14.148297
68.085 13.896502
68.090 14.2516
68.095 14.487721
68.100 14.773009
68.105 14.942173
68.110 14.321007
68.115 14.257211
68.120 14.728248
68.125 14.462241
68.130 14.838645
68.135 15.11815
68.140 15.439875
68.145 15.776868
68.150 15.768506
68.155 15.31337
68.160 15.089132
68.165 14.654747
68.170 14.359001
68.175 14.375628
68.180 14.419668
68.185 14.20687
68.190 13.756487
68.195 13.702724
68.200 13.611371
68.205 13.95562
68.210 13.322085
68.215 12.986275
68.220 13.297039
68.225 13.222104
68.230 13.034616
68.235 12.713499
68.240 12.758391
68.245 13.032587
68.250 12.834374
68.255 12.970865
68.260 13.415474
68.265 13.712073
68.270 13.979926
68.275 13.494164
68.280 13.354667
68.285 13.319001
68.290 13.209424
68.295 13.451478
68.300 13.132554
68.305 13.054934
68.310 13.088614
68.315 13.166824
68.320 13.412225
68.325 13.635219
68.330 13.113718
68.335 13.53264
68.340 13.793865
68.345 14.000564
68.350 14.145096
68.355 14.30747
68.360 14.184475
68.365 14.544505
68.370 14.0793
68.375 13.83033
68.380 13.915856
68.385 14.189103
68.390 14.193874
68.395 14.539888
68.400 14.611755
68.405 15.062616
68.410 15.121799
68.415 14.992748
68.420 14.557768
68.425 14.571296
68.430 14.110742
68.435 14.163489
68.440 13.922975
68.445 13.939202
68.450 14.013384
68.455 13.93283
68.460 13.787827
68.465 13.668284
68.470 13.336875
68.475 13.325337
68.480 13.395449
68.485 13.831597
68.490 14.126393
68.495 14.12463
68.500 14.597084
68.505 14.98947
68.510 15.405341
68.515 15.23787
68.520 15.080882
68.525 14.789666
68.530 14.890634
68.535 14.764585
68.540 14.234856
68.545 13.762837
68.550 13.641548
68.555 13.129321
68.560 13.446841
68.565 13.117697
68.570 13.335756
68.575 13.60546
68.580 13.443058
68.585 13.335448
68.590 13.400336
68.595 13.393832
68.600 13.745824
68.605 13.56496
68.610 13.728623
68.615 14.083929
68.620 14.832213
68.625 14.794256
68.630 14.406294
68.635 14.392419
68.640 14.794414
68.645 14.62163
68.650 14.47192
68.655 14.170311
68.660 14.980784
68.665 15.137332
68.670 15.163585
68.675 15.368855
68.680 15.485107
68.685 15.265416
68.690 15.40725
68.695 15.56243
68.700 15.493517
68.705 14.971078
68.710 14.516372
68.715 14.629179
68.720 14.566643
68.725 14.352744
68.730 14.126741
68.735 13.930989
68.740 13.570122
68.745 13.267411
68.750 12.992315
68.755 13.201405
68.760 12.930718
68.765 12.558564
68.770 13.491007
68.775 13.862403
68.780 14.1725
68.785 14.773085
68.790 14.865949
68.795 15.514373
68.800 15.686218
68.805 15.609715
68.810 15.737139
68.815 16.063686
68.820 15.526612
68.825 15.594654
68.830 15.872509
68.835 16.195824
68.840 15.847274
68.845 15.558347
68.850 15.458576
68.855 15.470543
68.860 15.291471
68.865 14.575838
68.870 14.528918
68.875 14.452315
68.880 14.653481
68.885 14.610527
68.890 14.860317
68.895 15.044235
68.900 15.535371
68.905 15.733371
68.910 15.996445
68.915 15.745267
68.920 15.594328
68.925 15.522917
68.930 15.348798
68.935 14.923811
68.940 15.116254
68.945 15.541756
68.950 15.949811
68.955 16.231165
68.960 16.233688
68.965 16.183662
68.970 16.069126
68.975 15.662701
68.980 14.902037
68.985 14.964008
68.990 14.994619
68.995 14.919678
69.000 15.105252
69.005 15.153902
69.010 15.017923
69.015 15.323757
69.020 15.067883
69.025 14.868105
69.030 14.986973
69.035 15.00476
69.040 14.976719
69.045 15.28541
69.050 15.758436
69.055 15.786585
69.060 16.208126
69.065 16.123146
69.070 16.324923
69.075 16.654167
69.080 16.864267
69.085 16.551039
69.090 16.453285
69.095 16.199467
69.100 16.267357
69.105 16.116283
69.110 15.468565
69.115 14.716494
69.120 15.159039
69.125 14.924574
69.130 14.94057
69.135 14.909552
69.140 14.680227
69.145 15.171873
69.150 15.583932
69.155 15.064711
69.160 14.798245
69.165 14.662358
69.170 15.279818
69.175 15.496714
69.180 15.293813
69.185 15.801633
69.190 16.303698
69.195 16.805948
69.200 16.783373
69.205 16.481787
69.210 16.283077
69.215 16.302881
69.220 16.33642
69.225 16.528973
69.230 16.412413
69.235 16.186661
69.240 16.421444
69.245 16.823748
69.250 16.68347
69.255 16.469978
69.260 15.95756
69.265 15.894016
69.270 16.224791
69.275 16.527782
69.280 16.591217
69.285 16.672131
69.290 17.43627
69.295 17.517321
69.300 17.677084
69.305 17.666739
69.310 17.62764
69.315 17.62467
69.320 17.220818
69.325 16.89979
69.330 17.052828
69.335 16.861624
69.340 16.906982
69.345 17.10236
69.350 17.268196
69.355 17.767933
69.360 18.203554
69.365 18.668299
69.370 18.365891
69.375 18.107611
69.380 17.612587
69.385 17.762238
69.390 17.934891
69.395 16.960381
69.400 16.77331
69.405 16.835258
69.410 16.825998
69.415 17.601591
69.420 17.773693
69.425 17.22991
69.430 17.769442
69.435 18.179045
69.440 19.098625
69.445 19.144411
69.450 18.565969
69.455 18.157164
69.460 18.074669
69.465 17.820742
69.470 17.913223
69.475 17.52026
69.480 17.756863
69.485 18.234098
69.490 18.799068
69.495 19.704065
69.500 20.155231
69.505 19.998497
69.510 19.60516
69.515 19.089834
69.520 18.92783
69.525 18.580021
69.530 18.00334
69.535 17.677568
69.540 17.624866
69.545 18.108824
69.550 18.343519
69.555 18.285009
69.560 18.044807
69.565 18.085474
69.570 18.388626
69.575 18.745947
69.580 18.848524
69.585 18.788153
69.590 18.730305
69.595 18.246254
69.600 18.583248
69.605 18.490442
69.610 18.183901
69.615 18.12027
69.620 18.24696
69.625 18.603767
69.630 19.583244
69.635 19.535967
69.640 19.074881
69.645 18.935272
69.650 18.650454
69.655 18.064583
69.660 17.472418
69.665 16.583591
69.670 16.102554
69.675 16.154739
69.680 16.50808
69.685 16.757256
69.690 16.75054
69.695 17.066141
69.700 17.509449
69.705 17.583794
69.710 17.370945
69.715 16.946262
69.720 16.646944
69.725 16.669943
69.730 16.485516
69.735 16.246292
69.740 16.339123
69.745 17.021294
69.750 16.967564
69.755 16.851551
69.760 16.894068
69.765 16.432421
69.770 16.326468
69.775 16.402433
69.780 15.415854
69.785 15.562968
69.790 15.730036
69.795 15.875783
69.800 16.297903
69.805 15.932189
69.810 15.854213
69.815 16.229406
69.820 16.086996
69.825 15.84971
69.830 15.856011
69.835 15.986875
69.840 16.05592
69.845 16.002293
69.850 16.04755
69.855 15.645991
69.860 15.675815
69.865 15.79086
69.870 15.655224
69.875 15.672654
69.880 15.532921
69.885 15.525613
69.890 15.771658
69.895 15.436275
69.900 14.926378
69.905 14.839458
69.910 14.685504
69.915 14.110202
69.920 14.027204
69.925 14.536888
69.930 14.579428
69.935 14.756379
69.940 14.89639
69.945 15.404954
69.950 15.85169
69.955 15.711401
69.960 15.302378
69.965 15.537343
69.970 15.380549
69.975 14.954247
69.980 14.75281
69.985 14.562107
69.990 14.121918
69.995 14.210452
70.000 13.519156
70.005 13.393846
70.010 13.177094
70.015 13.545271
70.020 13.934527
70.025 14.12013
70.030 14.382448
70.035 15.089939
70.040 15.026174
70.045 14.930761
70.050 14.723669
70.055 14.442694
70.060 14.000536
70.065 13.675508
70.070 13.256534
70.075 13.380279
70.080 13.404114
70.085 13.287072
70.090 13.642136
70.095 13.83768
70.100 13.855168
70.105 13.756434
70.110 13.829651
70.115 13.406611
70.120 13.438622
70.125 13.882335
70.130 14.174102
70.135 13.75527
70.140 14.214088
70.145 14.723459
70.150 14.498345
70.155 13.987228
70.160 13.26295
70.165 13.021637
70.170 13.251173
70.175 12.578674
70.180 12.16084
70.185 12.746405
70.190 12.929563
70.195 13.158514
70.200 12.952035
70.205 12.797241
70.210 13.319173
70.215 14.121861
70.220 14.44786
70.225 14.41858
70.230 14.176146
70.235 14.560493
70.240 14.917566
70.245 14.63524
70.250 14.116382
70.255 14.184677
70.260 14.633348
70.265 14.532706
70.270 14.221536
70.275 14.067505
70.280 14.373519
70.285 14.431275
70.290 13.830103
70.295 13.307021
70.300 13.404577
70.305 13.427322
70.310 13.31247
70.315 13.061784
70.320 12.901215
70.325 13.357663
70.330 13.813064
70.335 13.904984
70.340 13.7558
70.345 13.703819
70.350 13.734274
70.355 13.487468
70.360 13.121582
70.365 12.993547
70.370 13.52999
70.375 14.333806
70.380 14.474579
70.385 14.31976
70.390 13.850824
70.395 13.345325
70.400 13.334104
70.405 12.880345
70.410 12.207546
70.415 12.037223
70.420 12.033944
70.425 12.776634
70.430 13.333962
70.435 13.184024
70.440 13.356522
70.445 12.980815
70.450 13.082137
70.455 13.444605
70.460 13.735017
70.465 14.379801
70.470 14.417835
70.475 14.326064
70.480 14.867051
70.485 14.601748
70.490 14.346987
70.495 13.902784
70.500 13.587963
70.505 13.733931
70.510 13.888425
70.515 14.334725
70.520 14.7646
70.525 14.581402
70.530 14.004497
70.535 13.641234
70.540 13.747268
70.545 13.500595
70.550 12.88324
70.555 12.995058
70.560 13.694675
70.565 14.500693
70.570 15.041533
70.575 14.976135
70.580 14.970366
70.585 15.01955
70.590 14.428102
70.595 14.116474
70.600 13.608844
70.605 13.499761
70.610 13.962877
70.615 13.919599
70.620 13.717903
70.625 13.54634
70.630 13.988278
70.635 14.091243
70.640 13.919736
70.645 13.290978
70.650 12.797174
70.655 13.519992
70.660 13.355673
70.665 12.788382
70.670 12.254053
70.675 12.492434
70.680 12.920331
70.685 13.076628
70.690 12.818548
70.695 13.141921
70.700 13.459221
70.705 13.323088
70.710 12.93154
70.715 13.11077
70.720 13.482121
70.725 13.376636
70.730 13.113172
70.735 12.714906
70.740 12.167669
70.745 11.848692
70.750 11.660263
70.755 11.346146
70.760 11.295846
70.765 11.53984
70.770 11.738745
70.775 12.206554
70.780 12.492814
70.785 12.54896
70.790 12.409811
70.795 12.350581
70.800 12.27939
70.805 12.099136
70.810 12.1576
70.815 12.333412
70.820 12.728807
70.825 12.874554
70.830 12.987478
70.835 13.304846
70.840 13.270703
70.845 12.91387
70.850 12.43926
70.855 11.820657
70.860 11.665029
70.865 10.867455
70.870 10.83091
70.875 11.197147
70.880 11.497539
70.885 11.632061
70.890 11.845434
70.895 11.938197
70.900 12.730465
70.905 12.780365
70.910 12.43961
70.915 12.191293
70.920 12.079866
70.925 12.252769
70.930 12.175449
70.935 11.650704
70.940 11.694688
70.945 11.923203
70.950 12.535681
70.955 12.847076
70.960 13.412793
70.965 13.691908
70.970 13.942794
70.975 13.794386
70.980 13.495302
70.985 13.190477
70.990 12.755966
70.995 11.697731
71.000 11.021744
71.005 10.877754
71.010 11.157676
71.015 11.220305
71.020 11.155261
71.025 11.415182
71.030 12.256036
71.035 13.284266
71.040 13.274465
71.045 13.353142
71.050 13.814722
71.055 14.145668
71.060 14.746712
71.065 14.847825
71.070 14.372923
71.075 14.441855
71.080 14.377889
71.085 13.962481
71.090 13.687497
71.095 13.491881
71.100 12.901783
71.105 12.994555
71.110 13.175234
71.115 12.80456
71.120 12.839926
71.125 12.450606
71.130 11.892479
71.135 11.98615
71.140 11.846864
71.145 12.184118
71.150 12.310287
71.155 12.389055
71.160 12.48535
71.165 12.344543
71.170 12.829007
71.175 12.361368
71.180 12.329974
71.185 12.567878
71.190 12.548817
71.195 13.088009
71.200 13.480488
71.205 13.229497
71.210 13.603097
71.215 13.407221
71.220 12.535213
71.225 12.728418
71.230 12.446777
71.235 12.77914
71.240 12.801054
71.245 12.60122
71.250 12.816601
71.255 13.424817
71.260 13.340625
71.265 13.630376
71.270 13.488433
71.275 13.545591
71.280 13.685533
71.285 13.936638
71.290 14.343073
71.295 14.194657
71.300 14.062988
71.305 14.291023
71.310 13.692571
71.315 13.603929
71.320 13.198489
71.325 12.889131
71.330 12.84447
71.335 13.370768
71.340 13.682805
71.345 14.17276
71.350 14.357661
71.355 14.238471
71.360 14.271431
71.365 13.959076
71.370 13.253034
71.375 12.561057
71.380 12.111712
71.385 11.376716
71.390 11.310648
71.395 10.795547
71.400 10.786527
71.405 10.872831
71.410 11.291715
71.415 11.816937
71.420 11.890217
71.425 11.804918
71.430 11.947927
71.435 11.656899
71.440 11.597803
71.445 11.280245
71.450 11.420424
71.455 11.332284
71.460 11.471727
71.465 11.667075
71.470 11.639894
71.475 11.634523
71.480 11.928602
71.485 12.589432
71.490 12.890354
71.495 12.990159
71.500 12.589742
71.505 12.636528
71.510 12.432902
71.515 12.405492
71.520 12.21609
71.525 11.849594
71.530 11.825596
71.535 12.946785
71.540 13.225511
71.545 13.158117
71.550 12.810683
71.555 12.426686
71.560 12.746817
71.565 12.608675
71.570 11.434144
71.575 11.10284
71.580 10.942054
71.585 11.196894
71.590 11.380538
71.595 11.490484
71.600 11.750173
71.605 12.448304
71.610 12.867657
71.615 12.950999
71.620 12.685286
71.625 12.727221
71.630 12.732309
71.635 12.793835
71.640 12.976154
71.645 13.52252
71.650 13.976693
71.655 13.658714
71.660 13.537159
71.665 13.224896
71.670 12.647044
71.675 12.310094
71.680 11.533518
71.685 11.583509
71.690 12.135217
71.695 12.29523
71.700 12.621809
71.705 12.466944
71.710 13.010772
71.715 13.265609
71.720 12.915359
71.725 12.924871
71.730 12.8506
71.735 12.942511
71.740 13.407684
71.745 12.88309
71.750 13.066743
71.755 13.463171
71.760 13.371124
71.765 13.182225
71.770 13.291262
71.775 14.118794
71.780 14.316634
71.785 14.34927
71.790 14.437441
71.795 14.676524
71.800 15.154002
71.805 14.745097
71.810 14.175701
71.815 14.052465
71.820 13.731778
71.825 13.149263
71.830 12.406831
71.835 12.174542
71.840 12.634147
71.845 12.407949
71.850 12.054413
71.855 11.907036
71.860 11.826882
71.865 12.097321
71.870 11.849331
71.875 11.457641
71.880 11.829395
71.885 11.906208
71.890 12.345926
71.895 12.474861
71.900 12.531891
71.905 12.622252
71.910 12.871055
71.915 12.772004
71.920 12.752676
71.925 12.9199
71.930 12.712614
71.935 13.052651
71.940 12.984981
71.945 12.750546
71.950 12.311337
71.955 11.966704
71.960 11.491213
71.965 11.112431
71.970 10.848783
71.975 11.141064
71.980 11.269513
71.985 11.411477
71.990 11.36222
71.995 11.785205
72.000 12.112657
72.005 11.822613
72.010 11.792414
72.015 11.773124
72.020 12.582469
72.025 12.81734
72.030 13.218869
72.035 13.104375
72.040 13.005667
72.045 12.790369
72.050 12.724673
72.055 12.638859
72.060 12.395067
72.065 11.990281
72.070 12.394728
72.075 12.629587
72.080 13.092774
72.085 13.330925
72.090 13.187237
72.095 13.451572
72.100 13.409122
72.105 13.072753
72.110 12.614514
72.115 12.241855
72.120 12.244282
72.125 12.853677
72.130 12.885702
72.135 12.995385
72.140 13.203435
72.145 13.020133
72.150 12.475561
72.155 12.045457
72.160 11.516376
72.165 11.343254
72.170 11.280158
72.175 11.531378
72.180 11.71077
72.185 11.643533
72.190 11.41083
72.195 11.446347
72.200 11.582967
72.205 11.647714
72.210 11.840539
72.215 12.118444
72.220 12.535029
72.225 12.64128
72.230 12.682381
72.235 12.709846
72.240 12.541707
72.245 12.667344
72.250 12.984666
72.255 13.051437
72.260 12.979554
72.265 13.268035
72.270 13.24702
72.275 13.545556
72.280 13.295321
72.285 12.812453
72.290 12.888095
72.295 13.058773
72.300 12.732717
72.305 12.481993
72.310 12.169234
72.315 11.869363
72.320 11.566365
72.325 11.661885
72.330 12.089611
72.335 12.028701
72.340 12.091499
72.345 11.879424
72.350 12.799838
72.355 13.233249
72.360 12.366993
72.365 11.877316
72.370 11.777957
72.375 11.773301
72.380 12.015427
72.385 12.058302
72.390 11.69944
72.395 12.33145
72.400 12.613677
72.405 12.978114
72.410 13.146607
72.415 12.676263
72.420 12.565213
72.425 12.367236
72.430 11.834128
72.435 11.688211
72.440 11.574603
72.445 11.815911
72.450 12.064875
72.455 12.207031
72.460 12.597479
72.465 13.192686
72.470 13.405609
72.475 13.066962
72.480 12.900852
72.485 12.83371
72.490 12.880233
72.495 12.626785
72.500 11.859284
72.505 11.527557
72.510 11.790205
72.515 11.74672
72.520 12.163053
72.525 12.422008
72.530 12.603189
72.535 13.040661
72.540 13.337798
72.545 13.479001
72.550 13.679706
72.555 13.503078
72.560 13.272777
72.565 13.292286
72.570 13.243761
72.575 13.29657
72.580 13.411514
72.585 13.197206
72.590 13.332926
72.595 13.392179
72.600 14.004634
72.605 14.150859
72.610 13.768226
72.615 13.906802
72.620 13.933062
72.625 13.723859
72.630 13.475956
72.635 13.232959
72.640 13.109241
72.645 12.816404
72.650 12.552918
72.655 12.40235
72.660 12.543966
72.665 12.291407
72.670 11.931134
72.675 12.149309
72.680 12.425958
72.685 12.173199
72.690 11.860138
72.695 11.909007
72.700 11.826971
72.705 11.623527
72.710 11.437335
72.715 11.337607
72.720 11.503514
72.725 11.392941
72.730 11.482644
72.735 11.930524
72.740 12.099274
72.745 12.243884
72.750 12.384049
72.755 12.470645
72.760 12.663707
72.765 12.546123
72.770 12.279594
72.775 11.980996
72.780 11.724183
72.785 11.711679
72.790 11.753736
72.795 11.859168
72.800 12.195953
72.805 12.837652
72.810 13.287287
72.815 13.358601
72.820 13.513604
72.825 13.764986
72.830 13.708327
72.835 13.329582
72.840 13.206556
72.845 13.420576
72.850 13.538079
72.855 13.445116
72.860 13.292443
72.865 12.667485
72.870 12.68426
72.875 11.883381
72.880 11.533975
72.885 11.057551
72.890 10.801275
72.895 10.492286
72.900 11.170014
72.905 11.510753
72.910 12.102718
72.915 12.379606
72.920 13.097122
72.925 13.10267
72.930 13.248569
72.935 12.637901
72.940 12.669212
72.945 12.605195
72.950 12.321061
72.955 11.878591
72.960 12.01195
72.965 12.087237
72.970 11.919232
72.975 11.325413
72.980 11.176614
72.985 11.526819
72.990 11.418128
72.995 11.342164
73.000 11.60868
