!@!!GADDS PLOTSO FILE: Chi integration type
!@!!Title/SampleName: map-18a
!@!!Comment: ?
!@!!User: Bruker Instrument Administrator
!@!!Site: University of Illinois Chicago
!@!!Frame: map-18a_01_000.gfrm
!@!!Wavelengths    1.54184   1.54056   1.54439
!@!!Frame angles: 2Theta: 63.000 Omega: 50.000 Phi: 0.000 Chi: 90.000
!@!!Integration range: 2Theta: 53.000 to 73.000  Gamma: -105.000 to -75.000
!@!!Integration method: bin normalized
!@!N
!@!SS
!@!M
!@!L 0.0 0.0 0.0 0.0
!@!XDegrees
!@!YCounts
53.000 9.153332
53.005 9.026409
53.010 9.035624
53.015 9.283644
53.020 8.968462
53.025 8.702298
53.030 8.974143
53.035 9.422491
53.040 9.445994
53.045 9.372444
53.050 9.562033
53.055 9.617894
53.060 9.916698
53.065 9.642977
53.070 8.978826
53.075 8.780611
53.080 8.747292
53.085 8.750969
53.090 8.963399
53.095 9.195394
53.100 9.08623
53.105 9.330307
53.110 9.652941
53.115 9.978459
53.120 9.787207
53.125 9.2177
53.130 9.102874
53.135 9.123359
53.140 9.629103
53.145 9.814021
53.150 9.543443
53.155 9.70543
53.160 10.443356
53.165 10.732139
53.170 10.835958
53.175 9.854292
53.180 9.503358
53.185 9.945165
53.190 9.983744
53.195 9.257036
53.200 9.056416
53.205 9.231407
53.210 9.295637
53.215 8.975098
53.220 8.479617
53.225 8.587311
53.230 8.825099
53.235 8.882473
53.240 8.915595
53.245 9.503544
53.250 9.880243
53.255 10.169091
53.260 9.715195
53.265 9.673937
53.270 9.749259
53.275 9.642374
53.280 9.169123
53.285 8.866574
53.290 8.305332
53.295 8.531958
53.300 8.805594
53.305 8.68578
53.310 8.492537
53.315 8.799212
53.320 8.927592
53.325 9.132728
53.330 9.183378
53.335 8.947637
53.340 9.091652
53.345 9.205326
53.350 9.194589
53.355 9.454556
53.360 9.763835
53.365 9.851121
53.370 10.206589
53.375 10.038712
53.380 9.714729
53.385 9.980618
53.390 9.803728
53.395 9.534628
53.400 9.06339
53.405 8.663915
53.410 9.005389
53.415 9.245483
53.420 9.220359
53.425 9.775118
53.430 9.886134
53.435 9.956456
53.440 10.055522
53.445 9.815691
53.450 9.432214
53.455 8.906899
53.460 8.378689
53.465 8.554672
53.470 8.918864
53.475 9.189667
53.480 9.144415
53.485 9.064353
53.490 9.247
53.495 9.527515
53.500 9.657839
53.505 9.575603
53.510 9.103365
53.515 9.170193
53.520 9.555277
53.525 9.439633
53.530 9.108386
53.535 8.807441
53.540 8.724105
53.545 8.850754
53.550 8.79528
53.555 8.793595
53.560 8.720153
53.565 8.782458
53.570 8.641716
53.575 8.181742
53.580 8.349795
53.585 8.146316
53.590 7.894411
53.595 7.92194
53.600 7.61274
53.605 8.034771
53.610 8.647963
53.615 8.618103
53.620 9.198431
53.625 10.053595
53.630 10.233027
53.635 10.329778
53.640 10.924726
53.645 11.296591
53.650 11.444191
53.655 11.129708
53.660 10.993845
53.665 10.951449
53.670 10.550363
53.675 9.566485
53.680 9.143613
53.685 9.169793
53.690 9.161397
53.695 8.905967
53.700 9.113665
53.705 9.609274
53.710 9.664619
53.715 9.761866
53.720 9.60356
53.725 9.62117
53.730 9.587273
53.735 9.484851
53.740 9.560422
53.745 9.896651
53.750 10.164836
53.755 10.20137
53.760 10.045953
53.765 10.493135
53.770 10.81457
53.775 10.851404
53.780 10.727173
53.785 10.391885
53.790 10.12412
53.795 10.303888
53.800 9.977201
53.805 9.476791
53.810 9.459902
53.815 9.621644
53.820 9.746831
53.825 9.729465
53.830 9.36328
53.835 9.293252
53.840 9.155797
53.845 8.449619
53.850 8.533813
53.855 8.838904
53.860 9.345903
53.865 9.916924
53.870 10.06752
53.875 10.806921
53.880 11.095081
53.885 10.734424
53.890 10.674086
53.895 10.169159
53.900 9.84672
53.905 9.648654
53.910 9.107332
53.915 9.760401
53.920 10.014487
53.925 9.981584
53.930 10.026777
53.935 10.058266
53.940 10.282403
53.945 10.458861
53.950 10.124333
53.955 9.751021
53.960 9.646083
53.965 9.730536
53.970 9.966426
53.975 10.103301
53.980 9.828963
53.985 9.863234
53.990 10.184078
53.995 9.946117
54.000 10.364168
54.005 10.426291
54.010 10.783315
54.015 11.169097
54.020 11.279745
54.025 11.636222
54.030 11.853678
54.035 11.737066
54.040 11.740395
54.045 11.74669
54.050 11.990488
54.055 11.710998
54.060 11.45851
54.065 11.091377
54.070 10.513622
54.075 10.341657
54.080 9.730668
54.085 9.76917
54.090 9.964189
54.095 9.731569
54.100 9.784552
54.105 9.965466
54.110 10.211024
54.115 10.089511
54.120 9.722589
54.125 9.54298
54.130 9.799827
54.135 9.874486
54.140 9.619788
54.145 9.390243
54.150 9.802909
54.155 10.073606
54.160 9.852346
54.165 9.911757
54.170 9.780728
54.175 9.738595
54.180 9.715103
54.185 9.854593
54.190 9.977349
54.195 10.241129
54.200 10.647876
54.205 10.960238
54.210 11.048625
54.215 10.894894
54.220 10.451946
54.225 10.763846
54.230 10.582847
54.235 10.521229
54.240 10.752911
54.245 10.548561
54.250 10.300274
54.255 10.344578
54.260 10.345266
54.265 10.126653
54.270 9.832865
54.275 9.470398
54.280 9.495903
54.285 9.906632
54.290 9.953877
54.295 9.447229
54.300 9.856521
54.305 10.130416
54.310 10.154585
54.315 10.160813
54.320 9.844512
54.325 9.542734
54.330 9.816363
54.335 9.667984
54.340 9.955072
54.345 10.195871
54.350 9.882179
54.355 9.748108
54.360 10.030951
54.365 9.657648
54.370 8.897969
54.375 8.769269
54.380 8.987747
54.385 9.183426
54.390 9.255233
54.395 9.508506
54.400 10.103395
54.405 10.088679
54.410 9.677445
54.415 9.639231
54.420 9.366973
54.425 9.608046
54.430 9.586228
54.435 9.731863
54.440 10.255135
54.445 10.361197
54.450 10.51777
54.455 10.554171
54.460 10.222386
54.465 10.159782
54.470 10.360678
54.475 10.339293
54.480 10.091722
54.485 9.926151
54.490 10.498297
54.495 10.40755
54.500 10.259523
54.505 10.302466
54.510 10.045798
54.515 10.430998
54.520 10.094716
54.525 10.243506
54.530 10.531457
54.535 10.254043
54.540 9.970724
54.545 10.179606
54.550 10.294439
54.555 10.560792
54.560 10.024621
54.565 9.939708
54.570 10.23551
54.575 10.320454
54.580 10.191424
54.585 9.893203
54.590 9.878895
54.595 10.422304
54.600 10.100974
54.605 10.336536
54.610 10.120815
54.615 10.152375
54.620 10.674836
54.625 10.650578
54.630 10.224285
54.635 10.191766
54.640 9.856601
54.645 10.584852
54.650 10.767683
54.655 10.310284
54.660 10.617207
54.665 10.543159
54.670 10.723937
54.675 10.315547
54.680 9.6101
54.685 9.777598
54.690 9.602221
54.695 9.474617
54.700 9.670984
54.705 9.633611
54.710 10.074643
54.715 10.216044
54.720 9.915363
54.725 10.066009
54.730 10.071499
54.735 10.113791
54.740 9.975492
54.745 9.791626
54.750 9.486507
54.755 9.456896
54.760 9.24537
54.765 9.585504
54.770 9.323735
54.775 9.186543
54.780 9.36809
54.785 9.721889
54.790 9.822725
54.795 9.979304
54.800 9.683152
54.805 10.145249
54.810 10.19694
54.815 10.372908
54.820 10.4391
54.825 10.43984
54.830 10.153856
54.835 10.33549
54.840 10.527308
54.845 10.399623
54.850 10.261155
54.855 10.110669
54.860 10.550575
54.865 11.215698
54.870 11.026042
54.875 10.992028
54.880 11.460428
54.885 11.828357
54.890 11.881925
54.895 11.410998
54.900 11.194597
54.905 11.174185
54.910 11.030126
54.915 10.638397
54.920 10.102099
54.925 10.236691
54.930 10.3284
54.935 10.1571
54.940 10.36764
54.945 10.395464
54.950 10.78543
54.955 11.115345
54.960 10.606505
54.965 10.611048
54.970 10.697687
54.975 10.828415
54.980 10.852284
54.985 10.776658
54.990 10.833515
54.995 11.075605
55.000 11.039498
55.005 10.789423
55.010 10.515597
55.015 10.749788
55.020 10.658264
55.025 10.450576
55.030 10.315255
55.035 10.123802
55.040 9.922765
55.045 9.959179
55.050 9.923524
55.055 9.89287
55.060 10.004939
55.065 9.76145
55.070 10.269067
55.075 10.457411
55.080 10.756955
55.085 11.138777
55.090 11.436488
55.095 11.58415
55.100 11.648026
55.105 11.186973
55.110 11.038796
55.115 10.738623
55.120 10.100357
55.125 9.602035
55.130 9.273688
55.135 9.655982
55.140 9.972272
55.145 9.850416
55.150 10.23659
55.155 10.500767
55.160 11.083574
55.165 11.095463
55.170 10.752268
55.175 10.74582
55.180 10.526268
55.185 10.53041
55.190 10.820867
55.195 10.702146
55.200 10.961472
55.205 10.765595
55.210 10.733935
55.215 10.7277
55.220 10.286077
55.225 10.022008
55.230 9.860085
55.235 9.957701
55.240 10.122165
55.245 10.385391
55.250 10.397349
55.255 9.925406
55.260 9.741546
55.265 10.045254
55.270 10.28223
55.275 9.952988
55.280 9.824097
55.285 10.172714
55.290 10.247737
55.295 10.404311
55.300 9.873134
55.305 9.845744
55.310 10.129264
55.315 10.286743
55.320 10.097636
55.325 10.33145
55.330 10.073065
55.335 10.253365
55.340 9.992109
55.345 9.735141
55.350 9.852948
55.355 9.789306
55.360 9.899863
55.365 10.501536
55.370 10.375366
55.375 10.211811
55.380 10.374043
55.385 9.941566
55.390 10.007803
55.395 9.851036
55.400 9.664543
55.405 9.666255
55.410 10.055164
55.415 9.689406
55.420 9.866885
55.425 10.297996
55.430 10.94747
55.435 11.145962
55.440 11.468806
55.445 11.407073
55.450 11.411967
55.455 11.142736
55.460 10.863331
55.465 10.260485
55.470 10.184047
55.475 10.117667
55.480 10.04518
55.485 9.901065
55.490 9.839156
55.495 9.738541
55.500 9.645087
55.505 9.631325
55.510 9.689642
55.515 9.85399
55.520 9.768169
55.525 9.577414
55.530 9.179989
55.535 9.130749
55.540 8.882408
55.545 8.800189
55.550 9.083657
55.555 9.412687
55.560 9.102567
55.565 9.141194
55.570 9.120355
55.575 9.193386
55.580 9.544978
55.585 9.502218
55.590 9.814579
55.595 10.657238
55.600 11.030837
55.605 10.548157
55.610 10.322667
55.615 9.755986
55.620 9.613985
55.625 9.432997
55.630 8.985626
55.635 8.638927
55.640 9.006716
55.645 9.223687
55.650 9.514958
55.655 9.642674
55.660 9.439486
55.665 9.020436
55.670 9.061281
55.675 9.147546
55.680 9.002324
55.685 8.688819
55.690 8.417503
55.695 8.589384
55.700 9.210703
55.705 9.355821
55.710 9.104531
55.715 9.241716
55.720 9.596387
55.725 9.771188
55.730 9.415829
55.735 9.04229
55.740 9.149517
55.745 9.341351
55.750 8.884256
55.755 8.429218
55.760 8.559511
55.765 9.327532
55.770 9.341813
55.775 9.598317
55.780 9.846972
55.785 9.993979
55.790 10.059755
55.795 9.698352
55.800 9.567964
55.805 9.52496
55.810 9.027369
55.815 8.864754
55.820 8.728668
55.825 8.965375
55.830 9.002126
55.835 8.661115
55.840 8.788438
55.845 9.310268
55.850 9.52204
55.855 9.743531
55.860 9.725094
55.865 9.851326
55.870 9.636723
55.875 9.773976
55.880 9.786337
55.885 10.060999
55.890 10.104784
55.895 10.404438
55.900 10.304454
55.905 10.580516
55.910 10.290887
55.915 10.16131
55.920 10.501565
55.925 10.705033
55.930 10.866034
55.935 11.270493
55.940 11.38134
55.945 11.894001
55.950 11.846045
55.955 11.670987
55.960 11.040053
55.965 10.646108
55.970 10.308863
55.975 10.193225
55.980 9.496949
55.985 9.082742
55.990 8.988056
55.995 9.218162
56.000 9.719777
56.005 9.745231
56.010 9.26359
56.015 9.363598
56.020 9.655869
56.025 9.916827
56.030 10.098023
56.035 9.755842
56.040 9.772103
56.045 10.421369
56.050 10.6254
56.055 10.484913
56.060 10.033879
56.065 9.860086
56.070 10.063373
56.075 10.239127
56.080 10.278365
56.085 10.364635
56.090 10.385407
56.095 10.877227
56.100 11.159433
56.105 10.993617
56.110 10.60925
56.115 10.743738
56.120 10.935554
56.125 10.892699
56.130 10.426832
56.135 10.333673
56.140 10.276804
56.145 10.508873
56.150 10.48876
56.155 10.065228
56.160 10.219591
56.165 10.113345
56.170 10.159416
56.175 10.267689
56.180 9.834833
56.185 9.79799
56.190 9.971305
56.195 9.373898
56.200 9.635123
56.205 9.373314
56.210 9.709607
56.215 9.823129
56.220 9.254876
56.225 9.444012
56.230 10.070385
56.235 10.308598
56.240 10.388931
56.245 10.447125
56.250 10.511271
56.255 10.636825
56.260 10.498941
56.265 10.128651
56.270 9.765186
56.275 10.000429
56.280 9.943081
56.285 9.874256
56.290 10.240876
56.295 10.441876
56.300 10.491681
56.305 10.447822
56.310 10.484837
56.315 10.406168
56.320 10.612247
56.325 10.819629
56.330 10.836758
56.335 10.874479
56.340 11.031071
56.345 10.803563
56.350 11.132867
56.355 11.287493
56.360 10.948846
56.365 10.847758
56.370 10.964966
56.375 10.692479
56.380 10.760977
56.385 10.578409
56.390 10.441687
56.395 10.801302
56.400 11.055253
56.405 10.911485
56.410 11.001959
56.415 10.803868
56.420 10.894552
56.425 10.889195
56.430 10.444516
56.435 10.336602
56.440 10.670799
56.445 10.986456
56.450 11.12201
56.455 11.264155
56.460 11.607106
56.465 11.787762
56.470 12.017976
56.475 12.683108
56.480 13.01973
56.485 13.542881
56.490 13.97022
56.495 14.091535
56.500 13.874211
56.505 13.569323
56.510 13.290044
56.515 12.727163
56.520 12.463248
56.525 12.561636
56.530 12.510337
56.535 13.032271
56.540 12.766058
56.545 12.748957
56.550 13.178555
56.555 13.48635
56.560 13.234231
56.565 13.126719
56.570 12.838139
56.575 13.509517
56.580 13.297054
56.585 12.819527
56.590 12.241211
56.595 12.121331
56.600 12.153001
56.605 11.405935
56.610 10.942604
56.615 10.879429
56.620 10.880235
56.625 10.850647
56.630 10.796007
56.635 10.842838
56.640 11.482865
56.645 11.338758
56.650 11.402497
56.655 11.607241
56.660 11.836314
56.665 11.813955
56.670 11.696801
56.675 11.685874
56.680 11.829271
56.685 11.766244
56.690 11.611847
56.695 11.386621
56.700 11.108656
56.705 11.615186
56.710 11.583373
56.715 11.526516
56.720 11.407278
56.725 10.936188
56.730 10.505643
56.735 10.775155
56.740 10.233475
56.745 10.093241
56.750 10.006146
56.755 10.731263
56.760 11.669155
56.765 11.944279
56.770 12.265317
56.775 12.551959
56.780 12.499104
56.785 12.382347
56.790 12.11834
56.795 11.606459
56.800 11.198764
56.805 10.785597
56.810 10.717616
56.815 10.534782
56.820 10.2279
56.825 10.355267
56.830 10.838012
56.835 10.758522
56.840 10.101753
56.845 9.979555
56.850 9.783315
56.855 9.73821
56.860 9.192068
56.865 9.273381
56.870 9.538303
56.875 9.894858
56.880 10.618602
56.885 11.333017
56.890 12.1688
56.895 12.493229
56.900 12.539614
56.905 12.4001
56.910 11.942446
56.915 11.821124
56.920 11.35032
56.925 10.804477
56.930 10.565845
56.935 10.560926
56.940 11.066036
56.945 11.170157
56.950 10.624366
56.955 10.779419
56.960 10.754425
56.965 11.100453
56.970 11.031006
56.975 11.18017
56.980 10.993767
56.985 11.086299
56.990 10.883613
56.995 10.527747
57.000 10.14653
57.005 9.848665
57.010 9.943446
57.015 10.423936
57.020 10.355331
57.025 10.270504
57.030 10.159446
57.035 10.172965
57.040 10.17024
57.045 10.008789
57.050 10.639477
57.055 11.349309
57.060 11.521989
57.065 11.16345
57.070 10.996111
57.075 10.746963
57.080 10.567942
57.085 9.520391
57.090 8.712719
57.095 8.949176
57.100 9.44149
57.105 9.417497
57.110 9.674577
57.115 9.719302
57.120 10.242402
57.125 10.339296
57.130 10.492971
57.135 10.626643
57.140 10.618283
57.145 10.164685
57.150 10.12258
57.155 9.995107
57.160 10.036803
57.165 10.007982
57.170 10.142242
57.175 10.250796
57.180 10.594007
57.185 10.852808
57.190 10.967892
57.195 10.99253
57.200 10.526752
57.205 10.625221
57.210 10.783423
57.215 10.741912
57.220 10.077948
57.225 10.436245
57.230 10.388708
57.235 10.439267
57.240 9.744772
57.245 9.63221
57.250 9.766069
57.255 9.761056
57.260 9.328347
57.265 9.113714
57.270 9.301462
57.275 9.67356
57.280 10.290739
57.285 10.374452
57.290 10.600227
57.295 10.629655
57.300 10.814016
57.305 10.776026
57.310 10.728719
57.315 10.428454
57.320 10.337045
57.325 10.365136
57.330 10.48123
57.335 10.255216
57.340 10.298264
57.345 10.510556
57.350 10.618208
57.355 10.839795
57.360 10.597851
57.365 10.656235
57.370 10.840318
57.375 11.277472
57.380 11.846044
57.385 11.709933
57.390 11.42024
57.395 11.462649
57.400 11.661569
57.405 11.756519
57.410 11.147891
57.415 11.007623
57.420 11.079093
57.425 11.288958
57.430 11.371681
57.435 11.232066
57.440 11.213841
57.445 11.103059
57.450 10.745243
57.455 10.180223
57.460 9.501302
57.465 9.510206
57.470 9.572726
57.475 9.70509
57.480 9.700325
57.485 9.770296
57.490 10.102648
57.495 10.999093
57.500 11.063127
57.505 10.654942
57.510 10.693659
57.515 10.999071
57.520 11.263643
57.525 11.25813
57.530 10.900414
57.535 11.056538
57.540 11.3354
57.545 11.002925
57.550 10.456734
57.555 10.319787
57.560 10.550019
57.565 10.898946
57.570 10.674077
57.575 10.607095
57.580 10.883224
57.585 10.830044
57.590 11.183539
57.595 11.249405
57.600 10.887611
57.605 10.782481
57.610 10.873613
57.615 10.849173
57.620 10.51565
57.625 9.743405
57.630 9.67135
57.635 9.684989
57.640 9.831447
57.645 9.404558
57.650 9.795171
57.655 10.230456
57.660 10.588723
57.665 10.245398
57.670 10.282211
57.675 10.252751
57.680 10.564402
57.685 10.184324
57.690 10.428134
57.695 10.595385
57.700 10.521625
57.705 10.52585
57.710 10.564565
57.715 10.367669
57.720 10.674164
57.725 10.156754
57.730 10.057769
57.735 9.939272
57.740 9.794375
57.745 9.777662
57.750 9.664458
57.755 9.399171
57.760 9.368896
57.765 9.196583
57.770 9.581486
57.775 9.857818
57.780 9.721352
57.785 10.216403
57.790 10.476881
57.795 10.771609
57.800 11.287962
57.805 10.848871
57.810 10.853041
57.815 10.512136
57.820 10.280312
57.825 10.250601
57.830 10.205832
57.835 10.214887
57.840 10.709302
57.845 10.763752
57.850 10.741055
57.855 10.369571
57.860 10.557055
57.865 10.578889
57.870 10.291595
57.875 10.279953
57.880 10.593018
57.885 10.646275
57.890 10.704758
57.895 10.478553
57.900 10.34736
57.905 10.270345
57.910 9.85886
57.915 9.536405
57.920 9.779932
57.925 10.248395
57.930 10.643846
57.935 10.779054
57.940 10.936464
57.945 10.9604
57.950 11.391392
57.955 11.182734
57.960 11.037534
57.965 10.735236
57.970 10.251384
57.975 10.109019
57.980 9.737129
57.985 9.469291
57.990 9.573778
57.995 9.55644
58.000 9.974392
58.005 10.505082
58.010 10.899241
58.015 11.426775
58.020 11.653173
58.025 11.774822
58.030 11.618915
58.035 11.294806
58.040 11.012541
58.045 11.002841
58.050 10.787314
58.055 10.533332
58.060 10.630195
58.065 10.962083
58.070 11.002504
58.075 11.518813
58.080 12.12849
58.085 12.100391
58.090 11.999798
58.095 11.533575
58.100 11.093505
58.105 11.147213
58.110 10.316647
58.115 9.823955
58.120 10.075075
58.125 10.0812
58.130 9.935179
58.135 9.655219
58.140 9.374823
58.145 9.790625
58.150 9.721646
58.155 9.559922
58.160 9.736168
58.165 10.052916
58.170 10.375748
58.175 10.34201
58.180 10.72547
58.185 10.991613
58.190 10.932908
58.195 10.967101
58.200 11.078233
58.205 11.053264
58.210 11.531789
58.215 11.283218
58.220 10.790976
58.225 10.670401
58.230 10.90036
58.235 10.81092
58.240 10.955365
58.245 10.816195
58.250 10.727826
58.255 11.115124
58.260 11.147915
58.265 11.218848
58.270 11.252251
58.275 11.213407
58.280 11.114147
58.285 11.32267
58.290 11.531467
58.295 11.628483
58.300 11.649556
58.305 12.257111
58.310 12.299064
58.315 12.265484
58.320 11.947941
58.325 11.642715
58.330 11.954771
58.335 11.642649
58.340 11.31864
58.345 11.424932
58.350 11.49744
58.355 11.581048
58.360 11.50923
58.365 11.407579
58.370 11.386278
58.375 11.41715
58.380 11.415689
58.385 11.764601
58.390 11.759439
58.395 11.809967
58.400 11.509676
58.405 11.566699
58.410 11.513783
58.415 11.394366
58.420 11.042274
58.425 10.894807
58.430 11.438021
58.435 11.608603
58.440 11.593707
58.445 11.48033
58.450 11.062816
58.455 11.22575
58.460 11.336031
58.465 11.440573
58.470 11.644776
58.475 11.678148
58.480 12.149286
58.485 12.418297
58.490 12.639157
58.495 12.909004
58.500 12.386514
58.505 12.273624
58.510 11.933542
58.515 11.969749
58.520 12.603231
58.525 12.846078
58.530 12.420602
58.535 12.363943
58.540 12.039082
58.545 11.99055
58.550 11.81497
58.555 11.41686
58.560 11.045411
58.565 11.400343
58.570 11.787652
58.575 12.081544
58.580 12.250349
58.585 11.904247
58.590 11.30934
58.595 11.408599
58.600 11.049132
58.605 10.512347
58.610 10.723507
58.615 10.850336
58.620 11.296471
58.625 11.873541
58.630 12.333777
58.635 12.60079
58.640 12.731206
58.645 12.174661
58.650 12.026932
58.655 11.682983
58.660 11.938111
58.665 11.569067
58.670 11.292081
58.675 11.603028
58.680 11.863028
58.685 12.10479
58.690 11.925924
58.695 12.122171
58.700 12.264427
58.705 12.32128
58.710 12.297097
58.715 12.026136
58.720 11.920772
58.725 12.044338
58.730 11.434816
58.735 11.385732
58.740 11.317109
58.745 11.459543
58.750 11.421218
58.755 11.543115
58.760 11.899999
58.765 11.709459
58.770 12.088225
58.775 12.379092
58.780 12.471581
58.785 12.74428
58.790 12.744764
58.795 12.677572
58.800 12.604613
58.805 12.278083
58.810 11.932314
58.815 11.840531
58.820 12.178057
58.825 11.988305
58.830 11.898341
58.835 11.7733
58.840 11.749261
58.845 12.015965
58.850 12.40967
58.855 12.471284
58.860 12.396545
58.865 12.197669
58.870 12.778007
58.875 12.612648
58.880 12.410886
58.885 12.152484
58.890 12.049839
58.895 12.362665
58.900 12.008072
58.905 11.262841
58.910 11.340616
58.915 10.923354
58.920 10.456291
58.925 10.14463
58.930 10.13588
58.935 10.732126
58.940 11.317215
58.945 11.995891
58.950 12.611293
58.955 12.31267
58.960 11.772561
58.965 10.882725
58.970 10.601943
58.975 10.624752
58.980 10.467499
58.985 10.055044
58.990 10.114404
58.995 10.665895
59.000 11.343433
59.005 11.837925
59.010 12.460859
59.015 12.545586
59.020 13.029733
59.025 13.235258
59.030 13.207952
59.035 13.366938
59.040 12.995855
59.045 12.689839
59.050 11.74532
59.055 11.930819
59.060 12.484022
59.065 12.716649
59.070 12.439049
59.075 12.104433
59.080 11.974058
59.085 12.265067
59.090 11.965018
59.095 11.298344
59.100 10.892345
59.105 10.661472
59.110 10.463632
59.115 10.556231
59.120 10.267395
59.125 10.488647
59.130 10.748843
59.135 10.804118
59.140 11.138299
59.145 11.06802
59.150 10.884702
59.155 11.076573
59.160 10.616634
59.165 10.591916
59.170 10.557319
59.175 10.627099
59.180 10.89862
59.185 11.148971
59.190 10.698267
59.195 10.737761
59.200 10.418421
59.205 10.345738
59.210 10.160062
59.215 10.15691
59.220 10.238099
59.225 10.824862
59.230 10.962683
59.235 11.195725
59.240 11.235166
59.245 11.445638
59.250 10.851358
59.255 10.711974
59.260 11.058907
59.265 11.323556
59.270 11.357676
59.275 11.462021
59.280 11.306786
59.285 11.693233
59.290 11.342988
59.295 11.003918
59.300 10.634591
59.305 10.966039
59.310 10.929226
59.315 10.311864
59.320 10.324093
59.325 10.307097
59.330 10.142093
59.335 10.590711
59.340 10.179959
59.345 10.336032
59.350 10.672155
59.355 10.735168
59.360 10.799952
59.365 10.93008
59.370 10.955506
59.375 11.510314
59.380 11.666628
59.385 11.895878
59.390 11.841239
59.395 11.980835
59.400 12.336346
59.405 12.266787
59.410 12.398834
59.415 12.460962
59.420 12.43939
59.425 12.258478
59.430 12.184829
59.435 12.157305
59.440 12.184074
59.445 11.61062
59.450 11.181512
59.455 11.170526
59.460 11.596581
59.465 12.041901
59.470 11.622507
59.475 11.538099
59.480 11.445573
59.485 11.87472
59.490 11.648503
59.495 11.462506
59.500 11.002595
59.505 10.982706
59.510 11.236408
59.515 11.18275
59.520 11.020682
59.525 11.201832
59.530 11.5045
59.535 11.483964
59.540 11.370474
59.545 11.115264
59.550 11.124486
59.555 11.073056
59.560 11.289356
59.565 11.118296
59.570 11.059768
59.575 11.006546
59.580 10.728915
59.585 10.788215
59.590 11.030763
59.595 10.611207
59.600 10.322871
59.605 9.876226
59.610 10.314737
59.615 10.37812
59.620 10.453298
59.625 10.432597
59.630 10.488965
59.635 11.2915
59.640 12.051551
59.645 11.954191
59.650 12.079727
59.655 12.232101
59.660 12.000793
59.665 11.724495
59.670 10.994952
59.675 10.353802
59.680 10.267337
59.685 10.410277
59.690 10.239144
59.695 10.567935
59.700 11.342546
59.705 11.85204
59.710 12.193146
59.715 12.467533
59.720 12.434092
59.725 12.341963
59.730 11.738195
59.735 11.234897
59.740 11.148553
59.745 10.930081
59.750 10.989897
59.755 10.619947
59.760 10.736712
59.765 11.314144
59.770 11.210176
59.775 11.145296
59.780 11.995201
59.785 12.102503
59.790 12.113627
59.795 12.354853
59.800 12.253581
59.805 12.402792
59.810 12.238813
59.815 11.691726
59.820 11.592479
59.825 11.689319
59.830 11.724437
59.835 11.679861
59.840 11.588983
59.845 11.385883
59.850 11.373278
59.855 11.640207
59.860 11.737947
59.865 11.645156
59.870 12.058229
59.875 12.235016
59.880 12.363688
59.885 12.126448
59.890 11.802925
59.895 12.063807
59.900 12.150789
59.905 11.732593
59.910 11.94271
59.915 11.760289
59.920 11.816154
59.925 11.975267
59.930 11.673652
59.935 11.649097
59.940 11.829789
59.945 11.856093
59.950 11.798409
59.955 11.838492
59.960 11.625296
59.965 11.912987
59.970 11.71242
59.975 11.997784
59.980 12.228202
59.985 12.017199
59.990 11.861471
59.995 12.253114
60.000 12.0062
60.005 12.030919
60.010 11.2866
60.015 11.083648
60.020 11.386897
60.025 11.533214
60.030 11.340202
60.035 11.451563
60.040 11.608525
60.045 11.890551
60.050 11.760061
60.055 11.269447
60.060 11.175316
60.065 11.199838
60.070 11.108131
60.075 10.640937
60.080 10.443797
60.085 10.956315
60.090 11.629746
60.095 11.61176
60.100 11.485596
60.105 11.381072
60.110 11.701886
60.115 12.183525
60.120 11.988341
60.125 11.856488
60.130 11.811601
60.135 11.757121
60.140 11.989051
60.145 11.642567
60.150 11.21329
60.155 11.043213
60.160 11.092599
60.165 10.992726
60.170 11.304895
60.175 11.089168
60.180 10.979327
60.185 10.406043
60.190 10.06953
60.195 10.270713
60.200 11.088555
60.205 11.148734
60.210 11.479859
60.215 11.572761
60.220 12.081882
60.225 12.246195
60.230 11.735445
60.235 11.047776
60.240 10.891459
60.245 10.797692
60.250 11.072858
60.255 11.278785
60.260 11.207338
60.265 11.749838
60.270 11.80372
60.275 11.841455
60.280 11.899452
60.285 11.744876
60.290 11.499377
60.295 11.661249
60.300 11.127012
60.305 10.962362
60.310 10.796668
60.315 10.476502
60.320 10.087532
60.325 9.665225
60.330 9.671927
60.335 10.003617
60.340 9.994535
60.345 10.115563
60.350 10.556847
60.355 11.253065
60.360 11.084743
60.365 10.948559
60.370 10.922726
60.375 10.885635
60.380 10.777916
60.385 10.405238
60.390 9.948993
60.395 10.306013
60.400 9.974883
60.405 9.814775
60.410 9.658763
60.415 9.727003
60.420 9.891277
60.425 10.312424
60.430 10.148625
60.435 10.480377
60.440 10.614936
60.445 10.713699
60.450 10.809484
60.455 10.603988
60.460 10.363463
60.465 10.644129
60.470 10.849051
60.475 10.884652
60.480 10.832445
60.485 10.805027
60.490 10.822303
60.495 10.60368
60.500 10.314438
60.505 10.563601
60.510 10.638145
60.515 10.84178
60.520 10.954647
60.525 10.895818
60.530 11.468831
60.535 11.989322
60.540 11.251698
60.545 11.046855
60.550 10.641174
60.555 10.872376
60.560 11.17229
60.565 10.821473
60.570 10.884743
60.575 11.272161
60.580 11.344658
60.585 11.551053
60.590 11.201554
60.595 11.011901
60.600 10.91194
60.605 10.096772
60.610 9.551356
60.615 9.555499
60.620 9.347331
60.625 9.286922
60.630 10.001868
60.635 10.311589
60.640 10.369521
60.645 10.662729
60.650 10.617823
60.655 10.422964
60.660 10.261674
60.665 9.324438
60.670 9.590973
60.675 9.781281
60.680 9.565529
60.685 9.538064
60.690 9.737965
60.695 9.801318
60.700 10.026992
60.705 9.989096
60.710 10.10526
60.715 10.11905
60.720 10.355275
60.725 10.365705
60.730 10.279881
60.735 10.462637
60.740 10.585142
60.745 10.948217
60.750 10.869483
60.755 10.58417
60.760 10.992529
60.765 11.105826
60.770 10.759731
60.775 10.088343
60.780 9.472425
60.785 9.810184
60.790 9.709026
60.795 9.517617
60.800 9.817942
60.805 9.901954
60.810 10.123226
60.815 10.597076
60.820 10.814576
60.825 11.109886
60.830 10.967624
60.835 10.754147
60.840 10.996924
60.845 11.305719
60.850 11.384369
60.855 10.876201
60.860 10.645538
60.865 10.411676
60.870 9.91229
60.875 9.666346
60.880 9.687473
60.885 9.543441
60.890 9.704564
60.895 10.055891
60.900 10.508418
60.905 10.852765
60.910 10.89702
60.915 10.352028
60.920 10.427276
60.925 10.411704
60.930 9.808822
60.935 9.518918
60.940 9.196864
60.945 9.529755
60.950 9.78825
60.955 9.59656
60.960 9.536959
60.965 10.210178
60.970 10.688907
60.975 10.915055
60.980 10.794426
60.985 11.046229
60.990 11.339693
60.995 11.46209
61.000 10.996222
61.005 10.755403
61.010 10.597883
61.015 10.549499
61.020 10.45778
61.025 10.332882
61.030 10.175436
61.035 10.044609
61.040 9.55986
61.045 9.556287
61.050 9.479036
61.055 9.322562
61.060 9.521782
61.065 9.723454
61.070 10.012229
61.075 10.696132
61.080 10.695212
61.085 10.716052
61.090 10.704619
61.095 10.284804
61.100 10.420011
61.105 10.398696
61.110 10.336254
61.115 10.361596
61.120 10.46796
61.125 10.796289
61.130 11.139529
61.135 10.588172
61.140 10.611534
61.145 10.590267
61.150 10.672307
61.155 10.347675
61.160 10.50656
61.165 10.337374
61.170 10.621164
61.175 10.567635
61.180 10.596419
61.185 10.35296
61.190 10.400306
61.195 10.520941
61.200 11.016115
61.205 11.489411
61.210 11.473366
61.215 11.41544
61.220 11.617922
61.225 11.668336
61.230 11.80311
61.235 11.4368
61.240 11.007146
61.245 11.342884
61.250 11.635347
61.255 12.093976
61.260 11.95533
61.265 11.600368
61.270 12.220368
61.275 12.240188
61.280 12.084052
61.285 11.766629
61.290 11.595748
61.295 11.831861
61.300 12.189016
61.305 11.373217
61.310 11.446343
61.315 11.788073
61.320 12.094972
61.325 11.92881
61.330 11.41007
61.335 10.78847
61.340 10.965233
61.345 10.6159
61.350 10.127054
61.355 9.915828
61.360 10.179843
61.365 10.508126
61.370 10.67929
61.375 11.127975
61.380 11.283584
61.385 11.022121
61.390 10.948844
61.395 10.940962
61.400 10.749404
61.405 10.525802
61.410 10.65511
61.415 10.86324
61.420 10.918052
61.425 10.953363
61.430 11.29318
61.435 11.685273
61.440 11.582451
61.445 11.14773
61.450 11.143161
61.455 11.052303
61.460 10.546325
61.465 9.974876
61.470 9.920787
61.475 10.14485
61.480 10.842238
61.485 11.09792
61.490 11.44415
61.495 11.558893
61.500 11.544911
61.505 11.38258
61.510 11.520889
61.515 10.863691
61.520 10.423503
61.525 10.265037
61.530 10.936299
61.535 11.153666
61.540 11.493824
61.545 11.48568
61.550 11.099022
61.555 11.130733
61.560 11.114854
61.565 11.29751
61.570 10.936757
61.575 10.601152
61.580 11.045912
61.585 11.399203
61.590 11.458743
61.595 11.451732
61.600 11.005463
61.605 11.338139
61.610 11.069656
61.615 10.652902
61.620 10.56472
61.625 10.580007
61.630 10.897697
61.635 10.727489
61.640 10.804971
61.645 10.916148
61.650 10.702722
61.655 10.68688
61.660 10.646579
61.665 10.657948
61.670 10.810616
61.675 10.792964
61.680 10.748863
61.685 10.729188
61.690 10.671058
61.695 10.649302
61.700 10.524934
61.705 10.390331
61.710 10.39854
61.715 10.449329
61.720 10.329616
61.725 10.504218
61.730 10.216703
61.735 10.348191
61.740 10.46303
61.745 10.258413
61.750 9.984221
61.755 9.729754
61.760 10.132266
61.765 10.080658
61.770 9.931944
61.775 9.737396
61.780 9.928809
61.785 10.458836
61.790 10.86763
61.795 11.100193
61.800 11.678328
61.805 11.780392
61.810 11.921952
61.815 11.669492
61.820 11.728232
61.825 11.802102
61.830 11.320421
61.835 10.836101
61.840 10.837393
61.845 11.073584
61.850 11.041368
61.855 11.282822
61.860 11.568269
61.865 11.657197
61.870 11.835301
61.875 12.031646
61.880 12.360709
61.885 12.499072
61.890 12.356561
61.895 12.37429
61.900 12.611296
61.905 13.051086
61.910 12.993857
61.915 12.627377
61.920 12.865952
61.925 12.7173
61.930 12.684369
61.935 12.699432
61.940 12.343574
61.945 12.350963
61.950 12.309925
61.955 11.880889
61.960 11.87114
61.965 11.542374
61.970 11.264677
61.975 11.105148
61.980 10.965566
61.985 10.931001
61.990 10.830705
61.995 10.386298
62.000 10.154839
62.005 10.334604
62.010 10.359831
62.015 10.390169
62.020 10.547775
62.025 11.053758
62.030 11.273692
62.035 11.462352
62.040 11.09141
62.045 10.715832
62.050 11.014166
62.055 11.375158
62.060 10.885404
62.065 10.875291
62.070 11.299113
62.075 11.301061
62.080 11.901032
62.085 11.346667
62.090 10.929729
62.095 11.695518
62.100 12.002728
62.105 11.633898
62.110 11.765822
62.115 11.409883
62.120 11.65378
62.125 11.629169
62.130 10.894523
62.135 10.744503
62.140 11.062023
62.145 11.022098
62.150 11.257334
62.155 11.321872
62.160 11.781939
62.165 12.227488
62.170 12.187725
62.175 12.137326
62.180 12.105197
62.185 11.893039
62.190 11.676911
62.195 11.101959
62.200 10.772971
62.205 10.645621
62.210 10.958445
62.215 11.127983
62.220 11.224036
62.225 11.505481
62.230 11.5575
62.235 11.542189
62.240 11.394757
62.245 11.121506
62.250 11.127719
62.255 11.767842
62.260 11.667592
62.265 11.924861
62.270 11.876082
62.275 11.865034
62.280 11.648688
62.285 11.353903
62.290 10.90012
62.295 10.952848
62.300 11.086742
62.305 11.015631
62.310 11.163845
62.315 11.378873
62.320 11.009744
62.325 10.491266
62.330 10.08143
62.335 10.215941
62.340 10.677965
62.345 10.890387
62.350 11.012638
62.355 11.546103
62.360 12.008101
62.365 12.149401
62.370 11.795918
62.375 11.431638
62.380 10.572158
62.385 10.499249
62.390 10.237015
62.395 10.303138
62.400 10.468811
62.405 10.33909
62.410 10.528706
62.415 11.240742
62.420 11.486781
62.425 11.602255
62.430 11.73895
62.435 11.822955
62.440 11.929703
62.445 11.687958
62.450 11.7587
62.455 11.585122
62.460 11.354171
62.465 11.341671
62.470 10.993994
62.475 11.02332
62.480 11.011231
62.485 10.697217
62.490 11.011788
62.495 10.74273
62.500 10.579035
62.505 10.601693
62.510 10.493872
62.515 10.402477
62.520 10.169767
62.525 9.866735
62.530 10.360913
62.535 10.635707
62.540 10.843082
62.545 10.654253
62.550 11.104116
62.555 11.316678
62.560 11.547853
62.565 10.893363
62.570 10.733826
62.575 10.562222
62.580 11.198363
62.585 11.332375
62.590 11.780508
62.595 11.786238
62.600 12.374281
62.605 12.189435
62.610 12.178875
62.615 12.054961
62.620 12.004004
62.625 11.57887
62.630 11.940841
62.635 11.935487
62.640 12.145841
62.645 12.566404
62.650 12.743634
62.655 12.535789
62.660 12.804726
62.665 12.515658
62.670 12.4646
62.675 13.033118
62.680 12.975428
62.685 12.340488
62.690 12.620249
62.695 12.496027
62.700 12.217167
62.705 11.893979
62.710 11.289848
62.715 11.209396
62.720 11.478824
62.725 11.442964
62.730 11.921993
62.735 12.02653
62.740 12.327274
62.745 12.62347
62.750 12.5462
62.755 12.437285
62.760 12.23893
62.765 11.808914
62.770 11.940491
62.775 11.973127
62.780 11.982329
62.785 12.445521
62.790 12.724617
62.795 12.822701
62.800 13.037746
62.805 13.184788
62.810 12.998519
62.815 12.803598
62.820 12.632431
62.825 12.921824
62.830 13.275763
62.835 13.261809
62.840 13.320621
62.845 13.36473
62.850 13.53311
62.855 13.462412
62.860 12.738227
62.865 12.367016
62.870 12.04249
62.875 11.952005
62.880 11.9591
62.885 11.820317
62.890 11.727239
62.895 11.774452
62.900 11.867967
62.905 11.674154
62.910 11.501956
62.915 11.720143
62.920 11.801992
62.925 12.108871
62.930 12.16076
62.935 12.019526
62.940 12.208299
62.945 12.157035
62.950 11.85497
62.955 11.767031
62.960 11.746829
62.965 11.755005
62.970 12.061459
62.975 12.603362
62.980 12.72971
62.985 12.813489
62.990 12.423297
62.995 12.359237
63.000 12.709004
63.005 12.402683
63.010 12.217261
63.015 12.257537
63.020 11.8685
63.025 12.157347
63.030 12.326177
63.035 12.162281
63.040 12.492066
63.045 12.476676
63.050 12.69134
63.055 12.632709
63.060 12.146686
63.065 12.374169
63.070 12.184851
63.075 11.451777
63.080 11.456909
63.085 11.328744
63.090 11.462848
63.095 11.510867
63.100 10.739044
63.105 10.738264
63.110 10.93411
63.115 10.783749
63.120 10.847593
63.125 11.220846
63.130 11.628325
63.135 12.024703
63.140 11.710956
63.145 11.290489
63.150 11.052823
63.155 10.602544
63.160 10.88884
63.165 10.789459
63.170 10.70233
63.175 11.295811
63.180 11.695837
63.185 11.963057
63.190 12.467514
63.195 12.152428
63.200 12.208148
63.205 11.823663
63.210 11.560259
63.215 11.321643
63.220 11.090233
63.225 10.502497
63.230 10.799625
63.235 10.74528
63.240 10.693095
63.245 10.8716
63.250 10.982127
63.255 11.389784
63.260 11.343123
63.265 10.896017
63.270 11.351964
63.275 11.870259
63.280 12.273329
63.285 12.690585
63.290 12.789589
63.295 13.693918
63.300 13.92918
63.305 13.617982
63.310 13.885895
63.315 14.267312
63.320 14.084832
63.325 13.458816
63.330 12.911575
63.335 13.33365
63.340 13.088384
63.345 12.660275
63.350 12.092068
63.355 11.756013
63.360 12.105577
63.365 11.995346
63.370 11.988694
63.375 11.964894
63.380 11.874555
63.385 11.608173
63.390 11.497155
63.395 11.343078
63.400 10.739807
63.405 10.224173
63.410 10.139482
63.415 9.920725
63.420 9.977489
63.425 10.357907
63.430 10.490727
63.435 11.223865
63.440 11.611113
63.445 11.851437
63.450 12.281789
63.455 12.630076
63.460 12.559504
63.465 12.09394
63.470 11.819968
63.475 12.013146
63.480 12.0832
63.485 12.063013
63.490 11.535251
63.495 11.12685
63.500 11.965805
63.505 12.03352
63.510 11.545402
63.515 11.335784
63.520 10.863532
63.525 10.639737
63.530 11.194059
63.535 10.694661
63.540 10.649394
63.545 10.679217
63.550 10.635393
63.555 10.679297
63.560 10.803573
63.565 9.99689
63.570 9.420669
63.575 9.51322
63.580 9.710984
63.585 9.813351
63.590 9.974139
63.595 10.405741
63.600 11.072337
63.605 11.487315
63.610 11.332073
63.615 11.51937
63.620 11.68176
63.625 11.840529
63.630 11.944787
63.635 11.924003
63.640 12.20435
63.645 12.541888
63.650 12.513179
63.655 12.505612
63.660 12.629459
63.665 12.601243
63.670 12.439192
63.675 11.822851
63.680 11.448378
63.685 11.577428
63.690 11.48242
63.695 11.219095
63.700 11.027401
63.705 10.989627
63.710 11.053609
63.715 11.13911
63.720 10.249826
63.725 10.001946
63.730 10.159018
63.735 10.284957
63.740 10.343942
63.745 10.609007
63.750 10.219909
63.755 10.386314
63.760 10.226018
63.765 10.097023
63.770 10.051367
63.775 10.380052
63.780 10.40028
63.785 10.736317
63.790 10.877032
63.795 11.152686
63.800 11.116945
63.805 11.0458
63.810 10.994444
63.815 11.331208
63.820 11.281605
63.825 11.3843
63.830 11.778651
63.835 11.943465
63.840 11.864884
63.845 11.938912
63.850 11.87589
63.855 12.317678
63.860 12.660297
63.865 12.632995
63.870 12.56805
63.875 12.399445
63.880 12.058103
63.885 11.670403
63.890 11.155948
63.895 10.901074
63.900 10.584103
63.905 10.846514
63.910 11.400064
63.915 11.108789
63.920 11.049706
63.925 11.318959
63.930 11.491632
63.935 11.842889
63.940 11.88728
63.945 11.918971
63.950 12.465992
63.955 12.741921
63.960 12.819634
63.965 12.807257
63.970 12.5319
63.975 12.376948
63.980 12.550829
63.985 13.156037
63.990 13.046418
63.995 13.141892
64.000 13.641813
64.005 14.127571
64.010 14.414643
64.015 14.231903
64.020 14.194777
64.025 14.439367
64.030 14.179353
64.035 13.474281
64.040 13.373095
64.045 13.226922
64.050 13.380316
64.055 12.703718
64.060 11.978166
64.065 12.395335
64.070 12.741199
64.075 12.89913
64.080 12.743696
64.085 12.553854
64.090 12.640675
64.095 13.013206
64.100 13.378192
64.105 12.676116
64.110 12.346056
64.115 12.084201
64.120 11.993523
64.125 11.745378
64.130 11.401993
64.135 11.01645
64.140 11.42907
64.145 11.213796
64.150 11.477656
64.155 11.378869
64.160 11.829887
64.165 11.503188
64.170 11.323204
64.175 11.327232
64.180 11.538397
64.185 11.268549
64.190 11.905663
64.195 11.997362
64.200 12.101503
64.205 12.107603
64.210 12.038747
64.215 12.03194
64.220 12.088921
64.225 11.209508
64.230 11.391354
64.235 11.563704
64.240 11.198689
64.245 10.991706
64.250 11.010303
64.255 11.239352
64.260 11.421705
64.265 10.980475
64.270 10.881855
64.275 11.445314
64.280 11.846478
64.285 12.036665
64.290 12.146063
64.295 11.987608
64.300 12.80898
64.305 13.055641
64.310 12.97843
64.315 12.770103
64.320 12.746378
64.325 12.47163
64.330 12.471367
64.335 11.928564
64.340 11.665038
64.345 11.599977
64.350 12.227826
64.355 11.809072
64.360 11.835503
64.365 12.037872
64.370 11.988481
64.375 11.344032
64.380 11.003626
64.385 10.841298
64.390 11.104983
64.395 11.550684
64.400 11.648694
64.405 12.211891
64.410 13.065399
64.415 13.214073
64.420 12.713325
64.425 12.679101
64.430 12.724549
64.435 12.793346
64.440 12.663744
64.445 12.526446
64.450 12.830278
64.455 13.359652
64.460 13.322398
64.465 13.356625
64.470 13.406894
64.475 13.186537
64.480 13.187856
64.485 13.430868
64.490 13.505156
64.495 13.910434
64.500 13.640012
64.505 13.826295
64.510 14.058011
64.515 13.894488
64.520 13.376253
64.525 13.14051
64.530 13.179081
64.535 13.653184
64.540 13.445488
64.545 13.561292
64.550 13.62774
64.555 13.96716
64.560 13.851854
64.565 13.695815
64.570 13.676068
64.575 13.699956
64.580 13.377374
64.585 13.235048
64.590 12.753687
64.595 12.826618
64.600 12.915527
64.605 12.548196
64.610 12.479168
64.615 12.516991
64.620 13.002952
64.625 13.069609
64.630 13.237967
64.635 13.345509
64.640 13.292033
64.645 13.152653
64.650 13.552732
64.655 13.83245
64.660 13.872756
64.665 13.425002
64.670 13.17916
64.675 12.703866
64.680 12.918602
64.685 12.800978
64.690 12.161218
64.695 12.345331
64.700 12.620337
64.705 12.611527
64.710 13.144085
64.715 13.59285
64.720 13.261571
64.725 13.589067
64.730 13.783561
64.735 13.909641
64.740 14.270998
64.745 14.434065
64.750 14.210603
64.755 14.061934
64.760 14.151454
64.765 14.103002
64.770 14.20919
64.775 14.254169
64.780 14.330256
64.785 14.600055
64.790 15.024384
64.795 14.775308
64.800 14.592833
64.805 14.362057
64.810 14.249832
64.815 13.842581
64.820 13.940495
64.825 13.817577
64.830 13.889537
64.835 14.254017
64.840 14.683208
64.845 14.85568
64.850 15.259328
64.855 15.11304
64.860 15.380051
64.865 15.547518
64.870 15.283811
64.875 14.599801
64.880 14.685236
64.885 14.948434
64.890 15.553113
64.895 16.213104
64.900 16.668598
64.905 17.186338
64.910 17.70145
64.915 18.070402
64.920 17.748713
64.925 17.083755
64.930 16.821108
64.935 16.922216
64.940 17.272585
64.945 17.176296
64.950 16.567659
64.955 16.672983
64.960 16.586643
64.965 16.566385
64.970 16.379147
64.975 15.83065
64.980 16.34903
64.985 17.092289
64.990 17.49337
64.995 18.074522
65.000 18.39971
65.005 18.288473
65.010 18.839991
65.015 17.888456
65.020 17.866236
65.025 18.760118
65.030 18.37265
65.035 18.102612
65.040 18.203314
65.045 17.794744
65.050 18.483685
65.055 17.949114
65.060 17.381094
65.065 17.890339
65.070 17.737329
65.075 17.673717
65.080 18.150576
65.085 18.338387
65.090 18.592499
65.095 18.159864
65.100 17.959049
65.105 17.846556
65.110 17.721659
65.115 17.351887
65.120 16.792942
65.125 16.840631
65.130 17.050798
65.135 16.603258
65.140 16.765066
65.145 16.726355
65.150 16.72983
65.155 16.807142
65.160 16.62863
65.165 16.451216
65.170 16.85269
65.175 17.156199
65.180 16.961685
65.185 17.037741
65.190 16.959196
65.195 17.325945
65.200 17.07362
65.205 17.060791
65.210 16.350882
65.215 16.188766
65.220 16.394712
65.225 16.552692
65.230 15.449875
65.235 15.389363
65.240 15.252026
65.245 15.375899
65.250 15.173018
65.255 14.392631
65.260 15.119995
65.265 15.358171
65.270 15.520279
65.275 15.150353
65.280 15.501989
65.285 15.741747
65.290 15.596996
65.295 14.974123
65.300 15.039792
65.305 14.7869
65.310 15.33429
65.315 14.895612
65.320 14.7137
65.325 14.581086
65.330 14.473947
65.335 14.182408
65.340 13.614927
65.345 12.821166
65.350 12.931532
65.355 13.152811
65.360 13.1387
65.365 12.897277
65.370 12.816642
65.375 13.267402
65.380 13.664857
65.385 13.751217
65.390 13.548555
65.395 13.490321
65.400 13.316588
65.405 13.354326
65.410 13.352031
65.415 13.394749
65.420 13.339
65.425 13.230739
65.430 13.284058
65.435 13.461731
65.440 13.579049
65.445 13.577392
65.450 13.810742
65.455 14.133674
65.460 14.434379
65.465 14.292553
65.470 14.284551
65.475 14.396333
65.480 14.175232
65.485 14.308484
65.490 13.662693
65.495 13.508389
65.500 13.403227
65.505 13.069306
65.510 13.053412
65.515 12.715773
65.520 11.854044
65.525 11.80637
65.530 11.582822
65.535 11.903914
65.540 12.139684
65.545 11.984209
65.550 11.980953
65.555 12.303675
65.560 12.520608
65.565 12.746573
65.570 12.731812
65.575 12.930875
65.580 13.120757
65.585 13.012064
65.590 12.936087
65.595 13.083034
65.600 13.332906
65.605 12.989533
65.610 12.807626
65.615 13.226762
65.620 13.596414
65.625 14.091021
65.630 14.510756
65.635 14.51773
65.640 14.503976
65.645 14.560516
65.650 13.957519
65.655 13.773583
65.660 13.274172
65.665 13.245712
65.670 13.571995
65.675 14.020653
65.680 14.379662
65.685 14.870128
65.690 15.263786
65.695 15.621031
65.700 15.381254
65.705 14.907688
65.710 14.975792
65.715 14.745187
65.720 14.437243
65.725 14.390352
65.730 14.298903
65.735 14.500358
65.740 14.560076
65.745 14.250707
65.750 13.898918
65.755 13.962777
65.760 13.959828
65.765 13.94608
65.770 14.114868
65.775 14.365314
65.780 14.868654
65.785 15.256521
65.790 15.625624
65.795 15.921216
65.800 16.42701
65.805 16.475693
65.810 16.408117
65.815 16.11994
65.820 16.098169
65.825 15.497989
65.830 15.593309
65.835 14.80542
65.840 14.590699
65.845 14.648448
65.850 14.807004
65.855 15.134549
65.860 15.237872
65.865 15.001975
65.870 15.115955
65.875 15.434208
65.880 15.457005
65.885 15.260023
65.890 14.899455
65.895 15.424031
65.900 15.333314
65.905 15.56479
65.910 15.268442
65.915 15.40594
65.920 15.762191
65.925 15.635643
65.930 15.427608
65.935 15.431155
65.940 15.369157
65.945 15.213556
65.950 14.877339
65.955 14.478607
65.960 14.525247
65.965 14.229839
65.970 14.578638
65.975 14.582594
65.980 14.829853
65.985 15.225397
65.990 15.373578
65.995 15.607328
66.000 15.736262
66.005 15.190655
66.010 15.449696
66.015 15.555755
66.020 15.526139
66.025 15.647833
66.030 15.597911
66.035 16.096947
66.040 16.790592
66.045 16.51335
66.050 15.883461
66.055 15.681429
66.060 15.956355
66.065 15.902058
66.070 15.476723
66.075 15.0222
66.080 15.401538
66.085 15.697123
66.090 15.921947
66.095 15.954938
66.100 15.734121
66.105 15.797633
66.110 16.565634
66.115 16.245636
66.120 16.256971
66.125 15.875016
66.130 16.176655
66.135 16.664534
66.140 16.410761
66.145 15.843095
66.150 15.716072
66.155 15.585796
66.160 16.095507
66.165 15.929371
66.170 15.841132
66.175 15.391182
66.180 15.686087
66.185 15.841348
66.190 15.777052
66.195 15.048263
66.200 14.150392
66.205 13.627061
66.210 14.152085
66.215 13.755408
66.220 14.015434
66.225 14.711748
66.230 15.543626
66.235 15.986962
66.240 16.112135
66.245 16.012115
66.250 16.197397
66.255 16.375952
66.260 16.131618
66.265 15.518706
66.270 15.721409
66.275 15.852712
66.280 16.067276
66.285 16.164318
66.290 16.054712
66.295 16.603725
66.300 16.858768
66.305 17.000866
66.310 17.360432
66.315 17.432205
66.320 17.42938
66.325 16.570518
66.330 15.771781
66.335 16.055895
66.340 16.119932
66.345 16.259361
66.350 16.224068
66.355 15.998884
66.360 16.548098
66.365 16.83152
66.370 16.490244
66.375 15.403552
66.380 14.586015
66.385 14.412901
66.390 14.263146
66.395 13.971946
66.400 13.970814
66.405 14.355901
66.410 15.50755
66.415 15.76091
66.420 15.659235
66.425 15.693296
66.430 15.685754
66.435 15.304592
66.440 14.989329
66.445 14.861391
66.450 14.924293
66.455 14.432608
66.460 14.357966
66.465 14.26427
66.470 14.298782
66.475 14.163426
66.480 13.945582
66.485 13.81415
66.490 13.914658
66.495 13.572482
66.500 13.553129
66.505 13.338957
66.510 13.171779
66.515 12.526998
66.520 12.23777
66.525 12.309571
66.530 12.632745
66.535 12.227058
66.540 12.185457
66.545 11.977742
66.550 12.355674
66.555 12.798602
66.560 12.910881
66.565 12.46873
66.570 12.768088
66.575 12.926545
66.580 13.060574
66.585 12.376694
66.590 11.949909
66.595 11.836737
66.600 11.93024
66.605 11.964556
66.610 11.95144
66.615 12.079476
66.620 13.241792
66.625 13.782321
66.630 13.609802
66.635 13.736978
66.640 13.783616
66.645 13.844512
66.650 13.509579
66.655 12.743176
66.660 12.223703
66.665 12.504498
66.670 12.538115
66.675 12.542048
66.680 12.639132
66.685 12.766182
66.690 13.09439
66.695 13.452878
66.700 13.625495
66.705 13.497165
66.710 13.143241
66.715 12.781948
66.720 12.393464
66.725 12.143473
66.730 11.505103
66.735 11.170133
66.740 11.288862
66.745 11.577914
66.750 11.985188
66.755 12.228964
66.760 12.007668
66.765 11.808372
66.770 11.563465
66.775 11.529534
66.780 11.457245
66.785 11.425478
66.790 10.958785
66.795 10.917901
66.800 11.097265
66.805 11.397337
66.810 11.534612
66.815 11.373735
66.820 11.096726
66.825 10.740026
66.830 10.750711
66.835 10.655143
66.840 10.605665
66.845 10.518042
66.850 10.713159
66.855 11.134467
66.860 12.483408
66.865 12.341511
66.870 11.832093
66.875 11.61442
66.880 11.354622
66.885 11.226075
66.890 11.062096
66.895 11.094532
66.900 11.330809
66.905 11.539118
66.910 11.664176
66.915 11.628269
66.920 11.639408
66.925 11.651597
66.930 10.795259
66.935 11.025648
66.940 11.191733
66.945 11.190042
66.950 11.561508
66.955 11.152073
66.960 11.061075
66.965 11.066926
66.970 10.788923
66.975 10.7257
66.980 10.628044
66.985 10.19683
66.990 10.17296
66.995 9.877468
67.000 10.242457
67.005 10.357856
67.010 10.262583
67.015 10.15119
67.020 10.135319
67.025 10.079406
67.030 10.359072
67.035 10.951224
67.040 11.28096
67.045 11.370941
67.050 11.609908
67.055 11.908884
67.060 12.455163
67.065 12.397036
67.070 11.8366
67.075 11.948097
67.080 12.02088
67.085 12.04353
67.090 12.031891
67.095 11.753444
67.100 11.898412
67.105 12.129175
67.110 12.264284
67.115 12.375892
67.120 12.645459
67.125 12.644465
67.130 12.909346
67.135 13.067296
67.140 12.651852
67.145 12.625443
67.150 12.452125
67.155 11.889703
67.160 11.622342
67.165 11.567821
67.170 11.483911
67.175 11.507352
67.180 11.773206
67.185 12.003887
67.190 12.326788
67.195 12.289492
67.200 11.75073
67.205 11.870355
67.210 11.676944
67.215 11.456515
67.220 11.234798
67.225 11.675901
67.230 11.726254
67.235 11.743012
67.240 11.485086
67.245 12.033957
67.250 11.670388
67.255 11.989368
67.260 11.957899
67.265 12.35435
67.270 12.709626
67.275 12.400695
67.280 12.311403
67.285 12.822616
67.290 12.924254
67.295 12.790677
67.300 13.008852
67.305 12.832377
67.310 13.074689
67.315 12.50482
67.320 11.981619
67.325 11.460443
67.330 11.06598
67.335 10.496545
67.340 10.414587
67.345 10.372416
67.350 10.266516
67.355 10.320138
67.360 10.26939
67.365 10.543254
67.370 10.837538
67.375 11.366029
67.380 11.809299
67.385 11.912166
67.390 12.186262
67.395 12.176027
67.400 11.811631
67.405 11.732643
67.410 10.916973
67.415 10.625106
67.420 10.607964
67.425 10.646589
67.430 10.4747
67.435 10.433961
67.440 10.320095
67.445 10.491779
67.450 10.459673
67.455 10.662794
67.460 10.21637
67.465 10.573837
67.470 11.003787
67.475 11.260783
67.480 11.39014
67.485 11.434246
67.490 11.290973
67.495 11.622148
67.500 11.419386
67.505 10.930219
67.510 10.714803
67.515 10.961027
67.520 11.382006
67.525 11.92227
67.530 12.238708
67.535 11.963726
67.540 12.313613
67.545 12.458676
67.550 12.09625
67.555 11.954986
67.560 11.510915
67.565 11.471169
67.570 11.854323
67.575 11.588298
67.580 11.317964
67.585 11.149121
67.590 11.17131
67.595 11.246391
67.600 11.172496
67.605 10.914037
67.610 11.0816
67.615 11.772061
67.620 12.329953
67.625 12.57068
67.630 13.065057
67.635 13.085437
67.640 13.041442
67.645 13.095023
67.650 12.762435
67.655 12.285909
67.660 11.720323
67.665 11.469934
67.670 11.907183
67.675 12.406301
67.680 12.675755
67.685 12.806252
67.690 12.864383
67.695 13.234985
67.700 13.092647
67.705 12.737445
67.710 12.658104
67.715 12.178623
67.720 11.884506
67.725 11.819387
67.730 11.554849
67.735 11.478704
67.740 11.413801
67.745 11.355034
67.750 11.529486
67.755 11.74912
67.760 12.032569
67.765 11.947058
67.770 11.913441
67.775 12.120359
67.780 12.229723
67.785 12.080752
67.790 12.083722
67.795 11.860883
67.800 11.66764
67.805 11.248205
67.810 10.795454
67.815 11.024674
67.820 11.255774
67.825 10.759462
67.830 10.651554
67.835 11.402693
67.840 11.945069
67.845 12.266265
67.850 12.092739
67.855 12.466845
67.860 13.386197
67.865 13.960338
67.870 13.800926
67.875 13.338627
67.880 13.520882
67.885 13.816102
67.890 13.227178
67.895 12.854528
67.900 12.737721
67.905 12.666952
67.910 12.937961
67.915 12.745545
67.920 12.492383
67.925 12.590645
67.930 12.943148
67.935 13.23918
67.940 13.686644
67.945 13.50684
67.950 13.130269
67.955 13.226886
67.960 13.0321
67.965 12.488317
67.970 12.11621
67.975 11.557688
67.980 11.165955
67.985 11.189951
67.990 11.442695
67.995 11.690627
68.000 11.477293
68.005 11.044676
68.010 11.241528
68.015 11.619217
68.020 11.72509
68.025 11.432756
68.030 11.419069
68.035 11.907814
68.040 12.024611
68.045 12.030508
68.050 11.875327
68.055 11.705117
68.060 11.605164
68.065 11.787105
68.070 11.651986
68.075 12.07684
68.080 12.538253
68.085 12.719113
68.090 12.842222
68.095 13.001202
68.100 13.048029
68.105 12.968519
68.110 12.993669
68.115 12.719068
68.120 12.9211
68.125 13.164298
68.130 13.395061
68.135 13.548708
68.140 14.0027
68.145 14.046047
68.150 14.00069
68.155 13.558073
68.160 12.912835
68.165 12.968465
68.170 12.688793
68.175 11.748927
68.180 11.601158
68.185 11.552817
68.190 11.619792
68.195 11.872464
68.200 11.844084
68.205 12.247164
68.210 12.715246
68.215 12.266497
68.220 12.436419
68.225 12.593194
68.230 12.741289
68.235 12.343734
68.240 12.059237
68.245 11.93071
68.250 12.048166
68.255 12.057643
68.260 11.905154
68.265 11.689014
68.270 11.333045
68.275 11.294894
68.280 10.991381
68.285 10.998124
68.290 11.106854
68.295 11.17468
68.300 11.438361
68.305 11.836032
68.310 12.034489
68.315 12.277344
68.320 12.361114
68.325 12.222501
68.330 12.114761
68.335 11.874868
68.340 11.948553
68.345 12.021693
68.350 11.344152
68.355 11.443629
68.360 11.318409
68.365 11.086924
68.370 11.026884
68.375 10.749785
68.380 10.864882
68.385 11.465282
68.390 11.40218
68.395 11.662126
68.400 11.803504
68.405 11.742302
68.410 11.628142
68.415 11.689492
68.420 11.776454
68.425 11.815626
68.430 11.563435
68.435 11.975048
68.440 11.823126
68.445 11.776828
68.450 11.832851
68.455 11.724023
68.460 11.642685
68.465 11.720385
68.470 11.365937
68.475 11.879997
68.480 12.417431
68.485 12.789069
68.490 13.186743
68.495 13.190982
68.500 13.277488
68.505 13.193745
68.510 12.587402
68.515 11.987222
68.520 11.08955
68.525 10.586727
68.530 10.355053
68.535 10.157976
68.540 9.924514
68.545 10.544434
68.550 10.822331
68.555 11.672092
68.560 12.292806
68.565 12.574909
68.570 12.744468
68.575 12.912119
68.580 12.70747
68.585 12.44733
68.590 11.764523
68.595 11.327911
68.600 11.174212
68.605 11.246582
68.610 11.342253
68.615 11.673323
68.620 11.779472
68.625 12.040079
68.630 11.886355
68.635 11.602058
68.640 11.344934
68.645 11.420974
68.650 11.658648
68.655 11.913089
68.660 11.744781
68.665 11.646805
68.670 11.794338
68.675 11.974061
68.680 11.665499
68.685 11.677397
68.690 11.450482
68.695 11.862633
68.700 12.179143
68.705 12.165206
68.710 12.078543
68.715 11.679107
68.720 11.722593
68.725 12.424331
68.730 12.595058
68.735 12.738695
68.740 13.216462
68.745 13.27855
68.750 13.125813
68.755 12.460854
68.760 11.774736
68.765 11.332131
68.770 11.345402
68.775 11.576348
68.780 11.951463
68.785 12.568307
68.790 12.8521
68.795 12.914491
68.800 13.311888
68.805 13.062495
68.810 12.795753
68.815 12.882406
68.820 12.76536
68.825 12.721522
68.830 13.124359
68.835 13.371296
68.840 13.258133
68.845 12.877112
68.850 12.651078
68.855 12.509551
68.860 12.718072
68.865 12.40697
68.870 12.396761
68.875 12.606214
68.880 12.703474
68.885 12.719679
68.890 12.909508
68.895 12.961133
68.900 13.09689
68.905 12.814492
68.910 12.446279
68.915 12.391526
68.920 12.505095
68.925 12.439631
68.930 12.772236
68.935 12.962008
68.940 13.122365
68.945 13.240047
68.950 13.525702
68.955 13.487062
68.960 13.239243
68.965 12.808824
68.970 12.391861
68.975 12.446728
68.980 12.820137
68.985 12.732224
68.990 12.278192
68.995 12.522346
69.000 13.301761
69.005 13.837137
69.010 13.979163
69.015 13.93598
69.020 13.875539
69.025 14.396307
69.030 14.351954
69.035 13.824852
69.040 13.817026
69.045 14.269201
69.050 14.273782
69.055 14.318687
69.060 14.05964
69.065 13.685613
69.070 13.620701
69.075 13.309702
69.080 12.888154
69.085 12.941092
69.090 13.479225
69.095 13.631231
69.100 13.862309
69.105 14.165577
69.110 14.188635
69.115 14.327646
69.120 14.332962
69.125 14.064797
69.130 13.906503
69.135 13.656698
69.140 12.771257
69.145 12.404436
69.150 11.994418
69.155 11.766439
69.160 11.663044
69.165 11.914115
69.170 12.373373
69.175 12.824636
69.180 13.428925
69.185 13.801595
69.190 14.170958
69.195 14.340583
69.200 14.38021
69.205 14.292815
69.210 14.348231
69.215 14.311104
69.220 14.128005
69.225 14.367256
69.230 14.163495
69.235 14.322728
69.240 14.785654
69.245 14.524419
69.250 14.446317
69.255 14.434957
69.260 14.161305
69.265 14.027979
69.270 13.687328
69.275 13.430359
69.280 13.689341
69.285 13.434643
69.290 13.599483
69.295 13.785081
69.300 13.970243
69.305 14.175329
69.310 14.44067
69.315 14.61237
69.320 14.336182
69.325 13.848924
69.330 14.023675
69.335 13.833152
69.340 13.922032
69.345 13.448954
69.350 13.704463
69.355 13.66672
69.360 13.640303
69.365 13.631395
69.370 13.821004
69.375 13.505127
69.380 13.764215
69.385 13.534101
69.390 14.432482
69.395 15.153047
69.400 15.392844
69.405 15.726154
69.410 15.642143
69.415 15.192757
69.420 15.766923
69.425 15.52991
69.430 14.91468
69.435 15.009665
69.440 14.886075
69.445 15.18931
69.450 15.377483
69.455 14.707153
69.460 14.69423
69.465 14.568653
69.470 14.479174
69.475 14.220803
69.480 13.850635
69.485 14.09997
69.490 14.633924
69.495 14.654392
69.500 14.61131
69.505 14.571855
69.510 15.12907
69.515 15.306392
69.520 14.952185
69.525 14.919566
69.530 15.894374
69.535 16.268484
69.540 16.320192
69.545 16.478127
69.550 16.22443
69.555 16.272778
69.560 15.78433
69.565 15.255537
69.570 15.303293
69.575 14.78371
69.580 14.266885
69.585 14.248624
69.590 14.141515
69.595 13.77875
69.600 13.231744
69.605 13.046814
69.610 13.024911
69.615 13.200097
69.620 13.454679
69.625 13.79448
69.630 14.033848
69.635 13.971976
69.640 13.93526
69.645 14.455025
69.650 14.422085
69.655 14.520782
69.660 13.815397
69.665 13.677745
69.670 14.206388
69.675 14.347408
69.680 14.469251
69.685 14.317492
69.690 14.002738
69.695 15.111524
69.700 15.564005
69.705 15.287893
69.710 14.95737
69.715 14.551913
69.720 14.659612
69.725 14.680491
69.730 14.201422
69.735 14.102472
69.740 13.825492
69.745 13.772145
69.750 13.941107
69.755 13.723416
69.760 14.355776
69.765 14.018643
69.770 14.085849
69.775 14.591205
69.780 14.7492
69.785 14.449737
69.790 14.347381
69.795 13.783993
69.800 13.572304
69.805 13.379595
69.810 12.968433
69.815 12.725214
69.820 12.94348
69.825 13.072906
69.830 13.396509
69.835 13.203712
69.840 12.996425
69.845 12.915336
69.850 12.91712
69.855 13.013701
69.860 13.053936
69.865 13.217557
69.870 13.656628
69.875 14.016821
69.880 13.82531
69.885 13.834446
69.890 13.602688
69.895 12.984141
69.900 12.850099
69.905 13.054021
69.910 13.055954
69.915 13.710285
69.920 13.555998
69.925 13.499612
69.930 13.575526
69.935 12.948327
69.940 12.4791
69.945 12.303309
69.950 12.406896
69.955 12.545509
69.960 12.723966
69.965 12.910685
69.970 12.599457
69.975 12.401372
69.980 11.994064
69.985 11.671666
69.990 11.585633
69.995 11.384577
70.000 11.248116
70.005 11.211352
70.010 11.310233
70.015 11.352775
70.020 11.050972
70.025 11.161105
70.030 11.37096
70.035 11.52195
70.040 11.517387
70.045 11.252779
70.050 11.309739
70.055 11.79442
70.060 11.529273
70.065 11.942827
70.070 12.477952
70.075 12.894155
70.080 12.615952
70.085 12.607814
70.090 12.592098
70.095 12.671144
70.100 12.134726
70.105 11.594376
70.110 11.75775
70.115 12.386916
70.120 12.325737
70.125 12.042243
70.130 11.882952
70.135 11.861959
70.140 11.662565
70.145 11.921655
70.150 11.537476
70.155 11.837404
70.160 11.696916
70.165 11.477348
70.170 11.357889
70.175 11.345698
70.180 11.592621
70.185 11.49532
70.190 11.448277
70.195 11.390803
70.200 11.32178
70.205 11.801084
70.210 12.086674
70.215 11.654149
70.220 11.185972
70.225 10.995382
70.230 11.116573
70.235 11.192554
70.240 10.460628
70.245 10.254682
70.250 10.874826
70.255 11.412781
70.260 11.99239
70.265 12.227103
70.270 12.569947
70.275 13.159618
70.280 13.04767
70.285 12.806436
70.290 12.3043
70.295 12.098765
70.300 12.074389
70.305 11.711882
70.310 11.216872
70.315 11.699104
70.320 11.713659
70.325 11.796426
70.330 11.665294
70.335 11.118049
70.340 11.232653
70.345 11.509512
70.350 11.202095
70.355 11.199023
70.360 11.162065
70.365 11.077383
70.370 11.676336
70.375 12.369363
70.380 12.254073
70.385 12.453723
70.390 12.613342
70.395 13.017583
70.400 13.470532
70.405 13.192674
70.410 12.527911
70.415 12.119488
70.420 11.759531
70.425 12.037186
70.430 11.678555
70.435 11.635763
70.440 11.380493
70.445 11.244618
70.450 11.235754
70.455 10.960969
70.460 10.624297
70.465 10.690084
70.470 10.527819
70.475 11.060811
70.480 11.432226
70.485 11.708583
70.490 11.719278
70.495 11.666534
70.500 12.223485
70.505 12.437329
70.510 12.874692
70.515 12.940502
70.520 13.148122
70.525 13.665581
70.530 14.218263
70.535 14.053164
70.540 14.336618
70.545 14.052003
70.550 13.916283
70.555 13.587193
70.560 12.829855
70.565 12.43857
70.570 12.222998
70.575 11.561326
70.580 11.288807
70.585 11.309362
70.590 11.009131
70.595 11.170838
70.600 10.743551
70.605 10.417641
70.610 10.572016
70.615 10.533998
70.620 10.694545
70.625 11.361108
70.630 11.093829
70.635 11.795593
70.640 12.247498
70.645 12.13295
70.650 12.025121
70.655 12.305
70.660 12.414164
70.665 12.970286
70.670 12.602842
70.675 12.411477
70.680 12.899158
70.685 13.05575
70.690 13.336342
70.695 13.355477
70.700 12.777077
70.705 12.765828
70.710 12.427001
70.715 11.975809
70.720 11.527809
70.725 11.183224
70.730 11.06955
70.735 11.393804
70.740 11.398927
70.745 11.482371
70.750 11.491192
70.755 11.852749
70.760 11.627293
70.765 11.666862
70.770 11.267349
70.775 11.199536
70.780 10.872024
70.785 10.903259
70.790 10.697106
70.795 10.440358
70.800 10.260253
70.805 10.737793
70.810 11.21488
70.815 11.799964
70.820 11.72375
70.825 11.503426
70.830 11.403934
70.835 11.041513
70.840 10.482709
70.845 10.297666
70.850 9.909088
70.855 9.904109
70.860 10.227027
70.865 10.590152
70.870 11.110455
70.875 11.428434
70.880 11.453679
70.885 11.220758
70.890 10.991877
70.895 10.730484
70.900 10.776866
70.905 10.640582
70.910 10.117196
70.915 10.13985
70.920 10.338284
70.925 10.476097
70.930 10.898771
70.935 10.497017
70.940 10.907584
70.945 11.386957
70.950 11.570421
70.955 11.620764
70.960 11.383817
70.965 10.935743
70.970 11.057582
70.975 11.02861
70.980 10.981552
70.985 11.334906
70.990 11.521618
70.995 11.915896
71.000 12.099349
71.005 11.877092
71.010 11.816133
71.015 11.391459
71.020 11.169851
71.025 10.74678
71.030 10.712273
71.035 11.034357
71.040 11.092742
71.045 11.292278
71.050 11.41731
71.055 11.165615
71.060 11.641978
71.065 11.620179
71.070 11.532278
71.075 12.023915
71.080 11.734484
71.085 11.712147
71.090 12.085565
71.095 11.931118
71.100 12.133683
71.105 12.318092
71.110 11.98152
71.115 12.463246
71.120 12.368416
71.125 12.13588
71.130 12.052338
71.135 11.651213
71.140 11.391749
71.145 11.123917
71.150 10.9365
71.155 11.118707
71.160 11.201373
71.165 11.247663
71.170 11.185797
71.175 10.907004
71.180 10.665855
71.185 10.279453
71.190 10.790833
71.195 10.461326
71.200 9.996394
71.205 10.110073
71.210 10.692275
71.215 10.881875
71.220 10.615999
71.225 9.845659
71.230 10.378226
71.235 11.386756
71.240 11.175443
71.245 11.22993
71.250 11.729737
71.255 12.007909
71.260 12.296247
71.265 12.729829
71.270 12.437202
71.275 12.165202
71.280 11.665425
71.285 11.670263
71.290 11.916049
71.295 11.830598
71.300 11.201234
71.305 10.887938
71.310 11.050311
71.315 10.868369
71.320 10.519757
71.325 10.103957
71.330 9.846306
71.335 9.796567
71.340 9.897855
71.345 10.009883
71.350 10.248141
71.355 10.22246
71.360 10.69121
71.365 11.111423
71.370 11.465296
71.375 11.497231
71.380 11.590236
71.385 11.774235
71.390 11.705976
71.395 11.765833
71.400 11.382121
71.405 11.314937
71.410 11.743026
71.415 11.709104
71.420 11.66829
71.425 12.138295
71.430 12.187441
71.435 12.122053
71.440 12.062407
71.445 11.625841
71.450 12.148326
71.455 12.387893
71.460 12.192447
71.465 11.942137
71.470 11.996761
71.475 11.580103
71.480 11.177744
71.485 10.639347
71.490 9.825504
71.495 9.627103
71.500 10.090079
71.505 9.70359
71.510 10.115934
71.515 10.340154
71.520 10.28336
71.525 10.540876
71.530 10.617379
71.535 10.59592
71.540 10.843785
71.545 10.738232
71.550 10.831808
71.555 11.045607
71.560 10.816702
71.565 10.576301
71.570 10.124758
71.575 9.936201
71.580 9.962056
71.585 9.938183
71.590 9.731894
71.595 9.582258
71.600 9.574342
71.605 9.723765
71.610 9.616808
71.615 9.535111
71.620 9.386479
71.625 9.677452
71.630 10.146326
71.635 10.650692
71.640 11.30445
71.645 11.337815
71.650 11.726585
71.655 12.002768
71.660 11.879737
71.665 11.750904
71.670 10.966315
71.675 10.787309
71.680 11.496062
71.685 11.523029
71.690 11.328581
71.695 11.069629
71.700 11.290667
71.705 12.128623
71.710 11.812779
71.715 11.010074
71.720 10.942384
71.725 11.179782
71.730 11.374157
71.735 11.322941
71.740 10.822112
71.745 10.998878
71.750 10.988393
71.755 11.032546
71.760 10.944621
71.765 10.732472
71.770 10.663885
71.775 10.186747
71.780 9.848755
71.785 10.307702
71.790 10.222463
71.795 10.222681
71.800 10.568963
71.805 10.997798
71.810 11.48616
71.815 11.489708
71.820 11.459438
71.825 11.985799
71.830 11.696068
71.835 11.820242
71.840 11.331919
71.845 11.375721
71.850 11.581579
71.855 11.221527
71.860 10.678472
71.865 10.678587
71.870 10.461246
71.875 10.821149
71.880 11.121172
71.885 10.841286
71.890 11.024928
71.895 11.19915
71.900 11.391438
71.905 11.387235
71.910 11.319299
71.915 11.455173
71.920 11.614359
71.925 11.409024
71.930 11.316408
71.935 10.921317
71.940 10.789899
71.945 10.386419
71.950 9.612412
71.955 9.8831
71.960 9.801919
71.965 9.791052
71.970 9.766776
71.975 9.608211
71.980 9.724627
71.985 9.848804
71.990 9.827227
71.995 10.109363
72.000 10.306393
72.005 10.337042
72.010 10.479772
72.015 10.593655
72.020 10.688851
72.025 10.671468
72.030 10.366872
72.035 10.584509
72.040 10.580537
72.045 10.263689
72.050 10.498764
72.055 11.161748
72.060 10.808055
72.065 10.681546
72.070 10.706916
72.075 11.285328
72.080 11.960075
72.085 11.81457
72.090 11.258402
72.095 11.400697
72.100 11.8917
72.105 11.837821
72.110 11.676154
72.115 11.435502
72.120 11.204551
72.125 11.638301
72.130 12.05332
72.135 11.839355
72.140 11.536819
72.145 11.137737
72.150 10.970371
72.155 10.951473
72.160 10.641492
72.165 10.291537
72.170 10.126021
72.175 10.708612
72.180 10.887603
72.185 10.80776
72.190 10.927411
72.195 11.202037
72.200 11.372561
72.205 11.4857
72.210 11.100023
72.215 10.841516
72.220 11.307783
72.225 11.322266
72.230 11.198199
72.235 11.351269
72.240 11.315127
72.245 11.390386
72.250 11.431453
72.255 10.945473
72.260 11.062122
72.265 11.275444
72.270 11.424387
72.275 11.667111
72.280 11.816448
72.285 11.694788
72.290 12.024256
72.295 11.792871
72.300 11.569127
72.305 11.566094
72.310 11.521749
72.315 11.894208
72.320 11.670099
72.325 11.4377
72.330 11.219478
72.335 10.956912
72.340 10.589659
72.345 10.481853
72.350 10.721884
72.355 10.815501
72.360 10.630303
72.365 10.672029
72.370 10.604918
72.375 10.600733
72.380 10.69888
72.385 10.743432
72.390 11.048546
72.395 11.11986
72.400 11.467557
72.405 11.5937
72.410 11.84606
72.415 11.399817
72.420 11.420865
72.425 11.152094
72.430 11.387004
72.435 11.200836
72.440 10.928486
72.445 11.095666
72.450 11.389674
72.455 11.348324
72.460 11.58416
72.465 11.36573
72.470 11.748381
72.475 11.586155
72.480 11.55125
72.485 10.909747
72.490 10.992827
72.495 11.141676
72.500 10.729671
72.505 10.255772
72.510 10.53567
72.515 10.440918
72.520 10.90572
72.525 10.601336
72.530 10.609276
72.535 11.160941
72.540 11.446793
72.545 11.238043
72.550 11.31799
72.555 11.144951
72.560 12.09939
72.565 11.698743
72.570 11.549221
72.575 11.286886
72.580 11.137328
72.585 11.528334
72.590 11.616839
72.595 10.916305
72.600 11.518633
72.605 11.73916
72.610 11.550702
72.615 11.414474
72.620 11.289639
72.625 11.593644
72.630 11.82437
72.635 11.649274
72.640 11.659221
72.645 12.090986
72.650 12.066253
72.655 11.454452
72.660 11.445224
72.665 11.0582
72.670 10.948173
72.675 10.896383
72.680 10.690962
72.685 10.620934
72.690 11.08138
72.695 11.066919
72.700 11.240419
72.705 11.24181
72.710 10.934582
72.715 11.011258
72.720 11.068057
72.725 10.930154
72.730 10.908739
72.735 10.900566
72.740 11.001513
72.745 11.206468
72.750 11.565793
72.755 11.328525
72.760 11.470571
72.765 11.67651
72.770 11.370886
72.775 11.736345
72.780 11.707068
72.785 11.684813
72.790 11.370699
72.795 10.735423
72.800 10.618204
72.805 10.611135
72.810 10.408512
72.815 10.077625
72.820 9.803138
72.825 10.086058
72.830 10.395069
72.835 10.755696
72.840 11.145779
72.845 10.817061
72.850 10.799899
72.855 10.809834
72.860 10.989884
72.865 10.573808
72.870 10.247676
72.875 10.188512
72.880 10.492912
72.885 10.786824
72.890 10.860003
72.895 10.474415
72.900 10.45612
72.905 10.046465
72.910 9.910813
72.915 9.551961
72.920 9.38231
72.925 9.353288
72.930 9.370548
72.935 9.537129
72.940 9.778344
72.945 10.197358
72.950 10.407602
72.955 10.719976
72.960 10.801613
72.965 11.137458
72.970 11.310828
72.975 11.633923
72.980 11.964852
72.985 11.961745
72.990 11.565915
72.995 11.386867
73.000 11.072554
