!@!!GADDS PLOTSO FILE: Chi integration type
!@!!Title/SampleName: map-16a
!@!!Comment: ?
!@!!User: Bruker Instrument Administrator
!@!!Site: University of Illinois Chicago
!@!!Frame: map-16a_01_000.gfrm
!@!!Wavelengths    1.54184   1.54056   1.54439
!@!!Frame angles: 2Theta: 63.000 Omega: 50.000 Phi: 0.000 Chi: 90.000
!@!!Integration range: 2Theta: 53.000 to 73.000  Gamma: -105.000 to -75.000
!@!!Integration method: bin normalized
!@!N
!@!SS
!@!M
!@!L 0.0 0.0 0.0 0.0
!@!XDegrees
!@!YCounts
53.000 4.019631
53.005 3.93749
53.010 4.00144
53.015 4.117902
53.020 4.062626
53.025 4.254457
53.030 3.931795
53.035 3.524128
53.040 3.376875
53.045 3.319332
53.050 3.103829
53.055 3.141316
53.060 3.320136
53.065 3.410751
53.070 3.586289
53.075 3.588075
53.080 3.677242
53.085 4.167576
53.090 4.040958
53.095 3.972946
53.100 4.281266
53.105 4.262372
53.110 4.162017
53.115 4.448659
53.120 4.353744
53.125 4.142812
53.130 3.811265
53.135 3.753754
53.140 4.05353
53.145 4.232031
53.150 3.916543
53.155 3.44326
53.160 3.498819
53.165 3.731454
53.170 3.73307
53.175 3.544521
53.180 3.673237
53.185 3.900291
53.190 4.451167
53.195 4.638946
53.200 4.60772
53.205 4.333374
53.210 4.334486
53.215 3.946224
53.220 3.478693
53.225 3.157824
53.230 3.054026
53.235 3.086417
53.240 3.391571
53.245 3.207941
53.250 3.398515
53.255 3.78021
53.260 3.751174
53.265 3.70634
53.270 3.557958
53.275 3.543024
53.280 3.328207
53.285 3.191377
53.290 3.119312
53.295 3.211797
53.300 3.101236
53.305 3.100176
53.310 3.112291
53.315 3.561214
53.320 3.604758
53.325 3.53679
53.330 3.55641
53.335 3.682791
53.340 3.59033
53.345 3.724658
53.350 3.856411
53.355 3.748415
53.360 3.634102
53.365 3.552293
53.370 3.783337
53.375 3.908337
53.380 3.67072
53.385 3.364343
53.390 3.775712
53.395 4.110662
53.400 3.966601
53.405 3.812761
53.410 3.640354
53.415 3.789829
53.420 3.952382
53.425 3.729949
53.430 3.481092
53.435 3.659195
53.440 3.54791
53.445 3.562264
53.450 3.376056
53.455 3.222925
53.460 3.091791
53.465 3.171151
53.470 3.355288
53.475 3.325942
53.480 3.258858
53.485 2.992574
53.490 2.916511
53.495 3.072413
53.500 3.01585
53.505 2.66074
53.510 2.811527
53.515 3.17707
53.520 3.62629
53.525 3.929182
53.530 3.647713
53.535 3.840729
53.540 4.288804
53.545 4.507707
53.550 4.08481
53.555 3.873346
53.560 3.890715
53.565 4.13984
53.570 3.820535
53.575 3.632441
53.580 3.626621
53.585 3.769574
53.590 3.664262
53.595 3.812519
53.600 4.030926
53.605 4.153192
53.610 3.98231
53.615 3.984824
53.620 4.367918
53.625 4.35425
53.630 4.487676
53.635 4.201051
53.640 4.307497
53.645 4.235989
53.650 3.997652
53.655 3.955005
53.660 3.844447
53.665 3.719538
53.670 3.728828
53.675 3.63027
53.680 3.913587
53.685 4.099522
53.690 4.214978
53.695 4.402535
53.700 4.241928
53.705 4.260168
53.710 4.328506
53.715 3.986278
53.720 3.578265
53.725 3.503205
53.730 3.406112
53.735 3.269922
53.740 3.384979
53.745 3.326894
53.750 3.623878
53.755 3.599466
53.760 3.234727
53.765 3.320028
53.770 3.455778
53.775 3.225344
53.780 3.414217
53.785 3.60297
53.790 3.85287
53.795 3.838276
53.800 3.705318
53.805 3.845165
53.810 4.121113
53.815 3.952444
53.820 3.639443
53.825 3.538767
53.830 3.586738
53.835 3.652344
53.840 3.359899
53.845 3.215089
53.850 2.973196
53.855 2.961751
53.860 3.069341
53.865 3.122208
53.870 3.041612
53.875 3.225028
53.880 3.171698
53.885 3.5267
53.890 3.79514
53.895 4.057306
53.900 4.255988
53.905 4.407932
53.910 4.437302
53.915 4.258731
53.920 4.213333
53.925 4.032328
53.930 3.779017
53.935 3.611337
53.940 3.404069
53.945 3.511883
53.950 3.57667
53.955 3.394418
53.960 3.643301
53.965 3.920729
53.970 3.782753
53.975 3.678888
53.980 3.670257
53.985 3.686114
53.990 3.666575
53.995 3.430982
54.000 3.59472
54.005 3.735989
54.010 3.651508
54.015 3.615103
54.020 3.636971
54.025 3.503255
54.030 3.270339
54.035 3.309562
54.040 3.377506
54.045 3.75613
54.050 3.897908
54.055 3.837451
54.060 4.047804
54.065 4.088224
54.070 4.300715
54.075 4.442275
54.080 4.341465
54.085 4.291684
54.090 4.446036
54.095 4.442198
54.100 4.411963
54.105 4.085239
54.110 3.769984
54.115 3.628831
54.120 3.613092
54.125 3.419389
54.130 3.523836
54.135 3.524149
54.140 3.585754
54.145 3.863793
54.150 3.879453
54.155 4.150586
54.160 4.450119
54.165 4.136261
54.170 4.014176
54.175 3.854191
54.180 3.762897
54.185 3.663003
54.190 3.437985
54.195 3.384169
54.200 3.723867
54.205 3.894089
54.210 4.248167
54.215 4.332917
54.220 4.490659
54.225 4.523363
54.230 4.469787
54.235 4.634935
54.240 4.731045
54.245 4.644977
54.250 4.564321
54.255 4.272848
54.260 4.020662
54.265 3.979173
54.270 3.763322
54.275 3.506462
54.280 3.308325
54.285 3.408416
54.290 3.59832
54.295 3.68285
54.300 3.301985
54.305 3.087966
54.310 3.14274
54.315 3.134785
54.320 3.214419
54.325 3.202646
54.330 3.2802
54.335 3.677073
54.340 3.717936
54.345 3.914
54.350 4.028107
54.355 3.972263
54.360 3.994347
54.365 4.077375
54.370 4.270213
54.375 4.383453
54.380 4.52805
54.385 4.486672
54.390 4.478502
54.395 4.416957
54.400 4.154175
54.405 3.854204
54.410 3.671968
54.415 3.369359
54.420 3.208313
54.425 3.231961
54.430 3.094104
54.435 2.967426
54.440 2.922175
54.445 2.962028
54.450 3.110148
54.455 3.22008
54.460 3.154203
54.465 3.232226
54.470 3.298952
54.475 3.209511
54.480 3.336627
54.485 3.381471
54.490 3.449147
54.495 3.588442
54.500 3.534402
54.505 3.594746
54.510 3.729323
54.515 3.644167
54.520 3.575515
54.525 3.606481
54.530 3.781178
54.535 4.013828
54.540 4.093103
54.545 4.262949
54.550 4.005923
54.555 3.927338
54.560 3.631934
54.565 3.456898
54.570 3.344429
54.575 3.391826
54.580 3.233522
54.585 3.312836
54.590 3.313108
54.595 3.262059
54.600 3.180109
54.605 3.026631
54.610 3.116641
54.615 3.368847
54.620 3.453264
54.625 3.492883
54.630 3.525093
54.635 3.717469
54.640 3.791014
54.645 3.636667
54.650 3.573543
54.655 3.524655
54.660 3.797081
54.665 3.788315
54.670 3.728284
54.675 3.845796
54.680 4.207872
54.685 4.276818
54.690 4.18063
54.695 4.09509
54.700 4.127355
54.705 3.968049
54.710 3.63853
54.715 3.206869
54.720 3.154412
54.725 3.428164
54.730 3.555918
54.735 3.621804
54.740 3.827275
54.745 4.266609
54.750 4.608414
54.755 4.512142
54.760 4.261568
54.765 4.322105
54.770 4.507356
54.775 4.61117
54.780 4.4475
54.785 4.224128
54.790 4.490548
54.795 4.622406
54.800 4.629199
54.805 4.480674
54.810 4.021654
54.815 4.184889
54.820 4.1617
54.825 4.160733
54.830 4.09138
54.835 3.969168
54.840 4.139365
54.845 4.026229
54.850 3.799309
54.855 3.77783
54.860 3.694953
54.865 3.685068
54.870 3.563797
54.875 3.516478
54.880 3.925034
54.885 3.669507
54.890 3.749803
54.895 3.793658
54.900 3.78838
54.905 3.770843
54.910 3.688995
54.915 3.664237
54.920 3.861894
54.925 4.057745
54.930 4.141207
54.935 4.359329
54.940 4.500593
54.945 4.707147
54.950 4.897086
54.955 4.773256
54.960 4.360515
54.965 4.350044
54.970 4.66612
54.975 4.859383
54.980 4.462705
54.985 4.114121
54.990 4.3571
54.995 4.50398
55.000 4.280054
55.005 4.031298
55.010 3.737582
55.015 3.992371
55.020 4.490945
55.025 4.465918
55.030 4.318748
55.035 3.942971
55.040 3.821076
55.045 4.111776
55.050 4.107868
55.055 3.737132
55.060 3.863059
55.065 4.026429
55.070 4.312516
55.075 4.066924
55.080 4.03138
55.085 3.924649
55.090 3.967296
55.095 3.867497
55.100 3.94302
55.105 4.129319
55.110 4.247539
55.115 4.144521
55.120 4.197045
55.125 4.03472
55.130 4.034186
55.135 4.244505
55.140 4.182843
55.145 4.313728
55.150 4.325275
55.155 4.242696
55.160 4.549653
55.165 4.345166
55.170 4.556694
55.175 4.341954
55.180 4.245435
55.185 4.245043
55.190 4.436477
55.195 4.325881
55.200 4.195242
55.205 3.841529
55.210 3.897556
55.215 3.866154
55.220 3.78909
55.225 3.34429
55.230 3.200387
55.235 3.35025
55.240 3.417193
55.245 3.523427
55.250 3.739602
55.255 4.00918
55.260 4.144635
55.265 4.354619
55.270 4.370361
55.275 4.265498
55.280 4.184874
55.285 3.959872
55.290 3.809896
55.295 4.086331
55.300 4.102154
55.305 3.895945
55.310 4.047616
55.315 4.108608
55.320 3.991028
55.325 3.810955
55.330 3.760594
55.335 3.924343
55.340 4.391768
55.345 4.320649
55.350 4.473808
55.355 4.753096
55.360 5.030293
55.365 5.103691
55.370 4.802942
55.375 4.716006
55.380 4.918047
55.385 4.53828
55.390 4.50057
55.395 4.555922
55.400 4.621494
55.405 5.093221
55.410 5.294667
55.415 5.358509
55.420 5.403474
55.425 5.16617
55.430 4.494374
55.435 4.062016
55.440 3.654036
55.445 3.331074
55.450 3.528533
55.455 3.658568
55.460 3.704588
55.465 4.169273
55.470 4.158974
55.475 4.031273
55.480 3.741478
55.485 3.41067
55.490 3.473226
55.495 3.653014
55.500 3.755695
55.505 4.108654
55.510 4.128167
55.515 4.262806
55.520 4.507613
55.525 4.488176
55.530 4.404945
55.535 4.059125
55.540 4.052333
55.545 4.274819
55.550 4.30813
55.555 4.293122
55.560 4.189845
55.565 4.086735
55.570 4.193652
55.575 4.237853
55.580 4.028028
55.585 4.05686
55.590 3.69247
55.595 3.547354
55.600 3.704821
55.605 3.685826
55.610 3.385058
55.615 3.308406
55.620 3.321509
55.625 3.667225
55.630 4.059799
55.635 4.151561
55.640 4.008463
55.645 4.161539
55.650 4.521088
55.655 4.512878
55.660 4.24484
55.665 4.301751
55.670 4.243895
55.675 4.34703
55.680 4.325909
55.685 4.271902
55.690 4.451355
55.695 4.653635
55.700 4.327035
55.705 4.351666
55.710 4.298625
55.715 4.356653
55.720 4.339707
55.725 4.126372
55.730 4.094982
55.735 4.303774
55.740 4.240491
55.745 4.272539
55.750 4.214987
55.755 4.260443
55.760 4.526805
55.765 4.34855
55.770 4.199357
55.775 4.23312
55.780 4.285718
55.785 4.185502
55.790 4.190333
55.795 4.221208
55.800 4.419306
55.805 4.474389
55.810 4.524468
55.815 4.480117
55.820 4.578729
55.825 4.732691
55.830 5.047005
55.835 4.858432
55.840 4.783937
55.845 4.674513
55.850 4.913955
55.855 4.753481
55.860 4.523979
55.865 4.210048
55.870 4.215606
55.875 4.26072
55.880 4.195726
55.885 4.085378
55.890 3.931896
55.895 3.856519
55.900 3.825017
55.905 3.88291
55.910 3.864207
55.915 4.01471
55.920 3.939069
55.925 4.072586
55.930 4.051005
55.935 4.156293
55.940 4.071058
55.945 4.313606
55.950 4.185475
55.955 4.211028
55.960 4.249928
55.965 4.299531
55.970 4.317449
55.975 4.638206
55.980 4.864115
55.985 4.950302
55.990 5.166308
55.995 5.026578
56.000 5.266003
56.005 5.431022
56.010 5.211362
56.015 4.993594
56.020 4.81144
56.025 4.52989
56.030 4.64721
56.035 4.417911
56.040 4.193905
56.045 4.190145
56.050 4.155533
56.055 4.536019
56.060 4.390621
56.065 4.232025
56.070 4.0904
56.075 4.162757
56.080 4.473085
56.085 4.338832
56.090 4.356053
56.095 4.703242
56.100 4.746046
56.105 4.904754
56.110 4.736179
56.115 4.242613
56.120 4.190995
56.125 4.070971
56.130 4.051519
56.135 4.342123
56.140 4.152016
56.145 4.132058
56.150 4.353267
56.155 4.39187
56.160 4.06633
56.165 4.035735
56.170 3.837605
56.175 3.904014
56.180 4.01016
56.185 4.221232
56.190 4.447491
56.195 4.673448
56.200 4.433172
56.205 4.395916
56.210 4.350258
56.215 4.248487
56.220 4.034801
56.225 3.999564
56.230 4.123414
56.235 4.374423
56.240 4.522689
56.245 4.590476
56.250 4.640384
56.255 4.358892
56.260 4.310867
56.265 4.382758
56.270 4.299925
56.275 4.445319
56.280 4.545696
56.285 4.652359
56.290 4.805488
56.295 4.795906
56.300 4.70883
56.305 4.524467
56.310 4.085063
56.315 4.179871
56.320 4.114178
56.325 4.019371
56.330 4.066916
56.335 4.071701
56.340 4.380794
56.345 4.681833
56.350 4.616411
56.355 4.665098
56.360 4.915463
56.365 4.731393
56.370 4.654373
56.375 4.413329
56.380 4.155359
56.385 3.86468
56.390 3.725559
56.395 3.481802
56.400 3.592757
56.405 4.066703
56.410 4.466017
56.415 4.829755
56.420 5.140672
56.425 5.38567
56.430 5.361198
56.435 5.231896
56.440 4.795287
56.445 4.746246
56.450 4.609658
56.455 4.788092
56.460 5.107498
56.465 5.456212
56.470 5.628634
56.475 5.56354
56.480 5.593651
56.485 5.581726
56.490 5.307685
56.495 5.152497
56.500 4.970776
56.505 4.946103
56.510 5.08566
56.515 4.865912
56.520 4.650868
56.525 4.873818
56.530 4.809704
56.535 4.823873
56.540 4.47962
56.545 4.333797
56.550 4.513873
56.555 4.985438
56.560 4.901632
56.565 5.06988
56.570 4.957299
56.575 5.54895
56.580 5.863673
56.585 5.870646
56.590 5.387767
56.595 4.941041
56.600 4.561444
56.605 4.629107
56.610 4.407803
56.615 4.722322
56.620 4.680923
56.625 4.8833
56.630 5.106658
56.635 5.59667
56.640 5.540703
56.645 5.566986
56.650 5.101072
56.655 5.157811
56.660 5.624807
56.665 5.479867
56.670 5.660847
56.675 6.05372
56.680 5.909506
56.685 6.029713
56.690 5.791464
56.695 5.279619
56.700 5.517264
56.705 5.040704
56.710 4.708249
56.715 4.676348
56.720 4.676011
56.725 4.987902
56.730 5.400671
56.735 5.305441
56.740 5.195543
56.745 5.372057
56.750 5.348524
56.755 5.332191
56.760 5.172432
56.765 4.765598
56.770 4.871254
56.775 5.20743
56.780 5.044027
56.785 5.043975
56.790 4.975149
56.795 5.077768
56.800 5.248331
56.805 5.439992
56.810 5.422091
56.815 5.350012
56.820 5.178555
56.825 5.234081
56.830 5.325258
56.835 5.174596
56.840 4.634863
56.845 4.82563
56.850 5.294608
56.855 5.719065
56.860 5.689831
56.865 5.593065
56.870 5.887127
56.875 6.031945
56.880 5.590881
56.885 5.042001
56.890 4.753294
56.895 4.856334
56.900 4.640104
56.905 4.559787
56.910 4.742557
56.915 4.992698
56.920 5.206227
56.925 5.213501
56.930 5.210714
56.935 5.199015
56.940 4.867509
56.945 4.516664
56.950 4.286043
56.955 4.386147
56.960 4.471674
56.965 4.440099
56.970 4.987908
56.975 5.49461
56.980 5.55579
56.985 5.805939
56.990 5.689769
56.995 5.494316
57.000 5.34657
57.005 5.082057
57.010 4.802224
57.015 4.743775
57.020 4.549221
57.025 4.484528
57.030 4.483632
57.035 4.498352
57.040 4.397964
57.045 4.395702
57.050 4.470107
57.055 4.920217
57.060 5.053627
57.065 5.095073
57.070 5.117046
57.075 5.226888
57.080 5.432105
57.085 4.995295
57.090 4.640268
57.095 4.934546
57.100 5.012326
57.105 4.855542
57.110 4.842091
57.115 4.809783
57.120 5.145619
57.125 5.055861
57.130 5.094111
57.135 5.297937
57.140 5.253983
57.145 5.193109
57.150 5.294251
57.155 5.585931
57.160 5.844739
57.165 5.740633
57.170 5.763384
57.175 6.09721
57.180 6.030929
57.185 5.94905
57.190 5.696033
57.195 5.411487
57.200 5.400242
57.205 5.511787
57.210 5.353665
57.215 5.287923
57.220 5.335121
57.225 5.097064
57.230 5.16132
57.235 4.775251
57.240 4.47822
57.245 4.577406
57.250 4.465717
57.255 4.379473
57.260 4.425274
57.265 4.369442
57.270 4.390014
57.275 4.213432
57.280 4.180375
57.285 4.118774
57.290 4.041983
57.295 4.363213
57.300 4.515326
57.305 4.828192
57.310 4.775712
57.315 4.990336
57.320 5.067475
57.325 4.960219
57.330 4.645345
57.335 4.474094
57.340 4.282994
57.345 4.307295
57.350 4.433613
57.355 4.891957
57.360 5.045097
57.365 5.442185
57.370 5.745896
57.375 6.158303
57.380 6.353851
57.385 6.123035
57.390 6.06748
57.395 6.213262
57.400 5.981135
57.405 5.786746
57.410 5.373071
57.415 5.094739
57.420 5.063854
57.425 4.608284
57.430 4.677573
57.435 4.542904
57.440 4.513901
57.445 4.685665
57.450 4.927004
57.455 4.87937
57.460 4.811809
57.465 4.546958
57.470 4.559789
57.475 5.017861
57.480 5.025185
57.485 4.857315
57.490 4.894389
57.495 5.007713
57.500 4.883061
57.505 4.889076
57.510 4.828288
57.515 4.823258
57.520 4.686856
57.525 4.537348
57.530 4.713214
57.535 5.198449
57.540 5.167931
57.545 4.638498
57.550 4.629182
57.555 4.744397
57.560 4.629838
57.565 4.464826
57.570 3.994424
57.575 3.96961
57.580 4.330103
57.585 4.378024
57.590 4.743999
57.595 5.086028
57.600 5.135287
57.605 5.318868
57.610 5.545989
57.615 5.253695
57.620 5.199456
57.625 5.106271
57.630 5.000726
57.635 4.929157
57.640 4.906049
57.645 4.92164
57.650 5.254044
57.655 5.225874
57.660 5.289718
57.665 5.33188
57.670 5.379307
57.675 5.262331
57.680 4.96702
57.685 4.78573
57.690 4.90945
57.695 5.304471
57.700 5.672072
57.705 5.935338
57.710 6.305898
57.715 6.767807
57.720 6.941393
57.725 6.728871
57.730 6.352639
57.735 6.147885
57.740 5.900235
57.745 5.44084
57.750 4.959503
57.755 4.653541
57.760 4.862733
57.765 4.874416
57.770 5.057046
57.775 5.188976
57.780 5.482329
57.785 6.069603
57.790 6.243605
57.795 5.988368
57.800 5.662618
57.805 5.745662
57.810 5.876021
57.815 5.79183
57.820 5.930788
57.825 5.978896
57.830 6.010087
57.835 5.975989
57.840 5.89872
57.845 5.813547
57.850 6.042671
57.855 5.876262
57.860 5.939671
57.865 6.06267
57.870 5.922199
57.875 5.802727
57.880 5.757783
57.885 5.372958
57.890 5.282053
57.895 5.111091
57.900 5.152215
57.905 5.251464
57.910 5.068163
57.915 4.958587
57.920 5.274024
57.925 5.105902
57.930 5.105853
57.935 4.932953
57.940 4.706005
57.945 4.487721
57.950 4.678811
57.955 4.27396
57.960 4.268951
57.965 4.504476
57.970 4.805106
57.975 4.980422
57.980 5.268123
57.985 5.042703
57.990 5.036331
57.995 5.050758
58.000 5.214359
58.005 5.386925
58.010 5.794369
58.015 5.586755
58.020 5.609095
58.025 5.938667
58.030 5.608227
58.035 5.250369
58.040 5.378962
58.045 5.271075
58.050 5.320428
58.055 5.333814
58.060 5.446222
58.065 5.562128
58.070 5.67867
58.075 5.292982
58.080 5.567628
58.085 5.578775
58.090 5.470514
58.095 5.304711
58.100 5.299071
58.105 5.105111
58.110 5.110947
58.115 4.947244
58.120 5.203399
58.125 5.150078
58.130 5.201143
58.135 5.243784
58.140 5.481745
58.145 5.587935
58.150 5.344365
58.155 5.03112
58.160 5.143388
58.165 5.087934
58.170 5.349214
58.175 5.206989
58.180 5.218031
58.185 5.248454
58.190 5.169436
58.195 5.443417
58.200 5.431384
58.205 5.16145
58.210 5.256651
58.215 5.208994
58.220 5.396368
58.225 5.446836
58.230 5.210501
58.235 5.584768
58.240 5.42346
58.245 5.210913
58.250 5.136653
58.255 4.888506
58.260 5.133982
58.265 5.093951
58.270 4.989851
58.275 4.952526
58.280 4.767829
58.285 4.535273
58.290 4.568488
58.295 4.52162
58.300 4.438957
58.305 4.247899
58.310 4.449116
58.315 4.590116
58.320 4.547198
58.325 4.450438
58.330 4.073072
58.335 3.99386
58.340 3.924489
58.345 3.775501
58.350 3.672191
58.355 3.69431
58.360 3.671473
58.365 4.074047
58.370 4.50211
58.375 4.545795
58.380 4.46405
58.385 5.178091
58.390 5.492712
58.395 5.735871
58.400 5.454413
58.405 5.440243
58.410 5.968343
58.415 6.205774
58.420 5.714428
58.425 5.470016
58.430 5.311426
58.435 5.489593
58.440 5.378723
58.445 5.050879
58.450 5.172204
58.455 5.289632
58.460 5.464839
58.465 5.525991
58.470 5.663823
58.475 5.410487
58.480 5.181445
58.485 4.925372
58.490 5.146547
58.495 5.442035
58.500 5.354717
58.505 5.029705
58.510 5.360244
58.515 5.672056
58.520 5.811595
58.525 5.674146
58.530 5.606796
58.535 5.480876
58.540 5.351576
58.545 5.008136
58.550 4.785995
58.555 4.449698
58.560 3.92499
58.565 3.847252
58.570 4.041405
58.575 3.99168
58.580 4.133607
58.585 4.037552
58.590 4.607619
58.595 4.816443
58.600 4.660305
58.605 4.841897
58.610 5.086885
58.615 5.497661
58.620 5.875135
58.625 5.688257
58.630 5.702917
58.635 5.805349
58.640 5.853324
58.645 5.830685
58.650 5.615373
58.655 5.44915
58.660 5.424113
58.665 5.504949
58.670 5.347867
58.675 5.199639
58.680 5.144051
58.685 5.099497
58.690 5.150441
58.695 5.530452
58.700 5.758292
58.705 6.213454
58.710 6.047188
58.715 6.005533
58.720 5.945094
58.725 6.143964
58.730 5.788124
58.735 5.437499
58.740 5.121595
58.745 5.383357
58.750 5.501892
58.755 5.440573
58.760 5.097373
58.765 5.186683
58.770 5.074555
58.775 5.546097
58.780 5.703954
58.785 5.691344
58.790 5.3919
58.795 5.327536
58.800 5.298908
58.805 5.460054
58.810 5.38492
58.815 5.442934
58.820 5.526641
58.825 5.614938
58.830 5.694691
58.835 5.60797
58.840 5.492787
58.845 5.220891
58.850 4.805107
58.855 4.87538
58.860 4.986076
58.865 4.915029
58.870 5.315364
58.875 5.153794
58.880 4.841617
58.885 4.93876
58.890 4.830091
58.895 4.734052
58.900 4.971003
58.905 4.635052
58.910 5.194082
58.915 5.440483
58.920 5.441297
58.925 5.602257
58.930 5.895784
58.935 5.830407
58.940 5.639834
58.945 5.23173
58.950 5.029839
58.955 4.852512
58.960 4.894197
58.965 4.662996
58.970 4.643386
58.975 5.089841
58.980 5.281518
58.985 5.406585
58.990 5.33947
58.995 5.34958
59.000 5.555394
59.005 5.471458
59.010 5.275349
59.015 5.228547
59.020 5.63914
59.025 5.739858
59.030 5.630118
59.035 6.012935
59.040 6.203084
59.045 6.426024
59.050 6.650059
59.055 6.335386
59.060 6.30267
59.065 6.237464
59.070 5.887961
59.075 5.908776
59.080 5.899952
59.085 5.508437
59.090 5.453876
59.095 5.466301
59.100 5.974532
59.105 6.156651
59.110 5.988092
59.115 5.90816
59.120 6.28327
59.125 6.494676
59.130 6.385647
59.135 5.7788
59.140 5.468698
59.145 5.735577
59.150 5.367258
59.155 4.801101
59.160 4.638787
59.165 4.650879
59.170 4.694819
59.175 4.677816
59.180 4.457802
59.185 4.9215
59.190 5.260548
59.195 5.256292
59.200 5.375021
59.205 5.384695
59.210 5.370129
59.215 5.301144
59.220 5.17806
59.225 5.088318
59.230 4.945142
59.235 4.909771
59.240 5.08032
59.245 5.196534
59.250 5.160123
59.255 4.96813
59.260 4.961948
59.265 5.000655
59.270 5.019964
59.275 4.866022
59.280 4.768614
59.285 4.926745
59.290 5.070365
59.295 5.128458
59.300 5.306385
59.305 5.318584
59.310 5.306077
59.315 5.375358
59.320 5.724111
59.325 5.991024
59.330 6.282065
59.335 6.264531
59.340 6.354114
59.345 6.223954
59.350 6.093483
59.355 5.84029
59.360 5.676602
59.365 5.613792
59.370 5.514985
59.375 5.317673
59.380 5.338295
59.385 5.501472
59.390 5.215964
59.395 5.16232
59.400 5.26766
59.405 5.221834
59.410 5.214134
59.415 5.193059
59.420 5.504112
59.425 6.081141
59.430 6.10637
59.435 5.636866
59.440 5.575947
59.445 5.726965
59.450 6.03153
59.455 5.699317
59.460 5.455261
59.465 5.587543
59.470 5.860036
59.475 5.978534
59.480 5.973798
59.485 5.752761
59.490 5.833832
59.495 5.759547
59.500 5.595985
59.505 5.613492
59.510 6.082403
59.515 6.065678
59.520 6.145689
59.525 6.01752
59.530 5.855527
59.535 5.933104
59.540 5.877397
59.545 5.60515
59.550 5.754238
59.555 5.955407
59.560 6.210994
59.565 6.532925
59.570 6.784467
59.575 6.703716
59.580 6.61013
59.585 6.445859
59.590 6.500058
59.595 6.154263
59.600 5.863034
59.605 5.630047
59.610 5.695777
59.615 5.94551
59.620 6.097268
59.625 6.124453
59.630 6.073979
59.635 5.933896
59.640 5.908265
59.645 5.71418
59.650 5.476454
59.655 5.282126
59.660 5.355546
59.665 5.286203
59.670 5.45127
59.675 5.721363
59.680 5.860952
59.685 6.143263
59.690 6.188902
59.695 6.461399
59.700 6.778939
59.705 6.688276
59.710 6.577656
59.715 6.48879
59.720 6.573367
59.725 6.498601
59.730 5.77855
59.735 5.777097
59.740 6.027091
59.745 6.256556
59.750 6.335051
59.755 5.909454
59.760 5.834569
59.765 6.185091
59.770 6.243599
59.775 6.325938
59.780 6.315116
59.785 6.674324
59.790 7.135068
59.795 7.287715
59.800 7.278203
59.805 7.514397
59.810 7.349622
59.815 7.385145
59.820 7.014759
59.825 6.659875
59.830 6.801913
59.835 6.648974
59.840 6.44908
59.845 6.455228
59.850 6.18212
59.855 6.018869
59.860 6.072724
59.865 5.801932
59.870 5.684758
59.875 5.160318
59.880 4.947123
59.885 5.029558
59.890 5.316557
59.895 5.731836
59.900 5.571616
59.905 5.647286
59.910 6.010112
59.915 6.231795
59.920 6.21222
59.925 6.124928
59.930 5.872855
59.935 6.167062
59.940 6.079
59.945 5.842834
59.950 5.603998
59.955 5.409455
59.960 5.486274
59.965 5.765393
59.970 6.036995
59.975 6.221733
59.980 6.153543
59.985 6.230534
59.990 6.695234
59.995 6.702099
60.000 6.147362
60.005 5.647663
60.010 5.924002
60.015 6.381522
60.020 6.48369
60.025 6.37303
60.030 6.200617
60.035 6.335767
60.040 6.352604
60.045 6.116776
60.050 5.791058
60.055 5.618464
60.060 5.648043
60.065 5.796711
60.070 6.053863
60.075 6.228778
60.080 6.560311
60.085 6.725918
60.090 6.811545
60.095 6.547784
60.100 6.425411
60.105 6.301763
60.110 6.263312
60.115 5.8546
60.120 5.842483
60.125 5.773111
60.130 5.931146
60.135 5.889902
60.140 5.954648
60.145 5.951724
60.150 6.039069
60.155 6.213789
60.160 6.167706
60.165 6.12595
60.170 6.555669
60.175 6.401929
60.180 6.182504
60.185 6.120932
60.190 5.60123
60.195 5.507774
60.200 5.470456
60.205 4.978414
60.210 4.714223
60.215 4.773334
60.220 5.055512
60.225 5.619857
60.230 5.525307
60.235 5.480009
60.240 5.620361
60.245 5.83328
60.250 6.084081
60.255 5.720463
60.260 5.635993
60.265 6.123338
60.270 6.09879
60.275 6.094679
60.280 6.209284
60.285 5.966477
60.290 6.007884
60.295 5.687787
60.300 5.573914
60.305 5.684717
60.310 5.486332
60.315 5.327236
60.320 5.34766
60.325 5.702326
60.330 5.722055
60.335 5.531172
60.340 5.456154
60.345 5.557038
60.350 5.601955
60.355 5.559195
60.360 5.360226
60.365 5.382421
60.370 5.324888
60.375 5.331777
60.380 5.63088
60.385 5.892542
60.390 5.656206
60.395 5.415447
60.400 5.401488
60.405 5.186721
60.410 5.213002
60.415 5.289849
60.420 5.251259
60.425 5.442718
60.430 5.672938
60.435 5.801129
60.440 6.266429
60.445 6.200811
60.450 5.800603
60.455 5.759146
60.460 5.895213
60.465 5.63865
60.470 5.586699
60.475 5.792275
60.480 5.998397
60.485 6.083599
60.490 6.154946
60.495 6.214232
60.500 6.369456
60.505 6.825241
60.510 6.825878
60.515 6.998611
60.520 7.182304
60.525 7.111675
60.530 6.980418
60.535 6.982728
60.540 6.304398
60.545 6.023658
60.550 5.868324
60.555 5.851269
60.560 5.928134
60.565 5.868922
60.570 5.881082
60.575 5.930639
60.580 6.011631
60.585 6.097887
60.590 6.251085
60.595 6.164852
60.600 6.155023
60.605 6.237087
60.610 6.477079
60.615 6.61893
60.620 6.324991
60.625 5.857361
60.630 5.897112
60.635 6.018811
60.640 5.82752
60.645 5.612994
60.650 5.384527
60.655 5.09561
60.660 5.130441
60.665 5.325801
60.670 5.283793
60.675 5.378175
60.680 5.410055
60.685 5.30592
60.690 5.645119
60.695 5.658614
60.700 5.59597
60.705 6.005561
60.710 6.212237
60.715 5.990204
60.720 6.126664
60.725 6.226384
60.730 6.24449
60.735 6.130989
60.740 5.600637
60.745 5.326529
60.750 5.5689
60.755 5.574612
60.760 5.868448
60.765 6.024241
60.770 5.936271
60.775 5.957613
60.780 6.094084
60.785 6.179095
60.790 6.295874
60.795 6.133123
60.800 6.156804
60.805 6.272428
60.810 6.553852
60.815 6.718803
60.820 6.543655
60.825 6.751981
60.830 6.621234
60.835 6.677423
60.840 6.739547
60.845 6.570628
60.850 6.667017
60.855 6.562232
60.860 6.108256
60.865 5.98112
60.870 5.819998
60.875 5.712951
60.880 5.897489
60.885 5.84024
60.890 5.896093
60.895 6.013624
60.900 5.953637
60.905 5.635992
60.910 5.68369
60.915 5.405359
60.920 5.282708
60.925 5.388593
60.930 5.541525
60.935 6.136124
60.940 6.522905
60.945 6.512087
60.950 6.543591
60.955 6.165755
60.960 6.098049
60.965 5.768792
60.970 5.495977
60.975 5.53456
60.980 5.304612
60.985 5.748312
60.990 6.023263
60.995 5.923149
61.000 6.269927
61.005 6.404482
61.010 6.384849
61.015 6.947522
61.020 6.890367
61.025 6.896827
61.030 6.777893
61.035 6.383985
61.040 6.138713
61.045 6.093256
61.050 5.508367
61.055 5.136415
61.060 5.116846
61.065 5.182666
61.070 5.432073
61.075 5.585652
61.080 6.017414
61.085 6.237536
61.090 6.094713
61.095 6.24089
61.100 6.570381
61.105 6.847856
61.110 6.771421
61.115 6.623265
61.120 6.512617
61.125 6.801964
61.130 6.847249
61.135 6.583421
61.140 6.245524
61.145 6.331397
61.150 6.195409
61.155 6.363597
61.160 6.682528
61.165 6.47956
61.170 6.568848
61.175 6.711792
61.180 6.286228
61.185 6.268878
61.190 6.029788
61.195 5.486481
61.200 5.464217
61.205 5.551542
61.210 5.825227
61.215 6.471067
61.220 6.61593
61.225 6.878579
61.230 7.234653
61.235 7.185408
61.240 6.782074
61.245 6.746788
61.250 6.613404
61.255 6.37524
61.260 6.178324
61.265 6.220441
61.270 6.473278
61.275 6.518403
61.280 6.251054
61.285 6.333133
61.290 6.700519
61.295 6.959243
61.300 6.777315
61.305 6.531654
61.310 6.650614
61.315 6.515893
61.320 6.327196
61.325 6.08043
61.330 5.936423
61.335 6.093169
61.340 6.422716
61.345 6.548307
61.350 6.382209
61.355 6.303465
61.360 6.369604
61.365 6.233457
61.370 5.668674
61.375 5.413754
61.380 5.271719
61.385 5.347254
61.390 5.364882
61.395 5.420805
61.400 5.652321
61.405 6.060078
61.410 5.808911
61.415 5.736344
61.420 5.587993
61.425 5.754885
61.430 5.882106
61.435 5.547438
61.440 5.743123
61.445 6.288019
61.450 6.789865
61.455 6.873172
61.460 6.820668
61.465 6.585001
61.470 6.679978
61.475 6.702433
61.480 6.636253
61.485 6.367164
61.490 6.258321
61.495 6.022424
61.500 5.986664
61.505 6.094759
61.510 5.746951
61.515 5.542278
61.520 5.635666
61.525 5.641055
61.530 5.725271
61.535 5.606535
61.540 5.493033
61.545 5.727639
61.550 5.758578
61.555 5.506328
61.560 5.452022
61.565 5.407868
61.570 5.430228
61.575 5.314605
61.580 5.0166
61.585 4.942564
61.590 5.203906
61.595 5.404643
61.600 5.497786
61.605 5.742871
61.610 6.30671
61.615 6.596949
61.620 6.851356
61.625 6.871644
61.630 6.58465
61.635 6.642841
61.640 6.57206
61.645 6.315455
61.650 6.173682
61.655 6.04417
61.660 5.901797
61.665 6.247268
61.670 6.590191
61.675 6.529575
61.680 6.577574
61.685 6.673313
61.690 6.88268
61.695 6.775618
61.700 6.594769
61.705 6.409492
61.710 6.534346
61.715 6.506511
61.720 6.253114
61.725 5.893781
61.730 6.14405
61.735 6.348588
61.740 6.330863
61.745 5.896523
61.750 6.127372
61.755 6.321775
61.760 6.554721
61.765 6.65851
61.770 6.598826
61.775 6.636519
61.780 6.763405
61.785 6.735639
61.790 6.775405
61.795 6.38132
61.800 6.086165
61.805 5.908539
61.810 5.714556
61.815 5.661747
61.820 5.569823
61.825 5.801191
61.830 5.970602
61.835 5.95672
61.840 6.393363
61.845 6.442683
61.850 6.567724
61.855 6.81821
61.860 6.701565
61.865 6.659126
61.870 6.545592
61.875 6.301157
61.880 6.630938
61.885 6.746765
61.890 6.483066
61.895 6.608884
61.900 6.858336
61.905 7.061581
61.910 7.125437
61.915 7.135368
61.920 6.816898
61.925 6.668871
61.930 6.292524
61.935 6.101873
61.940 6.013337
61.945 5.918237
61.950 5.787099
61.955 6.034107
61.960 5.902117
61.965 6.005319
61.970 5.959109
61.975 6.1464
61.980 6.232395
61.985 6.112631
61.990 6.337171
61.995 6.936439
62.000 7.186566
62.005 7.362391
62.010 6.911611
62.015 6.75234
62.020 6.977406
62.025 6.77121
62.030 6.478913
62.035 6.463821
62.040 6.697223
62.045 7.048091
62.050 7.045201
62.055 6.695882
62.060 6.80407
62.065 6.990151
62.070 6.647074
62.075 6.346735
62.080 6.281523
62.085 6.77337
62.090 6.995321
62.095 6.801432
62.100 6.509533
62.105 6.660753
62.110 6.840055
62.115 6.644037
62.120 6.068312
62.125 5.925387
62.130 5.769089
62.135 5.933268
62.140 5.882136
62.145 5.549755
62.150 5.461421
62.155 5.74309
62.160 5.955689
62.165 6.141958
62.170 6.347851
62.175 6.776966
62.180 7.073849
62.185 7.264281
62.190 7.121197
62.195 7.038857
62.200 7.145748
62.205 7.498492
62.210 7.215948
62.215 7.306605
62.220 7.434857
62.225 7.443145
62.230 7.606668
62.235 7.112839
62.240 6.725224
62.245 6.289011
62.250 5.93709
62.255 5.692437
62.260 5.61833
62.265 5.481931
62.270 5.895397
62.275 5.979284
62.280 6.296649
62.285 6.275468
62.290 6.399654
62.295 6.685515
62.300 6.75
62.305 6.647143
62.310 6.741337
62.315 6.74565
62.320 6.923778
62.325 6.846502
62.330 6.743198
62.335 6.314482
62.340 6.135895
62.345 5.726693
62.350 5.677664
62.355 5.576005
62.360 5.641892
62.365 5.72717
62.370 6.09104
62.375 6.03316
62.380 6.092556
62.385 6.254478
62.390 6.657009
62.395 6.592152
62.400 6.602661
62.405 6.462903
62.410 6.948116
62.415 7.244285
62.420 7.191661
62.425 6.899756
62.430 6.805083
62.435 6.607712
62.440 6.699722
62.445 6.555862
62.450 6.787762
62.455 7.376885
62.460 7.915543
62.465 7.996219
62.470 7.92224
62.475 8.131057
62.480 8.314977
62.485 7.640223
62.490 7.180191
62.495 6.641834
62.500 6.718998
62.505 6.740541
62.510 6.438241
62.515 6.78518
62.520 7.055974
62.525 7.068493
62.530 7.066702
62.535 6.943826
62.540 6.977529
62.545 6.906644
62.550 6.280019
62.555 6.208804
62.560 5.836616
62.565 5.901496
62.570 6.031518
62.575 6.304066
62.580 6.462699
62.585 6.664556
62.590 6.859596
62.595 7.423993
62.600 7.42945
62.605 7.328055
62.610 7.226074
62.615 7.020143
62.620 6.643426
62.625 6.462152
62.630 6.184286
62.635 6.240623
62.640 6.264369
62.645 6.168651
62.650 6.512352
62.655 6.604165
62.660 6.73729
62.665 7.005707
62.670 6.831061
62.675 7.017922
62.680 7.047577
62.685 6.742436
62.690 7.017486
62.695 7.197555
62.700 7.258859
62.705 7.710756
62.710 7.806191
62.715 7.872568
62.720 7.995498
62.725 7.884444
62.730 7.283971
62.735 6.796709
62.740 6.551336
62.745 6.574837
62.750 6.744231
62.755 6.748337
62.760 6.952411
62.765 7.490952
62.770 7.750153
62.775 7.969744
62.780 7.738641
62.785 7.507738
62.790 7.595468
62.795 7.612389
62.800 7.573982
62.805 7.639959
62.810 7.634806
62.815 8.182814
62.820 8.610582
62.825 8.747916
62.830 8.397986
62.835 8.104781
62.840 7.797745
62.845 7.427336
62.850 6.680978
62.855 6.450034
62.860 6.329207
62.865 6.079674
62.870 6.216431
62.875 6.559022
62.880 6.825798
62.885 7.018962
62.890 6.890707
62.895 7.005003
62.900 7.289503
62.905 7.095418
62.910 6.693144
62.915 6.206029
62.920 6.051431
62.925 5.775077
62.930 5.329806
62.935 5.298496
62.940 5.142943
62.945 4.84202
62.950 5.096391
62.955 5.342076
62.960 5.344854
62.965 5.769164
62.970 5.853303
62.975 6.314042
62.980 6.944705
62.985 6.97611
62.990 6.846056
62.995 7.385346
63.000 7.324686
63.005 7.07392
63.010 7.089702
63.015 6.945668
63.020 6.843049
63.025 6.732341
63.030 6.142393
63.035 6.114008
63.040 6.497325
63.045 6.668114
63.050 6.402236
63.055 6.100124
63.060 6.400557
63.065 6.452065
63.070 6.335035
63.075 6.177756
63.080 5.7029
63.085 6.052704
63.090 6.388167
63.095 6.178528
63.100 6.380933
63.105 6.554524
63.110 6.433758
63.115 6.441023
63.120 6.60244
63.125 6.604584
63.130 6.188155
63.135 5.902248
63.140 6.122894
63.145 6.438929
63.150 6.520028
63.155 6.336735
63.160 6.756133
63.165 7.254733
63.170 7.485147
63.175 7.308981
63.180 6.934014
63.185 6.838957
63.190 7.039737
63.195 6.595914
63.200 6.518937
63.205 6.309773
63.210 6.472834
63.215 6.757735
63.220 6.648786
63.225 6.544321
63.230 6.675169
63.235 6.414546
63.240 6.233134
63.245 6.171647
63.250 5.992905
63.255 6.119658
63.260 5.999487
63.265 5.816498
63.270 5.959756
63.275 6.034917
63.280 5.856519
63.285 6.348668
63.290 6.632649
63.295 6.634922
63.300 6.816443
63.305 7.00385
63.310 7.193118
63.315 7.293865
63.320 7.195422
63.325 6.779444
63.330 6.576393
63.335 6.615199
63.340 6.355837
63.345 6.287254
63.350 6.473153
63.355 6.573263
63.360 6.850819
63.365 7.002528
63.370 7.091805
63.375 7.552894
63.380 7.670026
63.385 7.502417
63.390 7.289731
63.395 7.245274
63.400 7.032727
63.405 7.090814
63.410 7.101133
63.415 6.985667
63.420 7.07862
63.425 7.262218
63.430 7.502943
63.435 8.038968
63.440 7.973297
63.445 8.01992
63.450 8.391823
63.455 8.27181
63.460 8.027135
63.465 8.328661
63.470 8.037291
63.475 7.85837
63.480 7.883115
63.485 7.913756
63.490 7.713886
63.495 7.659033
63.500 7.39393
63.505 7.179264
63.510 7.123675
63.515 6.807895
63.520 6.431211
63.525 6.36366
63.530 6.477793
63.535 6.181532
63.540 6.55383
63.545 6.759587
63.550 6.78832
63.555 7.00672
63.560 7.094606
63.565 7.13947
63.570 7.326172
63.575 7.394698
63.580 7.380989
63.585 7.469328
63.590 7.111555
63.595 7.316797
63.600 7.115774
63.605 6.702694
63.610 6.645152
63.615 6.613247
63.620 7.027779
63.625 7.187881
63.630 6.806603
63.635 6.911423
63.640 7.147041
63.645 6.817297
63.650 6.535356
63.655 6.176616
63.660 6.341843
63.665 6.688169
63.670 6.842469
63.675 6.945668
63.680 7.144456
63.685 7.083187
63.690 6.814722
63.695 6.605378
63.700 6.329982
63.705 6.251029
63.710 6.187874
63.715 6.121805
63.720 5.990184
63.725 6.077406
63.730 6.229829
63.735 6.439051
63.740 6.78018
63.745 6.946036
63.750 7.003201
63.755 7.034257
63.760 6.798414
63.765 6.496266
63.770 6.385824
63.775 5.96336
63.780 5.58086
63.785 5.784013
63.790 6.051553
63.795 6.057391
63.800 5.922029
63.805 6.113915
63.810 6.436013
63.815 6.7084
63.820 6.394166
63.825 6.445209
63.830 6.435346
63.835 6.602049
63.840 6.105163
63.845 5.942074
63.850 5.706429
63.855 5.657958
63.860 5.481208
63.865 5.66929
63.870 5.807157
63.875 6.039657
63.880 6.027826
63.885 6.342978
63.890 6.331835
63.895 6.266802
63.900 6.158008
63.905 6.271112
63.910 6.466342
63.915 6.177822
63.920 6.075557
63.925 6.179165
63.930 6.365362
63.935 6.26701
63.940 6.30003
63.945 6.133069
63.950 6.586196
63.955 6.835197
63.960 7.064491
63.965 7.032287
63.970 7.017673
63.975 6.778497
63.980 6.676525
63.985 6.696373
63.990 6.332512
63.995 6.252666
64.000 6.385666
64.005 6.44935
64.010 6.247708
64.015 6.351608
64.020 6.206306
64.025 6.56912
64.030 6.434168
64.035 6.49414
64.040 6.644936
64.045 7.148528
64.050 7.275736
64.055 6.916793
64.060 6.331243
64.065 6.183426
64.070 6.067522
64.075 5.628289
64.080 4.946448
64.085 4.739229
64.090 5.003491
64.095 5.66381
64.100 5.652977
64.105 5.551183
64.110 5.822977
64.115 6.212705
64.120 6.04115
64.125 5.761909
64.130 5.660081
64.135 5.692367
64.140 5.520637
64.145 5.614872
64.150 5.797116
64.155 6.195837
64.160 5.843729
64.165 5.41524
64.170 5.568036
64.175 6.196649
64.180 6.047831
64.185 5.617051
64.190 5.62625
64.195 5.908637
64.200 6.252084
64.205 6.030695
64.210 5.822663
64.215 5.850757
64.220 5.756001
64.225 5.441715
64.230 5.592409
64.235 5.589923
64.240 5.603513
64.245 5.632039
64.250 5.807454
64.255 6.335586
64.260 6.656381
64.265 6.416079
64.270 6.160257
64.275 6.346129
64.280 6.327821
64.285 6.342414
64.290 6.517149
64.295 6.293952
64.300 6.220245
64.305 6.254946
64.310 6.074466
64.315 6.053121
64.320 5.745582
64.325 5.334871
64.330 5.640077
64.335 5.877896
64.340 6.243491
64.345 6.91558
64.350 6.954486
64.355 7.13934
64.360 7.110155
64.365 7.31522
64.370 7.204234
64.375 6.983706
64.380 6.771307
64.385 6.784643
64.390 6.915055
64.395 7.058327
64.400 6.991344
64.405 7.106831
64.410 7.013522
64.415 6.742604
64.420 6.516114
64.425 6.375781
64.430 6.347361
64.435 6.434268
64.440 6.707931
64.445 6.62913
64.450 6.71366
64.455 6.993224
64.460 7.06422
64.465 6.851229
64.470 6.621152
64.475 6.534408
64.480 6.602115
64.485 6.577945
64.490 6.209492
64.495 6.160552
64.500 6.216056
64.505 6.183301
64.510 6.21138
64.515 5.866081
64.520 5.823549
64.525 6.179348
64.530 6.26565
64.535 6.598365
64.540 6.442802
64.545 6.877833
64.550 7.629363
64.555 7.634872
64.560 7.429926
64.565 7.326925
64.570 7.419773
64.575 8.085376
64.580 7.469151
64.585 7.110909
64.590 7.05741
64.595 7.09342
64.600 6.984781
64.605 6.726912
64.610 6.271752
64.615 6.575773
64.620 6.552724
64.625 6.78124
64.630 6.693607
64.635 6.553744
64.640 6.402315
64.645 6.776124
64.650 6.816675
64.655 6.960544
64.660 6.755082
64.665 6.781464
64.670 6.974023
64.675 7.046876
64.680 6.781992
64.685 6.748522
64.690 6.426243
64.695 6.498275
64.700 7.060242
64.705 7.392058
64.710 7.610177
64.715 7.302523
64.720 7.292266
64.725 7.645569
64.730 7.684045
64.735 7.220379
64.740 7.102558
64.745 7.099991
64.750 7.449407
64.755 7.635962
64.760 7.772453
64.765 7.880559
64.770 7.661364
64.775 7.363976
64.780 7.172233
64.785 6.890524
64.790 6.846036
64.795 6.757884
64.800 6.902475
64.805 7.03221
64.810 7.14654
64.815 7.218362
64.820 7.276679
64.825 7.673189
64.830 7.984391
64.835 7.871284
64.840 7.971496
64.845 8.00977
64.850 8.253995
64.855 8.643191
64.860 8.278993
64.865 7.925106
64.870 8.043655
64.875 7.728627
64.880 7.638767
64.885 7.143814
64.890 6.24629
64.895 6.166892
64.900 6.348681
64.905 6.504918
64.910 6.829868
64.915 7.177768
64.920 7.549187
64.925 7.904181
64.930 7.856532
64.935 7.819809
64.940 7.875105
64.945 8.033381
64.950 8.132717
64.955 7.918676
64.960 7.988166
64.965 7.985643
64.970 7.882362
64.975 7.832771
64.980 8.001681
64.985 7.91298
64.990 8.56051
64.995 8.521989
65.000 8.507619
65.005 8.668025
65.010 8.524986
65.015 8.210649
65.020 8.291774
65.025 7.795558
65.030 7.807199
65.035 7.966558
65.040 8.052468
65.045 8.169595
65.050 8.350823
65.055 8.234625
65.060 8.56068
65.065 8.841116
65.070 8.775456
65.075 8.52772
65.080 8.815075
65.085 8.952463
65.090 8.869675
65.095 8.541014
65.100 8.221472
65.105 7.949311
65.110 7.750974
65.115 7.125977
65.120 6.728349
65.125 6.557883
65.130 6.610484
65.135 6.472251
65.140 6.787657
65.145 6.927678
65.150 7.085368
65.155 7.575607
65.160 7.71356
65.165 7.865639
65.170 8.192816
65.175 7.998473
65.180 7.53135
65.185 7.363241
65.190 7.169132
65.195 7.08316
65.200 6.814374
65.205 6.510286
65.210 6.253551
65.215 6.875319
65.220 6.936886
65.225 6.598434
65.230 7.027523
65.235 7.111939
65.240 7.118727
65.245 7.649019
65.250 7.498395
65.255 7.905595
65.260 8.09934
65.265 7.700828
65.270 7.462256
65.275 7.578859
65.280 7.529161
65.285 7.311641
65.290 6.965784
65.295 7.091235
65.300 7.591218
65.305 7.859023
65.310 7.746828
65.315 7.827919
65.320 8.040926
65.325 8.268517
65.330 8.088636
65.335 7.311306
65.340 7.119629
65.345 7.030462
65.350 6.493021
65.355 6.476861
65.360 6.527426
65.365 6.449722
65.370 6.532667
65.375 6.796016
65.380 7.035539
65.385 7.15593
65.390 6.929158
65.395 6.599552
65.400 6.773296
65.405 7.404875
65.410 7.657515
65.415 7.480931
65.420 7.65482
65.425 7.972751
65.430 8.115917
65.435 8.287711
65.440 8.024477
65.445 7.88651
65.450 8.115885
65.455 8.150142
65.460 8.091211
65.465 8.21106
65.470 8.146685
65.475 8.28361
65.480 8.051043
65.485 7.822726
65.490 7.805432
65.495 7.675635
65.500 7.455326
65.505 7.519731
65.510 7.368557
65.515 7.329925
65.520 7.125444
65.525 6.890668
65.530 6.787953
65.535 6.876335
65.540 6.498042
65.545 6.244723
65.550 6.34193
65.555 6.785002
65.560 7.163289
65.565 7.078075
65.570 6.909429
65.575 7.386867
65.580 7.831554
65.585 7.548384
65.590 7.039698
65.595 6.886655
65.600 7.064171
65.605 6.835529
65.610 6.691292
65.615 6.370508
65.620 6.517076
65.625 6.308665
65.630 6.159173
65.635 6.137652
65.640 6.290374
65.645 6.026447
65.650 6.152288
65.655 6.387514
65.660 6.844069
65.665 6.856356
65.670 6.640605
65.675 6.477795
65.680 6.718249
65.685 6.693383
65.690 6.423599
65.695 6.103601
65.700 5.813351
65.705 5.91969
65.710 6.064461
65.715 5.596949
65.720 5.398769
65.725 5.585282
65.730 5.989852
65.735 6.42608
65.740 6.438934
65.745 6.42038
65.750 6.729287
65.755 7.485756
65.760 7.501452
65.765 7.465578
65.770 7.689825
65.775 7.918812
65.780 7.994139
65.785 8.048372
65.790 7.334814
65.795 7.320899
65.800 7.548108
65.805 7.426179
65.810 7.224899
65.815 7.21738
65.820 7.339916
65.825 7.280663
65.830 6.800243
65.835 6.328321
65.840 6.148859
65.845 6.204937
65.850 6.221252
65.855 6.08151
65.860 6.091825
65.865 6.779169
65.870 7.135736
65.875 7.365082
65.880 7.686008
65.885 7.747443
65.890 8.191441
65.895 8.491672
65.900 8.224782
65.905 8.200438
65.910 8.070038
65.915 7.916898
65.920 7.434196
65.925 6.544564
65.930 6.244703
65.935 6.068943
65.940 5.958061
65.945 6.1199
65.950 6.201997
65.955 6.704803
65.960 7.356995
65.965 7.186965
65.970 7.515775
65.975 7.660664
65.980 7.303953
65.985 7.400926
65.990 7.402389
65.995 7.368514
66.000 7.535364
66.005 7.292476
66.010 7.199929
66.015 7.155406
66.020 6.681033
66.025 6.255491
66.030 6.595029
66.035 6.796968
66.040 6.738025
66.045 6.523572
66.050 6.766557
66.055 6.741416
66.060 6.757238
66.065 6.186512
66.070 6.014681
66.075 6.150331
66.080 6.160488
66.085 5.990045
66.090 6.163236
66.095 6.619183
66.100 6.987445
66.105 7.124427
66.110 7.024537
66.115 7.047468
66.120 7.089773
66.125 7.0394
66.130 6.964294
66.135 6.677969
66.140 6.593091
66.145 6.700806
66.150 6.876648
66.155 6.995905
66.160 6.891893
66.165 6.964236
66.170 7.217694
66.175 7.130069
66.180 6.879405
66.185 6.780655
66.190 6.495881
66.195 6.296295
66.200 6.076567
66.205 5.996673
66.210 6.155439
66.215 6.554879
66.220 6.789296
66.225 7.173128
66.230 7.386673
66.235 7.402036
66.240 7.414946
66.245 7.162785
66.250 7.18412
66.255 7.211101
66.260 7.201624
66.265 6.938161
66.270 6.770036
66.275 6.815366
66.280 6.900476
66.285 6.908607
66.290 6.985379
66.295 6.802226
66.300 7.532252
66.305 7.934557
66.310 7.807451
66.315 7.8302
66.320 7.678239
66.325 7.689991
66.330 7.654212
66.335 7.452942
66.340 7.396039
66.345 7.481442
66.350 7.681911
66.355 7.588229
66.360 7.680533
66.365 7.644844
66.370 7.576092
66.375 7.373679
66.380 7.449568
66.385 7.117496
66.390 6.982322
66.395 6.766716
66.400 6.695118
66.405 6.469426
66.410 6.702563
66.415 6.408954
66.420 6.479058
66.425 6.795102
66.430 6.618309
66.435 6.649158
66.440 6.576062
66.445 6.185279
66.450 6.251776
66.455 6.189981
66.460 6.052978
66.465 6.386458
66.470 6.44289
66.475 6.6297
66.480 7.294008
66.485 7.742561
66.490 7.860483
66.495 7.799621
66.500 7.705413
66.505 7.847666
66.510 7.993944
66.515 7.901348
66.520 7.96508
66.525 8.167506
66.530 8.075615
66.535 7.922748
66.540 7.802608
66.545 7.425107
66.550 6.709512
66.555 6.293778
66.560 6.263909
66.565 6.353827
66.570 6.246177
66.575 6.175349
66.580 5.956285
66.585 5.96869
66.590 5.984319
66.595 6.094051
66.600 6.120427
66.605 6.336278
66.610 6.251896
66.615 6.537028
66.620 7.473396
66.625 7.403206
66.630 7.266317
66.635 7.067897
66.640 7.068477
66.645 7.299025
66.650 7.237645
66.655 6.806866
66.660 6.874375
66.665 6.887524
66.670 7.036518
66.675 7.090541
66.680 7.011313
66.685 7.254747
66.690 7.322447
66.695 7.001756
66.700 6.780121
66.705 6.566122
66.710 6.353799
66.715 6.257369
66.720 5.626434
66.725 5.467486
66.730 5.586801
66.735 5.952892
66.740 5.836299
66.745 5.879842
66.750 6.182408
66.755 6.605915
66.760 6.924146
66.765 7.043304
66.770 7.298474
66.775 7.722545
66.780 8.100244
66.785 7.763201
66.790 7.362661
66.795 7.367085
66.800 6.966027
66.805 6.545465
66.810 6.490895
66.815 6.130211
66.820 6.374258
66.825 6.469728
66.830 6.079745
66.835 6.173861
66.840 6.019564
66.845 5.781242
66.850 5.914176
66.855 5.961835
66.860 6.145579
66.865 6.190008
66.870 6.463308
66.875 6.868286
66.880 6.637835
66.885 6.345908
66.890 5.905387
66.895 6.081203
66.900 6.296656
66.905 6.273451
66.910 6.269367
66.915 6.493968
66.920 6.445893
66.925 6.568189
66.930 6.317319
66.935 6.6761
66.940 6.64183
66.945 6.486717
66.950 6.79927
66.955 7.240034
66.960 7.358468
66.965 7.394823
66.970 7.221945
66.975 6.889671
66.980 6.888737
66.985 6.840195
66.990 6.997293
66.995 7.375322
67.000 7.345981
67.005 7.160634
67.010 7.47309
67.015 7.835248
67.020 7.527907
67.025 7.242831
67.030 7.059759
67.035 6.98955
67.040 7.315374
67.045 7.236143
67.050 7.082671
67.055 7.419322
67.060 7.229329
67.065 7.087475
67.070 6.83518
67.075 6.720729
67.080 6.90137
67.085 6.715276
67.090 6.526829
67.095 6.475162
67.100 6.653883
67.105 7.019805
67.110 6.978096
67.115 6.904816
67.120 7.125218
67.125 7.618703
67.130 7.470546
67.135 7.242118
67.140 6.653802
67.145 6.536348
67.150 6.285137
67.155 6.412883
67.160 6.016825
67.165 6.103622
67.170 6.33725
67.175 6.41987
67.180 6.738142
67.185 6.641033
67.190 5.950676
67.195 6.048629
67.200 5.983614
67.205 5.831014
67.210 6.025298
67.215 6.170086
67.220 6.278194
67.225 6.583276
67.230 6.77082
67.235 7.278067
67.240 7.934295
67.245 8.058149
67.250 7.592432
67.255 7.576486
67.260 7.585522
67.265 7.797842
67.270 7.78148
67.275 7.231661
67.280 7.639071
67.285 8.348517
67.290 8.459555
67.295 8.173451
67.300 7.897994
67.305 7.63226
67.310 7.29683
67.315 6.88176
67.320 6.28751
67.325 6.690253
67.330 6.931322
67.335 6.727709
67.340 6.760244
67.345 7.029406
67.350 7.201447
67.355 7.732947
67.360 7.408248
67.365 7.3388
67.370 7.337123
67.375 7.520071
67.380 7.616545
67.385 7.14291
67.390 6.709031
67.395 6.884781
67.400 7.182061
67.405 6.968406
67.410 6.950499
67.415 6.939653
67.420 7.346237
67.425 7.371445
67.430 6.862221
67.435 6.821829
67.440 6.957754
67.445 6.879953
67.450 6.484182
67.455 6.19767
67.460 6.156302
67.465 6.292534
67.470 6.272015
67.475 6.373539
67.480 6.714453
67.485 7.284404
67.490 7.433948
67.495 7.402018
67.500 7.404932
67.505 7.419964
67.510 7.334861
67.515 7.315609
67.520 7.200243
67.525 7.562046
67.530 7.697921
67.535 7.944499
67.540 7.909863
67.545 8.196515
67.550 8.108218
67.555 7.90976
67.560 7.652543
67.565 7.717204
67.570 7.654825
67.575 7.810491
67.580 7.85184
67.585 8.247059
67.590 9.033051
67.595 9.289808
67.600 9.006718
67.605 8.890159
67.610 8.738426
67.615 8.401322
67.620 8.028598
67.625 6.866212
67.630 6.49793
67.635 6.731232
67.640 7.196917
67.645 7.285495
67.650 7.370451
67.655 7.270098
67.660 7.500238
67.665 7.676393
67.670 7.579813
67.675 7.158131
67.680 7.044226
67.685 6.726942
67.690 6.803845
67.695 6.877489
67.700 6.783984
67.705 6.407113
67.710 6.245637
67.715 6.079542
67.720 6.679396
67.725 7.285706
67.730 7.660925
67.735 8.163668
67.740 8.863922
67.745 9.146121
67.750 9.05276
67.755 8.655322
67.760 7.903398
67.765 8.043983
67.770 7.802199
67.775 7.353421
67.780 7.322544
67.785 7.562316
67.790 7.81199
67.795 7.884626
67.800 7.439036
67.805 7.434846
67.810 7.554965
67.815 7.77748
67.820 8.29086
67.825 8.510234
67.830 8.414351
67.835 8.15702
67.840 7.973949
67.845 7.735809
67.850 7.444524
67.855 7.102849
67.860 6.927769
67.865 6.888752
67.870 7.112949
67.875 7.738081
67.880 8.004626
67.885 7.811706
67.890 7.378099
67.895 7.233552
67.900 7.72791
67.905 7.699747
67.910 6.940233
67.915 6.622035
67.920 6.777924
67.925 7.118899
67.930 7.223078
67.935 7.288517
67.940 7.700449
67.945 8.279637
67.950 8.584724
67.955 8.62001
67.960 8.919833
67.965 9.101465
67.970 9.181479
67.975 8.867934
67.980 8.483258
67.985 8.260092
67.990 7.976106
67.995 7.533995
68.000 6.921854
68.005 6.765516
68.010 7.185349
68.015 7.286031
68.020 7.434257
68.025 7.453391
68.030 7.806191
68.035 7.97846
68.040 7.694696
68.045 7.594821
68.050 7.813712
68.055 7.756104
68.060 7.581741
68.065 7.256676
68.070 7.032924
68.075 6.964037
68.080 6.859842
68.085 6.940499
68.090 7.056209
68.095 7.071246
68.100 7.147715
68.105 7.372731
68.110 7.481815
68.115 7.45422
68.120 7.368587
68.125 7.370905
68.130 7.412719
68.135 7.47392
68.140 7.764514
68.145 7.806445
68.150 7.80319
68.155 7.774073
68.160 7.931231
68.165 7.795301
68.170 7.341298
68.175 6.98399
68.180 7.148435
68.185 7.182226
68.190 7.404691
68.195 7.345222
68.200 7.876375
68.205 8.407497
68.210 8.543375
68.215 8.46505
68.220 8.473532
68.225 8.12799
68.230 7.968866
68.235 7.289511
68.240 6.812531
68.245 6.7503
68.250 6.261883
68.255 6.324609
68.260 6.575345
68.265 6.846488
68.270 7.080284
68.275 7.066474
68.280 6.721929
68.285 7.004286
68.290 6.678082
68.295 6.713276
68.300 6.876858
68.305 7.310747
68.310 7.263021
68.315 7.279883
68.320 7.43327
68.325 7.529971
68.330 7.347673
68.335 7.085822
68.340 6.933079
68.345 7.319858
68.350 7.323781
68.355 7.343211
68.360 7.367395
68.365 7.350815
68.370 7.190706
68.375 6.966349
68.380 7.095693
68.385 7.045387
68.390 6.477298
68.395 6.36289
68.400 6.492108
68.405 6.509636
68.410 6.598846
68.415 6.454591
68.420 6.44761
68.425 6.608771
68.430 6.702697
68.435 6.755692
68.440 6.53813
68.445 6.55538
68.450 6.313776
68.455 6.380328
68.460 6.443745
68.465 6.243787
68.470 6.506489
68.475 6.928096
68.480 6.895762
68.485 6.857841
68.490 6.774291
68.495 7.016707
68.500 6.928776
68.505 6.566412
68.510 6.575688
68.515 6.666059
68.520 7.030729
68.525 7.20149
68.530 7.035376
68.535 7.459218
68.540 7.707669
68.545 7.680156
68.550 7.636587
68.555 7.587803
68.560 7.592854
68.565 7.472443
68.570 7.428074
68.575 7.037379
68.580 6.908743
68.585 7.151789
68.590 7.119956
68.595 7.055589
68.600 7.183159
68.605 7.004598
68.610 7.061469
68.615 7.07035
68.620 6.807923
68.625 7.127745
68.630 7.475871
68.635 7.306539
68.640 7.384182
68.645 7.376121
68.650 7.632871
68.655 8.129317
68.660 7.716553
68.665 7.65309
68.670 7.901646
68.675 8.209827
68.680 8.588267
68.685 8.195613
68.690 7.543205
68.695 7.630169
68.700 7.466825
68.705 7.004463
68.710 6.599625
68.715 6.449598
68.720 6.830752
68.725 7.074949
68.730 6.825019
68.735 6.902499
68.740 7.39395
68.745 7.512327
68.750 7.394554
68.755 6.910314
68.760 6.836149
68.765 6.873085
68.770 7.057265
68.775 7.105327
68.780 7.006454
68.785 6.85851
68.790 7.124835
68.795 7.179189
68.800 7.388291
68.805 7.078459
68.810 6.756987
68.815 6.940318
68.820 6.883946
68.825 6.856434
68.830 6.943197
68.835 6.815451
68.840 7.020305
68.845 7.257736
68.850 7.388782
68.855 7.512856
68.860 7.35816
68.865 7.395296
68.870 7.324298
68.875 7.143534
68.880 7.555049
68.885 7.736825
68.890 7.795077
68.895 7.606204
68.900 7.748482
68.905 7.988959
68.910 7.700835
68.915 7.328099
68.920 7.202349
68.925 7.30409
68.930 7.388345
68.935 6.828845
68.940 6.66481
68.945 7.249911
68.950 7.640346
68.955 7.420555
68.960 7.346145
68.965 7.384109
68.970 7.69046
68.975 7.562113
68.980 7.512392
68.985 7.648896
68.990 8.059625
68.995 8.070767
69.000 8.196042
69.005 8.460307
69.010 8.383041
69.015 8.267005
69.020 8.165297
69.025 8.481635
69.030 8.769796
69.035 9.105994
69.040 9.630278
69.045 9.559784
69.050 9.647579
69.055 9.42152
69.060 9.110589
69.065 9.19794
69.070 8.6289
69.075 8.016956
69.080 7.762373
69.085 7.529958
69.090 7.376587
69.095 7.32528
69.100 7.470789
69.105 7.572612
69.110 7.73986
69.115 8.099854
69.120 7.913194
69.125 7.696709
69.130 7.576744
69.135 7.486634
69.140 7.623105
69.145 7.666024
69.150 7.471607
69.155 7.809413
69.160 7.784088
69.165 7.541227
69.170 7.499075
69.175 7.664507
69.180 7.404271
69.185 7.084383
69.190 6.872235
69.195 7.395181
69.200 7.150674
69.205 6.871466
69.210 6.782992
69.215 6.861489
69.220 7.060868
69.225 6.895137
69.230 6.90272
69.235 7.229789
69.240 7.150964
69.245 7.170921
69.250 7.276287
69.255 7.077524
69.260 6.915816
69.265 6.622357
69.270 6.718951
69.275 6.702803
69.280 6.791052
69.285 6.82105
69.290 7.249974
69.295 7.495738
69.300 7.60233
69.305 7.823937
69.310 8.113027
69.315 7.895137
69.320 7.958057
69.325 7.888061
69.330 7.710439
69.335 7.749448
69.340 7.563049
69.345 7.416757
69.350 7.286352
69.355 6.94281
69.360 6.938735
69.365 7.190209
69.370 7.130947
69.375 6.813263
69.380 6.8829
69.385 6.938649
69.390 7.296537
69.395 6.833829
69.400 6.495187
69.405 6.351961
69.410 6.475951
69.415 6.409071
69.420 6.593784
69.425 6.583782
69.430 6.846432
69.435 7.586565
69.440 7.770841
69.445 7.784472
69.450 7.948358
69.455 7.657056
69.460 7.344846
69.465 6.87402
69.470 6.232564
69.475 6.100925
69.480 6.29364
69.485 6.359405
69.490 6.531717
69.495 7.30357
69.500 7.371302
69.505 7.462507
69.510 7.335813
69.515 6.681445
69.520 6.287652
69.525 5.949823
69.530 5.702084
69.535 5.869683
69.540 5.928117
69.545 5.804071
69.550 6.194544
69.555 6.070571
69.560 6.124788
69.565 6.309736
69.570 6.469605
69.575 6.593059
69.580 6.869112
69.585 6.709991
69.590 6.870202
69.595 7.009111
69.600 7.04196
69.605 7.029727
69.610 6.756164
69.615 6.881634
69.620 7.147651
69.625 6.953288
69.630 6.577546
69.635 6.259326
69.640 6.232447
69.645 5.983058
69.650 5.982893
69.655 5.944272
69.660 6.421587
69.665 6.527838
69.670 6.3893
69.675 5.98468
69.680 6.03204
69.685 5.861238
69.690 5.843465
69.695 5.495255
69.700 5.65252
69.705 6.156898
69.710 6.759688
69.715 7.097528
69.720 7.080732
69.725 7.423286
69.730 7.998165
69.735 8.180305
69.740 7.931519
69.745 7.652387
69.750 7.684096
69.755 7.685485
69.760 7.271794
69.765 6.799736
69.770 6.58213
69.775 6.598089
69.780 6.472395
69.785 6.465546
69.790 6.677193
69.795 6.989852
69.800 7.079351
69.805 6.758212
69.810 6.739528
69.815 6.918174
69.820 6.598741
69.825 6.280403
69.830 6.367029
69.835 6.529974
69.840 6.68099
69.845 6.915057
69.850 7.276404
69.855 7.486389
69.860 7.797371
69.865 7.302296
69.870 7.468227
69.875 7.546198
69.880 7.183208
69.885 6.801023
69.890 6.923272
69.895 6.902111
69.900 7.232345
69.905 7.02097
69.910 7.050915
69.915 7.248517
69.920 7.245041
69.925 7.331394
69.930 7.146671
69.935 7.091094
69.940 6.977402
69.945 6.86735
69.950 7.064585
69.955 7.006813
69.960 6.993526
69.965 7.147268
69.970 6.908779
69.975 7.093578
69.980 6.996686
69.985 6.961446
69.990 6.985661
69.995 7.029449
70.000 7.007464
70.005 6.905666
70.010 6.876339
70.015 6.8986
70.020 6.690541
70.025 6.593092
70.030 6.201318
70.035 6.153338
70.040 6.433118
70.045 6.016558
70.050 6.078721
70.055 6.298978
70.060 6.547729
70.065 6.647779
70.070 6.427738
70.075 6.429313
70.080 6.615056
70.085 6.616683
70.090 6.723856
70.095 6.801609
70.100 6.698885
70.105 7.102822
70.110 7.187633
70.115 7.118279
70.120 7.227375
70.125 7.010895
70.130 7.039525
70.135 7.29733
70.140 7.272538
70.145 7.170269
70.150 7.62551
70.155 7.483776
70.160 7.449296
70.165 7.522039
70.170 7.838675
70.175 7.864229
70.180 8.017333
70.185 7.794167
70.190 8.066257
70.195 8.002259
70.200 7.998834
70.205 8.22519
70.210 8.054235
70.215 8.20026
70.220 8.25568
70.225 8.017184
70.230 8.015809
70.235 7.891902
70.240 7.711593
70.245 8.192792
70.250 8.372936
70.255 8.291827
70.260 8.210066
70.265 8.106824
70.270 7.952388
70.275 7.75889
70.280 7.431746
70.285 6.842516
70.290 6.919496
70.295 7.269341
70.300 7.54109
70.305 7.753084
70.310 7.559686
70.315 7.528385
70.320 7.787317
70.325 7.728511
70.330 7.45517
70.335 7.515672
70.340 7.659162
70.345 7.772781
70.350 7.926166
70.355 7.737748
70.360 7.82604
70.365 7.618223
70.370 7.219253
70.375 6.896261
70.380 7.036618
70.385 7.194127
70.390 7.126556
70.395 7.100471
70.400 7.1716
70.405 6.889615
70.410 7.104403
70.415 6.859387
70.420 6.755568
70.425 6.970436
70.430 6.718169
70.435 6.852278
70.440 7.298268
70.445 6.983558
70.450 7.136084
70.455 7.262298
70.460 7.430032
70.465 7.607674
70.470 7.492738
70.475 7.400748
70.480 7.239218
70.485 7.106944
70.490 7.30477
70.495 7.530867
70.500 7.624907
70.505 7.975267
70.510 8.410912
70.515 8.480512
70.520 8.405963
70.525 8.106795
70.530 7.756331
70.535 7.607397
70.540 7.309878
70.545 7.32747
70.550 7.328883
70.555 7.145461
70.560 7.103297
70.565 7.025871
70.570 7.521995
70.575 7.471108
70.580 7.448059
70.585 7.594372
70.590 7.875722
70.595 8.144409
70.600 8.161656
70.605 7.664407
70.610 7.652898
70.615 7.172699
70.620 7.052166
70.625 6.626721
70.630 6.492249
70.635 6.509757
70.640 6.410923
70.645 6.496812
70.650 6.710258
70.655 7.114032
70.660 7.640955
70.665 7.768488
70.670 7.861485
70.675 7.992
70.680 8.118378
70.685 7.979321
70.690 7.982693
70.695 7.843399
70.700 7.590028
70.705 7.435881
70.710 7.264491
70.715 7.414401
70.720 7.478891
70.725 6.917639
70.730 6.866325
70.735 6.835418
70.740 7.231041
70.745 7.29902
70.750 6.868118
70.755 6.80667
70.760 7.208854
70.765 7.250259
70.770 7.215193
70.775 7.288225
70.780 7.112319
70.785 7.344362
70.790 7.521503
70.795 7.390297
70.800 7.202398
70.805 7.061631
70.810 6.87648
70.815 6.710739
70.820 7.021298
70.825 6.762251
70.830 6.899784
70.835 6.801136
70.840 7.027997
70.845 7.12519
70.850 7.149352
70.855 6.860045
70.860 6.817854
70.865 7.131649
70.870 7.13591
70.875 6.992371
70.880 6.928987
70.885 7.047993
70.890 7.356055
70.895 7.581749
70.900 7.57409
70.905 7.840055
70.910 8.086009
70.915 8.100467
70.920 8.202042
70.925 7.955029
70.930 7.51973
70.935 7.173981
70.940 7.028545
70.945 7.071476
70.950 7.248595
70.955 7.231764
70.960 7.0441
70.965 7.011669
70.970 7.269566
70.975 6.90133
70.980 6.503041
70.985 6.280945
70.990 6.43779
70.995 6.41838
71.000 6.191101
71.005 6.058017
71.010 6.280584
71.015 6.71663
71.020 7.206378
71.025 7.09067
71.030 7.167413
71.035 7.304049
71.040 7.238087
71.045 7.303358
71.050 6.780905
71.055 6.667454
71.060 6.873779
71.065 7.184229
71.070 7.252056
71.075 7.253242
71.080 7.233343
71.085 7.582318
71.090 7.693855
71.095 7.621523
71.100 7.710624
71.105 7.51369
71.110 7.499811
71.115 7.463911
71.120 7.300498
71.125 6.684941
71.130 6.595318
71.135 6.286444
71.140 6.393195
71.145 6.494411
71.150 6.169388
71.155 6.165567
71.160 6.240181
71.165 6.184124
71.170 6.518854
71.175 6.665879
71.180 6.919868
71.185 7.071634
71.190 7.182058
71.195 7.599108
71.200 7.434728
71.205 7.340788
71.210 7.665918
71.215 7.57168
71.220 7.653264
71.225 7.55828
71.230 7.411297
71.235 7.376676
71.240 7.33778
71.245 6.922752
71.250 6.839453
71.255 6.565814
71.260 6.744849
71.265 6.495636
71.270 6.781678
71.275 6.802254
71.280 7.092356
71.285 7.045545
71.290 7.124451
71.295 7.243603
71.300 6.997074
71.305 6.887033
71.310 6.861224
71.315 6.538288
71.320 6.983331
71.325 6.707048
71.330 6.641264
71.335 7.018467
71.340 6.808371
71.345 6.857942
71.350 6.732595
71.355 6.670413
71.360 6.779579
71.365 6.379082
71.370 6.150877
71.375 6.102376
71.380 6.073531
71.385 6.037467
71.390 6.23738
71.395 6.664663
71.400 7.049453
71.405 7.571574
71.410 7.61375
71.415 7.744654
71.420 7.532852
71.425 6.714382
71.430 6.611108
71.435 6.418376
71.440 5.945893
71.445 5.850571
71.450 5.795971
71.455 5.944554
71.460 6.191089
71.465 6.272453
71.470 6.364769
71.475 6.579786
71.480 6.822711
71.485 7.16495
71.490 7.466074
71.495 7.612596
71.500 7.707874
71.505 7.910909
71.510 7.653909
71.515 7.254546
71.520 7.147168
71.525 6.947246
71.530 6.964717
71.535 6.529972
71.540 6.339946
71.545 6.526385
71.550 6.707364
71.555 6.725264
71.560 6.830119
71.565 6.745626
71.570 7.079478
71.575 7.27612
71.580 7.401916
71.585 7.588789
71.590 7.717698
71.595 7.883249
71.600 8.107503
71.605 8.212572
71.610 8.122466
71.615 7.918791
71.620 7.55077
71.625 7.388385
71.630 7.652318
71.635 7.088543
71.640 6.506144
71.645 6.5794
71.650 6.458657
71.655 6.367238
71.660 6.391079
71.665 6.320877
71.670 6.534277
71.675 6.586926
71.680 6.727601
71.685 6.926056
71.690 7.054008
71.695 6.979537
71.700 6.895186
71.705 6.93187
71.710 6.621153
71.715 6.831871
71.720 6.915725
71.725 7.196001
71.730 7.208307
71.735 7.118071
71.740 7.322541
71.745 7.575913
71.750 7.279271
71.755 7.266254
71.760 7.132573
71.765 7.158803
71.770 7.513678
71.775 7.633225
71.780 7.582429
71.785 7.558214
71.790 7.468375
71.795 7.454907
71.800 7.335639
71.805 7.473804
71.810 7.495933
71.815 7.347162
71.820 7.280245
71.825 6.859025
71.830 6.987856
71.835 6.902876
71.840 6.450365
71.845 6.759049
71.850 7.059503
71.855 7.466921
71.860 7.984624
71.865 8.122723
71.870 8.076221
71.875 8.28744
71.880 8.093539
71.885 8.17626
71.890 7.656829
71.895 7.109898
71.900 6.891315
71.905 6.701369
71.910 6.658838
71.915 6.386425
71.920 6.302771
71.925 6.742235
71.930 7.053127
71.935 7.152731
71.940 7.19594
71.945 7.321198
71.950 7.70926
71.955 7.649395
71.960 7.62447
71.965 7.748605
71.970 7.817712
71.975 7.499954
71.980 7.268165
71.985 6.89279
71.990 7.126028
71.995 7.247914
72.000 7.206573
72.005 7.455171
72.010 7.524128
72.015 7.615131
72.020 8.138586
72.025 7.860898
72.030 7.611449
72.035 7.807445
72.040 7.90157
72.045 8.187081
72.050 7.930287
72.055 7.362117
72.060 7.298615
72.065 7.317517
72.070 6.940259
72.075 6.76683
72.080 6.96987
72.085 7.197902
72.090 7.107407
72.095 6.975038
72.100 6.847723
72.105 6.973363
72.110 6.926028
72.115 6.90108
72.120 6.682672
72.125 6.820227
72.130 7.270773
72.135 7.387242
72.140 7.246547
72.145 7.375899
72.150 7.53199
72.155 8.097684
72.160 7.952692
72.165 7.899455
72.170 7.904263
72.175 7.723183
72.180 7.475524
72.185 7.102414
72.190 7.037592
72.195 7.205245
72.200 7.032986
72.205 7.150028
72.210 7.495263
72.215 7.893654
72.220 8.281944
72.225 8.482303
72.230 8.575792
72.235 8.882752
72.240 8.619457
72.245 8.276361
72.250 7.97668
72.255 7.405412
72.260 7.321589
72.265 7.013771
72.270 7.251416
72.275 7.768792
72.280 7.933872
72.285 7.826346
72.290 8.030498
72.295 7.868424
72.300 7.742273
72.305 7.271968
72.310 6.979284
72.315 6.952373
72.320 7.299183
72.325 7.357994
72.330 7.214141
72.335 7.340443
72.340 7.290725
72.345 7.212486
72.350 7.061539
72.355 7.282672
72.360 7.411894
72.365 7.353575
72.370 7.27957
72.375 7.800919
72.380 7.960035
72.385 8.121787
72.390 7.491001
72.395 7.044132
72.400 7.199151
72.405 7.065627
72.410 6.623233
72.415 6.56017
72.420 6.347963
72.425 6.775776
72.430 6.933141
72.435 6.802777
72.440 6.657135
72.445 7.037339
72.450 7.015579
72.455 6.828316
72.460 6.65014
72.465 6.724725
72.470 7.080123
72.475 7.066195
72.480 6.865346
72.485 6.931225
72.490 6.996403
72.495 6.73486
72.500 6.502124
72.505 6.319052
72.510 6.323016
72.515 6.191776
72.520 6.152081
72.525 6.049044
72.530 6.462608
72.535 6.635153
72.540 6.619429
72.545 6.563201
72.550 6.723485
72.555 6.662201
72.560 6.706324
72.565 7.070776
72.570 6.780521
72.575 6.89901
72.580 7.083881
72.585 7.081058
72.590 7.166854
72.595 7.247508
72.600 6.865253
72.605 7.122876
72.610 7.070742
72.615 7.24313
72.620 7.654477
72.625 8.247986
72.630 8.477576
72.635 8.749719
72.640 8.751277
72.645 8.686006
72.650 8.560821
72.655 8.272038
72.660 7.664362
72.665 7.633507
72.670 7.332507
72.675 7.679351
72.680 7.549439
72.685 7.124684
72.690 7.617321
72.695 7.780335
72.700 7.712098
72.705 7.42639
72.710 7.541487
72.715 7.547983
72.720 7.408507
72.725 6.876029
72.730 6.666731
72.735 6.926662
72.740 7.011866
72.745 6.747495
72.750 6.579625
72.755 6.815355
72.760 6.889381
72.765 6.919074
72.770 6.658831
72.775 6.477442
72.780 6.746918
72.785 7.029421
72.790 6.814174
72.795 6.860843
72.800 6.909939
72.805 7.582663
72.810 7.742342
72.815 7.428798
72.820 7.304508
72.825 7.374564
72.830 7.280811
72.835 7.060218
72.840 6.377101
72.845 6.473295
72.850 6.620049
72.855 6.54776
72.860 6.606411
72.865 6.34
72.870 6.636971
72.875 6.582932
72.880 6.501492
72.885 6.704043
72.890 6.425831
72.895 6.04115
72.900 5.693957
72.905 5.525943
72.910 5.558977
72.915 5.463528
72.920 5.324898
72.925 5.982453
72.930 6.73735
72.935 6.939176
72.940 7.149944
72.945 7.329161
72.950 7.483744
72.955 7.544181
72.960 6.78665
72.965 6.920962
72.970 6.847392
72.975 6.762185
72.980 6.470813
72.985 6.130799
72.990 6.363413
72.995 6.186927
73.000 5.748091
