!@!!GADDS PLOTSO FILE: Chi integration type
!@!!Title/SampleName: map-4c
!@!!Comment: ?
!@!!User: Bruker Instrument Administrator
!@!!Site: University of Illinois Chicago
!@!!Frame: map-4c_01_000.gfrm
!@!!Wavelengths    1.54184   1.54056   1.54439
!@!!Frame angles: 2Theta: 63.000 Omega: 50.000 Phi: 0.000 Chi: 90.000
!@!!Integration range: 2Theta: 53.000 to 73.000  Gamma: -105.000 to -75.000
!@!!Integration method: bin normalized
!@!N
!@!SS
!@!M
!@!L 0.0 0.0 0.0 0.0
!@!XDegrees
!@!YCounts
53.000 8.676813
53.005 9.02159
53.010 9.51775
53.015 10.358698
53.020 10.838234
53.025 10.887124
53.030 11.237914
53.035 11.624547
53.040 11.810233
53.045 11.443439
53.050 11.014194
53.055 10.64816
53.060 10.899806
53.065 10.954468
53.070 10.654486
53.075 10.486249
53.080 10.532545
53.085 10.645452
53.090 10.84218
53.095 11.006415
53.100 11.263306
53.105 11.762263
53.110 11.947711
53.115 12.029634
53.120 11.815312
53.125 11.729277
53.130 11.268335
53.135 11.28179
53.140 11.03972
53.145 10.86697
53.150 11.158414
53.155 11.815114
53.160 11.614635
53.165 11.028542
53.170 10.460617
53.175 10.391247
53.180 10.394863
53.185 9.717582
53.190 9.157696
53.195 9.559911
53.200 9.522508
53.205 9.116194
53.210 9.307881
53.215 9.123474
53.220 9.082999
53.225 9.310892
53.230 9.554221
53.235 10.30165
53.240 10.897929
53.245 10.917134
53.250 10.995389
53.255 11.509968
53.260 11.429308
53.265 10.911172
53.270 10.307329
53.275 10.225692
53.280 10.162127
53.285 10.350011
53.290 9.681879
53.295 9.843463
53.300 10.042014
53.305 11.027983
53.310 11.658511
53.315 11.831532
53.320 11.970028
53.325 12.197781
53.330 12.000255
53.335 11.471975
53.340 10.744188
53.345 10.353347
53.350 10.333337
53.355 10.662513
53.360 11.439345
53.365 12.000154
53.370 12.289317
53.375 12.526656
53.380 12.692605
53.385 12.320737
53.390 11.648101
53.395 10.983575
53.400 10.836495
53.405 10.650091
53.410 10.450397
53.415 10.179576
53.420 10.711157
53.425 11.088642
53.430 10.746653
53.435 10.60795
53.440 10.692245
53.445 11.125544
53.450 11.181495
53.455 10.784644
53.460 11.194216
53.465 11.346763
53.470 11.687262
53.475 11.407269
53.480 10.91347
53.485 11.135751
53.490 11.357665
53.495 11.203719
53.500 10.973654
53.505 10.683246
53.510 11.166598
53.515 11.895517
53.520 11.89193
53.525 11.576869
53.530 11.917046
53.535 12.242823
53.540 11.995716
53.545 11.343744
53.550 10.96275
53.555 11.210932
53.560 11.524008
53.565 11.084522
53.570 11.467875
53.575 11.605736
53.580 11.940065
53.585 12.547523
53.590 12.734263
53.595 12.652057
53.600 12.635894
53.605 12.158968
53.610 12.148592
53.615 11.847388
53.620 11.13887
53.625 10.233884
53.630 9.866424
53.635 9.696941
53.640 10.383754
53.645 10.219992
53.650 10.028425
53.655 10.091702
53.660 10.36432
53.665 10.629149
53.670 10.450073
53.675 9.936305
53.680 9.995788
53.685 10.296873
53.690 10.883193
53.695 11.194448
53.700 11.457325
53.705 11.952515
53.710 12.138618
53.715 11.946529
53.720 11.991571
53.725 11.279548
53.730 11.722521
53.735 11.964828
53.740 12.372746
53.745 12.612626
53.750 12.505577
53.755 12.376602
53.760 12.352955
53.765 11.86245
53.770 11.218303
53.775 10.660401
53.780 10.691939
53.785 10.964522
53.790 10.636171
53.795 10.884008
53.800 10.998907
53.805 11.642477
53.810 12.223556
53.815 12.124927
53.820 12.589911
53.825 12.505999
53.830 12.498134
53.835 12.076035
53.840 11.392562
53.845 11.184123
53.850 11.843087
53.855 11.819737
53.860 11.98351
53.865 12.044246
53.870 12.687282
53.875 13.203998
53.880 12.866432
53.885 12.410612
53.890 13.160903
53.895 13.416439
53.900 13.181579
53.905 12.98385
53.910 12.89424
53.915 12.965186
53.920 12.342406
53.925 11.681953
53.930 11.924139
53.935 11.766039
53.940 11.195527
53.945 10.910189
53.950 11.119637
53.955 11.400084
53.960 11.502712
53.965 11.156335
53.970 11.53466
53.975 11.843747
53.980 12.151643
53.985 12.100937
53.990 12.254838
53.995 12.244841
54.000 12.571895
54.005 12.311456
54.010 12.285683
54.015 11.935887
54.020 11.810999
54.025 11.577088
54.030 11.350098
54.035 10.715215
54.040 10.595849
54.045 10.62992
54.050 10.842799
54.055 11.09775
54.060 10.91511
54.065 10.933764
54.070 11.323024
54.075 11.542084
54.080 11.996888
54.085 12.135512
54.090 11.864978
54.095 12.113041
54.100 12.030928
54.105 11.821423
54.110 11.25325
54.115 10.503957
54.120 10.023962
54.125 10.059456
54.130 10.059971
54.135 10.517201
54.140 10.688552
54.145 11.067476
54.150 11.418166
54.155 11.730463
54.160 12.11997
54.165 11.778453
54.170 11.416701
54.175 11.713279
54.180 11.831383
54.185 11.775678
54.190 11.828797
54.195 11.680256
54.200 12.274341
54.205 12.825059
54.210 12.517175
54.215 12.193846
54.220 11.93356
54.225 11.393439
54.230 11.576516
54.235 11.800332
54.240 11.690026
54.245 11.566397
54.250 11.682715
54.255 12.517962
54.260 12.855949
54.265 12.072967
54.270 11.508414
54.275 11.412086
54.280 11.475461
54.285 11.826131
54.290 11.03386
54.295 11.13297
54.300 11.494184
54.305 11.329076
54.310 11.146126
54.315 11.030501
54.320 11.117408
54.325 11.306558
54.330 11.364176
54.335 11.489686
54.340 12.027684
54.345 12.308339
54.350 12.095191
54.355 11.733476
54.360 12.001794
54.365 11.916077
54.370 11.222811
54.375 10.593373
54.380 10.298178
54.385 10.530013
54.390 10.28178
54.395 10.061096
54.400 10.167625
54.405 10.5897
54.410 11.071831
54.415 11.621037
54.420 11.561098
54.425 11.932135
54.430 12.097786
54.435 12.178428
54.440 12.352833
54.445 11.84024
54.450 11.780035
54.455 11.392315
54.460 10.742373
54.465 10.328019
54.470 10.005589
54.475 9.7972
54.480 9.904409
54.485 10.10963
54.490 10.50794
54.495 10.955791
54.500 11.287782
54.505 11.612549
54.510 11.867001
54.515 11.786021
54.520 11.813875
54.525 12.359587
54.530 12.599715
54.535 12.730299
54.540 12.752031
54.545 12.342295
54.550 12.37993
54.555 12.345273
54.560 11.895242
54.565 11.751836
54.570 11.699313
54.575 11.394427
54.580 11.591643
54.585 11.563503
54.590 11.532033
54.595 11.554255
54.600 11.575715
54.605 11.528696
54.610 12.467652
54.615 12.521321
54.620 12.824642
54.625 12.790545
54.630 13.262859
54.635 13.322809
54.640 13.103457
54.645 12.475526
54.650 12.664331
54.655 12.147506
54.660 11.978006
54.665 11.581993
54.670 11.825076
54.675 11.984487
54.680 12.077902
54.685 11.769114
54.690 12.557657
54.695 12.812269
54.700 12.931854
54.705 12.469085
54.710 11.831483
54.715 11.785309
54.720 11.613751
54.725 11.228369
54.730 11.178254
54.735 11.03381
54.740 11.133647
54.745 11.315999
54.750 11.345209
54.755 11.992312
54.760 11.767975
54.765 11.873924
54.770 11.839345
54.775 12.384156
54.780 12.815535
54.785 12.682725
54.790 12.512278
54.795 12.312024
54.800 11.967148
54.805 12.090822
54.810 11.972195
54.815 12.225351
54.820 12.566644
54.825 12.310719
54.830 12.006887
54.835 11.858243
54.840 11.789705
54.845 11.730494
54.850 11.332838
54.855 10.967255
54.860 11.098064
54.865 11.775598
54.870 12.273758
54.875 12.476636
54.880 12.649541
54.885 13.114264
54.890 13.460932
54.895 13.748067
54.900 13.797185
54.905 13.641662
54.910 13.566086
54.915 13.723372
54.920 13.340764
54.925 12.815585
54.930 12.62923
54.935 12.560364
54.940 12.385267
54.945 12.224053
54.950 12.172451
54.955 12.222934
54.960 12.849942
54.965 12.853663
54.970 12.725847
54.975 12.798977
54.980 12.772348
54.985 12.81031
54.990 12.773539
54.995 12.651351
55.000 13.087617
55.005 13.076983
55.010 13.231094
55.015 12.735663
55.020 12.19956
55.025 11.884867
55.030 11.537879
55.035 11.282348
55.040 11.506157
55.045 11.553222
55.050 11.933125
55.055 11.774322
55.060 12.343583
55.065 12.494411
55.070 12.574769
55.075 12.272636
55.080 12.568281
55.085 12.629348
55.090 13.084951
55.095 12.819693
55.100 12.689958
55.105 12.715281
55.110 13.04437
55.115 12.966458
55.120 13.807767
55.125 13.907298
55.130 13.925536
55.135 14.0149
55.140 13.634402
55.145 13.074232
55.150 12.96525
55.155 12.146874
55.160 11.645164
55.165 11.536613
55.170 11.81216
55.175 12.237759
55.180 13.047954
55.185 12.984952
55.190 13.556609
55.195 13.476048
55.200 13.485482
55.205 13.40303
55.210 13.43628
55.215 13.303026
55.220 13.25404
55.225 12.722545
55.230 12.549475
55.235 12.238093
55.240 12.568707
55.245 12.390835
55.250 12.092129
55.255 11.889029
55.260 11.99316
55.265 12.21644
55.270 12.485181
55.275 12.716196
55.280 12.979239
55.285 13.453114
55.290 13.911745
55.295 13.933524
55.300 13.75113
55.305 13.059052
55.310 12.635056
55.315 12.829692
55.320 12.30154
55.325 12.516808
55.330 12.929218
55.335 13.513135
55.340 13.919664
55.345 13.820292
55.350 13.323623
55.355 13.287894
55.360 13.046755
55.365 12.660905
55.370 12.496454
55.375 12.360484
55.380 12.298526
55.385 12.602419
55.390 12.174338
55.395 12.164748
55.400 11.885472
55.405 11.731977
55.410 11.626277
55.415 11.684423
55.420 11.553971
55.425 11.740915
55.430 12.1897
55.435 12.807385
55.440 13.418026
55.445 13.362714
55.450 13.29339
55.455 14.065809
55.460 14.241373
55.465 13.594232
55.470 12.910435
55.475 12.790211
55.480 12.500942
55.485 12.7591
55.490 12.140823
55.495 11.770423
55.500 11.434903
55.505 11.826966
55.510 11.834935
55.515 12.205276
55.520 12.580179
55.525 12.910458
55.530 13.947588
55.535 14.325456
55.540 14.335072
55.545 14.312604
55.550 14.354068
55.555 13.893975
55.560 13.644118
55.565 13.974324
55.570 14.448577
55.575 14.614257
55.580 14.712317
55.585 14.356094
55.590 14.32906
55.595 14.249475
55.600 13.338075
55.605 12.458189
55.610 12.05908
55.615 11.846101
55.620 12.22353
55.625 12.128318
55.630 11.931307
55.635 12.554721
55.640 12.393088
55.645 12.20083
55.650 12.426204
55.655 12.504621
55.660 13.35396
55.665 13.553536
55.670 13.395026
55.675 14.276414
55.680 14.641379
55.685 14.475377
55.690 14.044693
55.695 13.400537
55.700 13.18749
55.705 12.941468
55.710 12.515918
55.715 12.552766
55.720 12.675398
55.725 12.893635
55.730 12.953636
55.735 12.968024
55.740 12.836832
55.745 12.980181
55.750 12.993928
55.755 12.635114
55.760 12.486754
55.765 12.74381
55.770 12.94853
55.775 12.959596
55.780 12.609394
55.785 12.560736
55.790 12.702533
55.795 12.5862
55.800 12.219513
55.805 12.192218
55.810 12.75895
55.815 12.981908
55.820 13.319067
55.825 13.544191
55.830 13.70866
55.835 14.182388
55.840 14.304801
55.845 14.038133
55.850 14.112995
55.855 13.972101
55.860 13.737014
55.865 13.702684
55.870 13.701508
55.875 14.468417
55.880 14.717098
55.885 14.726567
55.890 14.946579
55.895 15.499547
55.900 15.031436
55.905 14.155933
55.910 13.664432
55.915 13.516903
55.920 13.091496
55.925 12.770527
55.930 12.837266
55.935 13.569525
55.940 13.957909
55.945 14.511511
55.950 14.994537
55.955 15.486957
55.960 15.406049
55.965 15.250827
55.970 15.14119
55.975 14.963675
55.980 14.757625
55.985 13.835631
55.990 13.341495
55.995 13.714405
56.000 13.827756
56.005 13.877
56.010 13.893276
56.015 13.510349
56.020 13.746386
56.025 13.891156
56.030 13.491734
56.035 13.411677
56.040 13.406444
56.045 13.186953
56.050 13.307286
56.055 12.81754
56.060 12.751391
56.065 12.829294
56.070 13.27175
56.075 13.995298
56.080 13.666742
56.085 14.029313
56.090 14.628719
56.095 14.71735
56.100 14.218447
56.105 13.872132
56.110 13.960865
56.115 15.028314
56.120 15.768791
56.125 15.846637
56.130 15.530428
56.135 15.152304
56.140 14.728921
56.145 14.369831
56.150 13.468192
56.155 13.233315
56.160 13.013983
56.165 13.364674
56.170 14.130278
56.175 14.214053
56.180 14.044894
56.185 13.848199
56.190 13.859738
56.195 13.67745
56.200 12.986905
56.205 12.375434
56.210 12.161755
56.215 12.804919
56.220 12.698031
56.225 12.25705
56.230 13.010121
56.235 13.620301
56.240 14.113317
56.245 14.240667
56.250 13.789135
56.255 14.099714
56.260 14.341776
56.265 14.606778
56.270 14.798271
56.275 14.599
56.280 14.048086
56.285 13.780698
56.290 13.625235
56.295 13.432309
56.300 12.971566
56.305 13.262404
56.310 13.609719
56.315 13.895229
56.320 14.412204
56.325 14.721635
56.330 14.811778
56.335 14.983089
56.340 14.88872
56.345 14.538223
56.350 14.306911
56.355 14.007607
56.360 13.770566
56.365 13.568685
56.370 13.45034
56.375 12.802773
56.380 12.894051
56.385 13.180657
56.390 12.828009
56.395 12.4013
56.400 12.46269
56.405 12.368316
56.410 13.042584
56.415 12.996308
56.420 12.983036
56.425 12.810274
56.430 13.625757
56.435 13.742425
56.440 13.548368
56.445 13.600227
56.450 14.021235
56.455 14.173003
56.460 14.789848
56.465 14.409544
56.470 14.518603
56.475 14.329943
56.480 13.982871
56.485 13.830271
56.490 14.281611
56.495 13.85134
56.500 13.757651
56.505 14.053836
56.510 14.475857
56.515 14.683055
56.520 14.665484
56.525 14.754074
56.530 15.228429
56.535 14.666097
56.540 14.010131
56.545 14.00946
56.550 13.992871
56.555 13.921748
56.560 13.834314
56.565 13.766067
56.570 14.195661
56.575 14.547436
56.580 14.259014
56.585 13.973208
56.590 13.82922
56.595 14.130819
56.600 14.28865
56.605 14.03936
56.610 14.042553
56.615 14.273236
56.620 14.446194
56.625 13.557117
56.630 13.442743
56.635 13.68126
56.640 13.89957
56.645 13.930824
56.650 13.663338
56.655 13.808787
56.660 13.917857
56.665 13.134434
56.670 12.643748
56.675 12.219038
56.680 12.554229
56.685 12.583435
56.690 12.597595
56.695 13.499167
56.700 14.342178
56.705 14.533911
56.710 15.0488
56.715 15.449266
56.720 15.809337
56.725 15.501237
56.730 14.995491
56.735 14.697916
56.740 14.82255
56.745 14.304441
56.750 13.654205
56.755 13.954855
56.760 14.262417
56.765 14.839504
56.770 15.056806
56.775 15.099229
56.780 14.915661
56.785 14.993722
56.790 14.845622
56.795 14.570977
56.800 14.269956
56.805 14.332976
56.810 14.436244
56.815 14.872079
56.820 14.868518
56.825 14.794018
56.830 15.188878
56.835 15.178101
56.840 15.532162
56.845 15.129279
56.850 14.978436
56.855 14.801825
56.860 14.467102
56.865 13.8494
56.870 13.692228
56.875 13.384184
56.880 13.838587
56.885 14.057262
56.890 14.375252
56.895 14.90796
56.900 15.028541
56.905 15.048721
56.910 15.330845
56.915 15.72859
56.920 15.536808
56.925 15.339904
56.930 14.918763
56.935 14.818338
56.940 14.777471
56.945 14.485987
56.950 13.709697
56.955 13.548228
56.960 13.609173
56.965 14.082435
56.970 14.226164
56.975 14.085326
56.980 13.839722
56.985 14.172565
56.990 14.315401
56.995 13.988169
57.000 14.155363
57.005 14.148538
57.010 14.172056
57.015 14.69164
57.020 14.977349
57.025 15.141866
57.030 15.177749
57.035 15.13017
57.040 15.578805
57.045 15.572442
57.050 15.320984
57.055 14.910656
57.060 14.780931
57.065 15.325915
57.070 15.470618
57.075 15.530133
57.080 15.386159
57.085 15.09448
57.090 15.078687
57.095 15.174728
57.100 14.900953
57.105 14.840302
57.110 14.633833
57.115 15.270948
57.120 14.992917
57.125 15.189512
57.130 15.09215
57.135 14.825741
57.140 15.22731
57.145 15.229713
57.150 14.910836
57.155 15.09765
57.160 14.563156
57.165 14.456812
57.170 14.404304
57.175 13.756962
57.180 13.738445
57.185 14.318191
57.190 14.471274
57.195 14.899118
57.200 14.718626
57.205 14.391632
57.210 14.68072
57.215 14.313682
57.220 14.08321
57.225 13.999101
57.230 13.608013
57.235 13.895177
57.240 14.163875
57.245 14.123624
57.250 14.459307
57.255 14.250823
57.260 14.145518
57.265 14.080992
57.270 14.130126
57.275 14.161995
57.280 13.835261
57.285 13.345867
57.290 13.363171
57.295 14.011739
57.300 14.275447
57.305 14.491503
57.310 14.669252
57.315 15.401694
57.320 15.9374
57.325 16.103458
57.330 16.125643
57.335 16.153843
57.340 15.934238
57.345 15.707384
57.350 15.523965
57.355 15.337082
57.360 14.843366
57.365 14.838421
57.370 14.642636
57.375 14.542035
57.380 14.119582
57.385 13.520508
57.390 13.088326
57.395 12.615587
57.400 12.168207
57.405 12.271157
57.410 12.324817
57.415 12.786615
57.420 13.121757
57.425 13.659762
57.430 14.031116
57.435 14.308674
57.440 14.532744
57.445 14.585997
57.450 14.23182
57.455 14.363713
57.460 14.61943
57.465 15.428136
57.470 15.27321
57.475 14.871581
57.480 14.821099
57.485 14.900043
57.490 14.930469
57.495 14.898531
57.500 14.953652
57.505 15.33088
57.510 15.515201
57.515 16.125965
57.520 16.746674
57.525 16.791103
57.530 16.805525
57.535 16.41527
57.540 16.334318
57.545 16.327927
57.550 16.152128
57.555 15.817397
57.560 15.267051
57.565 15.913249
57.570 16.522587
57.575 16.236032
57.580 16.455898
57.585 16.822296
57.590 17.231577
57.595 17.713329
57.600 16.818626
57.605 16.631237
57.610 17.150728
57.615 16.870255
57.620 16.654869
57.625 16.724062
57.630 16.825151
57.635 16.73583
57.640 16.562853
57.645 16.309074
57.650 16.625221
57.655 16.667412
57.660 16.273418
57.665 16.126432
57.670 16.239254
57.675 16.463161
57.680 16.315664
57.685 15.785304
57.690 15.831109
57.695 16.299501
57.700 16.442715
57.705 16.789709
57.710 17.302719
57.715 17.536028
57.720 18.016901
57.725 18.103111
57.730 17.887831
57.735 17.912897
57.740 17.725132
57.745 17.447618
57.750 17.298101
57.755 16.992363
57.760 17.201422
57.765 17.268379
57.770 17.157717
57.775 17.021618
57.780 17.137787
57.785 17.17786
57.790 16.593231
57.795 16.11578
57.800 15.722915
57.805 15.297935
57.810 15.042538
57.815 14.335723
57.820 14.267749
57.825 14.96244
57.830 15.124428
57.835 15.049751
57.840 15.073344
57.845 15.121513
57.850 15.829616
57.855 16.39662
57.860 16.239084
57.865 16.793898
57.870 17.371061
57.875 17.663519
57.880 17.759827
57.885 17.561117
57.890 17.520493
57.895 17.591972
57.900 17.334991
57.905 17.341454
57.910 17.452024
57.915 17.340782
57.920 17.08086
57.925 16.468954
57.930 16.424902
57.935 16.529171
57.940 16.744089
57.945 17.120255
57.950 17.383068
57.955 17.825787
57.960 18.507992
57.965 18.249662
57.970 18.305532
57.975 18.537359
57.980 18.516426
57.985 18.897251
57.990 19.013578
57.995 18.903999
58.000 18.542679
58.005 18.214828
58.010 17.882959
58.015 18.005955
58.020 18.085262
58.025 17.923836
58.030 18.07317
58.035 18.288723
58.040 18.567877
58.045 19.065533
58.050 18.775991
58.055 18.457796
58.060 18.858465
58.065 18.726797
58.070 19.420189
58.075 19.823309
58.080 19.679665
58.085 19.426664
58.090 19.148735
58.095 18.864779
58.100 18.663527
58.105 18.255756
58.110 18.011852
58.115 18.00849
58.120 18.092838
58.125 18.320917
58.130 18.504204
58.135 18.722904
58.140 18.779104
58.145 18.509651
58.150 18.052052
58.155 18.177059
58.160 17.679296
58.165 17.235432
58.170 16.84062
58.175 16.64852
58.180 17.152172
58.185 17.026066
58.190 16.460142
58.195 16.518122
58.200 16.948296
58.205 17.317522
58.210 17.059923
58.215 16.543812
58.220 17.32016
58.225 18.183212
58.230 17.925795
58.235 17.61327
58.240 17.806616
58.245 17.841242
58.250 18.077917
58.255 17.651316
58.260 17.719639
58.265 18.315634
58.270 18.322792
58.275 17.988003
58.280 18.137192
58.285 18.373692
58.290 18.335199
58.295 18.035711
58.300 17.693314
58.305 18.340422
58.310 18.614094
58.315 19.396811
58.320 20.301086
58.325 20.867579
58.330 21.636316
58.335 22.316938
58.340 22.396376
58.345 23.044149
58.350 22.386967
58.355 22.982811
58.360 23.140434
58.365 22.9727
58.370 22.580442
58.375 22.360437
58.380 22.455938
58.385 23.271553
58.390 23.615643
58.395 23.181948
58.400 23.881983
58.405 23.98402
58.410 23.671373
58.415 23.829666
58.420 24.232334
58.425 24.118114
58.430 25.080122
58.435 24.91395
58.440 25.321716
58.445 25.778767
58.450 25.771919
58.455 25.050714
58.460 24.930077
58.465 25.206589
58.470 25.683451
58.475 26.770121
58.480 27.780582
58.485 28.345259
58.490 28.815472
58.495 29.812384
58.500 30.495634
58.505 30.656038
58.510 30.472988
58.515 30.474718
58.520 30.757622
58.525 31.15447
58.530 30.40543
58.535 29.944118
58.540 30.768896
58.545 32.248505
58.550 32.557808
58.555 33.487221
58.560 34.518211
58.565 35.295994
58.570 35.687706
58.575 35.196896
58.580 34.282063
58.585 34.970291
58.590 34.991562
58.595 35.829277
58.600 36.913033
58.605 37.3148
58.610 38.12043
58.615 38.570015
58.620 38.219051
58.625 38.890495
58.630 38.980377
58.635 38.174549
58.640 38.310158
58.645 38.16785
58.650 38.700653
58.655 39.226452
58.660 38.290825
58.665 37.715839
58.670 37.453014
58.675 37.645432
58.680 38.037849
58.685 38.245602
58.690 37.826134
58.695 37.636482
58.700 37.165485
58.705 37.319973
58.710 35.824146
58.715 34.538868
58.720 33.072529
58.725 32.542572
58.730 33.130226
58.735 34.248264
58.740 35.072575
58.745 35.919674
58.750 36.20755
58.755 35.940407
58.760 35.486809
58.765 34.570351
58.770 33.264668
58.775 33.071342
58.780 32.705975
58.785 31.81341
58.790 31.84531
58.795 31.652498
58.800 30.980133
58.805 30.780773
58.810 30.201488
58.815 30.389442
58.820 31.306898
58.825 31.467371
58.830 31.210403
58.835 30.687256
58.840 30.144281
58.845 29.687065
58.850 28.594952
58.855 27.554153
58.860 27.172657
58.865 27.483936
58.870 27.781326
58.875 26.939388
58.880 26.019493
58.885 26.291319
58.890 26.605114
58.895 25.795639
58.900 24.601519
58.905 23.882139
58.910 23.346264
58.915 23.00082
58.920 22.464695
58.925 21.817799
58.930 22.112329
58.935 22.6845
58.940 22.541349
58.945 23.211647
58.950 23.030499
58.955 21.919847
58.960 21.11574
58.965 20.942938
58.970 20.512047
58.975 20.467188
58.980 20.277657
58.985 20.971893
58.990 21.334986
58.995 21.50275
59.000 21.100348
59.005 21.07884
59.010 21.034218
59.015 20.855433
59.020 20.208206
59.025 19.693466
59.030 19.386017
59.035 19.249878
59.040 18.943451
59.045 18.501541
59.050 18.339653
59.055 18.555204
59.060 18.614561
59.065 18.641863
59.070 18.670572
59.075 18.665386
59.080 18.552418
59.085 18.288244
59.090 18.771463
59.095 19.138714
59.100 19.113514
59.105 18.608105
59.110 18.085047
59.115 17.935545
59.120 17.619175
59.125 17.460749
59.130 17.308187
59.135 17.720211
59.140 18.285162
59.145 18.17186
59.150 17.778019
59.155 17.736917
59.160 17.442123
59.165 17.531464
59.170 17.256433
59.175 17.244463
59.180 17.82782
59.185 18.305141
59.190 18.604692
59.195 18.923025
59.200 19.247444
59.205 18.922186
59.210 18.782087
59.215 18.624624
59.220 18.56846
59.225 18.562908
59.230 18.297876
59.235 18.241041
59.240 18.203022
59.245 17.984831
59.250 17.829693
59.255 17.84094
59.260 17.20631
59.265 17.245085
59.270 17.264591
59.275 17.049543
59.280 17.357069
59.285 16.660572
59.290 16.195683
59.295 16.163822
59.300 15.874233
59.305 16.171597
59.310 16.007444
59.315 15.937197
59.320 16.546625
59.325 16.956421
59.330 17.244831
59.335 17.254795
59.340 17.335539
59.345 17.658873
59.350 17.611528
59.355 17.874619
59.360 18.149017
59.365 18.005949
59.370 17.714403
59.375 17.080061
59.380 16.878155
59.385 16.887444
59.390 16.844521
59.395 16.609995
59.400 16.377806
59.405 16.333252
59.410 16.413479
59.415 16.762611
59.420 16.547668
59.425 16.120687
59.430 16.376919
59.435 16.329063
59.440 16.562864
59.445 16.198923
59.450 15.485916
59.455 15.350103
59.460 16.041552
59.465 16.5966
59.470 16.853333
59.475 16.623011
59.480 16.904547
59.485 17.326008
59.490 16.931021
59.495 16.301165
59.500 15.987578
59.505 15.765042
59.510 16.162609
59.515 16.283152
59.520 16.928684
59.525 17.463589
59.530 17.42452
59.535 17.291456
59.540 17.230501
59.545 16.800871
59.550 16.843349
59.555 16.070932
59.560 16.225868
59.565 15.913465
59.570 15.649456
59.575 16.319427
59.580 16.507456
59.585 16.488394
59.590 16.789476
59.595 17.053404
59.600 17.852804
59.605 18.427757
59.610 17.727283
59.615 17.435749
59.620 17.506086
59.625 17.37051
59.630 16.948753
59.635 16.301636
59.640 15.767778
59.645 15.92827
59.650 16.105659
59.655 15.712897
59.660 15.588305
59.665 15.496881
59.670 15.489201
59.675 15.599793
59.680 15.195202
59.685 14.70973
59.690 14.956162
59.695 15.098627
59.700 15.584902
59.705 15.709972
59.710 15.785431
59.715 16.032522
59.720 16.004158
59.725 15.599264
59.730 15.240517
59.735 15.524127
59.740 15.992978
59.745 16.478266
59.750 17.175386
59.755 17.594036
59.760 17.878113
59.765 17.944202
59.770 17.020266
59.775 16.518656
59.780 16.432653
59.785 16.363367
59.790 16.334091
59.795 16.84654
59.800 16.715975
59.805 17.068478
59.810 17.333134
59.815 17.584274
59.820 17.932928
59.825 18.119787
59.830 17.805351
59.835 17.770094
59.840 17.474453
59.845 17.231903
59.850 16.013706
59.855 15.495992
59.860 15.613053
59.865 15.807429
59.870 16.273287
59.875 16.5539
59.880 16.687157
59.885 17.315691
59.890 16.838943
59.895 16.474794
59.900 15.845229
59.905 15.751222
59.910 15.592561
59.915 14.863665
59.920 14.705251
59.925 15.452961
59.930 15.898384
59.935 15.951172
59.940 15.722004
59.945 15.101798
59.950 15.097573
59.955 15.651353
59.960 15.562953
59.965 15.427269
59.970 15.938476
59.975 16.278322
59.980 16.586918
59.985 16.481302
59.990 16.329863
59.995 16.349939
60.000 16.224188
60.005 16.043161
60.010 15.448124
60.015 15.636656
60.020 16.168699
60.025 16.033482
60.030 15.707983
60.035 15.461833
60.040 15.699334
60.045 16.562304
60.050 16.55517
60.055 16.077196
60.060 15.971439
60.065 15.595219
60.070 15.740605
60.075 15.791593
60.080 15.504461
60.085 15.379225
60.090 15.5839
60.095 15.705059
60.100 16.569086
60.105 16.419374
60.110 16.349148
60.115 16.551559
60.120 17.37188
60.125 17.170107
60.130 16.51889
60.135 16.134907
60.140 16.705223
60.145 16.915115
60.150 16.411341
60.155 15.722632
60.160 15.916121
60.165 16.540379
60.170 16.477417
60.175 15.610256
60.180 14.758347
60.185 14.763153
60.190 14.803284
60.195 14.745481
60.200 14.974307
60.205 15.243313
60.210 15.965809
60.215 16.59874
60.220 16.646336
60.225 17.265429
60.230 17.752344
60.235 17.357559
60.240 17.227152
60.245 16.868437
60.250 16.285282
60.255 15.986482
60.260 15.487773
60.265 15.310163
60.270 15.269235
60.275 14.673037
60.280 14.590915
60.285 15.108595
60.290 15.789076
60.295 16.486046
60.300 16.345713
60.305 16.275209
60.310 16.303251
60.315 15.908178
60.320 15.887997
60.325 15.130553
60.330 13.941524
60.335 13.571874
60.340 13.89765
60.345 14.809706
60.350 15.155962
60.355 15.181547
60.360 15.645096
60.365 16.086004
60.370 16.40966
60.375 16.456453
60.380 16.670458
60.385 17.093147
60.390 17.032269
60.395 16.833561
60.400 16.521551
60.405 16.377501
60.410 16.528349
60.415 16.200947
60.420 16.110815
60.425 15.895187
60.430 16.475163
60.435 17.525984
60.440 17.657763
60.445 17.421886
60.450 17.436501
60.455 17.05541
60.460 17.020102
60.465 17.180067
60.470 17.175331
60.475 17.74622
60.480 17.674864
60.485 17.202751
60.490 17.508606
60.495 17.215044
60.500 15.982541
60.505 15.212061
60.510 14.513056
60.515 14.280667
60.520 14.378855
60.525 14.632578
60.530 15.116212
60.535 15.738115
60.540 15.579786
60.545 15.563322
60.550 15.425323
60.555 15.336882
60.560 15.269781
60.565 15.295818
60.570 15.256107
60.575 15.825362
60.580 16.356129
60.585 16.902771
60.590 17.314028
60.595 17.295292
60.600 17.03565
60.605 17.782501
60.610 17.339115
60.615 17.126978
60.620 17.043324
60.625 16.970966
60.630 17.322849
60.635 17.389618
60.640 17.285582
60.645 17.925217
60.650 17.548607
60.655 17.178936
60.660 16.773087
60.665 16.802605
60.670 16.5763
60.675 16.28124
60.680 16.300673
60.685 16.85463
60.690 16.9307
60.695 16.942223
60.700 16.740417
60.705 16.807579
60.710 16.485685
60.715 16.11944
60.720 15.487465
60.725 15.288062
60.730 15.661375
60.735 15.404346
60.740 15.683877
60.745 15.570498
60.750 15.769068
60.755 16.137054
60.760 16.38854
60.765 16.155767
60.770 16.296829
60.775 15.740255
60.780 15.549101
60.785 15.344591
60.790 15.100447
60.795 15.051945
60.800 15.22051
60.805 15.159952
60.810 15.628744
60.815 15.5443
60.820 15.59518
60.825 16.027197
60.830 16.605841
60.835 16.550203
60.840 16.144596
60.845 15.798279
60.850 16.015642
60.855 16.225914
60.860 16.156563
60.865 15.573076
60.870 15.945526
60.875 16.799128
60.880 17.047634
60.885 17.05481
60.890 16.740519
60.895 16.721579
60.900 16.860582
60.905 16.433874
60.910 15.704351
60.915 15.924451
60.920 16.091528
60.925 16.164751
60.930 16.752583
60.935 17.308338
60.940 17.166603
60.945 17.141314
60.950 16.762133
60.955 16.598829
60.960 17.043558
60.965 17.350336
60.970 17.313143
60.975 17.461084
60.980 18.251547
60.985 18.551676
60.990 18.011208
60.995 17.058064
61.000 16.120537
61.005 15.662312
61.010 15.758416
61.015 15.385736
61.020 15.522007
61.025 16.053837
61.030 16.420801
61.035 15.744184
61.040 15.708048
61.045 15.789228
61.050 16.119261
61.055 16.445072
61.060 16.076933
61.065 16.2192
61.070 17.215544
61.075 17.191833
61.080 16.807524
61.085 16.951246
61.090 16.794304
61.095 16.897238
61.100 16.865139
61.105 16.877811
61.110 17.137131
61.115 17.356976
61.120 16.82682
61.125 16.617373
61.130 17.101988
61.135 16.986956
61.140 16.456486
61.145 16.247332
61.150 16.103018
61.155 16.226969
61.160 16.029966
61.165 15.623668
61.170 15.189504
61.175 15.475259
61.180 15.440485
61.185 15.76364
61.190 15.699723
61.195 16.29845
61.200 16.685204
61.205 17.255344
61.210 17.600702
61.215 17.941618
61.220 17.492887
61.225 17.333158
61.230 17.955263
61.235 18.165598
61.240 17.560539
61.245 17.442118
61.250 17.35335
61.255 17.47455
61.260 17.731735
61.265 17.3353
61.270 17.084496
61.275 16.862827
61.280 16.561115
61.285 16.737288
61.290 16.921881
61.295 17.02602
61.300 16.790731
61.305 17.170263
61.310 18.015827
61.315 18.582256
61.320 18.422312
61.325 18.399754
61.330 18.550982
61.335 18.573271
61.340 18.977331
61.345 18.437782
61.350 17.901508
61.355 18.280428
61.360 17.814407
61.365 17.74408
61.370 17.380766
61.375 16.771883
61.380 17.180967
61.385 17.532633
61.390 17.50927
61.395 17.510386
61.400 16.781958
61.405 17.065548
61.410 16.711515
61.415 16.056931
61.420 15.927187
61.425 15.705755
61.430 15.49878
61.435 15.256725
61.440 15.023177
61.445 15.154891
61.450 15.979544
61.455 16.272125
61.460 16.096203
61.465 16.281799
61.470 16.775318
61.475 17.244621
61.480 17.285984
61.485 16.844475
61.490 16.575541
61.495 17.266565
61.500 17.59169
61.505 17.376984
61.510 16.809345
61.515 16.926447
61.520 17.033802
61.525 16.933462
61.530 16.690035
61.535 16.569695
61.540 16.99818
61.545 18.07155
61.550 18.377439
61.555 18.791071
61.560 19.260635
61.565 19.91893
61.570 20.60994
61.575 20.655039
61.580 19.383076
61.585 18.346819
61.590 18.034191
61.595 17.985739
61.600 17.805048
61.605 17.347338
61.610 17.454832
61.615 18.189669
61.620 18.629211
61.625 18.727152
61.630 18.521112
61.635 17.762535
61.640 17.952721
61.645 17.554195
61.650 17.255129
61.655 16.945383
61.660 15.829131
61.665 16.087231
61.670 16.816719
61.675 16.894703
61.680 16.709118
61.685 16.812103
61.690 17.331011
61.695 17.868574
61.700 17.202738
61.705 16.542265
61.710 16.297192
61.715 16.635223
61.720 16.148331
61.725 15.551268
61.730 15.431438
61.735 15.376214
61.740 15.667203
61.745 15.526657
61.750 15.170027
61.755 16.25061
61.760 17.390123
61.765 17.597012
61.770 17.471857
61.775 17.197008
61.780 17.827658
61.785 17.572735
61.790 17.258057
61.795 17.040314
61.800 17.509348
61.805 18.388401
61.810 18.786449
61.815 18.555357
61.820 19.335669
61.825 19.444136
61.830 19.309423
61.835 18.940683
61.840 18.49328
61.845 18.223833
61.850 17.826365
61.855 18.019428
61.860 18.462391
61.865 18.461393
61.870 18.272703
61.875 18.046515
61.880 18.393753
61.885 18.974272
61.890 19.101986
61.895 18.806944
61.900 18.337393
61.905 18.637682
61.910 18.354771
61.915 18.126333
61.920 17.58128
61.925 17.56365
61.930 16.732361
61.935 16.970261
61.940 17.306759
61.945 17.690163
61.950 17.739943
61.955 18.022804
61.960 17.609051
61.965 17.627598
61.970 17.232929
61.975 17.015593
61.980 17.064022
61.985 17.009829
61.990 16.659132
61.995 16.155828
62.000 16.072195
62.005 16.054003
62.010 15.890898
62.015 15.93757
62.020 15.74186
62.025 16.141466
62.030 16.774534
62.035 18.118034
62.040 18.817085
62.045 18.749388
62.050 18.638241
62.055 18.796179
62.060 18.815983
62.065 17.743973
62.070 16.973701
62.075 16.577618
62.080 16.41456
62.085 16.172077
62.090 15.527826
62.095 14.930148
62.100 15.301923
62.105 15.014063
62.110 14.858279
62.115 15.131928
62.120 15.120214
62.125 15.894636
62.130 16.697781
62.135 16.872818
62.140 16.798187
62.145 17.065756
62.150 17.188978
62.155 17.603893
62.160 17.142397
62.165 17.341125
62.170 18.346855
62.175 19.026932
62.180 19.671803
62.185 19.844584
62.190 19.607523
62.195 19.099104
62.200 18.438431
62.205 16.985607
62.210 16.468946
62.215 16.309191
62.220 15.868332
62.225 16.095753
62.230 16.951347
62.235 17.244066
62.240 17.907156
62.245 18.255915
62.250 18.586435
62.255 18.940792
62.260 18.782146
62.265 18.048031
62.270 18.463287
62.275 19.017862
62.280 18.306007
62.285 17.737103
62.290 17.422247
62.295 17.463129
62.300 17.891909
62.305 17.160696
62.310 16.312302
62.315 16.073185
62.320 15.682152
62.325 15.629409
62.330 15.554744
62.335 15.145862
62.340 15.014886
62.345 15.142862
62.350 15.378208
62.355 15.995494
62.360 16.511141
62.365 16.719116
62.370 16.945417
62.375 17.301939
62.380 17.071898
62.385 17.214294
62.390 17.171106
62.395 17.205585
62.400 17.249208
62.405 17.501064
62.410 17.410738
62.415 18.132549
62.420 18.278885
62.425 17.592705
62.430 17.16585
62.435 17.01948
62.440 16.869843
62.445 16.652346
62.450 16.502888
62.455 16.841896
62.460 17.850979
62.465 18.476221
62.470 18.645489
62.475 19.164743
62.480 20.457294
62.485 20.838219
62.490 20.90999
62.495 20.0516
62.500 19.802376
62.505 20.121271
62.510 20.237425
62.515 19.577869
62.520 19.307756
62.525 19.228319
62.530 19.864008
62.535 19.756111
62.540 19.684563
62.545 19.081493
62.550 18.748341
62.555 18.565466
62.560 18.165207
62.565 17.559498
62.570 17.603535
62.575 17.651739
62.580 17.269594
62.585 16.616037
62.590 16.548197
62.595 16.983063
62.600 17.260691
62.605 17.017111
62.610 16.904404
62.615 17.307051
62.620 18.285278
62.625 18.235043
62.630 17.729664
62.635 17.364416
62.640 17.098726
62.645 16.382175
62.650 16.075657
62.655 15.953876
62.660 16.621746
62.665 16.820711
62.670 17.252409
62.675 18.044323
62.680 19.125004
62.685 19.166967
62.690 19.753971
62.695 19.905342
62.700 19.795801
62.705 19.72488
62.710 19.323891
62.715 18.629248
62.720 18.969191
62.725 18.176289
62.730 18.390806
62.735 19.208969
62.740 19.458906
62.745 19.986389
62.750 20.139067
62.755 19.820431
62.760 19.765659
62.765 19.203716
62.770 18.427082
62.775 17.735979
62.780 16.996132
62.785 17.101313
62.790 17.616159
62.795 17.397995
62.800 16.847252
62.805 16.710426
62.810 16.371115
62.815 16.219364
62.820 15.86736
62.825 15.393462
62.830 15.486862
62.835 15.601374
62.840 15.435939
62.845 15.645919
62.850 15.936593
62.855 16.042618
62.860 16.212734
62.865 16.207655
62.870 16.399506
62.875 16.696871
62.880 17.074726
62.885 17.06056
62.890 17.145031
62.895 16.884363
62.900 17.662659
62.905 17.752216
62.910 17.857548
62.915 17.577988
62.920 17.766129
62.925 18.238152
62.930 17.989464
62.935 16.882751
62.940 17.073929
62.945 17.393187
62.950 17.292261
62.955 17.122261
62.960 16.887949
62.965 17.330162
62.970 17.659119
62.975 17.297815
62.980 17.396706
62.985 17.849377
62.990 18.169968
62.995 18.173452
63.000 18.61219
63.005 18.780676
63.010 18.704571
63.015 18.604465
63.020 18.59222
63.025 18.775225
63.030 18.785233
63.035 18.587427
63.040 18.287731
63.045 18.674011
63.050 18.64801
63.055 18.25701
63.060 18.009346
63.065 17.850639
63.070 18.268681
63.075 18.132986
63.080 17.932938
63.085 17.293299
63.090 17.564608
63.095 17.131071
63.100 16.768335
63.105 17.10614
63.110 17.812336
63.115 18.139959
63.120 18.453192
63.125 18.285328
63.130 18.690289
63.135 19.068708
63.140 18.87908
63.145 17.878572
63.150 17.740177
63.155 17.773169
63.160 17.818415
63.165 17.84206
63.170 17.345448
63.175 16.798187
63.180 18.118649
63.185 18.158709
63.190 18.168781
63.195 18.258726
63.200 18.136665
63.205 18.681385
63.210 18.456469
63.215 18.308794
63.220 18.657042
63.225 18.553999
63.230 18.567793
63.235 18.644016
63.240 18.354624
63.245 18.333467
63.250 17.846453
63.255 17.750298
63.260 17.933561
63.265 17.749952
63.270 17.689707
63.275 17.777109
63.280 18.101061
63.285 18.406479
63.290 18.290936
63.295 18.10284
63.300 18.255707
63.305 18.75486
63.310 19.285805
63.315 19.322094
63.320 20.054646
63.325 20.337963
63.330 20.735546
63.335 20.490639
63.340 20.429104
63.345 19.972366
63.350 19.273579
63.355 18.360144
63.360 17.984529
63.365 17.373289
63.370 17.246975
63.375 17.138203
63.380 17.45793
63.385 17.57877
63.390 17.664804
63.395 18.213028
63.400 18.762745
63.405 18.638563
63.410 18.369316
63.415 18.255987
63.420 18.497587
63.425 18.345369
63.430 17.930225
63.435 17.79582
63.440 17.977886
63.445 17.281343
63.450 16.784395
63.455 17.030121
63.460 17.178886
63.465 17.569677
63.470 18.274717
63.475 18.433687
63.480 18.402227
63.485 18.777035
63.490 18.322531
63.495 18.392012
63.500 18.959864
63.505 19.003309
63.510 19.477642
63.515 20.163767
63.520 19.926678
63.525 19.695971
63.530 19.407406
63.535 18.363062
63.540 17.446632
63.545 17.545094
63.550 17.677347
63.555 17.559486
63.560 18.177435
63.565 18.582674
63.570 19.221727
63.575 20.13405
63.580 19.744844
63.585 19.807972
63.590 20.397657
63.595 20.096378
63.600 19.856512
63.605 19.534266
63.610 19.044006
63.615 18.832144
63.620 18.634027
63.625 18.558722
63.630 18.822792
63.635 18.962111
63.640 18.576687
63.645 18.361797
63.650 18.927441
63.655 18.643463
63.660 18.88726
63.665 19.244444
63.670 19.13624
63.675 19.003811
63.680 19.504402
63.685 19.632902
63.690 20.153322
63.695 19.773874
63.700 19.048336
63.705 19.064987
63.710 19.405403
63.715 19.289335
63.720 19.515469
63.725 19.032827
63.730 18.895679
63.735 18.721973
63.740 18.979795
63.745 18.981947
63.750 18.880095
63.755 18.297415
63.760 18.313795
63.765 18.346062
63.770 18.860781
63.775 19.36606
63.780 19.780682
63.785 19.696106
63.790 20.268541
63.795 20.545324
63.800 20.7101
63.805 21.010529
63.810 20.635223
63.815 20.220078
63.820 19.781538
63.825 19.975595
63.830 19.609449
63.835 19.265747
63.840 18.726702
63.845 18.849216
63.850 18.586708
63.855 18.370131
63.860 18.578369
63.865 19.887926
63.870 20.123203
63.875 19.90176
63.880 20.315437
63.885 21.15922
63.890 21.858309
63.895 21.763363
63.900 20.717152
63.905 20.147961
63.910 20.229065
63.915 20.449545
63.920 20.119562
63.925 19.672384
63.930 19.111979
63.935 19.995678
63.940 21.355175
63.945 21.735315
63.950 21.682878
63.955 22.600391
63.960 23.322889
63.965 23.539364
63.970 23.35371
63.975 23.465939
63.980 23.94652
63.985 23.932079
63.990 23.467709
63.995 23.282495
64.000 23.08551
64.005 23.153687
64.010 23.49
64.015 23.560913
64.020 23.581755
64.025 24.119604
64.030 24.518526
64.035 24.548183
64.040 24.393234
64.045 23.861334
64.050 23.880501
64.055 23.703686
64.060 23.434151
64.065 24.106621
64.070 24.734173
64.075 25.507692
64.080 26.252445
64.085 26.838411
64.090 26.846096
64.095 27.156231
64.100 26.896868
64.105 27.110556
64.110 26.737059
64.115 27.438957
64.120 27.888794
64.125 28.922514
64.130 29.387222
64.135 30.072714
64.140 30.013891
64.145 29.892658
64.150 30.463011
64.155 31.067549
64.160 31.25598
64.165 31.405468
64.170 32.418827
64.175 33.696476
64.180 34.406105
64.185 34.025715
64.190 34.209976
64.195 34.785881
64.200 35.043194
64.205 33.85463
64.210 34.145714
64.215 34.709602
64.220 35.054768
64.225 35.376804
64.230 35.287712
64.235 35.780327
64.240 37.21925
64.245 37.51247
64.250 37.062473
64.255 39.06057
64.260 40.5359
64.265 41.706402
64.270 42.35136
64.275 42.138355
64.280 42.363621
64.285 43.097031
64.290 43.388851
64.295 42.542809
64.300 43.373077
64.305 44.266163
64.310 44.584782
64.315 45.029373
64.320 46.086258
64.325 46.350113
64.330 47.071571
64.335 46.689445
64.340 46.401936
64.345 46.4231
64.350 47.10997
64.355 47.454521
64.360 47.85429
64.365 49.120956
64.370 50.28014
64.375 50.409931
64.380 51.415909
64.385 51.621082
64.390 51.656456
64.395 52.205017
64.400 51.601452
64.405 51.121964
64.410 51.210442
64.415 51.037037
64.420 50.2901
64.425 49.198925
64.430 48.179996
64.435 47.936634
64.440 48.248772
64.445 47.980576
64.450 48.714039
64.455 48.965714
64.460 48.538525
64.465 49.067928
64.470 48.493153
64.475 47.912056
64.480 47.392109
64.485 46.169903
64.490 45.684765
64.495 45.428234
64.500 44.293499
64.505 43.739922
64.510 42.441525
64.515 42.229626
64.520 41.710178
64.525 40.499222
64.530 40.271111
64.535 39.121239
64.540 38.370831
64.545 38.977749
64.550 38.595474
64.555 38.335518
64.560 38.461407
64.565 37.947803
64.570 38.331371
64.575 38.215424
64.580 37.368053
64.585 36.532501
64.590 35.212662
64.595 34.740749
64.600 34.580009
64.605 33.758175
64.610 33.479183
64.615 32.448452
64.620 32.106724
64.625 32.467838
64.630 32.372543
64.635 32.654495
64.640 32.237301
64.645 31.402283
64.650 32.018551
64.655 30.968351
64.660 30.172909
64.665 29.701559
64.670 28.306063
64.675 27.32575
64.680 27.533091
64.685 26.870405
64.690 27.789682
64.695 28.200434
64.700 27.939203
64.705 27.840784
64.710 28.405262
64.715 27.927061
64.720 27.10803
64.725 26.471983
64.730 25.542131
64.735 25.149008
64.740 24.355635
64.745 22.539806
64.750 22.197853
64.755 22.512764
64.760 22.108055
64.765 22.007824
64.770 21.511385
64.775 21.743523
64.780 22.573647
64.785 23.00403
64.790 23.609653
64.795 24.529419
64.800 25.010651
64.805 25.99972
64.810 26.421154
64.815 26.080059
64.820 25.515507
64.825 24.97633
64.830 24.386303
64.835 23.987831
64.840 23.219402
64.845 22.788261
64.850 22.761442
64.855 22.694767
64.860 22.483757
64.865 22.170576
64.870 21.847292
64.875 21.708517
64.880 21.552494
64.885 21.667828
64.890 21.962097
64.895 22.19593
64.900 22.14274
64.905 22.379402
64.910 22.652401
64.915 23.226631
64.920 22.242546
64.925 21.955404
64.930 22.298206
64.935 22.736406
64.940 23.287096
64.945 23.470427
64.950 23.57934
64.955 24.890835
64.960 25.703682
64.965 25.375067
64.970 25.489664
64.975 25.729162
64.980 26.09618
64.985 26.052496
64.990 26.939867
64.995 26.856001
65.000 27.511961
65.005 27.657732
65.010 27.476376
65.015 27.934616
65.020 28.794765
65.025 28.366417
65.030 29.552217
65.035 30.06391
65.040 30.744511
65.045 31.285742
65.050 31.195374
65.055 31.289928
65.060 31.350168
65.065 30.117815
65.070 29.617268
65.075 29.632029
65.080 29.898817
65.085 30.272333
65.090 29.963177
65.095 30.564785
65.100 31.343624
65.105 31.175602
65.110 31.031086
65.115 31.09589
65.120 31.587963
65.125 31.292173
65.130 30.719204
65.135 30.731718
65.140 31.543659
65.145 32.32655
65.150 32.661701
65.155 32.504604
65.160 33.61993
65.165 33.860428
65.170 34.278118
65.175 34.550846
65.180 34.462551
65.185 34.140259
65.190 34.060738
65.195 34.401718
65.200 34.624599
65.205 34.471611
65.210 34.841576
65.215 34.537903
65.220 34.158691
65.225 34.491348
65.230 35.640732
65.235 35.737587
65.240 35.525669
65.245 35.119347
65.250 34.700779
65.255 34.863548
65.260 34.996231
65.265 33.903893
65.270 33.751408
65.275 33.861485
65.280 33.740364
65.285 34.441456
65.290 34.437332
65.295 34.398258
65.300 34.602806
65.305 34.554138
65.310 34.791389
65.315 34.966896
65.320 34.604149
65.325 35.028301
65.330 35.126171
65.335 35.679214
65.340 36.427586
65.345 36.85281
65.350 37.457661
65.355 38.098454
65.360 37.903622
65.365 37.837379
65.370 38.505989
65.375 39.202068
65.380 39.011452
65.385 38.465191
65.390 37.98756
65.395 38.161419
65.400 37.899887
65.405 36.582626
65.410 35.816952
65.415 36.083748
65.420 37.027405
65.425 37.537495
65.430 36.648357
65.435 36.08218
65.440 35.664509
65.445 34.785622
65.450 34.430908
65.455 33.551929
65.460 32.992283
65.465 33.732193
65.470 33.937943
65.475 34.504303
65.480 34.92807
65.485 35.358208
65.490 36.075527
65.495 36.769547
65.500 37.091206
65.505 37.617462
65.510 38.503822
65.515 38.594227
65.520 38.436337
65.525 38.037037
65.530 38.241856
65.535 38.706322
65.540 39.704983
65.545 39.599964
65.550 40.100109
65.555 39.866962
65.560 39.944424
65.565 39.290386
65.570 38.821922
65.575 38.434299
65.580 37.997776
65.585 37.831768
65.590 38.180244
65.595 38.269604
65.600 38.296036
65.605 37.935356
65.610 37.827431
65.615 38.199879
65.620 37.951218
65.625 38.17326
65.630 38.797279
65.635 39.104
65.640 39.376278
65.645 39.216328
65.650 38.788845
65.655 38.319786
65.660 37.226547
65.665 37.434875
65.670 37.443558
65.675 37.214489
65.680 37.723915
65.685 37.813133
65.690 38.590176
65.695 39.410053
65.700 38.497215
65.705 38.404388
65.710 37.98901
65.715 37.082443
65.720 37.154396
65.725 37.526859
65.730 37.64492
65.735 37.978584
65.740 38.10815
65.745 38.280216
65.750 38.431736
65.755 39.389122
65.760 38.645008
65.765 38.087139
65.770 38.198818
65.775 37.874287
65.780 37.579403
65.785 37.697121
65.790 37.237713
65.795 37.005173
65.800 36.926567
65.805 36.569359
65.810 36.045055
65.815 35.621002
65.820 35.146233
65.825 33.938652
65.830 33.851208
65.835 32.943867
65.840 32.836571
65.845 33.177219
65.850 33.031551
65.855 32.016949
65.860 31.318972
65.865 30.917425
65.870 30.838539
65.875 30.570227
65.880 30.504225
65.885 30.118927
65.890 30.240242
65.895 30.815876
65.900 31.065201
65.905 31.045109
65.910 30.712803
65.915 30.766205
65.920 31.319742
65.925 31.663168
65.930 31.312174
65.935 31.500866
65.940 31.520929
65.945 31.504034
65.950 30.808922
65.955 30.086033
65.960 29.667597
65.965 29.58469
65.970 29.456549
65.975 29.166533
65.980 28.562033
65.985 28.507122
65.990 28.968761
65.995 28.275949
66.000 27.392359
66.005 26.533415
66.010 26.876179
66.015 27.09498
66.020 26.726675
66.025 26.731726
66.030 26.950651
66.035 27.421843
66.040 27.30117
66.045 26.535284
66.050 26.317551
66.055 25.77516
66.060 24.914959
66.065 24.982601
66.070 24.808044
66.075 24.48078
66.080 24.048317
66.085 23.793198
66.090 23.753897
66.095 23.526377
66.100 23.005455
66.105 22.390144
66.110 23.284494
66.115 23.733307
66.120 23.906427
66.125 23.800982
66.130 23.725008
66.135 23.963942
66.140 24.656605
66.145 24.076876
66.150 23.400948
66.155 23.133366
66.160 23.315649
66.165 24.005669
66.170 23.858099
66.175 23.454878
66.180 23.569906
66.185 24.368677
66.190 24.611504
66.195 24.674467
66.200 23.811993
66.205 23.249605
66.210 22.672443
66.215 22.134804
66.220 21.671871
66.225 21.5793
66.230 21.263737
66.235 21.078392
66.240 21.258429
66.245 21.744207
66.250 21.410276
66.255 20.838326
66.260 20.887682
66.265 21.222294
66.270 22.436798
66.275 22.22555
66.280 22.358629
66.285 22.979591
66.290 23.351988
66.295 23.279842
66.300 22.611645
66.305 22.264299
66.310 22.262356
66.315 21.405197
66.320 20.899601
66.325 20.699503
66.330 20.727898
66.335 20.483591
66.340 19.794331
66.345 20.447754
66.350 20.763306
66.355 21.396816
66.360 21.587927
66.365 21.024679
66.370 21.073076
66.375 20.787868
66.380 20.387882
66.385 19.822786
66.390 19.61447
66.395 19.575661
66.400 20.155817
66.405 20.593054
66.410 20.665936
66.415 20.756033
66.420 21.702236
66.425 21.71911
66.430 21.464128
66.435 21.110834
66.440 21.033781
66.445 21.86919
66.450 21.691521
66.455 21.425297
66.460 20.953062
66.465 21.19113
66.470 21.581999
66.475 20.948566
66.480 20.04475
66.485 19.702906
66.490 19.489555
66.495 19.418074
66.500 19.630875
66.505 19.339836
66.510 19.586676
66.515 19.084883
66.520 18.996672
66.525 18.859089
66.530 19.027597
66.535 18.73131
66.540 18.563498
66.545 18.685869
66.550 18.974606
66.555 19.479418
66.560 20.403681
66.565 20.658895
66.570 20.573563
66.575 20.693047
66.580 20.556387
66.585 20.607361
66.590 20.695368
66.595 20.119905
66.600 19.927547
66.605 20.022017
66.610 19.744568
66.615 19.547644
66.620 19.618223
66.625 19.64361
66.630 19.313147
66.635 18.819344
66.640 18.107384
66.645 18.135601
66.650 18.548006
66.655 18.304712
66.660 18.076916
66.665 18.398134
66.670 18.543055
66.675 18.719158
66.680 18.582186
66.685 18.370399
66.690 18.450598
66.695 18.108858
66.700 18.573706
66.705 19.059919
66.710 19.753086
66.715 20.076815
66.720 19.941212
66.725 19.919861
66.730 19.742544
66.735 18.84536
66.740 18.753107
66.745 18.651863
66.750 18.465958
66.755 18.757809
66.760 19.243063
66.765 19.794434
66.770 19.923759
66.775 20.095823
66.780 20.382875
66.785 20.225088
66.790 19.980629
66.795 19.794535
66.800 19.547003
66.805 19.702335
66.810 19.414198
66.815 19.097189
66.820 19.026775
66.825 18.419222
66.830 18.363623
66.835 18.615524
66.840 18.689251
66.845 18.981287
66.850 19.795351
66.855 20.183298
66.860 20.85626
66.865 20.629812
66.870 20.170568
66.875 20.344324
66.880 19.862865
66.885 19.240053
66.890 19.086033
66.895 18.504385
66.900 18.598568
66.905 19.146378
66.910 19.32205
66.915 19.526827
66.920 19.756002
66.925 19.731916
66.930 19.523806
66.935 19.183569
66.940 18.675278
66.945 18.195974
66.950 17.756479
66.955 17.740845
66.960 18.199606
66.965 18.816786
66.970 19.602779
66.975 19.936926
66.980 19.824589
66.985 20.158339
66.990 20.375326
66.995 20.658897
67.000 20.871254
67.005 20.284916
67.010 20.382486
67.015 20.360937
67.020 19.599804
67.025 19.202093
67.030 18.785259
67.035 18.748402
67.040 19.093611
67.045 18.717896
67.050 19.004902
67.055 19.074305
67.060 19.478779
67.065 19.447451
67.070 18.704651
67.075 18.524462
67.080 18.688107
67.085 19.206766
67.090 19.246117
67.095 18.678928
67.100 18.910254
67.105 19.782837
67.110 19.700047
67.115 19.005613
67.120 19.134506
67.125 19.348263
67.130 19.453974
67.135 18.790579
67.140 18.129425
67.145 18.04229
67.150 18.043432
67.155 17.282053
67.160 17.024902
67.165 17.118696
67.170 18.01918
67.175 19.173094
67.180 19.332424
67.185 19.213598
67.190 19.638195
67.195 19.776848
67.200 19.428501
67.205 18.798557
67.210 18.029543
67.215 18.117617
67.220 18.402182
67.225 18.633356
67.230 19.338894
67.235 19.653963
67.240 20.023079
67.245 19.963745
67.250 19.847582
67.255 19.696564
67.260 19.408644
67.265 19.080523
67.270 19.287136
67.275 18.714577
67.280 19.090767
67.285 19.616184
67.290 19.950937
67.295 20.423664
67.300 20.57222
67.305 20.360123
67.310 20.943085
67.315 21.23394
67.320 21.449438
67.325 21.027775
67.330 20.598001
67.335 20.485901
67.340 20.681505
67.345 20.358324
67.350 20.00293
67.355 19.70849
67.360 19.744995
67.365 19.376694
67.370 19.261063
67.375 19.374294
67.380 18.862062
67.385 18.769239
67.390 19.142115
67.395 19.207325
67.400 19.287441
67.405 18.862576
67.410 18.160423
67.415 18.135992
67.420 17.299549
67.425 16.459614
67.430 16.066797
67.435 16.066057
67.440 16.533262
67.445 16.986696
67.450 17.333059
67.455 17.762447
67.460 18.315674
67.465 18.852757
67.470 18.732071
67.475 18.205914
67.480 18.574732
67.485 18.79174
67.490 18.647503
67.495 18.769167
67.500 18.841373
67.505 18.778316
67.510 19.019648
67.515 19.281399
67.520 20.048908
67.525 20.358784
67.530 20.046057
67.535 19.741812
67.540 19.825808
67.545 20.116127
67.550 19.654234
67.555 19.117567
67.560 19.450069
67.565 20.065992
67.570 20.453043
67.575 20.537195
67.580 20.105936
67.585 20.277367
67.590 20.765816
67.595 20.395098
67.600 19.528107
67.605 19.083786
67.610 19.606976
67.615 19.944502
67.620 19.923939
67.625 19.154356
67.630 18.832279
67.635 19.022734
67.640 19.279778
67.645 18.716148
67.650 18.783463
67.655 19.070747
67.660 19.788336
67.665 20.663607
67.670 21.115437
67.675 21.24963
67.680 21.616493
67.685 21.152136
67.690 20.631794
67.695 20.11573
67.700 19.420479
67.705 18.899487
67.710 18.665421
67.715 18.49651
67.720 18.419943
67.725 18.177816
67.730 17.976221
67.735 18.183277
67.740 18.256727
67.745 18.140043
67.750 18.05286
67.755 18.131054
67.760 18.307062
67.765 18.161518
67.770 18.108021
67.775 18.154943
67.780 18.036402
67.785 17.928312
67.790 17.970253
67.795 18.022411
67.800 18.352421
67.805 18.583706
67.810 18.457857
67.815 18.692268
67.820 18.950542
67.825 19.084057
67.830 19.123816
67.835 18.798307
67.840 18.536469
67.845 18.58226
67.850 18.493048
67.855 18.555763
67.860 18.836626
67.865 18.098339
67.870 17.610012
67.875 17.858349
67.880 18.105373
67.885 17.995974
67.890 17.540794
67.895 17.717741
67.900 18.876593
67.905 19.566557
67.910 19.397669
67.915 19.385836
67.920 19.689075
67.925 19.798048
67.930 19.545116
67.935 19.543905
67.940 19.871832
67.945 20.078302
67.950 20.188599
67.955 19.547312
67.960 20.150362
67.965 20.185204
67.970 19.727139
67.975 19.158325
67.980 19.258274
67.985 19.374426
67.990 19.465834
67.995 19.413609
68.000 19.371502
68.005 19.528522
68.010 18.886257
68.015 18.217655
68.020 18.675671
68.025 19.118315
68.030 18.501448
68.035 18.474611
68.040 18.737274
68.045 19.291412
68.050 19.710476
68.055 19.626854
68.060 19.677275
68.065 19.559273
68.070 19.268768
68.075 19.205799
68.080 19.294977
68.085 18.951981
68.090 18.33082
68.095 18.030178
68.100 17.964392
68.105 18.434721
68.110 18.768238
68.115 18.84301
68.120 19.380804
68.125 19.841322
68.130 19.543064
68.135 19.972906
68.140 19.854053
68.145 19.379038
68.150 19.072409
68.155 19.000677
68.160 19.691753
68.165 20.15309
68.170 19.941641
68.175 19.652061
68.180 19.858238
68.185 20.03791
68.190 19.641949
68.195 19.390123
68.200 19.385431
68.205 19.879299
68.210 20.266794
68.215 20.585447
68.220 20.910042
68.225 21.304651
68.230 21.295923
68.235 21.186651
68.240 21.491739
68.245 22.385208
68.250 22.743595
68.255 22.640564
68.260 23.004801
68.265 23.201706
68.270 22.698814
68.275 22.555393
68.280 22.366684
68.285 22.343311
68.290 22.468094
68.295 22.707083
68.300 22.913624
68.305 23.481955
68.310 23.466206
68.315 23.699211
68.320 23.97625
68.325 24.560108
68.330 24.137701
68.335 24.628531
68.340 25.61364
68.345 26.01704
68.350 26.432249
68.355 26.089746
68.360 26.05806
68.365 26.767899
68.370 26.964603
68.375 26.687475
68.380 26.764818
68.385 26.836617
68.390 26.901049
68.395 26.587599
68.400 26.05566
68.405 26.570204
68.410 26.846371
68.415 26.780069
68.420 27.294029
68.425 27.54887
68.430 27.820507
68.435 27.674732
68.440 27.013689
68.445 26.810455
68.450 27.243168
68.455 27.832691
68.460 28.450144
68.465 28.640932
68.470 29.441689
68.475 29.759188
68.480 30.336174
68.485 30.714729
68.490 30.354557
68.495 30.768763
68.500 31.356546
68.505 31.516035
68.510 31.492432
68.515 31.946529
68.520 31.918837
68.525 31.674095
68.530 31.824684
68.535 32.064289
68.540 31.645718
68.545 31.581146
68.550 31.359694
68.555 31.967339
68.560 32.938362
68.565 32.31395
68.570 31.755339
68.575 32.290363
68.580 32.096424
68.585 31.83115
68.590 31.875286
68.595 31.607862
68.600 32.276409
68.605 32.220108
68.610 32.81329
68.615 33.763268
68.620 34.944565
68.625 34.400459
68.630 33.701691
68.635 33.858852
68.640 34.656261
68.645 34.294109
68.650 33.383595
68.655 32.19672
68.660 32.478344
68.665 33.081318
68.670 33.039757
68.675 33.061234
68.680 32.961468
68.685 33.455372
68.690 33.656837
68.695 33.481308
68.700 33.734074
68.705 33.73143
68.710 34.430698
68.715 34.839672
68.720 34.887451
68.725 35.424461
68.730 34.805923
68.735 35.339893
68.740 35.388046
68.745 35.08707
68.750 35.187294
68.755 35.268131
68.760 35.817272
68.765 36.701042
68.770 36.299126
68.775 36.346478
68.780 35.860283
68.785 35.370934
68.790 34.645107
68.795 33.347504
68.800 33.176975
68.805 33.051308
68.810 32.526535
68.815 33.061443
68.820 33.361275
68.825 33.715355
68.830 34.787731
68.835 35.339844
68.840 35.712467
68.845 36.06271
68.850 36.385098
68.855 36.940765
68.860 37.00528
68.865 36.1572
68.870 34.966812
68.875 34.31879
68.880 33.153011
68.885 32.346924
68.890 32.383854
68.895 32.775124
68.900 33.990604
68.905 34.898575
68.910 35.804493
68.915 36.75539
68.920 36.682362
68.925 36.18362
68.930 35.909866
68.935 35.740936
68.940 36.127861
68.945 35.600887
68.950 35.225204
68.955 35.475487
68.960 36.160465
68.965 36.173111
68.970 35.38744
68.975 34.424595
68.980 33.746487
68.985 33.717213
68.990 34.054012
68.995 33.319691
69.000 32.927509
69.005 32.088661
69.010 31.995907
69.015 32.456993
69.020 32.357941
69.025 32.108704
69.030 32.022038
69.035 31.604609
69.040 31.946653
69.045 32.437115
69.050 32.714062
69.055 32.417831
69.060 32.820686
69.065 32.838417
69.070 32.780411
69.075 31.803373
69.080 31.431484
69.085 30.711699
69.090 30.29447
69.095 29.582767
69.100 30.08042
69.105 30.613216
69.110 30.666386
69.115 30.892714
69.120 30.332027
69.125 30.012411
69.130 29.959383
69.135 29.855621
69.140 29.916981
69.145 29.171236
69.150 28.316484
69.155 28.142899
69.160 27.231171
69.165 26.719469
69.170 26.0179
69.175 24.893793
69.180 25.274405
69.185 26.068041
69.190 26.144329
69.195 25.688887
69.200 25.208296
69.205 25.651878
69.210 26.52751
69.215 26.584307
69.220 26.370737
69.225 26.897339
69.230 27.474535
69.235 27.823645
69.240 27.21184
69.245 26.20187
69.250 25.678413
69.255 24.896265
69.260 24.806543
69.265 24.48588
69.270 24.312366
69.275 23.989922
69.280 23.949631
69.285 23.303204
69.290 23.691208
69.295 23.469288
69.300 23.016502
69.305 22.42972
69.310 22.855465
69.315 22.791227
69.320 23.002441
69.325 22.36578
69.330 22.432373
69.335 23.088531
69.340 22.97715
69.345 22.554283
69.350 23.236139
69.355 23.734312
69.360 23.661793
69.365 23.101784
69.370 22.587025
69.375 22.882223
69.380 23.342688
69.385 22.195017
69.390 22.210289
69.395 21.960234
69.400 21.819666
69.405 22.12361
69.410 21.83614
69.415 20.960016
69.420 20.714758
69.425 20.416456
69.430 21.841833
69.435 23.153875
69.440 22.778349
69.445 22.485298
69.450 23.296936
69.455 23.61569
69.460 23.372107
69.465 22.06686
69.470 21.766441
69.475 21.937639
69.480 22.546871
69.485 22.777117
69.490 22.857147
69.495 22.43055
69.500 22.494455
69.505 21.996292
69.510 21.925438
69.515 21.364925
69.520 20.594517
69.525 20.313299
69.530 20.397877
69.535 20.572515
69.540 21.037481
69.545 21.384712
69.550 21.948629
69.555 21.949717
69.560 22.151468
69.565 22.025938
69.570 21.871336
69.575 21.357193
69.580 20.860113
69.585 20.360739
69.590 20.283283
69.595 20.230364
69.600 20.30407
69.605 19.690859
69.610 20.101509
69.615 19.995693
69.620 20.415564
69.625 20.206272
69.630 20.062151
69.635 20.174646
69.640 20.196218
69.645 19.802713
69.650 19.976736
69.655 19.55496
69.660 19.423481
69.665 19.510302
69.670 19.550997
69.675 19.381729
69.680 19.075764
69.685 19.135992
69.690 18.828239
69.695 18.873772
69.700 19.538116
69.705 20.280811
69.710 20.735117
69.715 20.704748
69.720 20.466124
69.725 21.815651
69.730 22.005934
69.735 21.194138
69.740 21.235546
69.745 21.143276
69.750 21.626532
69.755 21.595276
69.760 21.188345
69.765 20.773319
69.770 20.724451
69.775 20.474003
69.780 20.51852
69.785 20.509769
69.790 20.190304
69.795 20.099957
69.800 20.385029
69.805 19.891249
69.810 19.206778
69.815 18.719519
69.820 18.250774
69.825 17.947105
69.830 17.703142
69.835 18.437557
69.840 19.121851
69.845 18.964369
69.850 19.271111
69.855 19.644335
69.860 19.801697
69.865 19.966381
69.870 19.432898
69.875 19.252865
69.880 19.500023
69.885 19.555443
69.890 19.369812
69.895 19.516829
69.900 19.583687
69.905 19.864889
69.910 20.249155
69.915 20.717749
69.920 20.383337
69.925 20.486275
69.930 20.311777
69.935 19.782679
69.940 19.640703
69.945 19.478703
69.950 19.361719
69.955 19.726561
69.960 19.694599
69.965 19.422676
69.970 19.589436
69.975 18.905144
69.980 19.193913
69.985 19.433796
69.990 19.358244
69.995 19.295729
70.000 19.496464
70.005 19.364756
70.010 19.277929
70.015 19.5231
70.020 19.469028
70.025 19.601667
70.030 19.989096
70.035 19.625282
70.040 19.120331
70.045 18.752428
70.050 18.374214
70.055 17.651302
70.060 16.976913
70.065 17.046108
70.070 17.877485
70.075 18.698494
70.080 18.926075
70.085 18.75106
70.090 18.68199
70.095 18.944647
70.100 18.881752
70.105 18.559786
70.110 18.400301
70.115 18.513412
70.120 18.616577
70.125 18.996513
70.130 18.796734
70.135 18.83246
70.140 18.809624
70.145 19.196621
70.150 19.534586
70.155 20.009623
70.160 20.325953
70.165 20.539454
70.170 19.849302
70.175 19.850849
70.180 19.0905
70.185 18.844564
70.190 18.35745
70.195 18.409342
70.200 18.476055
70.205 18.393742
70.210 18.685963
70.215 19.38183
70.220 19.410971
70.225 19.080379
70.230 18.844639
70.235 19.407295
70.240 19.578539
70.245 18.650957
70.250 18.521894
70.255 18.54985
70.260 19.039297
70.265 18.720251
70.270 17.644793
70.275 17.255243
70.280 17.453821
70.285 17.088507
70.290 17.268623
70.295 17.460361
70.300 17.403259
70.305 17.833523
70.310 18.689339
70.315 19.276665
70.320 19.195147
70.325 18.587049
70.330 18.161074
70.335 18.212427
70.340 17.995703
70.345 18.006792
70.350 17.907322
70.355 17.920897
70.360 17.973417
70.365 18.344925
70.370 18.351933
70.375 18.174366
70.380 17.88636
70.385 18.069172
70.390 18.63131
70.395 18.466425
70.400 18.645494
70.405 18.374029
70.410 18.359442
70.415 18.212671
70.420 17.7069
70.425 17.376163
70.430 17.369848
70.435 17.41988
70.440 17.727217
70.445 17.711369
70.450 17.738728
70.455 17.996843
70.460 18.846176
70.465 19.315203
70.470 18.881632
70.475 19.236694
70.480 19.772654
70.485 19.684875
70.490 19.412806
70.495 18.863663
70.500 19.098112
70.505 19.499102
70.510 19.887302
70.515 20.027264
70.520 20.454206
70.525 20.176016
70.530 20.148678
70.535 19.837898
70.540 20.206404
70.545 19.804434
70.550 19.786083
70.555 19.791796
70.560 20.069347
70.565 19.890541
70.570 20.270239
70.575 19.685114
70.580 19.167185
70.585 19.176323
70.590 18.839628
70.595 18.511362
70.600 18.289515
70.605 17.666996
70.610 18.013712
70.615 17.617695
70.620 17.316805
70.625 17.595181
70.630 17.782549
70.635 18.219728
70.640 18.441223
70.645 18.507704
70.650 18.577738
70.655 18.599344
70.660 18.468399
70.665 18.178972
70.670 18.009733
70.675 18.028177
70.680 18.174696
70.685 18.855391
70.690 18.747711
70.695 18.795715
70.700 18.792738
70.705 18.551107
70.710 18.467108
70.715 18.237898
70.720 18.293528
70.725 18.803682
70.730 19.11698
70.735 18.915972
70.740 19.248415
70.745 19.48428
70.750 19.046328
70.755 18.596972
70.760 18.194386
70.765 18.426226
70.770 18.494883
70.775 18.412731
70.780 18.457474
70.785 18.039875
70.790 17.999769
70.795 18.148558
70.800 18.264294
70.805 17.860193
70.810 17.66497
70.815 17.47497
70.820 18.120787
70.825 18.528931
70.830 18.538242
70.835 18.879284
70.840 19.405272
70.845 19.549803
70.850 19.431091
70.855 19.42676
70.860 18.861206
70.865 18.921625
70.870 18.203804
70.875 18.268564
70.880 18.622002
70.885 18.966734
70.890 18.524567
70.895 18.103907
70.900 17.903118
70.905 17.539063
70.910 17.373209
70.915 17.256641
70.920 17.117945
70.925 17.252361
70.930 17.816912
70.935 18.231407
70.940 18.879618
70.945 18.950603
70.950 18.789309
70.955 18.768013
70.960 19.049173
70.965 18.834375
70.970 18.735516
70.975 18.887177
70.980 18.915405
70.985 18.990334
70.990 19.175419
70.995 19.066923
71.000 19.019857
71.005 19.058897
71.010 18.709564
71.015 18.85537
71.020 19.137995
71.025 19.044987
71.030 18.39172
71.035 18.343075
71.040 18.141808
71.045 18.352262
71.050 18.235527
71.055 17.407724
71.060 17.595057
71.065 17.653967
71.070 17.865589
71.075 17.541428
71.080 17.092749
71.085 17.369576
71.090 17.722464
71.095 17.755695
71.100 17.549707
71.105 17.063913
71.110 17.450262
71.115 17.207243
71.120 16.797054
71.125 17.284548
71.130 17.923494
71.135 18.26535
71.140 18.35331
71.145 18.179136
71.150 18.309277
71.155 18.629824
71.160 18.454613
71.165 18.20326
71.170 17.93453
71.175 18.125294
71.180 17.956335
71.185 18.298239
71.190 18.007717
71.195 17.021051
71.200 17.264883
71.205 17.443962
71.210 17.949303
71.215 18.075209
71.220 17.385187
71.225 17.395742
71.230 17.575289
71.235 17.577824
71.240 17.154045
71.245 16.793524
71.250 17.104242
71.255 17.419907
71.260 16.840971
71.265 16.803259
71.270 16.606445
71.275 16.662136
71.280 16.259678
71.285 16.501396
71.290 17.311758
71.295 17.682936
71.300 17.821787
71.305 18.236761
71.310 18.62322
71.315 18.868902
71.320 18.551504
71.325 18.133598
71.330 18.071819
71.335 18.183113
71.340 17.824903
71.345 17.862906
71.350 18.151861
71.355 17.967073
71.360 18.189558
71.365 18.796371
71.370 18.439014
71.375 18.60548
71.380 18.511028
71.385 18.090588
71.390 18.115387
71.395 17.74577
71.400 17.788956
71.405 18.110069
71.410 17.985634
71.415 18.153677
71.420 18.487179
71.425 18.741589
71.430 18.893387
71.435 18.282927
71.440 18.349339
71.445 18.376938
71.450 18.596556
71.455 18.728378
71.460 18.793156
71.465 18.544058
71.470 19.299826
71.475 19.591391
71.480 19.199139
71.485 19.112232
71.490 19.604017
71.495 19.755459
71.500 19.437559
71.505 18.864088
71.510 19.01289
71.515 19.290634
71.520 18.690536
71.525 18.569349
71.530 18.748337
71.535 19.162886
71.540 19.155525
71.545 18.991503
71.550 19.102339
71.555 19.421017
71.560 19.444397
71.565 19.695242
71.570 19.353264
71.575 19.278446
71.580 19.431156
71.585 19.301617
71.590 18.758194
71.595 18.443497
71.600 18.430595
71.605 18.313055
71.610 18.046576
71.615 17.922831
71.620 17.611403
71.625 17.314245
71.630 17.566046
71.635 18.126202
71.640 18.573673
71.645 18.699987
71.650 18.615677
71.655 18.677521
71.660 18.526653
71.665 18.265783
71.670 18.404572
71.675 19.330502
71.680 19.475975
71.685 19.39595
71.690 20.140741
71.695 20.178593
71.700 20.575092
71.705 19.609747
71.710 19.358572
71.715 19.678354
71.720 19.862932
71.725 19.870502
71.730 20.141874
71.735 19.777456
71.740 19.885893
71.745 19.74184
71.750 19.447222
71.755 19.373722
71.760 18.657093
71.765 18.879147
71.770 19.141079
71.775 19.062244
71.780 19.152542
71.785 19.510384
71.790 19.123865
71.795 19.215586
71.800 18.642048
71.805 18.129456
71.810 18.088688
71.815 17.612917
71.820 17.521143
71.825 17.923197
71.830 18.528711
71.835 18.321766
71.840 18.327318
71.845 18.380747
71.850 18.177761
71.855 18.008074
71.860 17.739517
71.865 17.540472
71.870 17.518375
71.875 18.030928
71.880 18.010536
71.885 18.286228
71.890 18.694231
71.895 18.614132
71.900 18.108047
71.905 17.978701
71.910 18.516554
71.915 18.620314
71.920 19.154993
71.925 19.324047
71.930 19.707903
71.935 20.132095
71.940 20.082136
71.945 19.955257
71.950 19.797901
71.955 19.123243
71.960 19.088114
71.965 19.276993
71.970 19.542385
71.975 19.543179
71.980 18.865538
71.985 18.640436
71.990 18.750994
71.995 18.408287
72.000 17.81723
72.005 17.32202
72.010 17.085728
72.015 17.291969
72.020 17.719885
72.025 17.652098
72.030 17.786657
72.035 18.007967
72.040 18.18511
72.045 18.345093
72.050 18.81333
72.055 18.473482
72.060 18.615459
72.065 18.974752
72.070 19.099447
72.075 19.056932
72.080 18.928268
72.085 19.317389
72.090 19.818396
72.095 19.698538
72.100 19.583265
72.105 19.300318
72.110 19.252167
72.115 18.510746
72.120 18.071348
72.125 17.584841
72.130 16.915047
72.135 17.342951
72.140 17.611084
72.145 17.465525
72.150 17.096832
72.155 16.614826
72.160 16.595409
72.165 16.6929
72.170 16.786697
72.175 17.390949
72.180 17.826279
72.185 18.51873
72.190 18.848312
72.195 19.399609
72.200 19.428316
72.205 18.816736
72.210 18.546726
72.215 18.130537
72.220 17.702662
72.225 17.693724
72.230 17.879011
72.235 18.217842
72.240 18.426281
72.245 18.739969
72.250 19.510956
72.255 19.113649
72.260 18.900854
72.265 18.145882
72.270 17.557356
72.275 17.442213
72.280 16.92153
72.285 16.770212
72.290 17.365664
72.295 17.214695
72.300 17.620415
72.305 17.703402
72.310 18.310535
72.315 18.421072
72.320 18.744152
72.325 18.370134
72.330 18.644102
72.335 19.196671
72.340 18.934217
72.345 18.517635
72.350 17.498762
72.355 17.599842
72.360 18.058969
72.365 17.683195
72.370 17.359848
72.375 17.07259
72.380 17.336752
72.385 17.797083
72.390 17.53236
72.395 18.055531
72.400 18.292271
72.405 18.074869
72.410 17.638489
72.415 17.930693
72.420 18.03377
72.425 18.007721
72.430 17.371824
72.435 17.071714
72.440 17.369202
72.445 17.61372
72.450 17.052605
72.455 16.789991
72.460 16.632393
72.465 16.708303
72.470 17.237886
72.475 16.949886
72.480 16.785671
72.485 17.104029
72.490 17.519169
72.495 17.161486
72.500 16.732864
72.505 16.482607
72.510 16.632988
72.515 16.987194
72.520 16.791515
72.525 16.731176
72.530 16.605984
72.535 16.874187
72.540 17.175207
72.545 17.721043
72.550 17.987074
72.555 18.399542
72.560 19.017393
72.565 19.815674
72.570 19.857738
72.575 20.021639
72.580 20.133038
72.585 20.049036
72.590 18.94216
72.595 18.129114
72.600 17.417763
72.605 17.652613
72.610 17.809441
72.615 17.17301
72.620 17.43062
72.625 18.101791
72.630 18.404306
72.635 18.131325
72.640 17.451488
72.645 16.628716
72.650 16.364925
72.655 16.495846
72.660 16.959641
72.665 16.957207
72.670 17.217878
72.675 17.85862
72.680 18.168125
72.685 18.176359
72.690 17.954058
72.695 17.827295
72.700 17.572916
72.705 17.346807
72.710 17.352028
72.715 17.859735
72.720 18.335751
72.725 18.012459
72.730 18.042971
72.735 18.374151
72.740 18.438292
72.745 18.003181
72.750 17.737858
72.755 17.815313
72.760 18.012197
72.765 18.106291
72.770 17.727262
72.775 17.307339
72.780 17.617228
72.785 17.312231
72.790 16.766514
72.795 16.9506
72.800 17.194504
72.805 17.735172
72.810 17.804628
72.815 17.494839
72.820 17.974016
72.825 18.51296
72.830 17.707476
72.835 17.305731
72.840 17.130451
72.845 17.479191
72.850 17.242046
72.855 16.345278
72.860 16.266024
72.865 16.151587
72.870 16.195814
72.875 15.982131
72.880 15.748017
72.885 16.147554
72.890 16.362465
72.895 16.341064
72.900 16.341007
72.905 16.630728
72.910 17.270113
72.915 17.373436
72.920 17.405285
72.925 17.739664
72.930 18.246967
72.935 18.46339
72.940 18.261488
72.945 18.132212
72.950 17.859062
72.955 17.44688
72.960 16.75017
72.965 16.599884
72.970 17.182938
72.975 17.108662
72.980 17.178669
72.985 17.857821
72.990 18.317179
72.995 18.941957
73.000 18.350349
