!@!!GADDS PLOTSO FILE: Chi integration type
!@!!Title/SampleName: map-ce
!@!!Comment: ?
!@!!User: Bruker Instrument Administrator
!@!!Site: University of Illinois Chicago
!@!!Frame: map-ce_01_000.gfrm
!@!!Wavelengths    1.54184   1.54056   1.54439
!@!!Frame angles: 2Theta: 63.000 Omega: 50.000 Phi: 0.000 Chi: 90.000
!@!!Integration range: 2Theta: 53.000 to 73.000  Gamma: -105.000 to -75.000
!@!!Integration method: bin normalized
!@!N
!@!SS
!@!M
!@!L 0.0 0.0 0.0 0.0
!@!XDegrees
!@!YCounts
53.000 8.289493
53.005 8.032482
53.010 7.166306
53.015 6.344597
53.020 6.367249
53.025 6.48702
53.030 6.88795
53.035 7.065417
53.040 7.293525
53.045 8.378233
53.050 8.580199
53.055 8.277529
53.060 7.980183
53.065 8.628429
53.070 9.263814
53.075 9.156013
53.080 9.150496
53.085 9.544396
53.090 10.274579
53.095 10.639909
53.100 10.328845
53.105 10.288863
53.110 10.328106
53.115 10.166497
53.120 9.437331
53.125 8.527286
53.130 7.752736
53.135 7.413401
53.140 7.370316
53.145 7.053314
53.150 7.602556
53.155 8.767216
53.160 9.210153
53.165 9.146845
53.170 8.922621
53.175 8.80145
53.180 8.577949
53.185 7.936727
53.190 7.183167
53.195 6.992951
53.200 7.24994
53.205 7.550259
53.210 7.619341
53.215 7.795128
53.220 7.998313
53.225 8.349454
53.230 8.619441
53.235 8.405741
53.240 8.546604
53.245 8.63492
53.250 8.818446
53.255 8.80505
53.260 8.736134
53.265 8.785782
53.270 8.801941
53.275 8.659031
53.280 8.314625
53.285 7.760753
53.290 8.130596
53.295 8.271932
53.300 8.586522
53.305 8.47145
53.310 8.377278
53.315 8.612335
53.320 9.123376
53.325 8.9318
53.330 8.897861
53.335 8.676122
53.340 8.860451
53.345 8.934646
53.350 8.740986
53.355 8.336057
53.360 8.491195
53.365 8.497034
53.370 8.607842
53.375 8.944613
53.380 9.075564
53.385 9.672854
53.390 9.742305
53.395 9.805092
53.400 9.558749
53.405 9.473746
53.410 9.65452
53.415 9.709225
53.420 8.871128
53.425 8.509464
53.430 8.631989
53.435 8.589005
53.440 8.360797
53.445 8.151876
53.450 8.382541
53.455 8.858484
53.460 8.871672
53.465 8.600431
53.470 8.727613
53.475 8.830668
53.480 8.509134
53.485 8.211223
53.490 8.437196
53.495 8.294212
53.500 8.519886
53.505 8.358534
53.510 8.506801
53.515 8.488431
53.520 9.169239
53.525 9.558949
53.530 9.84687
53.535 10.24277
53.540 10.321973
53.545 10.370676
53.550 10.610736
53.555 10.661406
53.560 10.289737
53.565 10.275524
53.570 9.936348
53.575 9.658077
53.580 9.149797
53.585 8.85205
53.590 8.141554
53.595 7.968818
53.600 7.893325
53.605 8.168908
53.610 8.593036
53.615 8.676815
53.620 8.694793
53.625 9.238666
53.630 9.367089
53.635 9.421907
53.640 8.983134
53.645 9.027375
53.650 9.083736
53.655 9.182812
53.660 8.831519
53.665 8.862719
53.670 8.812768
53.675 8.641354
53.680 8.316788
53.685 8.090442
53.690 8.319779
53.695 8.369918
53.700 8.092969
53.705 8.171945
53.710 8.426056
53.715 8.572951
53.720 8.612089
53.725 8.850698
53.730 9.195736
53.735 9.249864
53.740 9.400743
53.745 9.396614
53.750 9.43027
53.755 9.244453
53.760 9.516248
53.765 9.717439
53.770 10.030004
53.775 9.836163
53.780 9.537887
53.785 9.885929
53.790 9.615933
53.795 8.873687
53.800 8.989502
53.805 9.13491
53.810 9.468323
53.815 9.606977
53.820 9.355667
53.825 9.063818
53.830 9.179194
53.835 8.809991
53.840 8.893789
53.845 8.876751
53.850 9.151525
53.855 9.440592
53.860 9.9934
53.865 9.899976
53.870 9.619038
53.875 9.603501
53.880 9.306814
53.885 8.820819
53.890 8.660151
53.895 8.460159
53.900 8.201255
53.905 8.157572
53.910 8.036516
53.915 8.561142
53.920 8.87568
53.925 9.31788
53.930 9.851898
53.935 10.232087
53.940 10.369902
53.945 10.279248
53.950 10.0568
53.955 9.814749
53.960 9.241414
53.965 9.570934
53.970 9.583294
53.975 9.492382
53.980 9.895394
53.985 10.505116
53.990 10.833105
53.995 11.247621
54.000 10.506419
54.005 10.714622
54.010 10.575244
54.015 10.005677
54.020 9.743224
54.025 9.77885
54.030 9.991472
54.035 10.312237
54.040 10.025457
54.045 10.484779
54.050 10.404807
54.055 9.965493
54.060 9.717256
54.065 9.028228
54.070 8.927637
54.075 9.200858
54.080 9.362051
54.085 9.235695
54.090 9.629499
54.095 9.637141
54.100 10.324012
54.105 10.618271
54.110 10.551828
54.115 10.638043
54.120 11.06039
54.125 10.946774
54.130 11.31751
54.135 11.182822
54.140 10.553922
54.145 10.533139
54.150 9.836817
54.155 9.716978
54.160 9.422922
54.165 9.23978
54.170 9.391431
54.175 9.694644
54.180 9.61937
54.185 9.820947
54.190 9.62394
54.195 9.548304
54.200 9.605813
54.205 9.529343
54.210 9.069831
54.215 9.261532
54.220 9.626121
54.225 9.623407
54.230 9.422888
54.235 9.555717
54.240 9.963192
54.245 10.288148
54.250 10.237042
54.255 10.339322
54.260 10.797715
54.265 10.406272
54.270 9.811741
54.275 10.177065
54.280 10.31186
54.285 10.086164
54.290 10.060129
54.295 10.05397
54.300 10.427019
54.305 10.311035
54.310 9.604915
54.315 9.360385
54.320 9.088984
54.325 9.081364
54.330 9.197157
54.335 8.956385
54.340 8.98823
54.345 9.533032
54.350 9.821961
54.355 10.150757
54.360 9.695831
54.365 9.515956
54.370 9.302108
54.375 8.972343
54.380 8.598666
54.385 8.709668
54.390 8.967758
54.395 9.453813
54.400 9.555493
54.405 10.212895
54.410 10.574924
54.415 10.472256
54.420 10.525773
54.425 10.486383
54.430 10.396428
54.435 10.223897
54.440 10.031246
54.445 9.656507
54.450 9.20462
54.455 9.148128
54.460 8.838686
54.465 8.868007
54.470 9.044173
54.475 9.106305
54.480 9.512531
54.485 9.565603
54.490 9.774463
54.495 10.034117
54.500 10.033857
54.505 9.917655
54.510 9.573323
54.515 9.594712
54.520 9.623289
54.525 9.335047
54.530 9.605597
54.535 9.612252
54.540 10.003805
54.545 10.405197
54.550 10.262185
54.555 9.985202
54.560 9.841524
54.565 9.722315
54.570 10.105105
54.575 10.29594
54.580 10.167887
54.585 10.048167
54.590 9.944199
54.595 9.550695
54.600 9.281186
54.605 8.741352
54.610 8.671953
54.615 8.711411
54.620 9.261618
54.625 9.758376
54.630 10.08548
54.635 10.107594
54.640 10.086025
54.645 9.732463
54.650 9.986548
54.655 9.819884
54.660 10.020725
54.665 10.169512
54.670 10.231117
54.675 10.343673
54.680 10.46852
54.685 10.845418
54.690 11.016645
54.695 10.729752
54.700 10.614148
54.705 10.558046
54.710 10.372869
54.715 10.553263
54.720 10.210287
54.725 10.089892
54.730 10.166515
54.735 10.230062
54.740 10.696444
54.745 11.098627
54.750 10.842726
54.755 10.920707
54.760 11.428107
54.765 11.372615
54.770 11.70479
54.775 11.63758
54.780 11.093898
54.785 11.243361
54.790 10.735562
54.795 10.294152
54.800 10.615898
54.805 10.065467
54.810 9.676538
54.815 9.863053
54.820 9.691619
54.825 9.986919
54.830 9.895556
54.835 9.917583
54.840 10.094214
54.845 10.463906
54.850 10.515591
54.855 10.460196
54.860 10.416199
54.865 10.523536
54.870 10.237865
54.875 10.402816
54.880 10.378534
54.885 10.176114
54.890 10.499228
54.895 10.227131
54.900 10.148732
54.905 10.168392
54.910 10.15058
54.915 10.251402
54.920 9.873734
54.925 9.912708
54.930 10.266047
54.935 9.9784
54.940 9.985523
54.945 10.23711
54.950 10.374672
54.955 10.783126
54.960 10.676095
54.965 10.371819
54.970 10.243268
54.975 10.015907
54.980 9.844369
54.985 9.863434
54.990 10.082729
54.995 10.029928
55.000 10.418875
55.005 10.904106
55.010 11.038587
55.015 11.298319
55.020 11.198243
55.025 10.973764
55.030 11.036057
55.035 11.095862
55.040 11.036708
55.045 11.086783
55.050 10.615233
55.055 10.344662
55.060 10.549229
55.065 10.488781
55.070 10.109637
55.075 10.183954
55.080 10.686658
55.085 10.940077
55.090 11.592556
55.095 11.233747
55.100 11.093387
55.105 11.207705
55.110 10.752403
55.115 10.056003
55.120 10.274322
55.125 10.02684
55.130 10.451491
55.135 10.704983
55.140 10.568355
55.145 10.741008
55.150 10.684479
55.155 10.519957
55.160 10.263028
55.165 10.222839
55.170 10.582911
55.175 10.866304
55.180 10.980658
55.185 11.106569
55.190 11.310534
55.195 11.620046
55.200 11.257336
55.205 10.660907
55.210 10.688484
55.215 10.572906
55.220 10.766441
55.225 10.619184
55.230 10.468568
55.235 11.050682
55.240 11.577403
55.245 11.535638
55.250 11.750916
55.255 11.485685
55.260 11.222942
55.265 11.354606
55.270 11.056241
55.275 11.296331
55.280 11.294582
55.285 11.222809
55.290 11.362306
55.295 11.611096
55.300 11.69958
55.305 11.575236
55.310 11.194763
55.315 11.099573
55.320 11.40367
55.325 11.701234
55.330 11.380566
55.335 11.294866
55.340 11.201653
55.345 11.055173
55.350 11.348256
55.355 10.624255
55.360 10.34116
55.365 10.491378
55.370 10.46063
55.375 10.422746
55.380 10.603539
55.385 10.920788
55.390 11.073809
55.395 11.006676
55.400 10.947763
55.405 10.826645
55.410 11.43638
55.415 10.806552
55.420 10.267799
55.425 10.799881
55.430 11.056692
55.435 11.500909
55.440 11.850307
55.445 11.549164
55.450 11.656381
55.455 11.861009
55.460 11.58867
55.465 11.370736
55.470 11.324278
55.475 10.819079
55.480 10.682198
55.485 10.989394
55.490 10.884127
55.495 10.464482
55.500 10.201558
55.505 10.20177
55.510 10.61703
55.515 10.760202
55.520 10.512485
55.525 10.575807
55.530 10.77651
55.535 10.894692
55.540 10.915437
55.545 11.010382
55.550 10.943733
55.555 11.226933
55.560 11.753525
55.565 11.857534
55.570 11.583014
55.575 11.651905
55.580 12.08556
55.585 12.640217
55.590 12.442685
55.595 12.106451
55.600 12.711675
55.605 12.72915
55.610 12.492138
55.615 12.124363
55.620 11.890322
55.625 11.891162
55.630 11.648588
55.635 11.310513
55.640 11.573948
55.645 11.320009
55.650 11.401426
55.655 11.271146
55.660 11.060756
55.665 11.055972
55.670 10.984774
55.675 11.259651
55.680 11.718851
55.685 12.226325
55.690 12.187821
55.695 12.387932
55.700 12.91858
55.705 12.841449
55.710 12.41923
55.715 12.269511
55.720 12.032407
55.725 12.076027
55.730 11.720825
55.735 11.354528
55.740 11.395923
55.745 10.859912
55.750 10.563475
55.755 10.273987
55.760 10.222054
55.765 10.846295
55.770 11.396869
55.775 11.664887
55.780 12.123203
55.785 12.124454
55.790 12.113809
55.795 11.990768
55.800 11.37552
55.805 10.635486
55.810 10.608678
55.815 10.587818
55.820 10.691793
55.825 10.677369
55.830 10.809182
55.835 10.77001
55.840 10.84596
55.845 11.126023
55.850 11.231629
55.855 11.551644
55.860 11.938022
55.865 12.27572
55.870 12.624246
55.875 12.829869
55.880 12.662682
55.885 12.409339
55.890 12.116274
55.895 12.080251
55.900 11.589712
55.905 11.421254
55.910 11.520211
55.915 11.752761
55.920 12.084738
55.925 12.172814
55.930 12.114164
55.935 12.289081
55.940 12.335651
55.945 12.673359
55.950 12.534051
55.955 12.449968
55.960 12.176417
55.965 12.399172
55.970 12.908977
55.975 12.364183
55.980 11.709723
55.985 11.678358
55.990 11.62294
55.995 11.797277
56.000 11.590438
56.005 11.188234
56.010 11.259686
56.015 11.05036
56.020 10.90167
56.025 11.082945
56.030 11.173711
56.035 11.116406
56.040 11.034949
56.045 11.207007
56.050 11.582922
56.055 11.157966
56.060 10.759768
56.065 10.574599
56.070 10.844943
56.075 11.101765
56.080 10.944761
56.085 10.723814
56.090 11.278151
56.095 11.082816
56.100 10.787226
56.105 10.573641
56.110 10.019031
56.115 9.875298
56.120 9.766176
56.125 10.03678
56.130 10.655092
56.135 10.404168
56.140 10.64398
56.145 11.378426
56.150 11.630965
56.155 11.904133
56.160 11.474075
56.165 11.081569
56.170 10.840907
56.175 10.244754
56.180 10.008538
56.185 9.948046
56.190 9.740368
56.195 9.719568
56.200 9.966138
56.205 10.232722
56.210 10.586741
56.215 10.500631
56.220 11.053257
56.225 11.054094
56.230 11.10264
56.235 11.70719
56.240 11.55585
56.245 11.960884
56.250 11.748459
56.255 11.580556
56.260 11.727913
56.265 11.137712
56.270 10.95485
56.275 10.878457
56.280 10.825683
56.285 11.017948
56.290 10.880241
56.295 11.207479
56.300 11.972669
56.305 11.540504
56.310 11.502921
56.315 11.292183
56.320 11.517064
56.325 11.616067
56.330 11.312863
56.335 11.441813
56.340 12.388853
56.345 12.845971
56.350 12.711932
56.355 12.14162
56.360 11.852044
56.365 11.830422
56.370 11.89249
56.375 11.273282
56.380 11.145717
56.385 11.820086
56.390 12.416927
56.395 12.042529
56.400 11.911789
56.405 11.439859
56.410 11.747572
56.415 11.696781
56.420 10.967172
56.425 11.093413
56.430 11.655119
56.435 12.162868
56.440 12.177578
56.445 12.362276
56.450 12.496944
56.455 12.710597
56.460 12.480112
56.465 12.154771
56.470 12.010528
56.475 11.903119
56.480 11.911691
56.485 11.973626
56.490 12.212498
56.495 12.61245
56.500 12.664175
56.505 12.99778
56.510 12.903757
56.515 12.524418
56.520 12.439848
56.525 12.707463
56.530 12.430337
56.535 12.743267
56.540 12.884419
56.545 13.125067
56.550 13.413753
56.555 13.493738
56.560 13.413863
56.565 13.482552
56.570 13.202927
56.575 13.103844
56.580 12.902241
56.585 13.187195
56.590 12.711322
56.595 12.593674
56.600 12.55655
56.605 12.295871
56.610 11.940214
56.615 11.792791
56.620 11.339728
56.625 11.417952
56.630 11.66292
56.635 12.016831
56.640 12.113354
56.645 12.572042
56.650 12.769739
56.655 12.973316
56.660 12.691762
56.665 12.173022
56.670 11.977573
56.675 11.795725
56.680 11.900258
56.685 11.952418
56.690 11.917539
56.695 11.661014
56.700 11.204279
56.705 11.218554
56.710 11.35604
56.715 10.776017
56.720 10.649846
56.725 10.682642
56.730 11.363009
56.735 11.740859
56.740 11.7501
56.745 11.817365
56.750 12.253977
56.755 12.740541
56.760 12.983472
56.765 13.335129
56.770 13.762249
56.775 13.720791
56.780 13.534085
56.785 13.31878
56.790 12.984736
56.795 12.379812
56.800 11.803677
56.805 12.190689
56.810 12.432609
56.815 12.236512
56.820 12.560917
56.825 12.58996
56.830 13.240887
56.835 13.683301
56.840 13.372123
56.845 13.851011
56.850 14.442143
56.855 14.455756
56.860 14.76758
56.865 15.313492
56.870 15.114368
56.875 14.550712
56.880 14.242586
56.885 14.044381
56.890 13.853007
56.895 13.528722
56.900 12.909031
56.905 12.850668
56.910 13.201571
56.915 13.092441
56.920 13.417578
56.925 13.76814
56.930 14.019301
56.935 13.974675
56.940 14.249536
56.945 14.530137
56.950 14.710149
56.955 14.036205
56.960 13.513242
56.965 12.939607
56.970 12.942709
56.975 13.044388
56.980 13.038197
56.985 12.683293
56.990 12.514417
56.995 12.550427
57.000 12.874754
57.005 13.151258
57.010 12.802449
57.015 12.764398
57.020 13.343693
57.025 13.840095
57.030 13.574338
57.035 13.151121
57.040 13.080339
57.045 12.874606
57.050 12.642093
57.055 12.47578
57.060 12.314047
57.065 12.798794
57.070 13.075349
57.075 12.730357
57.080 12.440902
57.085 12.355133
57.090 12.112715
57.095 12.161814
57.100 11.801399
57.105 11.945409
57.110 12.181849
57.115 12.693408
57.120 12.857855
57.125 12.918048
57.130 13.53998
57.135 14.090254
57.140 13.996274
57.145 14.104177
57.150 14.667295
57.155 14.562866
57.160 14.717457
57.165 14.586389
57.170 14.60847
57.175 14.846479
57.180 13.954557
57.185 12.82011
57.190 12.684294
57.195 12.455719
57.200 12.1957
57.205 12.083852
57.210 12.141258
57.215 13.164552
57.220 13.53996
57.225 13.727921
57.230 13.747137
57.235 13.530236
57.240 13.517103
57.245 13.264647
57.250 13.056456
57.255 13.28538
57.260 13.380279
57.265 13.380934
57.270 13.74738
57.275 13.765366
57.280 13.885478
57.285 13.520985
57.290 13.461893
57.295 13.415064
57.300 13.802098
57.305 13.908689
57.310 13.807305
57.315 13.430819
57.320 13.756549
57.325 13.748184
57.330 13.639722
57.335 13.432612
57.340 13.126246
57.345 13.59687
57.350 14.185571
57.355 14.013586
57.360 14.069373
57.365 14.160224
57.370 14.649561
57.375 14.608301
57.380 14.072833
57.385 13.720502
57.390 13.817321
57.395 13.572593
57.400 13.22096
57.405 12.880577
57.410 12.732304
57.415 12.653522
57.420 12.957836
57.425 13.031659
57.430 13.589316
57.435 14.135275
57.440 14.055391
57.445 14.216158
57.450 14.491103
57.455 14.526592
57.460 14.627729
57.465 14.103201
57.470 13.544546
57.475 13.735372
57.480 14.299702
57.485 14.099933
57.490 13.830589
57.495 13.450785
57.500 13.354384
57.505 13.551357
57.510 13.654588
57.515 12.985989
57.520 13.021842
57.525 13.005124
57.530 12.929232
57.535 13.356892
57.540 13.059308
57.545 13.069263
57.550 13.807301
57.555 14.105631
57.560 14.407782
57.565 14.581984
57.570 14.206166
57.575 14.373041
57.580 14.295794
57.585 13.986297
57.590 13.886294
57.595 13.485553
57.600 13.560187
57.605 13.744332
57.610 13.679074
57.615 13.6573
57.620 13.857043
57.625 14.089638
57.630 14.43206
57.635 14.983974
57.640 15.005308
57.645 15.231856
57.650 15.224761
57.655 15.031563
57.660 15.483985
57.665 15.122702
57.670 14.2806
57.675 14.162489
57.680 13.656725
57.685 13.505673
57.690 13.016423
57.695 12.288645
57.700 12.322646
57.705 12.827915
57.710 12.635227
57.715 12.811399
57.720 12.971341
57.725 13.51722
57.730 13.746263
57.735 14.023286
57.740 13.82335
57.745 14.286981
57.750 14.682964
57.755 14.514348
57.760 13.963408
57.765 13.437646
57.770 13.309834
57.775 13.273884
57.780 12.948298
57.785 12.965808
57.790 13.132486
57.795 13.923435
57.800 15.073176
57.805 14.929805
57.810 15.076502
57.815 15.053456
57.820 15.157537
57.825 15.218723
57.830 14.722751
57.835 14.275705
57.840 13.828981
57.845 13.321668
57.850 13.562388
57.855 13.392009
57.860 13.326678
57.865 13.681789
57.870 13.830639
57.875 14.397307
57.880 14.812509
57.885 14.896067
57.890 14.863399
57.895 14.740776
57.900 14.525242
57.905 14.365252
57.910 14.399674
57.915 14.649243
57.920 14.100215
57.925 13.573952
57.930 13.24078
57.935 12.860282
57.940 12.958742
57.945 12.527999
57.950 11.980692
57.955 11.843455
57.960 12.482378
57.965 13.108922
57.970 13.297854
57.975 12.931714
57.980 12.898829
57.985 12.799636
57.990 13.433668
57.995 13.426799
58.000 12.990492
58.005 12.945653
58.010 13.913442
58.015 14.510366
58.020 15.073263
58.025 14.776346
58.030 14.398803
58.035 15.159605
58.040 15.451221
58.045 14.539633
58.050 14.318526
58.055 14.291955
58.060 14.140865
58.065 14.492852
58.070 14.237725
58.075 14.564631
58.080 14.933315
58.085 14.296049
58.090 13.901525
58.095 14.108458
58.100 13.981864
58.105 14.084311
58.110 14.159986
58.115 13.907697
58.120 14.595228
58.125 14.86504
58.130 14.670791
58.135 14.567516
58.140 14.163602
58.145 13.727828
58.150 13.957923
58.155 13.723476
58.160 13.770584
58.165 13.7888
58.170 13.509601
58.175 13.905105
58.180 14.045833
58.185 14.090633
58.190 14.290692
58.195 14.90369
58.200 15.01481
58.205 14.897367
58.210 14.934995
58.215 15.015311
58.220 14.626493
58.225 14.423222
58.230 14.462805
58.235 15.091391
58.240 15.588288
58.245 15.318751
58.250 16.001902
58.255 16.426003
58.260 16.612165
58.265 16.122015
58.270 15.641022
58.275 15.581942
58.280 15.34759
58.285 14.889957
58.290 14.807904
58.295 14.316522
58.300 14.008648
58.305 13.894883
58.310 14.227571
58.315 14.1296
58.320 13.969775
58.325 13.4588
58.330 13.361231
58.335 13.788144
58.340 13.621206
58.345 13.454265
58.350 14.189394
58.355 14.598866
58.360 15.144373
58.365 15.940436
58.370 16.187271
58.375 15.833526
58.380 15.030076
58.385 14.510263
58.390 14.074677
58.395 13.805337
58.400 13.130799
58.405 12.81151
58.410 13.038599
58.415 13.244419
58.420 13.199476
58.425 13.702865
58.430 14.563626
58.435 14.630389
58.440 14.691577
58.445 14.847103
58.450 14.716811
58.455 15.168515
58.460 14.655794
58.465 13.840405
58.470 13.958714
58.475 14.248207
58.480 14.239815
58.485 14.158958
58.490 13.958681
58.495 14.296367
58.500 14.439876
58.505 14.17008
58.510 13.956942
58.515 14.289225
58.520 14.760839
58.525 15.339782
58.530 15.195281
58.535 14.576614
58.540 14.06166
58.545 14.610996
58.550 14.224342
58.555 13.572969
58.560 12.787547
58.565 12.832379
58.570 12.995988
58.575 13.31374
58.580 12.816981
58.585 12.942957
58.590 13.260831
58.595 13.446061
58.600 14.096954
58.605 14.937491
58.610 15.095842
58.615 15.389987
58.620 15.419632
58.625 15.497388
58.630 15.061483
58.635 14.311628
58.640 14.183831
58.645 14.224864
58.650 14.167979
58.655 14.127413
58.660 14.054133
58.665 14.872286
58.670 15.233154
58.675 15.570882
58.680 15.694546
58.685 15.146066
58.690 15.456168
58.695 15.575934
58.700 15.423436
58.705 15.123414
58.710 14.181825
58.715 13.832104
58.720 13.903218
58.725 13.887494
58.730 13.557542
58.735 13.676861
58.740 13.839834
58.745 14.217544
58.750 14.131363
58.755 14.135476
58.760 14.584518
58.765 15.294904
58.770 15.494759
58.775 15.869992
58.780 15.763152
58.785 16.031979
58.790 16.548557
58.795 16.35354
58.800 16.219484
58.805 16.442894
58.810 16.545891
58.815 17.052322
58.820 16.759533
58.825 16.186249
58.830 15.618471
58.835 14.720842
58.840 14.02981
58.845 13.379395
58.850 13.153651
58.855 13.441789
58.860 13.190492
58.865 12.93989
58.870 12.884677
58.875 13.049088
58.880 13.094906
58.885 12.910192
58.890 13.08977
58.895 14.052073
58.900 14.70682
58.905 14.464632
58.910 14.427434
58.915 15.028422
58.920 15.443117
58.925 15.783412
58.930 15.637638
58.935 15.636637
58.940 16.884644
58.945 17.806564
58.950 17.662609
58.955 17.389931
58.960 17.305489
58.965 16.948778
58.970 17.048538
58.975 16.763134
58.980 16.131512
58.985 15.985275
58.990 15.916233
58.995 15.850347
59.000 16.222311
59.005 16.172789
59.010 16.155842
59.015 16.513512
59.020 16.746279
59.025 17.230946
59.030 17.374989
59.035 16.895311
59.040 16.877979
59.045 17.340809
59.050 16.798145
59.055 16.487228
59.060 15.952561
59.065 15.850764
59.070 16.14666
59.075 16.042721
59.080 15.882577
59.085 15.786748
59.090 15.971222
59.095 15.866514
59.100 15.509622
59.105 15.268181
59.110 15.372076
59.115 15.293479
59.120 15.751076
59.125 15.646104
59.130 15.550352
59.135 15.510988
59.140 15.578018
59.145 15.117526
59.150 14.764425
59.155 14.365126
59.160 14.55829
59.165 14.8848
59.170 14.819638
59.175 14.985671
59.180 14.999557
59.185 15.132424
59.190 15.097607
59.195 15.264085
59.200 16.235422
59.205 17.267948
59.210 17.399424
59.215 17.030712
59.220 17.003019
59.225 17.364864
59.230 16.907631
59.235 16.14377
59.240 15.649011
59.245 15.755969
59.250 16.190134
59.255 16.644205
59.260 16.656218
59.265 16.461388
59.270 16.581095
59.275 16.568514
59.280 16.255173
59.285 16.382238
59.290 16.918684
59.295 16.8694
59.300 17.207384
59.305 16.930384
59.310 16.899618
59.315 17.124464
59.320 17.268515
59.325 17.165424
59.330 17.385698
59.335 17.542219
59.340 17.243742
59.345 17.155939
59.350 17.207224
59.355 16.730215
59.360 16.652958
59.365 16.666382
59.370 16.315535
59.375 16.658056
59.380 16.293734
59.385 16.233023
59.390 16.342478
59.395 16.083696
59.400 16.162167
59.405 16.403954
59.410 16.459297
59.415 16.841715
59.420 16.730694
59.425 16.510199
59.430 16.850641
59.435 16.791889
59.440 17.11981
59.445 17.749411
59.450 18.136204
59.455 18.370573
59.460 18.169218
59.465 17.400343
59.470 16.748999
59.475 16.075777
59.480 16.022814
59.485 15.686422
59.490 15.649337
59.495 16.517937
59.500 17.126801
59.505 17.840916
59.510 18.297235
59.515 18.244074
59.520 18.39904
59.525 18.231291
59.530 17.438057
59.535 16.616663
59.540 16.349371
59.545 15.970498
59.550 15.813886
59.555 15.743299
59.560 16.483679
59.565 17.599794
59.570 18.407253
59.575 19.013779
59.580 19.27022
59.585 18.935772
59.590 18.902384
59.595 18.832127
59.600 18.258022
59.605 17.905115
59.610 18.095798
59.615 18.360588
59.620 18.714569
59.625 18.835993
59.630 18.695726
59.635 18.791544
59.640 18.872751
59.645 18.720884
59.650 18.675667
59.655 18.389277
59.660 18.337654
59.665 18.117994
59.670 18.202518
59.675 18.565868
59.680 18.582247
59.685 18.286919
59.690 18.578436
59.695 18.525169
59.700 19.461012
59.705 19.653582
59.710 19.364782
59.715 19.554695
59.720 19.835838
59.725 19.654789
59.730 19.318611
59.735 19.432089
59.740 19.7717
59.745 20.375202
59.750 20.331238
59.755 20.163332
59.760 20.616129
59.765 20.78278
59.770 20.041101
59.775 19.837191
59.780 19.241997
59.785 19.915535
59.790 20.470118
59.795 20.424505
59.800 20.550993
59.805 20.263243
59.810 19.812529
59.815 19.997284
59.820 19.842329
59.825 19.83993
59.830 19.930296
59.835 19.615599
59.840 20.260773
59.845 20.878286
59.850 20.496319
59.855 19.919426
59.860 19.821169
59.865 19.729757
59.870 19.963047
59.875 20.114996
59.880 20.375244
59.885 20.294043
59.890 20.789261
59.895 20.546503
59.900 20.442326
59.905 20.568916
59.910 20.719849
59.915 20.876186
59.920 21.066555
59.925 20.812597
59.930 21.335735
59.935 22.211813
59.940 22.446323
59.945 21.711685
59.950 21.308962
59.955 22.100449
59.960 22.195694
59.965 21.929482
59.970 21.667036
59.975 21.18107
59.980 21.595181
59.985 21.215216
59.990 20.718719
59.995 20.612885
60.000 20.710541
60.005 20.854118
60.010 21.189901
60.015 21.004156
60.020 21.244928
60.025 21.497658
60.030 22.069464
60.035 22.108011
60.040 21.964167
60.045 22.58218
60.050 22.543188
60.055 22.587572
60.060 21.549322
60.065 20.558588
60.070 19.532202
60.075 19.163317
60.080 18.465132
60.085 18.960741
60.090 18.997173
60.095 19.933105
60.100 20.268515
60.105 20.820751
60.110 20.966883
60.115 20.587362
60.120 19.879745
60.125 19.716732
60.130 19.788137
60.135 20.18618
60.140 20.712105
60.145 20.909395
60.150 21.153374
60.155 20.921471
60.160 21.056826
60.165 20.779263
60.170 21.007492
60.175 20.589273
60.180 20.555801
60.185 21.461199
60.190 22.335447
60.195 22.733112
60.200 23.128481
60.205 22.878836
60.210 22.612591
60.215 22.366669
60.220 21.856724
60.225 21.301783
60.230 20.737322
60.235 20.35709
60.240 20.668278
60.245 20.948467
60.250 21.429869
60.255 20.89266
60.260 20.837284
60.265 20.654524
60.270 20.528975
60.275 19.794273
60.280 20.098642
60.285 19.705568
60.290 19.798567
60.295 19.676281
60.300 20.041098
60.305 19.977264
60.310 20.332981
60.315 19.943897
60.320 19.907587
60.325 19.98617
60.330 20.732235
60.335 20.556849
60.340 20.744078
60.345 21.084133
60.350 21.346903
60.355 21.578178
60.360 21.958763
60.365 21.384937
60.370 21.361368
60.375 21.209211
60.380 20.156746
60.385 19.692677
60.390 19.008524
60.395 18.404484
60.400 17.536469
60.405 17.150515
60.410 16.906836
60.415 17.313873
60.420 17.859909
60.425 18.328753
60.430 19.06636
60.435 20.401991
60.440 20.541552
60.445 20.352871
60.450 20.362358
60.455 20.582741
60.460 20.499748
60.465 19.709112
60.470 19.497633
60.475 20.275347
60.480 20.490931
60.485 20.17457
60.490 19.798412
60.495 19.805943
60.500 19.360384
60.505 18.985968
60.510 18.481819
60.515 18.457443
60.520 18.424805
60.525 18.600817
60.530 18.786133
60.535 19.19787
60.540 19.256186
60.545 18.919266
60.550 18.708395
60.555 18.419481
60.560 18.229719
60.565 18.161797
60.570 18.300421
60.575 18.082937
60.580 18.357784
60.585 18.445261
60.590 19.358603
60.595 19.382931
60.600 19.132874
60.605 19.008385
60.610 19.007658
60.615 18.976482
60.620 18.547735
60.625 17.736788
60.630 17.44652
60.635 17.46508
60.640 16.870268
60.645 17.256216
60.650 17.606894
60.655 17.894609
60.660 18.261898
60.665 18.798197
60.670 19.258886
60.675 19.960932
60.680 19.324049
60.685 18.648268
60.690 18.339134
60.695 18.437363
60.700 17.961834
60.705 17.606457
60.710 17.813774
60.715 17.89736
60.720 18.335836
60.725 18.380253
60.730 17.667896
60.735 17.619226
60.740 17.818758
60.745 17.588831
60.750 17.396488
60.755 17.413469
60.760 17.949799
60.765 18.669708
60.770 18.610159
60.775 17.803268
60.780 17.38225
60.785 17.266848
60.790 17.008705
60.795 16.803589
60.800 16.210752
60.805 16.177132
60.810 16.168955
60.815 16.304691
60.820 16.535755
60.825 16.790766
60.830 16.291111
60.835 16.357985
60.840 16.228592
60.845 16.231581
60.850 16.465664
60.855 16.709671
60.860 16.503857
60.865 16.36697
60.870 16.148399
60.875 15.993246
60.880 16.449417
60.885 16.206095
60.890 15.681651
60.895 15.813748
60.900 16.322325
60.905 17.09836
60.910 17.632318
60.915 17.474514
60.920 17.611824
60.925 18.01506
60.930 18.144909
60.935 18.069698
60.940 17.338142
60.945 17.195011
60.950 18.14222
60.955 18.36997
60.960 18.451036
60.965 18.483381
60.970 18.309555
60.975 18.691191
60.980 18.380148
60.985 17.807354
60.990 17.946474
60.995 17.520782
61.000 17.193586
61.005 17.653549
61.010 17.839857
61.015 18.085375
61.020 17.665928
61.025 17.067785
61.030 17.207066
61.035 17.483841
61.040 17.054447
61.045 16.613125
61.050 16.322163
61.055 16.830776
61.060 17.369249
61.065 17.239326
61.070 17.322577
61.075 17.275946
61.080 17.379391
61.085 17.763773
61.090 17.575319
61.095 16.950014
61.100 17.180016
61.105 17.230158
61.110 17.75061
61.115 17.384163
61.120 17.060421
61.125 16.664873
61.130 17.464729
61.135 17.341526
61.140 17.166386
61.145 17.091721
61.150 17.054499
61.155 17.024296
61.160 16.91144
61.165 16.64382
61.170 16.468067
61.175 16.361336
61.180 16.056747
61.185 16.300947
61.190 16.301891
61.195 16.523237
61.200 16.474297
61.205 16.321026
61.210 16.518045
61.215 16.570091
61.220 17.000845
61.225 17.416422
61.230 17.670683
61.235 17.313776
61.240 17.112154
61.245 17.086327
61.250 17.328712
61.255 17.524189
61.260 17.358826
61.265 17.750254
61.270 18.255043
61.275 18.315241
61.280 18.270142
61.285 17.84466
61.290 17.544611
61.295 17.300688
61.300 16.112293
61.305 15.675934
61.310 15.529715
61.315 15.601939
61.320 15.999187
61.325 15.735585
61.330 15.56912
61.335 15.48619
61.340 15.872025
61.345 16.332415
61.350 15.906792
61.355 15.865809
61.360 16.08263
61.365 16.415993
61.370 16.912893
61.375 16.852087
61.380 17.043814
61.385 17.005219
61.390 17.020454
61.395 17.272274
61.400 16.968313
61.405 16.938021
61.410 17.29554
61.415 16.724258
61.420 16.468832
61.425 16.645388
61.430 16.617523
61.435 16.273218
61.440 16.065269
61.445 15.700118
61.450 16.474073
61.455 17.327248
61.460 16.971817
61.465 16.735821
61.470 17.016523
61.475 17.345631
61.480 17.545532
61.485 17.238403
61.490 16.957102
61.495 16.780205
61.500 17.275093
61.505 17.302095
61.510 17.047667
61.515 16.697456
61.520 16.381964
61.525 16.682486
61.530 17.071877
61.535 17.090681
61.540 17.163855
61.545 17.872889
61.550 18.049084
61.555 18.070364
61.560 17.904661
61.565 17.649643
61.570 17.691149
61.575 18.456898
61.580 18.051424
61.585 18.025517
61.590 17.810652
61.595 17.865286
61.600 17.572573
61.605 17.370571
61.610 16.85425
61.615 16.707897
61.620 16.676226
61.625 16.638699
61.630 16.366394
61.635 16.486797
61.640 16.343758
61.645 16.088873
61.650 15.983181
61.655 16.300425
61.660 16.384426
61.665 16.510586
61.670 16.532984
61.675 16.370417
61.680 16.748005
61.685 17.006788
61.690 16.408407
61.695 16.191786
61.700 16.197495
61.705 16.609653
61.710 16.917568
61.715 17.254299
61.720 17.091217
61.725 17.569988
61.730 17.953434
61.735 18.107517
61.740 17.991459
61.745 18.048218
61.750 17.8078
61.755 17.324158
61.760 17.113218
61.765 16.716797
61.770 16.772238
61.775 16.704775
61.780 16.538975
61.785 16.439888
61.790 16.906771
61.795 17.291683
61.800 17.59988
61.805 17.523888
61.810 17.459822
61.815 17.531281
61.820 17.823185
61.825 18.293406
61.830 18.603773
61.835 18.611948
61.840 18.347506
61.845 18.09211
61.850 17.749084
61.855 17.264774
61.860 16.550037
61.865 15.90012
61.870 15.415017
61.875 15.76239
61.880 16.206314
61.885 16.560356
61.890 16.77597
61.895 17.174259
61.900 17.421988
61.905 17.203541
61.910 16.869894
61.915 16.806395
61.920 16.844385
61.925 16.676855
61.930 16.496477
61.935 16.618137
61.940 16.737148
61.945 16.748329
61.950 16.797138
61.955 16.862652
61.960 17.070509
61.965 17.276188
61.970 17.891815
61.975 18.33742
61.980 18.724503
61.985 18.023613
61.990 17.411396
61.995 17.231541
62.000 16.569571
62.005 15.981733
62.010 15.565969
62.015 15.075115
62.020 15.564969
62.025 16.238941
62.030 16.279211
62.035 16.309103
62.040 16.096264
62.045 16.546236
62.050 16.612225
62.055 16.50209
62.060 16.616688
62.065 16.548723
62.070 16.968168
62.075 17.015038
62.080 16.848701
62.085 16.962399
62.090 17.085007
62.095 16.516138
62.100 16.78574
62.105 16.193243
62.110 16.325626
62.115 16.043215
62.120 15.846293
62.125 15.82479
62.130 15.765133
62.135 15.394573
62.140 15.899988
62.145 16.075493
62.150 16.548372
62.155 16.511635
62.160 16.18487
62.165 16.495432
62.170 17.232502
62.175 17.692677
62.180 17.615055
62.185 17.33209
62.190 17.670881
62.195 17.579445
62.200 17.718735
62.205 17.483109
62.210 17.050755
62.215 17.357883
62.220 17.037153
62.225 16.831392
62.230 16.870417
62.235 16.240566
62.240 16.034966
62.245 15.75087
62.250 15.663448
62.255 15.604737
62.260 15.988867
62.265 16.29838
62.270 16.206144
62.275 16.190733
62.280 16.044962
62.285 15.69451
62.290 15.486938
62.295 15.066136
62.300 15.028236
62.305 15.394322
62.310 15.605485
62.315 15.925719
62.320 16.119225
62.325 16.544975
62.330 16.526157
62.335 16.266319
62.340 15.771256
62.345 15.715075
62.350 15.816209
62.355 16.056206
62.360 16.388815
62.365 16.560747
62.370 16.896738
62.375 17.024057
62.380 17.086926
62.385 17.313499
62.390 17.190458
62.395 17.070389
62.400 17.016565
62.405 17.1341
62.410 17.282494
62.415 17.189907
62.420 17.468996
62.425 17.782188
62.430 17.725817
62.435 18.18368
62.440 17.977409
62.445 17.978439
62.450 18.143986
62.455 17.709061
62.460 17.74781
62.465 18.048548
62.470 17.759438
62.475 17.756834
62.480 18.452547
62.485 18.433424
62.490 18.742487
62.495 19.186806
62.500 18.865376
62.505 19.033506
62.510 18.862217
62.515 18.037226
62.520 17.930733
62.525 17.214561
62.530 16.227566
62.535 16.042557
62.540 15.631782
62.545 15.964635
62.550 16.084595
62.555 16.159437
62.560 16.453573
62.565 16.633953
62.570 16.764587
62.575 17.02825
62.580 17.182306
62.585 16.623665
62.590 16.068184
62.595 15.841681
62.600 15.960039
62.605 15.602706
62.610 15.712248
62.615 15.741749
62.620 16.347574
62.625 16.603157
62.630 16.908249
62.635 16.913685
62.640 17.424845
62.645 17.61685
62.650 17.50103
62.655 17.976776
62.660 17.974367
62.665 17.382843
62.670 17.264709
62.675 17.062799
62.680 16.901913
62.685 16.81843
62.690 17.65296
62.695 18.123003
62.700 18.945522
62.705 19.032173
62.710 19.118244
62.715 19.008339
62.720 18.589451
62.725 17.159445
62.730 16.406223
62.735 16.312948
62.740 16.587471
62.745 16.498148
62.750 17.229637
62.755 17.750984
62.760 18.523958
62.765 19.102285
62.770 18.500551
62.775 17.429811
62.780 16.790352
62.785 15.639692
62.790 15.579719
62.795 15.019336
62.800 14.810964
62.805 15.055669
62.810 15.914469
62.815 16.448393
62.820 16.629633
62.825 16.556412
62.830 16.542387
62.835 16.662508
62.840 16.757389
62.845 16.729378
62.850 16.533125
62.855 17.000162
62.860 17.179401
62.865 17.038197
62.870 16.841381
62.875 16.865936
62.880 17.707901
62.885 17.620119
62.890 16.712006
62.895 16.54612
62.900 16.994255
62.905 17.329485
62.910 17.379477
62.915 16.944817
62.920 17.350397
62.925 17.438923
62.930 17.209631
62.935 17.171612
62.940 16.635838
62.945 16.334629
62.950 15.601951
62.955 15.452422
62.960 16.320908
62.965 16.388254
62.970 16.503313
62.975 16.343906
62.980 16.452244
62.985 16.925503
62.990 16.634119
62.995 16.14794
63.000 15.715206
63.005 15.182995
63.010 15.438204
63.015 15.443259
63.020 15.067148
63.025 15.139263
63.030 15.372239
63.035 15.943371
63.040 16.069323
63.045 16.409897
63.050 16.371893
63.055 16.521486
63.060 16.852566
63.065 17.418255
63.070 17.327719
63.075 16.850132
63.080 17.096594
63.085 17.307297
63.090 17.362276
63.095 17.019232
63.100 16.494705
63.105 16.546412
63.110 16.998447
63.115 17.020002
63.120 16.706535
63.125 17.08897
63.130 16.997776
63.135 16.850714
63.140 16.926273
63.145 16.571335
63.150 15.99457
63.155 16.306179
63.160 16.210281
63.165 16.534647
63.170 17.345577
63.175 17.469845
63.180 17.473215
63.185 17.824457
63.190 17.771666
63.195 17.694393
63.200 17.529427
63.205 17.089588
63.210 16.950947
63.215 17.134588
63.220 17.281984
63.225 17.69331
63.230 18.483887
63.235 18.769407
63.240 18.507671
63.245 19.084637
63.250 19.340862
63.255 19.631205
63.260 18.981106
63.265 17.847258
63.270 17.271156
63.275 17.202854
63.280 17.105301
63.285 16.774837
63.290 16.019848
63.295 15.843397
63.300 15.87756
63.305 16.493393
63.310 17.104408
63.315 17.358631
63.320 17.507732
63.325 18.108841
63.330 19.096548
63.335 19.579288
63.340 19.069149
63.345 18.535679
63.350 18.14164
63.355 18.136612
63.360 17.630058
63.365 16.955032
63.370 17.294516
63.375 17.436106
63.380 17.276827
63.385 17.107533
63.390 16.882681
63.395 17.247305
63.400 17.403692
63.405 16.985739
63.410 16.623621
63.415 15.862632
63.420 15.360456
63.425 15.454926
63.430 15.836794
63.435 15.969356
63.440 16.191805
63.445 16.811977
63.450 17.698177
63.455 18.475309
63.460 18.954565
63.465 18.466984
63.470 18.362686
63.475 18.062544
63.480 17.799805
63.485 17.812824
63.490 17.997442
63.495 17.379906
63.500 17.190815
63.505 16.752008
63.510 16.445871
63.515 16.527241
63.520 16.070185
63.525 15.589657
63.530 15.762278
63.535 16.008507
63.540 16.203962
63.545 16.767248
63.550 16.653204
63.555 17.40513
63.560 17.869585
63.565 17.639576
63.570 17.474588
63.575 17.711023
63.580 17.737423
63.585 17.717333
63.590 17.791285
63.595 17.752449
63.600 18.087845
63.605 18.522472
63.610 18.890572
63.615 19.40748
63.620 19.62965
63.625 19.212917
63.630 18.854609
63.635 18.923229
63.640 18.858704
63.645 18.705858
63.650 18.199316
63.655 18.19956
63.660 18.254553
63.665 17.844767
63.670 17.592068
63.675 17.165171
63.680 16.414
63.685 16.750931
63.690 16.931305
63.695 17.218985
63.700 17.818071
63.705 18.301651
63.710 18.248428
63.715 18.676128
63.720 18.04245
63.725 17.61657
63.730 17.290491
63.735 17.533592
63.740 17.692816
63.745 17.413437
63.750 17.066187
63.755 16.95575
63.760 16.69347
63.765 16.47493
63.770 16.14447
63.775 15.541086
63.780 16.108574
63.785 16.817806
63.790 17.726238
63.795 18.453163
63.800 18.619169
63.805 18.209846
63.810 18.602739
63.815 19.001663
63.820 18.766243
63.825 18.497959
63.830 18.201496
63.835 18.392342
63.840 18.660538
63.845 17.830204
63.850 17.068048
63.855 16.962269
63.860 17.083921
63.865 17.016657
63.870 16.603418
63.875 16.778021
63.880 16.955427
63.885 17.264299
63.890 16.808044
63.895 16.485081
63.900 16.294334
63.905 16.6534
63.910 16.626055
63.915 17.363451
63.920 17.27113
63.925 17.142035
63.930 17.534796
63.935 18.063833
63.940 17.837725
63.945 18.47187
63.950 17.963387
63.955 17.73188
63.960 18.022987
63.965 17.986076
63.970 17.765755
63.975 18.159937
63.980 17.754765
63.985 18.145069
63.990 18.945511
63.995 19.500584
64.000 19.746447
64.005 20.305008
64.010 20.387802
64.015 20.805973
64.020 20.927799
64.025 20.743282
64.030 20.237329
64.035 19.85568
64.040 19.644123
64.045 19.323112
64.050 19.011982
64.055 18.502596
64.060 18.266958
64.065 17.962099
64.070 17.913296
64.075 17.359299
64.080 17.412886
64.085 18.180943
64.090 18.431149
64.095 18.010822
64.100 17.779469
64.105 17.908726
64.110 18.882751
64.115 19.072754
64.120 18.76412
64.125 18.851974
64.130 19.327572
64.135 19.013449
64.140 18.386505
64.145 17.445547
64.150 17.106632
64.155 17.22706
64.160 17.089134
64.165 16.858551
64.170 17.677332
64.175 17.878593
64.180 17.76791
64.185 17.099365
64.190 16.547937
64.195 16.76199
64.200 16.67576
64.205 16.143702
64.210 16.322115
64.215 16.652479
64.220 16.671507
64.225 16.967613
64.230 17.132147
64.235 17.237068
64.240 17.757147
64.245 18.289186
64.250 18.417257
64.255 18.699228
64.260 18.396513
64.265 17.878227
64.270 18.287636
64.275 18.363998
64.280 18.319805
64.285 18.308786
64.290 18.387123
64.295 18.287848
64.300 18.671797
64.305 18.519945
64.310 18.553246
64.315 18.503069
64.320 18.628922
64.325 18.763088
64.330 18.995899
64.335 19.07415
64.340 19.173347
64.345 18.962305
64.350 18.980076
64.355 18.884588
64.360 18.660793
64.365 18.424549
64.370 18.855904
64.375 18.711226
64.380 18.707144
64.385 18.659723
64.390 18.514708
64.395 18.961941
64.400 19.200411
64.405 18.483614
64.410 18.381151
64.415 18.059654
64.420 18.244711
64.425 18.702105
64.430 18.35323
64.435 18.554125
64.440 18.530237
64.445 18.246178
64.450 18.054966
64.455 18.024691
64.460 17.600695
64.465 17.689676
64.470 17.924994
64.475 18.552078
64.480 19.218204
64.485 19.130127
64.490 19.162897
64.495 19.137749
64.500 19.66186
64.505 20.211546
64.510 19.873823
64.515 20.074827
64.520 20.284174
64.525 19.72452
64.530 19.759579
64.535 19.109798
64.540 18.215715
64.545 18.059759
64.550 17.899937
64.555 17.713564
64.560 18.244242
64.565 18.548975
64.570 19.030745
64.575 19.311899
64.580 18.783514
64.585 18.609056
64.590 19.260345
64.595 19.447319
64.600 19.555239
64.605 19.15097
64.610 19.080084
64.615 19.608856
64.620 19.82011
64.625 19.78557
64.630 19.451084
64.635 18.785604
64.640 18.663668
64.645 18.823027
64.650 18.666744
64.655 18.494488
64.660 18.402338
64.665 18.433077
64.670 19.310286
64.675 19.408949
64.680 19.028223
64.685 19.064774
64.690 18.952833
64.695 18.572493
64.700 18.393559
64.705 18.046293
64.710 18.876268
64.715 19.513802
64.720 20.139135
64.725 20.394508
64.730 20.770554
64.735 21.142706
64.740 20.490078
64.745 19.547438
64.750 19.505762
64.755 19.24766
64.760 19.606684
64.765 20.260822
64.770 20.874613
64.775 21.744808
64.780 22.395142
64.785 22.083378
64.790 21.420399
64.795 20.743275
64.800 20.404629
64.805 20.460417
64.810 20.642126
64.815 20.468475
64.820 20.853912
64.825 21.387709
64.830 21.385511
64.835 20.783215
64.840 20.926077
64.845 20.543564
64.850 20.589216
64.855 20.553894
64.860 20.796852
64.865 20.656147
64.870 21.284674
64.875 20.903059
64.880 20.510866
64.885 20.631424
64.890 20.845011
64.895 20.684324
64.900 21.133257
64.905 21.397215
64.910 21.813101
64.915 22.074635
64.920 21.793577
64.925 21.980841
64.930 22.016031
64.935 22.084095
64.940 21.972363
64.945 22.1595
64.950 23.018406
64.955 23.281231
64.960 22.975464
64.965 23.358713
64.970 22.967857
64.975 23.045238
64.980 23.257378
64.985 23.242481
64.990 23.415449
64.995 23.268131
65.000 22.97357
65.005 23.38287
65.010 23.199533
65.015 22.257328
65.020 22.293617
65.025 22.191706
65.030 22.913776
65.035 23.480101
65.040 23.420553
65.045 22.940908
65.050 23.757568
65.055 23.837048
65.060 24.265841
65.065 23.810621
65.070 23.053612
65.075 23.254097
65.080 24.09354
65.085 23.129152
65.090 23.002106
65.095 22.906317
65.100 23.195827
65.105 23.858736
65.110 23.801361
65.115 23.522568
65.120 23.592934
65.125 23.214573
65.130 22.734669
65.135 21.969519
65.140 21.888245
65.145 21.851061
65.150 21.828478
65.155 22.5137
65.160 22.722433
65.165 22.662184
65.170 22.957674
65.175 22.563265
65.180 22.605536
65.185 22.765593
65.190 22.707136
65.195 22.414379
65.200 22.965242
65.205 22.792311
65.210 23.19178
65.215 23.826183
65.220 23.760765
65.225 23.865543
65.230 23.614351
65.235 23.179682
65.240 23.949118
65.245 23.52956
65.250 22.672464
65.255 22.952202
65.260 23.053856
65.265 23.975006
65.270 24.975948
65.275 24.621426
65.280 24.211056
65.285 24.060213
65.290 23.62307
65.295 23.532463
65.300 23.062145
65.305 22.087122
65.310 22.227772
65.315 22.777039
65.320 23.379541
65.325 23.365088
65.330 23.18255
65.335 23.35829
65.340 23.925402
65.345 23.371758
65.350 23.425905
65.355 23.454889
65.360 23.27943
65.365 23.156282
65.370 22.692495
65.375 22.792692
65.380 23.674984
65.385 23.41349
65.390 23.255075
65.395 23.632559
65.400 23.97098
65.405 24.605602
65.410 24.36207
65.415 23.680822
65.420 23.98674
65.425 23.889547
65.430 23.816301
65.435 23.732544
65.440 24.136948
65.445 24.38212
65.450 24.757668
65.455 24.769579
65.460 25.599865
65.465 25.722794
65.470 25.340149
65.475 24.793659
65.480 25.130648
65.485 25.3444
65.490 25.41256
65.495 24.918997
65.500 25.132101
65.505 25.539848
65.510 25.699224
65.515 25.403284
65.520 25.808874
65.525 25.782812
65.530 26.136732
65.535 26.321932
65.540 26.626814
65.545 26.638775
65.550 27.217665
65.555 27.376101
65.560 26.966673
65.565 26.206154
65.570 26.579546
65.575 27.266579
65.580 27.704708
65.585 27.548286
65.590 27.500315
65.595 28.43849
65.600 29.334671
65.605 29.50868
65.610 29.383608
65.615 29.539362
65.620 29.574387
65.625 29.376322
65.630 29.471357
65.635 29.635798
65.640 29.545816
65.645 29.636728
65.650 30.513483
65.655 31.244308
65.660 32.589161
65.665 32.467636
65.670 32.567127
65.675 32.670895
65.680 33.104927
65.685 32.873875
65.690 32.686081
65.695 32.103542
65.700 32.748608
65.705 33.470085
65.710 33.75301
65.715 33.536175
65.720 33.891823
65.725 34.408943
65.730 34.473709
65.735 34.648293
65.740 34.840946
65.745 35.077526
65.750 35.573425
65.755 35.521919
65.760 35.838379
65.765 36.481731
65.770 36.006664
65.775 34.962772
65.780 34.749249
65.785 33.953209
65.790 34.092987
65.795 33.609341
65.800 32.973236
65.805 33.515911
65.810 34.387249
65.815 34.588558
65.820 35.100708
65.825 36.114178
65.830 36.486149
65.835 36.465408
65.840 36.517979
65.845 36.949337
65.850 38.02356
65.855 38.758221
65.860 38.586891
65.865 38.35376
65.870 38.614704
65.875 38.205704
65.880 37.957531
65.885 37.575359
65.890 37.502289
65.895 37.048008
65.900 36.675545
65.905 36.291355
65.910 36.360901
65.915 35.971947
65.920 36.112972
65.925 36.355778
65.930 35.939102
65.935 36.116829
65.940 36.248737
65.945 36.285587
65.950 36.499172
65.955 36.634743
65.960 37.63364
65.965 38.842091
65.970 39.714474
65.975 40.04369
65.980 39.983009
65.985 39.908749
65.990 38.752998
65.995 38.060139
66.000 38.639652
66.005 38.606068
66.010 38.547264
66.015 38.748665
66.020 39.156364
66.025 39.885227
66.030 39.082977
66.035 38.123611
66.040 38.174454
66.045 38.369091
66.050 38.604958
66.055 38.332127
66.060 38.190678
66.065 37.799122
66.070 37.99461
66.075 38.117023
66.080 38.663326
66.085 38.62188
66.090 38.357994
66.095 37.936989
66.100 37.496059
66.105 37.255905
66.110 36.950638
66.115 37.298016
66.120 37.092857
66.125 36.62291
66.130 36.859776
66.135 37.293278
66.140 37.069439
66.145 37.202873
66.150 36.624474
66.155 35.976849
66.160 36.449661
66.165 36.90625
66.170 37.307037
66.175 37.723793
66.180 36.749859
66.185 36.604519
66.190 36.283497
66.195 36.418522
66.200 36.680241
66.205 36.849133
66.210 37.053127
66.215 37.65958
66.220 37.591656
66.225 37.038815
66.230 36.649151
66.235 36.122002
66.240 35.657562
66.245 35.812088
66.250 35.82943
66.255 36.540508
66.260 37.214703
66.265 37.064392
66.270 36.876003
66.275 36.274197
66.280 35.24263
66.285 34.654278
66.290 34.560448
66.295 34.160896
66.300 33.954716
66.305 34.093803
66.310 34.73774
66.315 34.406593
66.320 34.586296
66.325 34.73476
66.330 35.297356
66.335 34.858837
66.340 34.506226
66.345 34.120819
66.350 33.881081
66.355 33.264576
66.360 33.133301
66.365 33.548901
66.370 34.096889
66.375 33.809616
66.380 33.706062
66.385 33.846687
66.390 33.604881
66.395 33.068352
66.400 32.261059
66.405 31.884571
66.410 31.083735
66.415 30.454113
66.420 30.172388
66.425 30.762762
66.430 30.842695
66.435 30.783312
66.440 30.663902
66.445 30.517866
66.450 29.999001
66.455 29.877405
66.460 28.975351
66.465 28.444214
66.470 28.428205
66.475 28.422428
66.480 28.535038
66.485 28.759705
66.490 29.066862
66.495 28.986149
66.500 28.975475
66.505 28.494776
66.510 27.568624
66.515 27.290808
66.520 27.266233
66.525 26.695105
66.530 26.152163
66.535 25.787788
66.540 25.876266
66.545 26.415136
66.550 26.803795
66.555 27.13209
66.560 27.574883
66.565 28.057705
66.570 28.059467
66.575 28.106043
66.580 27.263329
66.585 26.114302
66.590 25.384178
66.595 24.716759
66.600 23.757854
66.605 23.164986
66.610 23.261818
66.615 23.823606
66.620 24.076416
66.625 24.496601
66.630 25.191023
66.635 26.042576
66.640 26.527178
66.645 26.27965
66.650 26.00205
66.655 25.664886
66.660 25.145294
66.665 24.235495
66.670 23.997702
66.675 23.521048
66.680 22.917294
66.685 22.945625
66.690 23.261507
66.695 22.943975
66.700 23.120476
66.705 22.626329
66.710 23.009104
66.715 23.247116
66.720 23.164034
66.725 22.730213
66.730 23.112682
66.735 23.268143
66.740 23.754297
66.745 23.436792
66.750 23.465084
66.755 23.896404
66.760 23.962482
66.765 23.863731
66.770 23.220076
66.775 23.494089
66.780 23.599941
66.785 23.81056
66.790 23.353487
66.795 23.179827
66.800 23.247625
66.805 23.484032
66.810 22.789921
66.815 23.193085
66.820 22.643726
66.825 22.671478
66.830 22.484968
66.835 21.938866
66.840 22.220388
66.845 21.630209
66.850 21.091681
66.855 21.383186
66.860 21.46446
66.865 21.051384
66.870 21.341494
66.875 21.491476
66.880 21.993198
66.885 21.830109
66.890 21.606499
66.895 21.588198
66.900 22.334679
66.905 22.647013
66.910 22.136654
66.915 22.162609
66.920 22.278049
66.925 22.266384
66.930 21.268179
66.935 20.614376
66.940 20.433357
66.945 20.679312
66.950 20.692541
66.955 21.17577
66.960 21.506531
66.965 22.469273
66.970 23.251434
66.975 23.060745
66.980 23.007299
66.985 22.440786
66.990 21.595013
66.995 21.522413
67.000 21.740927
67.005 21.449242
67.010 21.468273
67.015 22.234722
67.020 22.706678
67.025 23.360239
67.030 23.516478
67.035 23.344048
67.040 23.352518
67.045 23.408031
67.050 22.996136
67.055 23.072634
67.060 23.193413
67.065 22.725613
67.070 22.868675
67.075 22.635616
67.080 22.7782
67.085 22.619476
67.090 22.023981
67.095 21.614693
67.100 21.731703
67.105 21.804443
67.110 21.681967
67.115 21.853247
67.120 22.206398
67.125 22.674421
67.130 23.141996
67.135 23.06904
67.140 22.908533
67.145 22.921457
67.150 22.19054
67.155 21.835526
67.160 21.971828
67.165 21.612421
67.170 21.274643
67.175 21.357166
67.180 21.521166
67.185 21.564978
67.190 21.428387
67.195 20.975229
67.200 21.15151
67.205 21.142744
67.210 20.719015
67.215 20.209902
67.220 20.350767
67.225 19.804518
67.230 19.955143
67.235 19.667992
67.240 19.290443
67.245 19.261644
67.250 19.349699
67.255 19.230572
67.260 19.504681
67.265 19.58795
67.270 19.414343
67.275 19.843384
67.280 20.2939
67.285 20.788023
67.290 21.037382
67.295 21.104326
67.300 20.998291
67.305 21.103334
67.310 21.377359
67.315 21.231979
67.320 21.047132
67.325 21.074915
67.330 21.697298
67.335 21.884779
67.340 22.028564
67.345 21.562445
67.350 20.929213
67.355 20.733784
67.360 20.655043
67.365 19.96982
67.370 20.3009
67.375 20.285839
67.380 19.980026
67.385 20.082354
67.390 19.906837
67.395 19.558001
67.400 19.262091
67.405 19.174965
67.410 19.244596
67.415 19.541023
67.420 19.700628
67.425 19.821812
67.430 19.993074
67.435 20.192602
67.440 19.941746
67.445 19.936691
67.450 20.078136
67.455 19.607082
67.460 19.617525
67.465 19.473787
67.470 20.298937
67.475 20.492889
67.480 20.450331
67.485 20.624191
67.490 21.750788
67.495 22.272137
67.500 22.968784
67.505 22.107576
67.510 22.24679
67.515 22.290562
67.520 22.381811
67.525 22.711073
67.530 22.339128
67.535 21.736227
67.540 21.762304
67.545 21.887783
67.550 21.876808
67.555 21.450882
67.560 20.132759
67.565 20.199718
67.570 20.241325
67.575 19.827845
67.580 19.785822
67.585 20.045517
67.590 20.075083
67.595 20.19426
67.600 20.063648
67.605 20.539604
67.610 20.909674
67.615 20.732958
67.620 20.906139
67.625 21.685141
67.630 22.381649
67.635 22.518709
67.640 21.949659
67.645 22.28237
67.650 22.283636
67.655 22.06673
67.660 21.091963
67.665 21.09737
67.670 21.106087
67.675 21.061861
67.680 20.135344
67.685 19.814522
67.690 20.268829
67.695 20.317474
67.700 20.342304
67.705 19.992722
67.710 20.034372
67.715 20.094206
67.720 20.527613
67.725 20.168877
67.730 20.370478
67.735 20.538206
67.740 20.544123
67.745 20.610222
67.750 20.830969
67.755 20.488001
67.760 20.057262
67.765 19.37339
67.770 18.764673
67.775 18.521574
67.780 18.281649
67.785 18.306887
67.790 18.973171
67.795 19.240557
67.800 20.103971
67.805 20.564932
67.810 20.548622
67.815 20.880919
67.820 20.48229
67.825 19.924263
67.830 19.918594
67.835 19.754862
67.840 19.645035
67.845 20.254307
67.850 20.531652
67.855 20.723944
67.860 21.015562
67.865 21.060438
67.870 20.799751
67.875 20.647337
67.880 20.420013
67.885 20.777254
67.890 21.258686
67.895 21.540085
67.900 22.295424
67.905 22.918625
67.910 22.74703
67.915 22.910538
67.920 21.978466
67.925 21.667452
67.930 20.774399
67.935 19.510521
67.940 19.616047
67.945 20.438229
67.950 20.804308
67.955 20.985224
67.960 20.828009
67.965 21.054033
67.970 21.324709
67.975 21.043324
67.980 20.341862
67.985 19.930248
67.990 20.116322
67.995 20.589066
68.000 20.952555
68.005 21.054604
68.010 20.625055
68.015 20.806749
68.020 21.160501
68.025 20.493509
68.030 19.687077
68.035 19.198545
68.040 19.386909
68.045 19.551817
68.050 19.939619
68.055 19.987156
68.060 20.608665
68.065 20.797382
68.070 20.975128
68.075 20.329971
68.080 20.289022
68.085 20.722813
68.090 20.974899
68.095 21.425112
68.100 22.007008
68.105 22.620893
68.110 24.2453
68.115 25.514503
68.120 24.704901
68.125 24.698557
68.130 24.315121
68.135 23.780499
68.140 23.370159
68.145 22.233095
68.150 21.149302
68.155 20.800121
68.160 20.55962
68.165 20.719322
68.170 20.865595
68.175 20.583418
68.180 20.478872
68.185 20.549608
68.190 21.131403
68.195 21.305687
68.200 20.581696
68.205 20.390779
68.210 20.455608
68.215 20.473194
68.220 20.021496
68.225 19.822386
68.230 19.424957
68.235 19.752607
68.240 20.558733
68.245 20.96183
68.250 21.005947
68.255 21.121294
68.260 21.22489
68.265 22.453232
68.270 22.657288
68.275 21.885136
68.280 21.992306
68.285 21.17029
68.290 20.775299
68.295 20.312729
68.300 19.884619
68.305 19.668543
68.310 20.169676
68.315 20.417168
68.320 20.70405
68.325 21.561125
68.330 22.130693
68.335 22.385347
68.340 22.543953
68.345 21.92449
68.350 21.795099
68.355 21.844479
68.360 21.656733
68.365 21.189678
68.370 20.966557
68.375 21.005379
68.380 21.250559
68.385 21.391939
68.390 21.844614
68.395 21.665966
68.400 21.524183
68.405 21.344986
68.410 20.910616
68.415 21.015875
68.420 21.095093
68.425 20.387117
68.430 19.894724
68.435 20.094975
68.440 20.489033
68.445 20.809435
68.450 20.844049
68.455 20.407606
68.460 21.017654
68.465 21.350138
68.470 20.600389
68.475 20.361782
68.480 20.486532
68.485 20.654518
68.490 21.412203
68.495 21.261415
68.500 21.120211
68.505 21.083101
68.510 21.052389
68.515 21.004173
68.520 20.511229
68.525 20.075203
68.530 20.694666
68.535 21.004869
68.540 21.207619
68.545 21.290817
68.550 20.908104
68.555 21.061777
68.560 20.711561
68.565 20.137911
68.570 20.057899
68.575 20.075083
68.580 19.985426
68.585 20.123014
68.590 19.806162
68.595 19.828135
68.600 19.877733
68.605 20.164042
68.610 20.268591
68.615 20.361124
68.620 20.567192
68.625 20.320738
68.630 20.63855
68.635 20.697758
68.640 20.619312
68.645 20.696869
68.650 20.448332
68.655 20.355473
68.660 21.363579
68.665 21.36697
68.670 21.123934
68.675 21.499073
68.680 21.378252
68.685 21.448282
68.690 21.437202
68.695 21.068703
68.700 21.062164
68.705 21.512661
68.710 21.778975
68.715 21.879452
68.720 21.832005
68.725 21.38026
68.730 21.131304
68.735 20.387997
68.740 19.857584
68.745 19.500122
68.750 19.731245
68.755 19.731985
68.760 19.388269
68.765 19.80798
68.770 21.288271
68.775 21.346254
68.780 21.358011
68.785 21.258574
68.790 21.440138
68.795 21.634876
68.800 21.233353
68.805 20.940577
68.810 20.871328
68.815 20.980333
68.820 21.24885
68.825 21.251099
68.830 21.965376
68.835 22.674627
68.840 22.654085
68.845 22.682404
68.850 22.012625
68.855 21.729267
68.860 21.606386
68.865 20.951363
68.870 19.901869
68.875 19.399208
68.880 20.218273
68.885 20.470772
68.890 20.405571
68.895 21.2202
68.900 21.629017
68.905 22.366327
68.910 22.43663
68.915 22.14538
68.920 22.864815
68.925 23.150656
68.930 22.789074
68.935 22.232334
68.940 22.669426
68.945 22.930996
68.950 22.792521
68.955 22.539309
68.960 22.100424
68.965 22.850128
68.970 23.436285
68.975 22.416801
68.980 22.501987
68.985 22.774445
68.990 22.858572
68.995 22.715258
69.000 22.082275
69.005 22.086317
69.010 22.985542
69.015 22.253532
69.020 22.160168
69.025 22.83029
69.030 23.536837
69.035 23.602285
69.040 23.436213
69.045 23.747801
69.050 24.094397
69.055 24.126841
69.060 24.081219
69.065 24.063128
69.070 24.170095
69.075 24.311531
69.080 24.901447
69.085 25.603184
69.090 26.327568
69.095 26.636982
69.100 26.634777
69.105 26.173773
69.110 26.110014
69.115 26.24819
69.120 26.523668
69.125 25.836977
69.130 26.142427
69.135 26.440485
69.140 27.198311
69.145 26.778065
69.150 26.224588
69.155 25.877369
69.160 25.691849
69.165 25.532961
69.170 26.020771
69.175 26.546049
69.180 26.694904
69.185 26.721972
69.190 26.473955
69.195 26.328077
69.200 25.9189
69.205 25.803482
69.210 25.765919
69.215 25.592512
69.220 25.611427
69.225 26.200634
69.230 26.329905
69.235 25.701271
69.240 25.33724
69.245 25.195263
69.250 25.336025
69.255 25.028597
69.260 24.864586
69.265 25.248465
69.270 25.48048
69.275 25.747869
69.280 26.018913
69.285 25.741961
69.290 26.645157
69.295 27.011114
69.300 27.299501
69.305 27.793217
69.310 27.556784
69.315 27.738226
69.320 27.65267
69.325 26.96858
69.330 26.635672
69.335 26.490091
69.340 26.583603
69.345 27.115801
69.350 27.247364
69.355 27.253664
69.360 27.651861
69.365 27.659807
69.370 27.503519
69.375 27.263176
69.380 27.301941
69.385 27.269304
69.390 27.713339
69.395 27.631557
69.400 28.16411
69.405 27.929859
69.410 28.200054
69.415 28.345263
69.420 27.915623
69.425 27.11521
69.430 27.282955
69.435 27.725893
69.440 28.985252
69.445 29.09996
69.450 29.516777
69.455 30.818445
69.460 30.60301
69.465 29.655857
69.470 29.330921
69.475 29.030144
69.480 29.353029
69.485 28.302652
69.490 27.982069
69.495 28.647648
69.500 29.182816
69.505 29.442719
69.510 28.965479
69.515 28.05838
69.520 28.263319
69.525 28.294619
69.530 28.286028
69.535 28.277386
69.540 27.93335
69.545 28.153982
69.550 29.017982
69.555 29.308439
69.560 29.895666
69.565 30.113279
69.570 30.553461
69.575 30.627371
69.580 30.29912
69.585 29.989536
69.590 29.422161
69.595 28.763844
69.600 28.394707
69.605 27.7187
69.610 27.861469
69.615 28.234118
69.620 27.567137
69.625 28.044111
69.630 28.750128
69.635 28.634035
69.640 28.630434
69.645 28.461443
69.650 28.41287
69.655 29.011913
69.660 29.660852
69.665 29.10602
69.670 29.240587
69.675 29.431871
69.680 29.371883
69.685 30.330902
69.690 30.953758
69.695 29.960438
69.700 29.648712
69.705 29.432041
69.710 29.172188
69.715 29.33021
69.720 28.342365
69.725 27.466295
69.730 27.94585
69.735 28.057919
69.740 28.03792
69.745 28.748226
69.750 29.100925
69.755 28.697878
69.760 29.272791
69.765 29.240061
69.770 29.011673
69.775 28.370708
69.780 27.653931
69.785 27.51038
69.790 28.017719
69.795 27.245022
69.800 27.271286
69.805 27.147243
69.810 26.731661
69.815 26.175108
69.820 25.90509
69.825 24.909285
69.830 24.528555
69.835 24.203127
69.840 24.453379
69.845 24.728848
69.850 23.853203
69.855 23.481367
69.860 24.292147
69.865 23.883591
69.870 23.750504
69.875 24.072102
69.880 24.528255
69.885 25.329275
69.890 25.651217
69.895 26.111769
69.900 26.483789
69.905 26.403702
69.910 25.833668
69.915 25.021856
69.920 24.780642
69.925 24.50489
69.930 23.461803
69.935 23.024448
69.940 22.95188
69.945 23.092203
69.950 22.844351
69.955 22.588682
69.960 22.030872
69.965 21.872746
69.970 21.361156
69.975 20.868196
69.980 20.539822
69.985 20.402176
69.990 20.571569
69.995 21.369093
70.000 21.598209
70.005 21.747005
70.010 22.188547
70.015 22.39213
70.020 22.238894
70.025 22.039251
70.030 21.300388
70.035 21.293962
70.040 20.958542
70.045 21.099276
70.050 21.063232
70.055 20.786137
70.060 20.656096
70.065 20.644077
70.070 20.664473
70.075 20.897058
70.080 20.595072
70.085 20.493366
70.090 20.841904
70.095 20.692211
70.100 20.422619
70.105 19.898468
70.110 19.97842
70.115 20.048363
70.120 20.530518
70.125 20.419266
70.130 20.686111
70.135 20.363045
70.140 20.272099
70.145 20.320856
70.150 20.423084
70.155 20.261999
70.160 20.223682
70.165 20.160667
70.170 20.737503
70.175 20.737688
70.180 20.23251
70.185 20.102049
70.190 20.2411
70.195 20.642248
70.200 20.171406
70.205 19.696213
70.210 19.30864
70.215 19.594666
70.220 19.968519
70.225 19.860428
70.230 19.978537
70.235 20.721792
70.240 21.344492
70.245 21.739651
70.250 21.872288
70.255 21.832972
70.260 21.285364
70.265 21.037817
70.270 21.118763
70.275 21.271288
70.280 21.457874
70.285 20.85429
70.290 20.836329
70.295 21.532831
70.300 21.056221
70.305 20.868704
70.310 20.518097
70.315 20.428116
70.320 20.666515
70.325 20.082588
70.330 19.449837
70.335 19.323032
70.340 18.685047
70.345 18.650993
70.350 18.234898
70.355 18.58588
70.360 19.093004
70.365 19.079462
70.370 19.167734
70.375 19.74147
70.380 19.900835
70.385 19.757797
70.390 18.917439
70.395 19.347626
70.400 19.905333
70.405 20.07785
70.410 19.423582
70.415 19.082802
70.420 18.80913
70.425 19.084597
70.430 18.874247
70.435 18.918726
70.440 19.558214
70.445 19.56938
70.450 19.527555
70.455 19.513754
70.460 19.444536
70.465 19.134438
70.470 18.89385
70.475 18.178631
70.480 17.969868
70.485 17.935743
70.490 17.847191
70.495 17.645273
70.500 17.667744
70.505 17.921894
70.510 18.462927
70.515 19.332792
70.520 19.4074
70.525 19.363132
70.530 19.196329
70.535 19.34602
70.540 19.169298
70.545 19.530754
70.550 19.387779
70.555 19.652439
70.560 19.571903
70.565 19.8293
70.570 19.451052
70.575 19.047304
70.580 19.174654
70.585 19.269249
70.590 19.757418
70.595 20.099464
70.600 19.920458
70.605 19.822437
70.610 19.555267
70.615 18.811852
70.620 18.847172
70.625 18.543909
70.630 18.403942
70.635 18.326445
70.640 18.832111
70.645 18.989382
70.650 19.393892
70.655 19.936523
70.660 20.725899
70.665 21.117472
70.670 21.670757
70.675 22.043844
70.680 22.477282
70.685 22.464596
70.690 21.91029
70.695 21.77173
70.700 21.619164
70.705 20.98041
70.710 20.453045
70.715 20.361517
70.720 19.862875
70.725 19.641157
70.730 18.959364
70.735 19.079912
70.740 19.519964
70.745 19.11129
70.750 19.177162
70.755 19.256147
70.760 19.701538
70.765 19.446598
70.770 19.205019
70.775 19.624712
70.780 19.818243
70.785 19.32085
70.790 19.320309
70.795 19.175917
70.800 19.312651
70.805 19.1756
70.810 18.473192
70.815 18.58564
70.820 19.147175
70.825 19.199278
70.830 19.003344
70.835 19.062851
70.840 19.006277
70.845 19.201176
70.850 19.713007
70.855 19.967436
70.860 20.159513
70.865 20.269323
70.870 20.246019
70.875 20.397408
70.880 20.343586
70.885 19.598894
70.890 19.557018
70.895 19.293612
70.900 19.079947
70.905 19.012718
70.910 18.865786
70.915 18.728477
70.920 18.99432
70.925 18.392057
70.930 18.632874
70.935 18.734802
70.940 18.50345
70.945 18.431316
70.950 18.923445
70.955 18.446569
70.960 18.431402
70.965 18.547516
70.970 19.086384
70.975 19.093374
70.980 18.859507
70.985 19.339293
70.990 19.593082
70.995 19.444632
71.000 19.255272
71.005 18.93107
71.010 19.537628
71.015 19.61315
71.020 19.330845
71.025 19.538475
71.030 19.81629
71.035 19.434292
71.040 19.211151
71.045 19.118635
71.050 19.261417
71.055 18.350523
71.060 18.152655
71.065 17.990206
71.070 18.10947
71.075 17.885124
71.080 17.324129
71.085 16.842375
71.090 17.630905
71.095 18.207239
71.100 18.39328
71.105 19.012375
71.110 19.479279
71.115 19.560629
71.120 19.990032
71.125 19.878653
71.130 19.781647
71.135 20.145416
71.140 19.880911
71.145 19.849586
71.150 19.639528
71.155 19.026655
71.160 18.968668
71.165 18.458765
71.170 17.879406
71.175 17.811268
71.180 17.208965
71.185 17.440926
71.190 17.438652
71.195 16.617086
71.200 16.734816
71.205 16.975134
71.210 17.777925
71.215 18.366161
71.220 18.326283
71.225 18.433167
71.230 19.061079
71.235 19.016027
71.240 19.230806
71.245 18.384235
71.250 18.783888
71.255 19.006359
71.260 18.985113
71.265 18.868101
71.270 19.565342
71.275 19.758781
71.280 19.676851
71.285 19.372381
71.290 19.962967
71.295 20.044743
71.300 19.838783
71.305 19.523836
71.310 18.915857
71.315 19.039934
71.320 18.924166
71.325 18.672508
71.330 19.156036
71.335 18.87752
71.340 18.781382
71.345 18.861776
71.350 18.808733
71.355 19.064735
71.360 18.872856
71.365 19.199181
71.370 18.975468
71.375 19.049803
71.380 19.433844
71.385 19.27636
71.390 19.133987
71.395 19.270126
71.400 19.024223
71.405 19.258411
71.410 19.30792
71.415 19.462931
71.420 19.541195
71.425 19.540442
71.430 19.847569
71.435 19.991432
71.440 19.712427
71.445 19.776804
71.450 20.294529
71.455 20.649746
71.460 20.401897
71.465 19.882332
71.470 20.148893
71.475 20.142612
71.480 19.772404
71.485 18.669847
71.490 18.253801
71.495 18.414858
71.500 18.319241
71.505 18.091984
71.510 18.628908
71.515 18.954187
71.520 19.499399
71.525 19.609364
71.530 18.73999
71.535 18.859344
71.540 18.344076
71.545 18.041773
71.550 17.884769
71.555 17.816431
71.560 18.128735
71.565 18.978123
71.570 18.602785
71.575 19.185642
71.580 19.285896
71.585 19.573721
71.590 19.39171
71.595 19.555037
71.600 19.36668
71.605 19.265844
71.610 19.041677
71.615 18.905159
71.620 18.556168
71.625 18.380249
71.630 18.208073
71.635 18.015333
71.640 17.907576
71.645 17.894417
71.650 17.580547
71.655 17.365759
71.660 17.261568
71.665 16.928583
71.670 17.038218
71.675 16.973448
71.680 16.646275
71.685 16.816105
71.690 16.361992
71.695 16.558878
71.700 16.937235
71.705 17.626926
71.710 18.292761
71.715 18.554544
71.720 19.010532
71.725 19.280836
71.730 19.047829
71.735 18.589758
71.740 17.857866
71.745 17.549391
71.750 17.515953
71.755 17.397228
71.760 17.807207
71.765 18.181776
71.770 18.389257
71.775 18.362869
71.780 18.477495
71.785 18.367001
71.790 17.847439
71.795 17.201366
71.800 16.695303
71.805 16.772984
71.810 17.013039
71.815 17.261608
71.820 17.833984
71.825 17.81781
71.830 18.163534
71.835 18.071938
71.840 18.224287
71.845 17.86941
71.850 16.959183
71.855 16.774912
71.860 16.757124
71.865 16.763592
71.870 16.883911
71.875 16.664877
71.880 16.802717
71.885 17.400526
71.890 17.661451
71.895 18.161747
71.900 18.035543
71.905 18.188786
71.910 18.355587
71.915 18.452744
71.920 18.451084
71.925 18.698317
71.930 18.848558
71.935 18.912001
71.940 18.874758
71.945 19.643688
71.950 20.003439
71.955 19.975973
71.960 19.209187
71.965 19.164389
71.970 18.898167
71.975 18.87389
71.980 18.062727
71.985 17.822315
71.990 17.50436
71.995 17.825897
72.000 18.35626
72.005 18.374994
72.010 18.90163
72.015 19.219189
72.020 19.396458
72.025 19.423838
72.030 18.931337
72.035 17.961571
72.040 17.570595
72.045 17.12211
72.050 16.996107
72.055 17.264465
72.060 17.74411
72.065 18.153631
72.070 18.658878
72.075 18.854511
72.080 18.536823
72.085 18.241789
72.090 18.003103
72.095 18.092804
72.100 18.17791
72.105 18.432039
72.110 18.267693
72.115 18.495338
72.120 18.083321
72.125 18.63315
72.130 18.205784
72.135 18.027319
72.140 18.131521
72.145 18.15443
72.150 17.964142
72.155 17.720453
72.160 17.163067
72.165 17.310324
72.170 16.994949
72.175 16.615454
72.180 16.522657
72.185 16.560728
72.190 17.235466
72.195 17.651262
72.200 17.701567
72.205 17.997694
72.210 18.332079
72.215 18.972975
72.220 19.25057
72.225 18.535145
72.230 18.318632
72.235 18.63961
72.240 19.05801
72.245 19.358885
72.250 19.200022
72.255 18.60565
72.260 18.56245
72.265 18.581102
72.270 18.272717
72.275 17.904169
72.280 17.417978
72.285 17.19627
72.290 17.764362
72.295 17.932175
72.300 17.691978
72.305 18.020847
72.310 18.137465
72.315 17.848869
72.320 17.36484
72.325 16.905216
72.330 17.25947
72.335 17.401766
72.340 17.267231
72.345 16.995903
72.350 17.054251
72.355 17.808386
72.360 17.936642
72.365 17.709894
72.370 17.35952
72.375 17.22801
72.380 17.236229
72.385 17.1978
72.390 16.904114
72.395 16.994278
72.400 16.924812
72.405 17.22238
72.410 17.405264
72.415 18.044088
72.420 18.715115
72.425 18.890167
72.430 19.010355
72.435 19.243868
72.440 19.327261
72.445 19.151537
72.450 19.158808
72.455 18.918001
72.460 18.542528
72.465 18.240633
72.470 17.819305
72.475 17.393618
72.480 17.41326
72.485 17.400358
72.490 17.289217
72.495 17.062658
72.500 17.387003
72.505 17.002399
72.510 17.072828
72.515 16.734104
72.520 16.159607
72.525 16.233383
72.530 16.211538
72.535 16.418289
72.540 16.739571
72.545 16.097258
72.550 16.207895
72.555 16.557016
72.560 16.929716
72.565 16.603397
72.570 16.632708
72.575 16.953609
72.580 17.68214
72.585 18.136774
72.590 18.108562
72.595 18.048086
72.600 18.277994
72.605 17.854673
72.610 17.850021
72.615 17.943645
72.620 17.829952
72.625 17.921759
72.630 18.189238
72.635 18.44755
72.640 19.013941
72.645 18.84787
72.650 18.308617
72.655 18.244715
72.660 18.208216
72.665 17.63649
72.670 16.823301
72.675 16.456684
72.680 16.622362
72.685 16.480381
72.690 16.202957
72.695 16.174648
72.700 16.282345
72.705 16.579309
72.710 16.437078
72.715 16.405184
72.720 16.642019
72.725 16.768534
72.730 17.095446
72.735 17.206945
72.740 17.403728
72.745 17.60957
72.750 17.46977
72.755 16.771267
72.760 16.474754
72.765 16.303347
72.770 16.36025
72.775 15.864882
72.780 15.650915
72.785 16.075096
72.790 16.584232
72.795 16.367464
72.800 16.132902
72.805 16.22958
72.810 16.301582
72.815 16.699968
72.820 16.604155
72.825 17.169825
72.830 17.658392
72.835 18.508909
72.840 18.986015
72.845 19.02005
72.850 18.354408
72.855 18.489391
72.860 18.172947
72.865 17.594898
72.870 16.991001
72.875 16.60272
72.880 16.729443
72.885 16.988224
72.890 16.61182
72.895 16.235031
72.900 16.256752
72.905 16.070045
72.910 16.071634
72.915 16.167078
72.920 16.225668
72.925 16.025015
72.930 16.167799
72.935 16.52354
72.940 16.963772
72.945 17.563166
72.950 17.250433
72.955 17.335979
72.960 17.154995
72.965 16.428949
72.970 15.992455
72.975 15.454465
72.980 14.921761
72.985 14.733994
72.990 15.364114
72.995 16.441866
73.000 17.08301
