!@!!GADDS PLOTSO FILE: Chi integration type
!@!!Title/SampleName: map-53
!@!!Comment: ?
!@!!User: Bruker Instrument Administrator
!@!!Site: University of Illinois Chicago
!@!!Frame: map-53_01_000.gfrm
!@!!Wavelengths    1.54184   1.54056   1.54439
!@!!Frame angles: 2Theta: 63.000 Omega: 50.000 Phi: 0.000 Chi: 90.000
!@!!Integration range: 2Theta: 53.000 to 73.000  Gamma: -105.000 to -75.000
!@!!Integration method: bin normalized
!@!N
!@!SS
!@!M
!@!L 0.0 0.0 0.0 0.0
!@!XDegrees
!@!YCounts
53.000 7.695513
53.005 8.117546
53.010 7.983527
53.015 8.36445
53.020 8.779069
53.025 8.861646
53.030 8.677018
53.035 8.132836
53.040 7.657582
53.045 7.363682
53.050 7.102902
53.055 7.090652
53.060 7.554533
53.065 7.584759
53.070 7.531034
53.075 7.852396
53.080 8.377596
53.085 8.51879
53.090 8.207923
53.095 8.096472
53.100 8.27012
53.105 8.041092
53.110 7.676546
53.115 7.283511
53.120 7.140464
53.125 6.914783
53.130 6.542657
53.135 6.443814
53.140 6.318501
53.145 6.294054
53.150 7.066247
53.155 7.334979
53.160 7.472225
53.165 7.942719
53.170 8.182974
53.175 8.549643
53.180 8.352927
53.185 8.185077
53.190 8.27543
53.195 8.866011
53.200 8.461636
53.205 8.410282
53.210 8.476
53.215 8.70396
53.220 8.779507
53.225 8.566862
53.230 8.424814
53.235 9.004467
53.240 9.507104
53.245 9.087111
53.250 9.437659
53.255 9.664365
53.260 9.458592
53.265 9.284079
53.270 8.759588
53.275 8.851655
53.280 8.919655
53.285 8.346799
53.290 7.778615
53.295 7.791223
53.300 7.401879
53.305 7.289246
53.310 7.221958
53.315 7.328689
53.320 7.41172
53.325 8.142433
53.330 8.416241
53.335 8.887275
53.340 8.720372
53.345 8.408897
53.350 8.086432
53.355 7.646725
53.360 7.362576
53.365 7.607492
53.370 7.438392
53.375 7.745851
53.380 8.174631
53.385 8.087115
53.390 8.541346
53.395 8.73361
53.400 8.592402
53.405 8.745984
53.410 8.417786
53.415 8.342208
53.420 8.229257
53.425 8.113026
53.430 7.986497
53.435 7.840858
53.440 7.81996
53.445 8.047041
53.450 8.640103
53.455 8.685646
53.460 8.389496
53.465 8.062765
53.470 8.357429
53.475 8.193501
53.480 8.260175
53.485 8.547269
53.490 8.503325
53.495 8.602176
53.500 8.763725
53.505 8.609901
53.510 8.880339
53.515 8.569577
53.520 8.03762
53.525 8.191122
53.530 8.432261
53.535 8.551649
53.540 8.645766
53.545 8.615266
53.550 8.303188
53.555 8.815724
53.560 8.821962
53.565 9.016344
53.570 9.049064
53.575 8.819009
53.580 8.663543
53.585 9.059954
53.590 9.155397
53.595 8.874886
53.600 8.194179
53.605 8.106063
53.610 7.936607
53.615 8.386564
53.620 8.234907
53.625 8.159047
53.630 8.58092
53.635 9.294081
53.640 9.817256
53.645 9.674729
53.650 9.183068
53.655 9.380499
53.660 9.645827
53.665 9.404265
53.670 8.939618
53.675 8.653467
53.680 8.678349
53.685 8.766462
53.690 8.430683
53.695 7.97941
53.700 7.811177
53.705 7.987493
53.710 8.240954
53.715 8.441091
53.720 8.265567
53.725 8.226355
53.730 8.119638
53.735 7.88117
53.740 7.926893
53.745 8.275832
53.750 8.411476
53.755 8.325654
53.760 8.677096
53.765 8.654332
53.770 8.99855
53.775 8.971164
53.780 9.063046
53.785 9.033686
53.790 9.159081
53.795 9.637085
53.800 10.271981
53.805 10.169151
53.810 9.832339
53.815 9.430519
53.820 9.354915
53.825 8.598232
53.830 8.09976
53.835 7.388798
53.840 7.301806
53.845 7.563184
53.850 7.704978
53.855 8.030591
53.860 8.562808
53.865 8.801318
53.870 9.030406
53.875 9.060102
53.880 8.942238
53.885 9.161541
53.890 9.025979
53.895 9.171511
53.900 9.053907
53.905 9.182586
53.910 9.34591
53.915 9.258432
53.920 9.369706
53.925 9.683236
53.930 9.778274
53.935 9.864357
53.940 9.8058
53.945 9.736623
53.950 9.574117
53.955 9.229149
53.960 8.781612
53.965 8.554505
53.970 8.650996
53.975 8.576717
53.980 8.505286
53.985 8.532273
53.990 8.999104
53.995 8.719995
54.000 8.890854
54.005 9.00229
54.010 9.173607
54.015 9.386775
54.020 9.310084
54.025 9.27766
54.030 9.849082
54.035 10.114672
54.040 10.112478
54.045 10.295815
54.050 10.480001
54.055 10.284313
54.060 10.098806
54.065 9.937251
54.070 9.406857
54.075 8.976376
54.080 9.067809
54.085 9.02579
54.090 9.21323
54.095 9.447635
54.100 9.155577
54.105 9.305284
54.110 9.395225
54.115 9.346003
54.120 9.374711
54.125 9.704161
54.130 9.752038
54.135 9.894363
54.140 9.905115
54.145 9.724113
54.150 9.33428
54.155 9.354352
54.160 9.490231
54.165 9.588253
54.170 9.389874
54.175 9.449183
54.180 9.543513
54.185 9.716385
54.190 9.767815
54.195 9.672606
54.200 10.044036
54.205 9.93683
54.210 9.675025
54.215 9.351283
54.220 9.565316
54.225 9.16222
54.230 9.058151
54.235 8.911042
54.240 9.244657
54.245 9.79458
54.250 9.804789
54.255 9.833209
54.260 9.994188
54.265 9.705928
54.270 9.550463
54.275 9.690398
54.280 9.512306
54.285 9.862706
54.290 9.818363
54.295 9.76799
54.300 10.05213
54.305 10.455366
54.310 10.24046
54.315 10.199615
54.320 9.745872
54.325 10.04285
54.330 9.614217
54.335 8.971863
54.340 8.755578
54.345 8.952156
54.350 9.038406
54.355 8.598987
54.360 8.614796
54.365 9.024811
54.370 9.260731
54.375 9.715991
54.380 9.538713
54.385 9.334023
54.390 9.7267
54.395 9.541512
54.400 9.51153
54.405 9.345701
54.410 9.215444
54.415 9.46333
54.420 9.236744
54.425 9.250242
54.430 9.534451
54.435 9.703335
54.440 9.682211
54.445 9.343137
54.450 9.231736
54.455 9.448358
54.460 9.704199
54.465 9.589762
54.470 9.848782
54.475 9.808573
54.480 10.124193
54.485 10.468626
54.490 10.513665
54.495 10.132827
54.500 9.840061
54.505 9.340892
54.510 9.204486
54.515 9.041779
54.520 9.187159
54.525 8.836251
54.530 8.688568
54.535 8.924643
54.540 9.13226
54.545 9.384768
54.550 9.559269
54.555 9.431369
54.560 9.847929
54.565 9.915241
54.570 10.320018
54.575 10.629488
54.580 10.728784
54.585 10.452181
54.590 10.272721
54.595 9.965585
54.600 10.116571
54.605 10.21635
54.610 10.093406
54.615 10.138438
54.620 10.745553
54.625 11.184803
54.630 10.910581
54.635 10.825808
54.640 10.431133
54.645 10.555128
54.650 10.569227
54.655 10.000525
54.660 10.010193
54.665 10.172637
54.670 9.675731
54.675 9.397472
54.680 8.766736
54.685 8.418627
54.690 8.446991
54.695 8.348575
54.700 8.49063
54.705 8.714712
54.710 9.122758
54.715 9.33121
54.720 9.361852
54.725 9.450548
54.730 9.729676
54.735 9.705087
54.740 9.476882
54.745 9.857319
54.750 9.874177
54.755 10.014578
54.760 10.194841
54.765 10.1576
54.770 10.289776
54.775 10.232602
54.780 10.115436
54.785 10.231251
54.790 10.0055
54.795 10.221867
54.800 10.312734
54.805 10.47181
54.810 10.332284
54.815 10.303882
54.820 10.245273
54.825 10.52508
54.830 10.311469
54.835 10.097468
54.840 10.219227
54.845 10.307389
54.850 10.225658
54.855 10.451879
54.860 10.08294
54.865 9.733687
54.870 9.534817
54.875 9.784485
54.880 9.972447
54.885 9.76619
54.890 9.530633
54.895 9.503528
54.900 9.746218
54.905 10.318166
54.910 10.281712
54.915 10.194468
54.920 10.697742
54.925 10.508484
54.930 10.794059
54.935 10.526978
54.940 10.269323
54.945 10.261231
54.950 10.302994
54.955 9.99596
54.960 9.930451
54.965 9.65319
54.970 9.435893
54.975 9.673199
54.980 9.851983
54.985 9.958139
54.990 10.137932
54.995 10.512282
55.000 10.97289
55.005 10.837947
55.010 9.974926
55.015 9.962945
55.020 9.903671
55.025 10.046543
55.030 10.06704
55.035 9.842475
55.040 9.80926
55.045 9.899335
55.050 9.470936
55.055 9.209911
55.060 8.679172
55.065 8.483483
55.070 9.192918
55.075 9.435029
55.080 9.559952
55.085 9.525798
55.090 9.789086
55.095 10.108418
55.100 10.243348
55.105 9.967486
55.110 9.963086
55.115 10.247416
55.120 10.278257
55.125 10.238025
55.130 10.625505
55.135 10.646996
55.140 10.37961
55.145 10.060627
55.150 9.658007
55.155 9.732511
55.160 9.64321
55.165 9.162087
55.170 8.870441
55.175 8.854756
55.180 9.221561
55.185 9.204689
55.190 9.078955
55.195 8.591314
55.200 8.926979
55.205 9.296619
55.210 9.725836
55.215 9.97373
55.220 10.29213
55.225 10.755944
55.230 11.218673
55.235 11.067535
55.240 11.072037
55.245 10.836272
55.250 10.584425
55.255 10.426363
55.260 10.146586
55.265 10.224892
55.270 10.328271
55.275 10.032971
55.280 10.208911
55.285 10.368807
55.290 10.696546
55.295 11.211693
55.300 10.874848
55.305 10.574892
55.310 10.637708
55.315 10.465791
55.320 10.450014
55.325 10.316021
55.330 9.886941
55.335 10.183803
55.340 10.589249
55.345 10.871203
55.350 11.080008
55.355 11.30107
55.360 11.312937
55.365 11.365821
55.370 11.175611
55.375 11.003864
55.380 11.104946
55.385 10.963964
55.390 10.536042
55.395 10.951634
55.400 10.800798
55.405 11.1058
55.410 11.182451
55.415 11.098754
55.420 11.366047
55.425 11.318679
55.430 11.1255
55.435 11.115952
55.440 10.661746
55.445 10.469117
55.450 10.229591
55.455 9.973281
55.460 9.751785
55.465 10.166396
55.470 10.754858
55.475 10.998591
55.480 10.756362
55.485 10.72506
55.490 10.561252
55.495 10.577656
55.500 9.948973
55.505 9.868839
55.510 10.158945
55.515 9.931394
55.520 10.391082
55.525 10.631693
55.530 10.682987
55.535 10.823907
55.540 10.28465
55.545 10.537654
55.550 11.262362
55.555 11.335946
55.560 11.91223
55.565 11.996522
55.570 12.072405
55.575 12.520528
55.580 12.22565
55.585 11.48908
55.590 11.274483
55.595 11.169695
55.600 11.039586
55.605 10.878975
55.610 10.70123
55.615 10.951525
55.620 11.308752
55.625 11.513812
55.630 11.304051
55.635 11.55551
55.640 11.302873
55.645 11.266142
55.650 11.02667
55.655 10.777296
55.660 10.362567
55.665 10.342437
55.670 10.645074
55.675 10.558967
55.680 10.792511
55.685 11.27186
55.690 11.33541
55.695 11.493489
55.700 11.350701
55.705 10.989079
55.710 10.786144
55.715 10.63463
55.720 10.621387
55.725 10.692813
55.730 10.704266
55.735 10.668231
55.740 10.638915
55.745 11.062817
55.750 11.143591
55.755 11.238665
55.760 11.519964
55.765 11.477977
55.770 11.522879
55.775 11.799104
55.780 11.346591
55.785 10.880898
55.790 10.598514
55.795 10.479362
55.800 11.125688
55.805 11.479044
55.810 11.569462
55.815 11.649613
55.820 11.724343
55.825 11.964485
55.830 11.678241
55.835 11.880106
55.840 12.117565
55.845 12.200656
55.850 12.890168
55.855 12.879463
55.860 12.9845
55.865 13.088647
55.870 12.289371
55.875 11.66717
55.880 11.283104
55.885 10.902625
55.890 10.775536
55.895 10.620355
55.900 10.52444
55.905 10.63607
55.910 11.176404
55.915 12.053932
55.920 12.256783
55.925 12.290412
55.930 12.418616
55.935 12.79726
55.940 13.011788
55.945 12.416234
55.950 12.206088
55.955 12.08115
55.960 11.897733
55.965 11.561854
55.970 10.705776
55.975 10.597189
55.980 11.055623
55.985 10.808736
55.990 10.544653
55.995 10.507886
56.000 10.675658
56.005 11.103033
56.010 11.066072
56.015 10.724453
56.020 10.946441
56.025 11.475219
56.030 11.705891
56.035 11.708173
56.040 11.837877
56.045 11.673245
56.050 11.740295
56.055 12.399011
56.060 12.309946
56.065 12.52739
56.070 12.596546
56.075 12.569479
56.080 12.823409
56.085 12.836646
56.090 11.82006
56.095 11.875386
56.100 11.757935
56.105 11.435127
56.110 11.184062
56.115 10.576589
56.120 10.201806
56.125 10.235672
56.130 10.021502
56.135 9.961871
56.140 10.587195
56.145 11.078071
56.150 11.59707
56.155 11.728008
56.160 11.8046
56.165 12.179752
56.170 12.292699
56.175 12.152202
56.180 11.736053
56.185 11.60834
56.190 11.854998
56.195 11.840069
56.200 11.656547
56.205 11.540976
56.210 11.678079
56.215 11.804239
56.220 11.453464
56.225 11.157469
56.230 11.300241
56.235 11.39634
56.240 11.418104
56.245 11.438971
56.250 11.941833
56.255 12.642362
56.260 13.247386
56.265 12.876961
56.270 12.439771
56.275 12.228914
56.280 12.051796
56.285 11.696326
56.290 11.611171
56.295 11.235905
56.300 11.267425
56.305 11.631405
56.310 11.765041
56.315 12.252205
56.320 12.134271
56.325 11.935034
56.330 11.935938
56.335 12.117562
56.340 11.629412
56.345 11.545245
56.350 11.01634
56.355 11.077003
56.360 10.958455
56.365 10.828008
56.370 10.613633
56.375 10.963242
56.380 10.890103
56.385 10.960648
56.390 10.883532
56.395 11.385087
56.400 11.712146
56.405 11.9358
56.410 12.150832
56.415 11.953724
56.420 12.019287
56.425 12.405268
56.430 12.335421
56.435 11.965833
56.440 11.549154
56.445 11.481112
56.450 11.52335
56.455 11.898051
56.460 11.644155
56.465 11.452613
56.470 11.655767
56.475 11.627771
56.480 11.896948
56.485 11.567994
56.490 11.07004
56.495 11.024245
56.500 10.693025
56.505 10.65531
56.510 10.847477
56.515 10.755362
56.520 11.322898
56.525 11.597314
56.530 11.529448
56.535 11.724941
56.540 12.055854
56.545 11.769876
56.550 11.570446
56.555 11.836819
56.560 11.737735
56.565 12.488231
56.570 13.090821
56.575 12.635083
56.580 12.72644
56.585 12.412173
56.590 12.010095
56.595 12.077813
56.600 11.27217
56.605 10.833924
56.610 11.230288
56.615 11.09236
56.620 10.905597
56.625 10.822969
56.630 10.872717
56.635 11.415374
56.640 10.969478
56.645 10.858013
56.650 11.356662
56.655 11.794574
56.660 11.676578
56.665 11.103585
56.670 10.998
56.675 11.64653
56.680 12.290407
56.685 12.244249
56.690 12.318529
56.695 12.53351
56.700 12.735012
56.705 12.812528
56.710 12.799291
56.715 12.135597
56.720 12.428411
56.725 12.943029
56.730 13.367795
56.735 13.564856
56.740 13.430916
56.745 13.13282
56.750 13.324879
56.755 13.352407
56.760 13.082435
56.765 12.731112
56.770 13.412406
56.775 13.825625
56.780 14.031587
56.785 14.176594
56.790 13.686695
56.795 13.522673
56.800 13.446226
56.805 12.948049
56.810 12.755212
56.815 13.026187
56.820 12.976549
56.825 13.226522
56.830 13.080565
56.835 12.856957
56.840 12.666616
56.845 12.632529
56.850 11.941983
56.855 11.805062
56.860 11.484091
56.865 11.464688
56.870 11.723332
56.875 11.901602
56.880 12.215492
56.885 12.279501
56.890 12.286539
56.895 12.46564
56.900 12.432764
56.905 11.879253
56.910 11.583745
56.915 11.654139
56.920 12.029781
56.925 12.024809
56.930 12.388737
56.935 12.208888
56.940 12.510639
56.945 12.55331
56.950 12.091378
56.955 11.842444
56.960 11.89358
56.965 11.936172
56.970 12.399112
56.975 12.869858
56.980 12.947252
56.985 13.075388
56.990 13.072014
56.995 12.945428
57.000 13.457322
57.005 12.749726
57.010 12.116203
57.015 12.099005
57.020 12.215225
57.025 12.309702
57.030 11.674049
57.035 11.171072
57.040 12.134132
57.045 11.978511
57.050 12.253634
57.055 12.477819
57.060 12.428932
57.065 12.947217
57.070 13.019053
57.075 13.650704
57.080 13.483977
57.085 13.318748
57.090 13.169054
57.095 13.015094
57.100 13.193145
57.105 12.867489
57.110 12.916534
57.115 13.254544
57.120 12.880486
57.125 12.693168
57.130 13.164005
57.135 13.38067
57.140 13.205086
57.145 12.884241
57.150 12.960059
57.155 13.240628
57.160 13.070383
57.165 12.819188
57.170 12.478527
57.175 12.208408
57.180 11.952278
57.185 11.936807
57.190 12.507158
57.195 12.735002
57.200 12.781154
57.205 12.770531
57.210 13.126548
57.215 13.424594
57.220 13.784266
57.225 13.107784
57.230 13.176073
57.235 13.310232
57.240 13.499032
57.245 12.943559
57.250 12.728987
57.255 12.472545
57.260 12.311211
57.265 12.030496
57.270 11.979713
57.275 12.205312
57.280 12.400743
57.285 12.432106
57.290 12.183945
57.295 12.190405
57.300 12.512057
57.305 12.621701
57.310 12.568301
57.315 13.311831
57.320 13.598948
57.325 14.097562
57.330 14.433268
57.335 14.407597
57.340 14.536258
57.345 14.831437
57.350 14.346186
57.355 14.028984
57.360 13.843946
57.365 14.022488
57.370 14.217299
57.375 13.941792
57.380 13.444308
57.385 13.433806
57.390 13.25924
57.395 13.329944
57.400 13.089937
57.405 13.535571
57.410 13.407944
57.415 13.312858
57.420 13.095412
57.425 13.128114
57.430 12.864715
57.435 12.583707
57.440 12.317362
57.445 12.452806
57.450 12.765641
57.455 13.271667
57.460 13.599236
57.465 14.05049
57.470 14.064134
57.475 13.506963
57.480 13.740731
57.485 13.758792
57.490 13.514424
57.495 13.079695
57.500 12.815808
57.505 12.270527
57.510 12.444925
57.515 12.145061
57.520 11.905937
57.525 11.900274
57.530 12.036177
57.535 12.352276
57.540 12.895701
57.545 12.946918
57.550 13.07125
57.555 13.128232
57.560 12.87862
57.565 13.406587
57.570 13.41259
57.575 13.444813
57.580 13.8592
57.585 14.122761
57.590 14.310525
57.595 14.41053
57.600 14.040671
57.605 13.850285
57.610 13.666189
57.615 12.873138
57.620 12.708356
57.625 13.16683
57.630 13.796689
57.635 14.179051
57.640 14.482147
57.645 14.387837
57.650 14.63026
57.655 14.560159
57.660 14.180293
57.665 13.195197
57.670 12.329893
57.675 12.099469
57.680 12.227581
57.685 12.566935
57.690 12.122201
57.695 12.190672
57.700 12.745756
57.705 13.0401
57.710 12.741355
57.715 13.057878
57.720 13.049528
57.725 13.177412
57.730 13.490354
57.735 13.421436
57.740 13.705578
57.745 14.282442
57.750 14.567535
57.755 14.567457
57.760 14.93245
57.765 14.940086
57.770 15.066467
57.775 14.725119
57.780 14.28437
57.785 13.907006
57.790 13.791201
57.795 12.588113
57.800 11.911132
57.805 12.104613
57.810 12.356326
57.815 12.510109
57.820 12.552375
57.825 12.7852
57.830 13.65981
57.835 14.073925
57.840 14.405562
57.845 14.501908
57.850 14.330434
57.855 14.209389
57.860 14.056373
57.865 13.978088
57.870 14.036425
57.875 14.16247
57.880 14.138106
57.885 14.020734
57.890 14.071188
57.895 14.107374
57.900 14.226849
57.905 13.993666
57.910 13.094802
57.915 12.85826
57.920 13.373008
57.925 13.955981
57.930 14.180921
57.935 14.367389
57.940 14.259903
57.945 14.661716
57.950 14.435809
57.955 13.378972
57.960 12.819323
57.965 12.708553
57.970 11.97598
57.975 11.763611
57.980 11.849633
57.985 11.646816
57.990 12.073714
57.995 11.814944
58.000 12.1383
58.005 13.068661
58.010 13.449473
58.015 13.455044
58.020 14.200481
58.025 13.946887
58.030 13.872303
58.035 13.711712
58.040 13.609851
58.045 13.328853
58.050 13.623723
58.055 13.40083
58.060 13.119375
58.065 12.444055
58.070 12.477527
58.075 12.677483
58.080 12.847801
58.085 12.123788
58.090 12.361029
58.095 13.022441
58.100 13.591962
58.105 13.577773
58.110 13.103406
58.115 12.882338
58.120 13.185547
58.125 12.907294
58.130 12.379497
58.135 12.395262
58.140 12.325432
58.145 12.282742
58.150 12.314548
58.155 12.310287
58.160 12.577304
58.165 12.647143
58.170 12.417117
58.175 12.02965
58.180 12.249416
58.185 12.390694
58.190 12.493075
58.195 12.731895
58.200 12.873063
58.205 13.405201
58.210 13.893998
58.215 14.142031
58.220 14.428741
58.225 14.368696
58.230 14.035482
58.235 14.31696
58.240 14.410846
58.245 14.496425
58.250 14.132476
58.255 13.875312
58.260 13.900975
58.265 14.582819
58.270 14.630007
58.275 14.290495
58.280 13.537982
58.285 13.779186
58.290 14.076196
58.295 14.152478
58.300 13.804606
58.305 13.988161
58.310 14.181998
58.315 14.593277
58.320 14.492636
58.325 14.749293
58.330 14.707993
58.335 14.72438
58.340 14.788965
58.345 14.721861
58.350 14.465055
58.355 14.64035
58.360 14.368505
58.365 14.485826
58.370 14.608986
58.375 14.064457
58.380 13.988679
58.385 14.588525
58.390 14.4569
58.395 14.12288
58.400 14.030632
58.405 13.586635
58.410 13.549278
58.415 13.765948
58.420 13.366347
58.425 13.381934
58.430 13.492267
58.435 13.52664
58.440 13.842803
58.445 13.941113
58.450 13.841331
58.455 13.889109
58.460 13.973388
58.465 14.038063
58.470 14.456858
58.475 14.254232
58.480 14.074955
58.485 13.874148
58.490 13.334711
58.495 13.356675
58.500 13.248206
58.505 13.140082
58.510 13.644643
58.515 13.634003
58.520 14.069549
58.525 14.670321
58.530 14.333497
58.535 14.277242
58.540 14.169761
58.545 13.747656
58.550 13.628757
58.555 12.943224
58.560 12.869654
58.565 13.147642
58.570 13.237625
58.575 13.01834
58.580 13.340919
58.585 13.516432
58.590 14.024519
58.595 13.889881
58.600 13.471384
58.605 13.475158
58.610 13.692309
58.615 13.645678
58.620 14.154235
58.625 14.425771
58.630 14.820941
58.635 15.671065
58.640 15.715961
58.645 15.612967
58.650 15.881673
58.655 15.883459
58.660 16.326664
58.665 15.75172
58.670 15.115149
58.675 15.089091
58.680 14.990382
58.685 14.693009
58.690 14.88059
58.695 14.731071
58.700 15.177734
58.705 15.188782
58.710 15.063342
58.715 14.895048
58.720 14.673511
58.725 14.502084
58.730 14.323497
58.735 14.006767
58.740 14.359063
58.745 14.494162
58.750 15.403788
58.755 15.467227
58.760 15.672731
58.765 15.75993
58.770 15.159163
58.775 15.061199
58.780 15.472918
58.785 15.164082
58.790 15.029655
58.795 14.425872
58.800 14.694505
58.805 15.346126
58.810 15.207617
58.815 15.061965
58.820 15.035434
58.825 15.027135
58.830 14.890564
58.835 14.316534
58.840 13.883152
58.845 13.539676
58.850 13.247158
58.855 13.352013
58.860 13.565706
58.865 13.855243
58.870 14.190207
58.875 14.789123
58.880 15.371875
58.885 15.723203
58.890 15.685775
58.895 15.729597
58.900 16.021643
58.905 16.192562
58.910 16.076195
58.915 15.756268
58.920 15.876086
58.925 16.025576
58.930 16.438314
58.935 16.197304
58.940 16.22374
58.945 16.6728
58.950 16.73634
58.955 16.401962
58.960 16.323101
58.965 16.240818
58.970 15.954014
58.975 15.79585
58.980 15.735373
58.985 15.364744
58.990 15.333029
58.995 15.208919
59.000 14.741628
59.005 14.772703
59.010 14.601062
59.015 14.529304
59.020 14.515478
59.025 14.769873
59.030 14.738163
59.035 14.878996
59.040 15.208965
59.045 14.951328
59.050 14.470498
59.055 14.544995
59.060 14.676884
59.065 14.65713
59.070 15.120936
59.075 15.296992
59.080 15.363684
59.085 15.380411
59.090 15.174851
59.095 14.780784
59.100 15.038915
59.105 14.70903
59.110 14.094359
59.115 14.257825
59.120 14.663133
59.125 15.402461
59.130 15.845035
59.135 16.057093
59.140 15.796327
59.145 16.278433
59.150 16.414652
59.155 16.379511
59.160 15.742505
59.165 15.703495
59.170 15.372468
59.175 15.514117
59.180 15.376625
59.185 15.181398
59.190 14.789543
59.195 14.517062
59.200 13.844423
59.205 14.171497
59.210 14.845879
59.215 15.424498
59.220 15.995859
59.225 16.719973
59.230 17.413904
59.235 18.000145
59.240 17.504919
59.245 17.24872
59.250 16.754705
59.255 16.142235
59.260 15.134062
59.265 14.815122
59.270 14.581306
59.275 14.512845
59.280 14.170248
59.285 14.789611
59.290 14.94127
59.295 15.367607
59.300 15.019127
59.305 14.778007
59.310 15.080971
59.315 14.642909
59.320 14.310663
59.325 14.174365
59.330 14.398191
59.335 15.093002
59.340 15.777869
59.345 15.871805
59.350 16.071314
59.355 15.882643
59.360 16.33534
59.365 16.434324
59.370 15.947111
59.375 15.623561
59.380 15.870221
59.385 15.933535
59.390 16.415947
59.395 16.537371
59.400 16.725971
59.405 16.590744
59.410 16.290276
59.415 16.286547
59.420 16.558298
59.425 16.579226
59.430 16.562544
59.435 16.276194
59.440 16.415956
59.445 16.785425
59.450 16.643196
59.455 16.425388
59.460 16.300095
59.465 15.989703
59.470 16.24172
59.475 16.669527
59.480 16.872927
59.485 16.736895
59.490 16.506912
59.495 16.277639
59.500 16.809807
59.505 16.286909
59.510 15.666559
59.515 15.720837
59.520 16.389484
59.525 16.475533
59.530 15.78566
59.535 14.912109
59.540 15.570385
59.545 16.439096
59.550 16.112486
59.555 15.477594
59.560 16.195408
59.565 16.973577
59.570 17.317678
59.575 16.951841
59.580 16.127583
59.585 16.320139
59.590 16.745962
59.595 16.110699
59.600 16.091391
59.605 15.668456
59.610 15.409275
59.615 15.376652
59.620 14.970035
59.625 15.517559
59.630 16.641731
59.635 16.751093
59.640 16.822863
59.645 17.26796
59.650 17.896526
59.655 17.678875
59.660 17.059097
59.665 16.820932
59.670 17.161631
59.675 17.566826
59.680 17.360485
59.685 17.535303
59.690 17.942554
59.695 17.997145
59.700 17.497149
59.705 17.462923
59.710 17.5298
59.715 18.006168
59.720 18.095926
59.725 18.024622
59.730 18.399012
59.735 18.812445
59.740 18.950211
59.745 19.342882
59.750 18.970978
59.755 19.194536
59.760 19.554363
59.765 19.522869
59.770 19.010302
59.775 18.902027
59.780 18.861265
59.785 19.115061
59.790 18.820896
59.795 18.791344
59.800 19.11194
59.805 19.177782
59.810 19.818729
59.815 20.182957
59.820 19.903173
59.825 19.835131
59.830 19.688719
59.835 19.691769
59.840 20.696468
59.845 20.187727
59.850 19.485233
59.855 19.082273
59.860 18.965826
59.865 19.000004
59.870 19.107813
59.875 18.801922
59.880 18.010687
59.885 18.384045
59.890 18.995268
59.895 19.264191
59.900 18.952873
59.905 18.913507
59.910 19.278938
59.915 20.219095
59.920 20.109816
59.925 20.142832
59.930 20.348722
59.935 20.494558
59.940 20.50588
59.945 20.201296
59.950 20.03171
59.955 20.668779
59.960 20.458086
59.965 20.511879
59.970 20.318157
59.975 20.078592
59.980 20.063417
59.985 19.805843
59.990 19.434286
59.995 19.690619
60.000 19.849821
60.005 20.318708
60.010 20.420555
60.015 20.409506
60.020 20.38006
60.025 20.775497
60.030 20.960522
60.035 20.959913
60.040 20.786184
60.045 21.141481
60.050 21.878328
60.055 22.051792
60.060 22.323025
60.065 21.918131
60.070 21.61344
60.075 22.19335
60.080 21.878822
60.085 21.399052
60.090 21.123705
60.095 20.611544
60.100 20.74687
60.105 21.193638
60.110 20.648809
60.115 20.008642
60.120 19.944506
60.125 20.391411
60.130 20.683332
60.135 20.559534
60.140 20.083529
60.145 20.075998
60.150 20.390139
60.155 20.704205
60.160 20.018475
60.165 19.84483
60.170 20.520695
60.175 20.414854
60.180 20.633003
60.185 20.747324
60.190 20.259354
60.195 20.332754
60.200 20.843136
60.205 21.436104
60.210 21.58198
60.215 21.465239
60.220 22.165895
60.225 22.995314
60.230 23.435883
60.235 22.526632
60.240 21.677673
60.245 21.951904
60.250 22.127542
60.255 21.466475
60.260 20.420456
60.265 20.26539
60.270 20.513361
60.275 20.000391
60.280 19.325983
60.285 19.138021
60.290 19.10808
60.295 20.168983
60.300 20.984224
60.305 20.906366
60.310 21.03451
60.315 21.249477
60.320 21.009609
60.325 21.303192
60.330 20.81391
60.335 20.256186
60.340 19.907978
60.345 19.950504
60.350 20.44066
60.355 20.886715
60.360 20.385998
60.365 19.837132
60.370 19.849159
60.375 20.27136
60.380 20.132885
60.385 19.733013
60.390 19.573648
60.395 20.405006
60.400 20.095148
60.405 19.763966
60.410 20.11974
60.415 20.115067
60.420 20.024351
60.425 19.819429
60.430 19.466635
60.435 19.955866
60.440 20.30093
60.445 20.364771
60.450 20.526171
60.455 21.0744
60.460 20.807899
60.465 20.621054
60.470 20.67853
60.475 20.3276
60.480 20.099897
60.485 20.285063
60.490 19.969652
60.495 19.957602
60.500 19.716059
60.505 19.731041
60.510 20.015114
60.515 20.183727
60.520 19.761486
60.525 19.645432
60.530 20.178593
60.535 20.628292
60.540 20.460312
60.545 19.713131
60.550 19.346973
60.555 19.679335
60.560 19.940752
60.565 20.128452
60.570 19.927084
60.575 20.395098
60.580 21.061916
60.585 20.875069
60.590 20.185646
60.595 19.360626
60.600 18.611544
60.605 18.157343
60.610 17.304697
60.615 16.703659
60.620 17.355013
60.625 17.864119
60.630 17.906935
60.635 18.597424
60.640 19.11957
60.645 20.054718
60.650 19.915632
60.655 18.944063
60.660 18.768881
60.665 18.591846
60.670 17.538097
60.675 16.653637
60.680 16.529993
60.685 17.256336
60.690 17.64362
60.695 17.952635
60.700 18.345947
60.705 19.00559
60.710 19.258692
60.715 19.053516
60.720 18.999674
60.725 19.145634
60.730 18.979576
60.735 18.677416
60.740 18.187265
60.745 17.896278
60.750 17.441294
60.755 17.61603
60.760 17.688681
60.765 17.842905
60.770 18.24445
60.775 18.125938
60.780 18.333984
60.785 18.153675
60.790 17.783533
60.795 17.779427
60.800 18.001646
60.805 18.378593
60.810 19.122913
60.815 19.489552
60.820 19.542757
60.825 19.531904
60.830 19.076405
60.835 18.394482
60.840 17.657801
60.845 17.523882
60.850 17.509832
60.855 16.723869
60.860 16.527645
60.865 16.352629
60.870 16.686974
60.875 17.213034
60.880 16.874172
60.885 16.496614
60.890 17.695646
60.895 17.918745
60.900 18.090607
60.905 18.084703
60.910 18.160028
60.915 17.700357
60.920 17.706825
60.925 17.98041
60.930 17.754633
60.935 17.640066
60.940 16.921486
60.945 16.71269
60.950 17.39023
60.955 17.475414
60.960 16.794762
60.965 16.878719
60.970 16.760553
60.975 17.719286
60.980 18.065449
60.985 18.074051
60.990 18.494417
60.995 18.484591
61.000 18.355803
61.005 18.227789
61.010 17.973137
61.015 17.01428
61.020 16.328194
61.025 15.80627
61.030 15.765626
61.035 16.065493
61.040 16.383921
61.045 16.249313
61.050 17.207455
61.055 17.036942
61.060 17.098852
61.065 17.053204
61.070 17.013807
61.075 16.941177
61.080 16.606342
61.085 16.817213
61.090 16.97374
61.095 16.580679
61.100 16.375645
61.105 16.902266
61.110 16.983717
61.115 16.778999
61.120 16.188738
61.125 16.689014
61.130 16.141212
61.135 16.381884
61.140 16.245218
61.145 16.205931
61.150 16.171112
61.155 16.341496
61.160 16.545725
61.165 17.20767
61.170 17.000538
61.175 16.793131
61.180 16.646982
61.185 16.567856
61.190 16.015348
61.195 15.877404
61.200 16.507334
61.205 16.479841
61.210 16.733679
61.215 17.189241
61.220 17.527393
61.225 18.049208
61.230 18.113401
61.235 16.928247
61.240 16.646877
61.245 16.200262
61.250 16.103537
61.255 16.47995
61.260 16.335516
61.265 16.881458
61.270 17.439472
61.275 18.129505
61.280 18.458212
61.285 18.913805
61.290 18.945412
61.295 19.122219
61.300 18.292944
61.305 17.882631
61.310 17.536282
61.315 17.581545
61.320 17.330833
61.325 17.028135
61.330 16.638071
61.335 16.596258
61.340 16.629019
61.345 16.496685
61.350 16.451687
61.355 16.375404
61.360 16.821795
61.365 16.975851
61.370 17.053431
61.375 17.559235
61.380 17.822094
61.385 17.70005
61.390 17.516272
61.395 16.909967
61.400 16.527805
61.405 16.857475
61.410 16.385118
61.415 15.926784
61.420 16.1194
61.425 16.112177
61.430 16.414392
61.435 16.823128
61.440 16.511356
61.445 17.035416
61.450 17.711527
61.455 17.295223
61.460 17.240498
61.465 17.374754
61.470 17.567423
61.475 17.636076
61.480 17.110062
61.485 16.450111
61.490 16.142382
61.495 16.201948
61.500 16.127281
61.505 15.850256
61.510 15.65585
61.515 16.408213
61.520 16.881227
61.525 16.797491
61.530 16.578924
61.535 16.654203
61.540 16.751425
61.545 17.828711
61.550 17.467089
61.555 17.511206
61.560 17.858624
61.565 17.853731
61.570 17.943659
61.575 18.193451
61.580 17.935381
61.585 17.904291
61.590 17.953478
61.595 17.955095
61.600 17.898518
61.605 17.598186
61.610 17.277447
61.615 16.532267
61.620 16.059103
61.625 15.552453
61.630 15.219934
61.635 15.310121
61.640 15.906024
61.645 16.324652
61.650 16.737083
61.655 16.855227
61.660 16.921427
61.665 17.342777
61.670 17.436932
61.675 17.77953
61.680 17.521812
61.685 17.589495
61.690 18.260563
61.695 18.786587
61.700 19.064457
61.705 18.788582
61.710 18.174948
61.715 18.074579
61.720 17.624786
61.725 16.935333
61.730 16.73127
61.735 16.304081
61.740 16.528528
61.745 16.133471
61.750 15.983628
61.755 15.972082
61.760 16.245285
61.765 15.9835
61.770 15.439617
61.775 15.019417
61.780 15.182203
61.785 15.120214
61.790 15.156728
61.795 14.730241
61.800 14.693373
61.805 15.285506
61.810 15.62518
61.815 15.728386
61.820 15.966353
61.825 16.149372
61.830 16.273811
61.835 16.518206
61.840 16.586786
61.845 16.430973
61.850 16.565945
61.855 16.724112
61.860 17.363964
61.865 17.724716
61.870 17.647917
61.875 18.085794
61.880 18.336525
61.885 18.234207
61.890 18.129976
61.895 17.050407
61.900 16.527369
61.905 16.366245
61.910 15.916276
61.915 15.813619
61.920 15.855748
61.925 15.836352
61.930 15.996945
61.935 16.079884
61.940 15.946965
61.945 15.739036
61.950 15.161185
61.955 14.972411
61.960 15.718972
61.965 16.106676
61.970 16.068073
61.975 16.241613
61.980 16.569546
61.985 16.859983
61.990 16.426685
61.995 15.398247
62.000 15.460626
62.005 15.604104
62.010 15.384651
62.015 14.890505
62.020 14.75034
62.025 15.002541
62.030 15.388577
62.035 15.111649
62.040 14.708493
62.045 14.771988
62.050 15.040489
62.055 14.970644
62.060 15.114277
62.065 14.977925
62.070 15.258637
62.075 16.254274
62.080 16.703003
62.085 17.02743
62.090 17.2479
62.095 17.483288
62.100 17.046013
62.105 16.953825
62.110 16.828442
62.115 16.540874
62.120 16.688879
62.125 17.076651
62.130 16.713825
62.135 17.409893
62.140 17.008015
62.145 16.308977
62.150 16.276947
62.155 16.203066
62.160 16.648169
62.165 17.561312
62.170 17.412239
62.175 17.532946
62.180 18.066376
62.185 18.88089
62.190 18.864649
62.195 17.936073
62.200 17.025494
62.205 17.014046
62.210 17.583021
62.215 17.085743
62.220 16.164333
62.225 16.005009
62.230 16.261051
62.235 16.314463
62.240 16.364748
62.245 15.756921
62.250 15.87026
62.255 16.152508
62.260 15.862155
62.265 16.088982
62.270 16.511818
62.275 16.341665
62.280 16.313089
62.285 16.169092
62.290 16.044119
62.295 15.892071
62.300 15.410552
62.305 15.197989
62.310 14.972417
62.315 14.846324
62.320 15.278943
62.325 15.331297
62.330 15.783765
62.335 16.101225
62.340 15.81782
62.345 16.286459
62.350 16.808203
62.355 16.563833
62.360 16.785261
62.365 16.947557
62.370 17.059074
62.375 17.525593
62.380 17.308716
62.385 16.619423
62.390 16.837637
62.395 17.024511
62.400 17.36442
62.405 17.468657
62.410 17.765532
62.415 18.03615
62.420 17.941982
62.425 17.629736
62.430 17.492319
62.435 17.433935
62.440 17.618711
62.445 17.738512
62.450 17.936285
62.455 18.708414
62.460 19.433641
62.465 19.403044
62.470 19.104361
62.475 18.78968
62.480 18.328192
62.485 18.297432
62.490 18.120562
62.495 17.974409
62.500 17.762409
62.505 17.157454
62.510 16.882782
62.515 17.08984
62.520 16.885185
62.525 16.772772
62.530 16.385965
62.535 16.00893
62.540 16.090481
62.545 15.816654
62.550 15.450955
62.555 15.542625
62.560 15.283561
62.565 15.290233
62.570 15.612479
62.575 15.634474
62.580 15.673694
62.585 15.562401
62.590 15.832561
62.595 15.65334
62.600 15.388393
62.605 15.135787
62.610 14.956876
62.615 14.855427
62.620 15.302153
62.625 14.847594
62.630 14.951006
62.635 15.305962
62.640 15.907717
62.645 16.553169
62.650 16.633064
62.655 15.935241
62.660 16.302916
62.665 16.54948
62.670 16.525732
62.675 16.350632
62.680 16.623365
62.685 17.268404
62.690 17.918732
62.695 17.959721
62.700 17.339834
62.705 17.045031
62.710 17.028593
62.715 16.544453
62.720 16.242123
62.725 15.936213
62.730 16.01643
62.735 16.634853
62.740 16.624901
62.745 16.474205
62.750 17.03298
62.755 17.323429
62.760 17.313139
62.765 16.701918
62.770 16.56715
62.775 16.124039
62.780 16.096766
62.785 15.887609
62.790 15.43259
62.795 15.347183
62.800 15.617268
62.805 15.603826
62.810 15.97979
62.815 16.080061
62.820 16.148222
62.825 15.924164
62.830 15.529194
62.835 15.349572
62.840 15.281499
62.845 15.122331
62.850 15.032204
62.855 14.978209
62.860 15.870012
62.865 16.375227
62.870 16.663433
62.875 16.993202
62.880 18.016562
62.885 18.161266
62.890 17.897591
62.895 17.460859
62.900 17.234339
62.905 16.988487
62.910 16.960842
62.915 16.244251
62.920 16.647881
62.925 16.582018
62.930 16.331137
62.935 16.349222
62.940 16.809134
62.945 16.995291
62.950 16.888966
62.955 16.343487
62.960 16.591408
62.965 16.986362
62.970 17.177797
62.975 17.389933
62.980 17.879469
62.985 18.293737
62.990 18.770794
62.995 18.601536
63.000 18.762238
63.005 18.935093
63.010 18.641346
63.015 17.699015
63.020 17.810875
63.025 17.448898
63.030 17.18647
63.035 16.7635
63.040 16.470608
63.045 16.260275
63.050 15.946943
63.055 15.370815
63.060 15.612997
63.065 16.055571
63.070 15.816877
63.075 15.916267
63.080 15.811425
63.085 15.567336
63.090 15.436466
63.095 15.227133
63.100 15.711198
63.105 16.250603
63.110 16.419439
63.115 17.526749
63.120 18.336462
63.125 18.918364
63.130 19.289703
63.135 19.017597
63.140 19.079323
63.145 18.371485
63.150 17.28285
63.155 17.34469
63.160 17.19734
63.165 16.665358
63.170 17.021421
63.175 17.156979
63.180 17.835087
63.185 18.234268
63.190 18.089872
63.195 18.226591
63.200 18.130991
63.205 17.62928
63.210 17.378164
63.215 17.188381
63.220 17.093111
63.225 16.9585
63.230 16.60037
63.235 16.871576
63.240 16.953325
63.245 17.13324
63.250 17.349047
63.255 17.068291
63.260 17.224092
63.265 17.298296
63.270 17.030926
63.275 17.064939
63.280 17.144341
63.285 17.622545
63.290 18.003811
63.295 18.323509
63.300 18.958767
63.305 19.187468
63.310 19.604355
63.315 19.923325
63.320 19.565445
63.325 19.173239
63.330 18.462051
63.335 18.090834
63.340 17.78945
63.345 16.659426
63.350 15.806911
63.355 15.415076
63.360 15.242023
63.365 15.555192
63.370 15.669888
63.375 15.867498
63.380 16.344101
63.385 16.823639
63.390 17.769968
63.395 17.860964
63.400 17.425186
63.405 17.2565
63.410 17.410835
63.415 17.133883
63.420 16.608582
63.425 15.584319
63.430 15.488971
63.435 15.718452
63.440 15.400837
63.445 15.582739
63.450 15.644994
63.455 15.917773
63.460 16.728472
63.465 17.27133
63.470 17.277895
63.475 17.386103
63.480 17.669922
63.485 18.063204
63.490 18.504028
63.495 18.656191
63.500 18.768684
63.505 19.353554
63.510 19.699589
63.515 19.264566
63.520 18.826357
63.525 18.287674
63.530 17.986164
63.535 18.346268
63.540 18.360617
63.545 18.323847
63.550 18.136255
63.555 18.932798
63.560 19.115438
63.565 19.22794
63.570 18.58054
63.575 18.420595
63.580 18.367424
63.585 18.558664
63.590 18.107044
63.595 18.445087
63.600 18.342531
63.605 17.918631
63.610 17.646784
63.615 17.391542
63.620 17.329035
63.625 17.420935
63.630 17.015995
63.635 16.979036
63.640 17.593084
63.645 17.897045
63.650 17.765411
63.655 17.541088
63.660 17.112141
63.665 17.332708
63.670 17.515358
63.675 17.320459
63.680 17.308495
63.685 17.69383
63.690 18.04747
63.695 18.025305
63.700 18.021059
63.705 17.886692
63.710 17.326878
63.715 16.978519
63.720 17.290619
63.725 17.382555
63.730 17.290867
63.735 17.328854
63.740 17.463978
63.745 17.698936
63.750 17.935452
63.755 17.57971
63.760 17.394732
63.765 17.720316
63.770 17.190546
63.775 17.169567
63.780 17.204014
63.785 17.150602
63.790 17.135777
63.795 17.294172
63.800 16.979708
63.805 17.107018
63.810 17.451706
63.815 17.45919
63.820 17.186207
63.825 17.32325
63.830 17.348951
63.835 17.516859
63.840 17.838409
63.845 17.637482
63.850 17.239815
63.855 16.951956
63.860 16.373461
63.865 16.648941
63.870 16.721724
63.875 16.468607
63.880 16.075821
63.885 17.07497
63.890 17.558134
63.895 17.751608
63.900 17.260639
63.905 16.875818
63.910 16.656399
63.915 16.781837
63.920 16.621019
63.925 16.615555
63.930 16.890091
63.935 17.156439
63.940 17.275103
63.945 17.814577
63.950 17.711197
63.955 17.710875
63.960 17.315166
63.965 16.567202
63.970 16.477329
63.975 16.416473
63.980 16.279455
63.985 17.113985
63.990 17.726061
63.995 18.578314
64.000 19.263081
64.005 19.332674
64.010 19.876951
64.015 20.687939
64.020 20.825636
64.025 20.060492
64.030 19.58672
64.035 19.743851
64.040 19.83968
64.045 19.665758
64.050 19.153019
64.055 18.70491
64.060 18.800797
64.065 19.30887
64.070 18.983923
64.075 18.732632
64.080 18.54163
64.085 18.01301
64.090 17.797897
64.095 17.616545
64.100 16.696438
64.105 16.739075
64.110 16.981039
64.115 16.590691
64.120 16.662716
64.125 16.865328
64.130 17.354956
64.135 18.167526
64.140 18.423912
64.145 18.799677
64.150 18.514313
64.155 17.869062
64.160 17.98691
64.165 18.354687
64.170 18.089994
64.175 17.652536
64.180 17.564005
64.185 17.951035
64.190 18.228271
64.195 17.845158
64.200 17.480257
64.205 17.272614
64.210 17.181549
64.215 17.1549
64.220 17.636843
64.225 17.990559
64.230 17.583323
64.235 17.408104
64.240 17.314737
64.245 16.925005
64.250 16.770857
64.255 16.433777
64.260 15.679854
64.265 15.998507
64.270 15.764225
64.275 15.708382
64.280 16.041557
64.285 16.405745
64.290 16.601486
64.295 17.009155
64.300 17.16745
64.305 17.573023
64.310 18.115042
64.315 18.54814
64.320 18.344591
64.325 18.407827
64.330 18.874388
64.335 18.421055
64.340 18.657164
64.345 18.839491
64.350 18.949469
64.355 19.095869
64.360 18.449944
64.365 18.283411
64.370 18.805176
64.375 18.305676
64.380 17.725447
64.385 17.93634
64.390 17.895796
64.395 18.499428
64.400 18.383623
64.405 18.323599
64.410 18.851738
64.415 18.781225
64.420 18.101091
64.425 17.928669
64.430 17.661879
64.435 17.811544
64.440 18.111383
64.445 17.740135
64.450 18.287727
64.455 18.256844
64.460 18.559679
64.465 18.377445
64.470 18.130857
64.475 18.166859
64.480 18.382307
64.485 17.819191
64.490 18.306587
64.495 18.997236
64.500 19.95694
64.505 20.316654
64.510 20.138197
64.515 20.01483
64.520 20.243439
64.525 19.71143
64.530 19.041084
64.535 18.165022
64.540 18.505547
64.545 19.225691
64.550 19.441786
64.555 19.524942
64.560 19.723783
64.565 19.852119
64.570 20.455193
64.575 20.137529
64.580 19.237566
64.585 19.090496
64.590 19.036417
64.595 18.762079
64.600 19.116676
64.605 18.972134
64.610 18.871489
64.615 19.324512
64.620 19.17864
64.625 18.937675
64.630 18.935228
64.635 18.432898
64.640 18.569611
64.645 18.527042
64.650 18.345226
64.655 18.164511
64.660 18.391901
64.665 18.816883
64.670 18.963383
64.675 18.774712
64.680 18.659197
64.685 18.838699
64.690 19.377407
64.695 19.510643
64.700 19.294291
64.705 19.235062
64.710 19.224831
64.715 19.301775
64.720 19.518669
64.725 19.669775
64.730 19.469717
64.735 19.607269
64.740 19.596706
64.745 19.979004
64.750 19.885775
64.755 19.280598
64.760 18.620758
64.765 18.254494
64.770 17.999289
64.775 18.103945
64.780 17.62126
64.785 17.838253
64.790 18.195301
64.795 18.564596
64.800 19.171064
64.805 19.314505
64.810 19.741173
64.815 20.327518
64.820 20.29701
64.825 20.369242
64.830 20.330603
64.835 20.561941
64.840 20.189863
64.845 19.355545
64.850 19.498625
64.855 19.461512
64.860 19.455784
64.865 19.091398
64.870 18.698215
64.875 18.636562
64.880 18.563414
64.885 18.02519
64.890 18.073605
64.895 18.001047
64.900 18.251247
64.905 18.449738
64.910 18.981346
64.915 18.998291
64.920 19.071207
64.925 18.785105
64.930 18.664276
64.935 18.989038
64.940 18.704056
64.945 18.767155
64.950 19.170641
64.955 19.186462
64.960 19.796627
64.965 20.145203
64.970 20.04785
64.975 20.426416
64.980 21.082842
64.985 22.029102
64.990 22.302601
64.995 22.146311
65.000 22.95577
65.005 23.880278
65.010 23.867435
65.015 23.439255
65.020 22.64842
65.025 23.165682
65.030 23.436672
65.035 23.187115
65.040 22.965021
65.045 22.535988
65.050 22.124207
65.055 22.185577
65.060 22.192186
65.065 22.018301
65.070 21.900297
65.075 21.993763
65.080 22.307178
65.085 22.706978
65.090 22.990166
65.095 22.46332
65.100 22.437824
65.105 22.551661
65.110 22.797293
65.115 23.222773
65.120 23.054943
65.125 23.160164
65.130 23.627329
65.135 24.017265
65.140 23.313597
65.145 22.85887
65.150 23.122749
65.155 22.855234
65.160 22.312843
65.165 22.490417
65.170 22.071959
65.175 22.665426
65.180 22.671286
65.185 22.099995
65.190 22.2813
65.195 22.560177
65.200 22.533895
65.205 22.569803
65.210 22.589279
65.215 22.963585
65.220 23.077993
65.225 23.523958
65.230 23.299208
65.235 23.249472
65.240 23.424826
65.245 22.942881
65.250 22.417238
65.255 22.640421
65.260 22.105909
65.265 22.678007
65.270 22.696112
65.275 22.530478
65.280 22.756136
65.285 22.782362
65.290 22.762121
65.295 22.815256
65.300 21.80657
65.305 21.853672
65.310 22.123213
65.315 22.117514
65.320 22.030005
65.325 21.755634
65.330 21.760881
65.335 22.304165
65.340 22.063852
65.345 21.829393
65.350 21.834492
65.355 22.209463
65.360 22.054441
65.365 21.963072
65.370 21.876204
65.375 21.956903
65.380 22.380579
65.385 21.618664
65.390 21.498743
65.395 22.229792
65.400 22.893925
65.405 22.708832
65.410 22.490669
65.415 22.228901
65.420 22.805515
65.425 22.902864
65.430 22.859255
65.435 23.427748
65.440 24.767586
65.445 24.969971
65.450 24.888653
65.455 25.007786
65.460 25.755245
65.465 25.903646
65.470 25.782564
65.475 25.640278
65.480 26.041414
65.485 26.153408
65.490 26.23889
65.495 25.842264
65.500 25.8487
65.505 25.756224
65.510 25.560452
65.515 26.2887
65.520 27.286692
65.525 27.618444
65.530 27.944141
65.535 27.824163
65.540 27.660624
65.545 27.573298
65.550 27.034946
65.555 26.594971
65.560 26.827688
65.565 26.552797
65.570 26.948
65.575 27.439501
65.580 27.737988
65.585 28.148815
65.590 28.958523
65.595 29.082411
65.600 30.360456
65.605 30.738619
65.610 30.786797
65.615 31.344425
65.620 31.523087
65.625 30.793285
65.630 31.014919
65.635 30.059725
65.640 30.55271
65.645 31.387758
65.650 31.711842
65.655 32.153343
65.660 32.385925
65.665 31.721569
65.670 31.454832
65.675 30.648376
65.680 29.648144
65.685 29.30162
65.690 28.606205
65.695 28.215006
65.700 28.868479
65.705 28.972996
65.710 28.944357
65.715 29.249039
65.720 30.370338
65.725 31.778305
65.730 32.555508
65.735 32.756298
65.740 33.101433
65.745 33.543621
65.750 34.373974
65.755 34.199593
65.760 34.533665
65.765 34.902073
65.770 35.265343
65.775 35.572567
65.780 35.240116
65.785 35.071323
65.790 35.809074
65.795 35.464165
65.800 35.45311
65.805 35.156441
65.810 35.062088
65.815 35.73988
65.820 35.320717
65.825 35.073456
65.830 35.886387
65.835 36.13559
65.840 36.755611
65.845 36.5439
65.850 36.956585
65.855 37.166248
65.860 37.210197
65.865 37.389843
65.870 37.56559
65.875 37.367947
65.880 37.678062
65.885 38.766769
65.890 39.622395
65.895 39.443901
65.900 39.533546
65.905 40.002934
65.910 39.880787
65.915 39.730785
65.920 39.190559
65.925 39.053074
65.930 38.033035
65.935 38.069855
65.940 38.3932
65.945 39.613861
65.950 39.351547
65.955 38.862202
65.960 38.62714
65.965 38.861816
65.970 38.508331
65.975 38.308636
65.980 37.875431
65.985 38.068943
65.990 37.318157
65.995 37.74966
66.000 37.680069
66.005 37.028877
66.010 35.462643
66.015 34.488033
66.020 34.746586
66.025 35.171131
66.030 34.821793
66.035 35.224297
66.040 35.475288
66.045 36.204967
66.050 37.028603
66.055 36.701786
66.060 36.104298
66.065 36.460705
66.070 36.144421
66.075 36.611084
66.080 36.794121
66.085 36.616455
66.090 37.1674
66.095 37.712631
66.100 37.234917
66.105 37.424385
66.110 37.580208
66.115 38.18034
66.120 38.737827
66.125 38.677132
66.130 38.398819
66.135 38.481861
66.140 38.144791
66.145 37.509594
66.150 36.748489
66.155 36.962185
66.160 37.468422
66.165 37.467712
66.170 37.314014
66.175 37.518761
66.180 37.684147
66.185 37.704128
66.190 37.232323
66.195 37.228344
66.200 38.074596
66.205 37.978642
66.210 37.599842
66.215 37.06739
66.220 36.390602
66.225 35.746883
66.230 35.395706
66.235 35.075706
66.240 35.36821
66.245 35.749256
66.250 35.929401
66.255 36.657871
66.260 36.616776
66.265 35.582069
66.270 34.271358
66.275 33.541054
66.280 32.877377
66.285 33.208794
66.290 33.347588
66.295 33.202614
66.300 34.299
66.305 34.906963
66.310 34.556095
66.315 33.882549
66.320 32.867622
66.325 31.719112
66.330 31.579428
66.335 31.548742
66.340 31.11764
66.345 31.144136
66.350 31.28681
66.355 30.826227
66.360 30.731634
66.365 29.926195
66.370 29.397539
66.375 29.363165
66.380 29.52977
66.385 29.899477
66.390 30.861732
66.395 31.623922
66.400 32.162395
66.405 31.669264
66.410 31.076893
66.415 31.421558
66.420 30.939575
66.425 30.315893
66.430 29.857134
66.435 29.951038
66.440 30.192688
66.445 30.326382
66.450 29.854033
66.455 29.34726
66.460 28.812372
66.465 28.823895
66.470 28.306488
66.475 28.170713
66.480 27.991068
66.485 26.924908
66.490 27.465368
66.495 27.555012
66.500 27.50206
66.505 27.643942
66.510 27.851418
66.515 27.384108
66.520 27.848297
66.525 27.300289
66.530 27.173124
66.535 26.592083
66.540 26.258116
66.545 25.889313
66.550 26.526608
66.555 26.717484
66.560 26.979795
66.565 26.41976
66.570 26.537653
66.575 26.33271
66.580 26.218098
66.585 26.426348
66.590 26.340158
66.595 26.153854
66.600 26.470407
66.605 26.314743
66.610 26.573141
66.615 25.934282
66.620 25.193232
66.625 24.940748
66.630 24.804211
66.635 24.639273
66.640 24.156565
66.645 24.049587
66.650 24.198023
66.655 24.245178
66.660 24.290621
66.665 24.015472
66.670 24.515764
66.675 24.654461
66.680 24.482801
66.685 24.568369
66.690 24.471848
66.695 24.372553
66.700 24.813328
66.705 24.704109
66.710 24.72998
66.715 25.159676
66.720 25.755245
66.725 25.786846
66.730 25.351427
66.735 25.138342
66.740 26.015297
66.745 26.552784
66.750 26.187689
66.755 25.945305
66.760 25.706055
66.765 26.603024
66.770 26.736258
66.775 26.224436
66.780 25.539988
66.785 25.316643
66.790 24.487171
66.795 24.095661
66.800 23.511261
66.805 23.477583
66.810 23.2215
66.815 23.726513
66.820 23.527605
66.825 24.014503
66.830 23.458132
66.835 22.871149
66.840 22.669125
66.845 22.434715
66.850 21.988491
66.855 21.842857
66.860 21.778549
66.865 22.073496
66.870 22.600071
66.875 23.245596
66.880 23.041037
66.885 23.268005
66.890 23.65291
66.895 24.050489
66.900 24.41584
66.905 23.878994
66.910 23.068384
66.915 22.913237
66.920 22.530027
66.925 22.267294
66.930 22.607544
66.935 22.748446
66.940 22.681009
66.945 22.229113
66.950 21.776615
66.955 21.70294
66.960 21.545473
66.965 21.13026
66.970 20.696089
66.975 20.782032
66.980 21.419706
66.985 22.18992
66.990 22.167494
66.995 21.540264
67.000 21.456179
67.005 21.967936
67.010 21.82686
67.015 21.794632
67.020 21.406361
67.025 21.644903
67.030 22.094267
67.035 21.531414
67.040 21.077703
67.045 21.371523
67.050 20.96953
67.055 20.952024
67.060 20.414839
67.065 20.418447
67.070 20.891254
67.075 21.436531
67.080 21.367825
67.085 21.443186
67.090 22.066238
67.095 22.394863
67.100 22.573277
67.105 22.362761
67.110 22.106199
67.115 21.915735
67.120 21.618694
67.125 21.27257
67.130 21.717701
67.135 22.04845
67.140 21.544056
67.145 21.086348
67.150 21.456932
67.155 22.063227
67.160 21.425625
67.165 20.633238
67.170 20.314388
67.175 20.674934
67.180 21.312702
67.185 21.332481
67.190 21.028675
67.195 21.183302
67.200 21.532618
67.205 21.759859
67.210 22.095556
67.215 21.976007
67.220 21.677126
67.225 21.244753
67.230 21.242659
67.235 21.310436
67.240 20.864326
67.245 20.227283
67.250 19.825661
67.255 20.082897
67.260 20.556087
67.265 20.143969
67.270 20.178167
67.275 20.381281
67.280 20.266018
67.285 20.310987
67.290 20.44347
67.295 20.493597
67.300 21.062229
67.305 20.382164
67.310 20.062586
67.315 20.306122
67.320 20.162489
67.325 19.905392
67.330 19.779606
67.335 19.669914
67.340 20.343708
67.345 20.117479
67.350 19.906919
67.355 19.979372
67.360 20.245161
67.365 20.427639
67.370 20.27614
67.375 20.501486
67.380 21.243395
67.385 21.470026
67.390 21.69772
67.395 21.905025
67.400 21.801231
67.405 21.785894
67.410 21.046513
67.415 20.317558
67.420 20.089193
67.425 19.459335
67.430 19.157141
67.435 19.102106
67.440 18.68959
67.445 19.21155
67.450 19.530186
67.455 19.895035
67.460 20.369253
67.465 20.007397
67.470 20.023838
67.475 20.671761
67.480 20.976927
67.485 21.774647
67.490 21.832132
67.495 21.600569
67.500 22.01895
67.505 22.507153
67.510 22.302401
67.515 22.083838
67.520 21.406961
67.525 21.018764
67.530 20.813337
67.535 20.477858
67.540 20.362549
67.545 20.475626
67.550 19.844833
67.555 19.892618
67.560 20.263958
67.565 20.668015
67.570 20.618876
67.575 20.404385
67.580 20.673048
67.585 21.057543
67.590 21.433153
67.595 21.369675
67.600 21.206402
67.605 21.488005
67.610 21.541424
67.615 21.558443
67.620 21.853252
67.625 21.57198
67.630 21.810074
67.635 21.885818
67.640 21.529114
67.645 21.187454
67.650 21.272825
67.655 21.265181
67.660 21.237547
67.665 21.335148
67.670 21.46703
67.675 21.97053
67.680 22.28187
67.685 22.345688
67.690 22.53866
67.695 22.558565
67.700 22.429693
67.705 22.954216
67.710 23.240957
67.715 23.291824
67.720 22.312649
67.725 21.789225
67.730 21.978584
67.735 21.121243
67.740 20.181973
67.745 19.307373
67.750 19.298948
67.755 20.001352
67.760 20.028913
67.765 20.344824
67.770 20.417585
67.775 21.131384
67.780 20.999266
67.785 20.47406
67.790 20.236835
67.795 19.993975
67.800 20.316622
67.805 20.331015
67.810 20.17168
67.815 20.59688
67.820 20.959385
67.825 20.905519
67.830 20.781332
67.835 20.017544
67.840 19.800987
67.845 19.306347
67.850 19.156389
67.855 19.305073
67.860 19.129799
67.865 18.882761
67.870 19.369932
67.875 19.506857
67.880 19.560822
67.885 19.457306
67.890 19.37645
67.895 20.111162
67.900 20.4384
67.905 20.569157
67.910 21.169962
67.915 21.465218
67.920 21.57995
67.925 21.177305
67.930 21.019371
67.935 20.638891
67.940 20.372654
67.945 20.033978
67.950 19.817318
67.955 19.957411
67.960 20.251087
67.965 20.531544
67.970 21.097052
67.975 21.189814
67.980 20.95437
67.985 21.119165
67.990 21.409483
67.995 21.745806
68.000 22.025915
68.005 21.971449
68.010 21.640024
68.015 22.032478
68.020 21.963428
68.025 21.635138
68.030 20.66741
68.035 20.079498
68.040 19.668484
68.045 19.983934
68.050 19.954172
68.055 19.922087
68.060 19.853689
68.065 20.28953
68.070 20.743752
68.075 21.483494
68.080 21.656288
68.085 21.817104
68.090 22.003355
68.095 21.966154
68.100 21.522287
68.105 20.904381
68.110 21.176796
68.115 21.089478
68.120 21.070187
68.125 20.755966
68.130 20.744974
68.135 20.282734
68.140 19.930502
68.145 19.029263
68.150 18.935219
68.155 18.431664
68.160 18.974703
68.165 19.145519
68.170 19.741697
68.175 19.549627
68.180 19.502487
68.185 19.294453
68.190 19.720316
68.195 18.835072
68.200 18.686991
68.205 18.785612
68.210 18.924389
68.215 19.536615
68.220 19.892029
68.225 20.087627
68.230 20.995489
68.235 21.381823
68.240 21.539764
68.245 21.908136
68.250 22.124613
68.255 22.098589
68.260 21.903215
68.265 21.395117
68.270 21.442381
68.275 20.865894
68.280 20.152065
68.285 19.615141
68.290 19.258236
68.295 19.678934
68.300 20.125309
68.305 20.30492
68.310 21.091467
68.315 21.619011
68.320 21.57435
68.325 21.750196
68.330 21.626411
68.335 21.419888
68.340 21.530909
68.345 21.37598
68.350 21.926828
68.355 21.95948
68.360 22.06658
68.365 21.948469
68.370 21.657061
68.375 21.364218
68.380 21.101194
68.385 20.743992
68.390 21.288282
68.395 21.328659
68.400 21.362917
68.405 21.308874
68.410 21.60339
68.415 21.809856
68.420 21.693146
68.425 21.583801
68.430 21.098093
68.435 20.782625
68.440 21.231558
68.445 21.66692
68.450 22.818802
68.455 22.283607
68.460 21.859463
68.465 21.825298
68.470 22.498486
68.475 21.868052
68.480 20.399876
68.485 19.991753
68.490 20.926987
68.495 21.199936
68.500 21.418625
68.505 21.37541
68.510 21.649284
68.515 21.899878
68.520 21.623241
68.525 21.702785
68.530 22.239958
68.535 22.363592
68.540 22.007826
68.545 22.113577
68.550 22.094164
68.555 21.609053
68.560 21.31016
68.565 20.791235
68.570 21.034164
68.575 21.203913
68.580 20.90531
68.585 20.59362
68.590 20.415503
68.595 19.991131
68.600 19.504419
68.605 19.113297
68.610 19.543715
68.615 20.285097
68.620 20.789396
68.625 20.934769
68.630 20.90254
68.635 21.271763
68.640 21.620237
68.645 21.242357
68.650 20.693588
68.655 21.285868
68.660 21.560429
68.665 21.768671
68.670 22.080254
68.675 21.755558
68.680 22.26001
68.685 22.546177
68.690 22.026901
68.695 21.690241
68.700 21.393559
68.705 21.384573
68.710 21.432272
68.715 21.076717
68.720 20.588764
68.725 19.931555
68.730 19.898159
68.735 19.985962
68.740 19.774338
68.745 19.613958
68.750 19.457304
68.755 20.002371
68.760 20.733339
68.765 21.134073
68.770 20.779089
68.775 19.840786
68.780 19.708241
68.785 19.93865
68.790 19.93939
68.795 19.885111
68.800 20.281698
68.805 20.725977
68.810 21.563698
68.815 21.707245
68.820 21.930666
68.825 22.118179
68.830 22.282457
68.835 22.482349
68.840 23.03371
68.845 23.149437
68.850 23.361534
68.855 23.544815
68.860 23.848677
68.865 24.30011
68.870 24.258827
68.875 24.370789
68.880 24.303295
68.885 23.815725
68.890 23.151785
68.895 22.723425
68.900 21.983152
68.905 21.521776
68.910 21.497816
68.915 21.393517
68.920 21.44459
68.925 21.428501
68.930 21.341391
68.935 21.539705
68.940 21.802221
68.945 21.769802
68.950 21.685444
68.955 22.562319
68.960 23.071005
68.965 23.070196
68.970 23.580048
68.975 23.016254
68.980 23.326643
68.985 23.536726
68.990 23.378647
68.995 23.718513
69.000 24.378239
69.005 24.611547
69.010 24.617323
69.015 24.491047
69.020 24.372192
69.025 24.748377
69.030 24.091944
69.035 23.161274
69.040 22.594604
69.045 22.854418
69.050 22.709694
69.055 22.757553
69.060 22.306986
69.065 23.133615
69.070 24.177385
69.075 24.414789
69.080 24.768482
69.085 24.055202
69.090 23.81889
69.095 23.936813
69.100 24.10708
69.105 24.517096
69.110 24.342674
69.115 25.061256
69.120 25.62981
69.125 25.803038
69.130 25.560812
69.135 25.321302
69.140 25.364727
69.145 25.766413
69.150 25.736252
69.155 26.034081
69.160 25.391878
69.165 25.249798
69.170 24.983112
69.175 24.68178
69.180 24.169222
69.185 24.366386
69.190 24.91728
69.195 25.793123
69.200 25.991074
69.205 25.765471
69.210 25.461485
69.215 25.52141
69.220 25.803965
69.225 25.595921
69.230 25.755493
69.235 25.663012
69.240 26.343893
69.245 27.202765
69.250 27.389521
69.255 27.153366
69.260 27.519501
69.265 27.477552
69.270 27.593821
69.275 27.402409
69.280 28.171717
69.285 28.247021
69.290 27.895718
69.295 27.700958
69.300 28.368748
69.305 29.279488
69.310 28.679264
69.315 27.437452
69.320 27.235285
69.325 28.182941
69.330 28.978373
69.335 28.547569
69.340 28.064417
69.345 28.379181
69.350 29.53713
69.355 29.801073
69.360 28.658129
69.365 27.877092
69.370 27.613203
69.375 27.869797
69.380 28.033686
69.385 27.821779
69.390 27.471712
69.395 27.444643
69.400 27.889757
69.405 28.562786
69.410 28.4319
69.415 27.759941
69.420 27.060072
69.425 26.897892
69.430 27.477386
69.435 27.666853
69.440 27.876284
69.445 28.537277
69.450 29.216726
69.455 29.578136
69.460 30.270817
69.465 30.30743
69.470 29.92424
69.475 29.505772
69.480 28.619232
69.485 28.847017
69.490 29.44018
69.495 29.422915
69.500 29.5387
69.505 29.735611
69.510 29.153873
69.515 29.492172
69.520 29.163576
69.525 28.958185
69.530 28.94305
69.535 28.048332
69.540 27.018345
69.545 27.619759
69.550 27.217703
69.555 26.399879
69.560 25.875311
69.565 25.452568
69.570 26.732042
69.575 27.132509
69.580 26.765287
69.585 26.980259
69.590 27.694349
69.595 27.934765
69.600 27.389742
69.605 26.937059
69.610 27.33288
69.615 27.91992
69.620 28.5196
69.625 28.359726
69.630 28.213543
69.635 28.837191
69.640 29.106436
69.645 28.886908
69.650 28.999809
69.655 28.526527
69.660 28.618614
69.665 28.512606
69.670 28.442688
69.675 28.422375
69.680 28.219852
69.685 27.982132
69.690 27.410456
69.695 26.913286
69.700 27.267479
69.705 27.146488
69.710 27.310789
69.715 27.458311
69.720 27.541634
69.725 27.711407
69.730 28.1826
69.735 27.919722
69.740 27.584133
69.745 27.271561
69.750 26.928051
69.755 26.95422
69.760 27.405161
69.765 27.264898
69.770 27.202515
69.775 26.943785
69.780 27.095425
69.785 27.056629
69.790 26.868011
69.795 26.788845
69.800 26.924202
69.805 26.803556
69.810 27.196363
69.815 26.898598
69.820 26.522598
69.825 26.097069
69.830 25.829941
69.835 25.559271
69.840 25.53545
69.845 25.092421
69.850 24.93519
69.855 25.074938
69.860 24.425505
69.865 24.21813
69.870 23.596933
69.875 23.69516
69.880 23.525549
69.885 23.665112
69.890 24.018009
69.895 23.844765
69.900 23.764658
69.905 23.874496
69.910 23.348919
69.915 23.193075
69.920 22.698936
69.925 22.264406
69.930 22.761011
69.935 22.954538
69.940 23.051188
69.945 23.182671
69.950 23.137754
69.955 23.428135
69.960 23.168997
69.965 22.918238
69.970 22.175898
69.975 21.780537
69.980 21.080559
69.985 21.096786
69.990 21.040724
69.995 20.879759
70.000 20.247545
70.005 19.574678
70.010 19.756428
70.015 19.943684
70.020 19.968822
70.025 20.499929
70.030 21.036751
70.035 21.859055
70.040 22.568396
70.045 23.235769
70.050 23.792437
70.055 23.45076
70.060 23.223263
70.065 22.789572
70.070 22.380016
70.075 22.147316
70.080 21.467587
70.085 21.517971
70.090 21.241396
70.095 21.241743
70.100 21.910954
70.105 21.981079
70.110 22.533867
70.115 22.052389
70.120 22.202982
70.125 22.367445
70.130 21.792547
70.135 21.656193
70.140 20.968395
70.145 20.640991
70.150 20.787485
70.155 19.996578
70.160 19.762186
70.165 19.699266
70.170 19.712851
70.175 20.588675
70.180 20.880671
70.185 21.57406
70.190 22.443975
70.195 22.557312
70.200 22.490709
70.205 22.208179
70.210 22.002861
70.215 21.32205
70.220 20.348103
70.225 19.629423
70.230 19.599752
70.235 19.35037
70.240 18.866545
70.245 18.948824
70.250 19.549629
70.255 19.88377
70.260 19.960587
70.265 19.827948
70.270 19.970968
70.275 20.623037
70.280 20.410822
70.285 19.986963
70.290 19.652311
70.295 19.718058
70.300 19.760401
70.305 19.659687
70.310 19.344311
70.315 19.218901
70.320 19.546968
70.325 19.892166
70.330 19.889559
70.335 20.235289
70.340 20.115902
70.345 20.536463
70.350 20.674948
70.355 20.724304
70.360 20.725752
70.365 21.56789
70.370 21.48564
70.375 21.510988
70.380 21.10335
70.385 20.547995
70.390 20.464632
70.395 20.045414
70.400 19.560852
70.405 19.276035
70.410 18.390757
70.415 17.992582
70.420 17.864475
70.425 17.523016
70.430 17.789169
70.435 17.895557
70.440 18.046965
70.445 18.204826
70.450 18.6854
70.455 19.376305
70.460 19.470091
70.465 19.887329
70.470 19.828773
70.475 20.570038
70.480 21.044415
70.485 21.528509
70.490 21.297798
70.495 20.9048
70.500 19.768417
70.505 19.489115
70.510 19.378447
70.515 19.905788
70.520 19.762569
70.525 19.943371
70.530 20.506519
70.535 20.80479
70.540 20.557316
70.545 19.604599
70.550 18.848433
70.555 18.634577
70.560 18.402712
70.565 18.403513
70.570 18.131907
70.575 18.193518
70.580 18.700695
70.585 18.576525
70.590 17.982716
70.595 17.498745
70.600 17.753361
70.605 18.6966
70.610 18.661573
70.615 18.582758
70.620 18.918297
70.625 19.723833
70.630 20.277908
70.635 19.740355
70.640 19.526394
70.645 20.155411
70.650 20.666271
70.655 20.631538
70.660 19.943027
70.665 19.082027
70.670 19.426531
70.675 18.96093
70.680 19.062214
70.685 18.762794
70.690 19.553877
70.695 20.508181
70.700 20.70487
70.705 20.51022
70.710 20.854073
70.715 20.18663
70.720 19.55603
70.725 19.064978
70.730 18.875923
70.735 19.124269
70.740 19.170393
70.745 18.680265
70.750 18.804815
70.755 19.062105
70.760 18.633671
70.765 18.402838
70.770 18.385506
70.775 18.242598
70.780 18.740341
70.785 18.850979
70.790 18.763113
70.795 18.898661
70.800 19.18395
70.805 19.686525
70.810 19.553308
70.815 19.149811
70.820 19.544308
70.825 19.57642
70.830 19.266041
70.835 19.091892
70.840 18.820154
70.845 19.006382
70.850 18.711575
70.855 18.02713
70.860 17.606575
70.865 17.817533
70.870 17.924717
70.875 17.638083
70.880 18.082844
70.885 18.535727
70.890 19.164015
70.895 19.97702
70.900 19.943634
70.905 19.91951
70.910 19.804028
70.915 19.173033
70.920 18.35037
70.925 17.847628
70.930 17.308002
70.935 17.026857
70.940 16.918629
70.945 16.897404
70.950 16.962776
70.955 17.372524
70.960 17.200258
70.965 17.259872
70.970 17.195488
70.975 17.745255
70.980 18.45479
70.985 18.785248
70.990 18.621113
70.995 18.737133
71.000 18.409737
71.005 18.238617
71.010 17.342054
71.015 17.11264
71.020 17.005836
71.025 17.546616
71.030 17.958641
71.035 18.694784
71.040 19.015387
71.045 19.432056
71.050 19.321045
71.055 19.667702
71.060 19.8661
71.065 19.436157
71.070 19.083647
71.075 18.946674
71.080 18.619728
71.085 18.496845
71.090 17.871334
71.095 17.958618
71.100 18.613697
71.105 18.810184
71.110 19.04867
71.115 19.849098
71.120 19.902878
71.125 19.829008
71.130 19.819244
71.135 19.499773
71.140 19.620249
71.145 19.135735
71.150 18.258043
71.155 17.720879
71.160 17.422186
71.165 17.437405
71.170 17.535194
71.175 17.919086
71.180 18.395962
71.185 18.969543
71.190 19.516832
71.195 19.468973
71.200 19.322399
71.205 19.762014
71.210 19.527002
71.215 19.509884
71.220 19.542963
71.225 19.436924
71.230 19.068974
71.235 18.978249
71.240 18.78286
71.245 18.792654
71.250 18.372997
71.255 18.029942
71.260 18.58433
71.265 19.426607
71.270 19.48658
71.275 19.509359
71.280 19.748146
71.285 20.084881
71.290 20.255323
71.295 20.115604
71.300 19.759081
71.305 19.521006
71.310 19.571739
71.315 19.604128
71.320 20.059525
71.325 19.890898
71.330 19.209749
71.335 18.344843
71.340 18.08621
71.345 17.682154
71.350 17.599588
71.355 17.454136
71.360 17.941177
71.365 18.277943
71.370 18.720182
71.375 18.619469
71.380 19.049393
71.385 19.041121
71.390 18.433237
71.395 18.282875
71.400 18.366701
71.405 18.499104
71.410 18.774448
71.415 18.4494
71.420 18.560312
71.425 18.638138
71.430 18.899235
71.435 18.850229
71.440 18.579042
71.445 18.497692
71.450 18.213055
71.455 18.402115
71.460 18.845068
71.465 18.811152
71.470 19.068792
71.475 18.795805
71.480 18.66293
71.485 18.780994
71.490 18.310026
71.495 17.612572
71.500 17.515053
71.505 17.431313
71.510 17.449947
71.515 17.690763
71.520 17.459705
71.525 17.540197
71.530 17.807724
71.535 17.914913
71.540 18.15888
71.545 18.423376
71.550 18.249411
71.555 18.816656
71.560 18.726484
71.565 18.958261
71.570 18.872181
71.575 18.721497
71.580 18.321184
71.585 18.314829
71.590 18.049597
71.595 18.520304
71.600 18.223694
71.605 18.410973
71.610 18.593016
71.615 18.717474
71.620 18.490026
71.625 18.618069
71.630 18.638111
71.635 18.758312
71.640 18.235312
71.645 18.118591
71.650 18.299532
71.655 18.488358
71.660 18.419315
71.665 18.198376
71.670 17.824299
71.675 18.370195
71.680 18.27351
71.685 18.057663
71.690 18.068943
71.695 18.005154
71.700 18.171526
71.705 18.439196
71.710 17.95763
71.715 18.044029
71.720 18.253138
71.725 17.985085
71.730 17.794651
71.735 17.63592
71.740 18.251307
71.745 18.970518
71.750 18.658808
71.755 18.488834
71.760 18.742714
71.765 19.204462
71.770 19.112505
71.775 18.674164
71.780 18.611002
71.785 18.942062
71.790 19.29089
71.795 18.886616
71.800 18.587908
71.805 19.128788
71.810 18.934103
71.815 18.388275
71.820 17.871353
71.825 17.961329
71.830 18.558483
71.835 18.751314
71.840 18.50104
71.845 18.794922
71.850 19.140915
71.855 19.550764
71.860 19.462179
71.865 18.933359
71.870 18.184652
71.875 18.582567
71.880 18.624451
71.885 18.769501
71.890 18.404547
71.895 17.809378
71.900 18.106194
71.905 18.316826
71.910 18.147984
71.915 18.340197
71.920 18.35745
71.925 18.205835
71.930 18.41246
71.935 17.737579
71.940 17.223328
71.945 16.817064
71.950 16.583241
71.955 16.81414
71.960 17.113836
71.965 16.982578
71.970 17.530378
71.975 17.993359
71.980 18.306768
71.985 18.315035
71.990 18.040958
71.995 18.488014
72.000 18.850245
72.005 18.764463
72.010 18.829531
72.015 18.286135
72.020 18.5751
72.025 18.656576
72.030 18.378817
72.035 17.95133
72.040 18.343674
72.045 18.154224
72.050 18.734135
72.055 18.182842
72.060 18.547016
72.065 18.733503
72.070 18.332396
72.075 18.00123
72.080 18.395655
72.085 18.268871
72.090 17.733141
72.095 16.842041
72.100 17.16033
72.105 17.667547
72.110 17.572895
72.115 17.362583
72.120 17.215706
72.125 17.730755
72.130 18.282959
72.135 18.425617
72.140 18.35457
72.145 17.901184
72.150 17.321596
72.155 17.811808
72.160 17.579504
72.165 17.647631
72.170 17.497662
72.175 17.537041
72.180 17.234686
72.185 16.961349
72.190 16.945734
72.195 17.672434
72.200 17.506409
72.205 17.797028
72.210 17.961876
72.215 18.273945
72.220 18.473366
72.225 18.361441
72.230 17.593245
72.235 17.292826
72.240 17.317675
72.245 17.29817
72.250 17.188774
72.255 17.571995
72.260 17.641273
72.265 17.844044
72.270 18.287327
72.275 18.450005
72.280 18.476517
72.285 18.460176
72.290 18.46291
72.295 18.416115
72.300 18.60767
72.305 18.694664
72.310 18.324915
72.315 19.090897
72.320 19.202442
72.325 18.500431
72.330 18.06377
72.335 17.7325
72.340 17.703699
72.345 18.042379
72.350 17.711037
72.355 18.094326
72.360 18.638834
72.365 19.600939
72.370 19.24758
72.375 19.103188
72.380 19.119558
72.385 19.289684
72.390 19.119858
72.395 18.855061
72.400 18.015745
72.405 18.198471
72.410 18.430708
72.415 18.192738
72.420 18.063265
72.425 17.761803
72.430 17.907509
72.435 18.028116
72.440 17.663019
72.445 17.590654
72.450 17.355568
72.455 16.790836
72.460 16.940794
72.465 16.503088
72.470 16.8328
72.475 16.667439
72.480 15.945868
72.485 15.865005
72.490 15.910706
72.495 15.745365
72.500 16.023596
72.505 15.86319
72.510 16.321318
72.515 17.200451
72.520 18.001427
72.525 17.984821
72.530 18.018759
72.535 17.92898
72.540 17.841639
72.545 17.762533
72.550 17.742188
72.555 18.23617
72.560 18.713051
72.565 18.718056
72.570 18.906631
72.575 19.572563
72.580 19.846472
72.585 19.599564
72.590 19.558382
72.595 19.753559
72.600 20.096098
72.605 19.999241
72.610 19.197811
72.615 19.340584
72.620 18.817083
72.625 17.940617
72.630 17.634966
72.635 17.218422
72.640 17.525108
72.645 17.322947
72.650 17.004276
72.655 17.218134
72.660 17.514488
72.665 17.610079
72.670 17.72542
72.675 17.239056
72.680 17.155285
72.685 16.949368
72.690 17.727407
72.695 17.629705
72.700 17.292439
72.705 17.449694
72.710 17.896154
72.715 17.62196
72.720 17.358149
72.725 16.854591
72.730 17.177471
72.735 17.028826
72.740 16.657791
72.745 16.828814
72.750 17.149904
72.755 17.025415
72.760 17.90247
72.765 18.018227
72.770 18.606039
72.775 18.828381
72.780 18.617897
72.785 18.534472
72.790 18.119665
72.795 17.335091
72.800 16.490446
72.805 16.314411
72.810 15.997474
72.815 16.328209
72.820 16.617586
72.825 16.781948
72.830 17.037329
72.835 17.986256
72.840 18.18915
72.845 17.896698
72.850 17.068451
72.855 16.92329
72.860 17.034801
72.865 17.325542
72.870 16.686859
72.875 16.124565
72.880 16.576502
72.885 16.874073
72.890 16.767214
72.895 16.753956
72.900 16.609737
72.905 17.165913
72.910 17.590801
72.915 17.685846
72.920 18.037561
72.925 17.868633
72.930 17.367329
72.935 16.806465
72.940 16.730841
72.945 17.00996
72.950 16.735899
72.955 16.263155
72.960 15.84146
72.965 16.144112
72.970 16.727934
72.975 16.658648
72.980 16.205914
72.985 16.301048
72.990 16.511641
72.995 17.000784
73.000 16.439043
