!@!!GADDS PLOTSO FILE: Chi integration type
!@!!Title/SampleName: map-d
!@!!Comment: ?
!@!!User: Bruker Instrument Administrator
!@!!Site: University of Illinois Chicago
!@!!Frame: map-d_01_000.gfrm
!@!!Wavelengths    1.54184   1.54056   1.54439
!@!!Frame angles: 2Theta: 63.000 Omega: 50.000 Phi: 0.000 Chi: 90.000
!@!!Integration range: 2Theta: 53.000 to 73.000  Gamma: -105.000 to -75.000
!@!!Integration method: bin normalized
!@!N
!@!SS
!@!M
!@!L 0.0 0.0 0.0 0.0
!@!XDegrees
!@!YCounts
53.000 7.286792
53.005 7.683763
53.010 7.368303
53.015 7.106352
53.020 7.348304
53.025 7.482013
53.030 7.510291
53.035 7.327476
53.040 7.209608
53.045 7.459284
53.050 7.491191
53.055 7.348638
53.060 6.975052
53.065 7.135964
53.070 7.512663
53.075 7.438096
53.080 7.352009
53.085 7.427503
53.090 7.57113
53.095 7.768362
53.100 7.482939
53.105 6.9814
53.110 6.981187
53.115 7.309233
53.120 7.497178
53.125 8.170483
53.130 8.496051
53.135 9.453092
53.140 10.065956
53.145 10.124111
53.150 9.934109
53.155 9.564979
53.160 9.296615
53.165 8.903883
53.170 7.946
53.175 7.561925
53.180 7.750439
53.185 7.91326
53.190 7.885225
53.195 7.660053
53.200 7.489467
53.205 7.601738
53.210 7.863544
53.215 7.790604
53.220 7.443645
53.225 7.560876
53.230 7.804635
53.235 7.908258
53.240 8.297794
53.245 8.27074
53.250 8.378358
53.255 8.704561
53.260 8.73832
53.265 8.766303
53.270 8.744356
53.275 8.672831
53.280 8.805782
53.285 8.778173
53.290 8.771804
53.295 8.703555
53.300 8.673743
53.305 8.644963
53.310 8.427964
53.315 8.05964
53.320 7.812305
53.325 7.514464
53.330 7.704427
53.335 7.710182
53.340 7.310635
53.345 7.285281
53.350 7.479439
53.355 7.518171
53.360 7.558511
53.365 7.617189
53.370 7.645681
53.375 7.951778
53.380 8.013523
53.385 7.950543
53.390 8.065298
53.395 8.103448
53.400 7.862401
53.405 8.054256
53.410 7.937979
53.415 8.027636
53.420 8.269586
53.425 7.823642
53.430 7.396382
53.435 7.353118
53.440 7.41912
53.445 7.395548
53.450 7.71687
53.455 8.015702
53.460 8.403192
53.465 8.730223
53.470 8.651829
53.475 8.490583
53.480 8.423891
53.485 7.930367
53.490 7.914954
53.495 7.85635
53.500 7.826912
53.505 8.362184
53.510 8.716116
53.515 8.993024
53.520 9.151835
53.525 9.261823
53.530 9.345478
53.535 8.897058
53.540 8.703594
53.545 8.552923
53.550 8.353672
53.555 8.106441
53.560 8.019818
53.565 8.197809
53.570 8.72172
53.575 8.703361
53.580 8.888658
53.585 8.946911
53.590 8.86126
53.595 8.601377
53.600 8.502435
53.605 8.600827
53.610 8.334312
53.615 8.246858
53.620 8.732648
53.625 9.308117
53.630 9.659964
53.635 9.503975
53.640 9.278513
53.645 9.363469
53.650 9.411684
53.655 8.674084
53.660 7.98516
53.665 8.182696
53.670 8.574698
53.675 8.614714
53.680 8.397165
53.685 8.569823
53.690 9.021268
53.695 9.136217
53.700 8.617654
53.705 8.198709
53.710 8.134553
53.715 8.012513
53.720 7.585505
53.725 7.742284
53.730 7.956409
53.735 8.101301
53.740 8.467251
53.745 8.511283
53.750 8.569247
53.755 8.497161
53.760 8.389288
53.765 8.762962
53.770 8.444316
53.775 8.044981
53.780 8.289258
53.785 8.29987
53.790 8.232112
53.795 8.107301
53.800 8.172538
53.805 8.549249
53.810 8.794195
53.815 8.806694
53.820 8.949873
53.825 9.227739
53.830 9.267747
53.835 9.338302
53.840 9.328417
53.845 9.227488
53.850 9.042122
53.855 9.061212
53.860 8.695258
53.865 8.208884
53.870 7.611455
53.875 7.602137
53.880 7.89277
53.885 8.074227
53.890 8.032475
53.895 8.586144
53.900 9.073394
53.905 9.904292
53.910 9.911226
53.915 9.877111
53.920 10.065042
53.925 10.10913
53.930 9.708351
53.935 9.269255
53.940 8.904155
53.945 8.671984
53.950 8.449606
53.955 8.456497
53.960 8.706265
53.965 9.618804
53.970 10.033401
53.975 10.497458
53.980 10.811096
53.985 10.581184
53.990 10.759641
53.995 9.810683
54.000 9.0308
54.005 8.644115
54.010 8.339679
54.015 8.349913
54.020 8.517314
54.025 8.236715
54.030 8.441385
54.035 8.657276
54.040 8.497118
54.045 8.324861
54.050 8.398646
54.055 8.624072
54.060 8.714467
54.065 8.529965
54.070 9.009828
54.075 9.165682
54.080 9.039178
54.085 8.910139
54.090 8.900064
54.095 9.407083
54.100 9.36059
54.105 8.938556
54.110 8.62431
54.115 8.679595
54.120 8.570988
54.125 8.544391
54.130 8.29194
54.135 8.567506
54.140 8.953748
54.145 9.160436
54.150 9.022736
54.155 8.71447
54.160 8.963799
54.165 9.228154
54.170 8.976954
54.175 8.831368
54.180 9.113331
54.185 9.509504
54.190 9.572357
54.195 9.746465
54.200 10.104734
54.205 10.136144
54.210 10.082077
54.215 9.710203
54.220 9.664325
54.225 10.035082
54.230 10.043801
54.235 10.334579
54.240 10.251582
54.245 10.854222
54.250 11.277812
54.255 11.249089
54.260 10.740332
54.265 10.092996
54.270 10.220453
54.275 10.495644
54.280 10.102479
54.285 10.243107
54.290 10.348688
54.295 10.584369
54.300 10.813591
54.305 10.830207
54.310 10.636603
54.315 10.69672
54.320 10.628144
54.325 10.670527
54.330 10.520029
54.335 10.183515
54.340 9.949144
54.345 10.011891
54.350 10.146416
54.355 10.259648
54.360 10.826153
54.365 10.864021
54.370 10.805945
54.375 10.63246
54.380 10.376559
54.385 10.162212
54.390 10.082954
54.395 9.525998
54.400 9.208278
54.405 9.016578
54.410 8.829681
54.415 8.940011
54.420 8.459
54.425 8.183249
54.430 8.431974
54.435 8.832767
54.440 8.914222
54.445 9.006526
54.450 9.157776
54.455 9.169097
54.460 9.104549
54.465 9.044587
54.470 9.121348
54.475 9.280629
54.480 9.181442
54.485 9.035961
54.490 9.301733
54.495 9.12958
54.500 9.075104
54.505 9.288568
54.510 9.270612
54.515 9.675436
54.520 10.095362
54.525 9.976501
54.530 9.913068
54.535 9.887286
54.540 9.612764
54.545 9.502695
54.550 9.420547
54.555 9.272437
54.560 9.747191
54.565 10.1017
54.570 10.030126
54.575 10.09299
54.580 9.926915
54.585 10.244649
54.590 10.016075
54.595 9.907023
54.600 10.056759
54.605 9.815926
54.610 9.764383
54.615 9.277472
54.620 9.018132
54.625 8.849787
54.630 8.581758
54.635 8.413139
54.640 9.026002
54.645 9.472359
54.650 9.890076
54.655 10.122544
54.660 10.361801
54.665 10.380395
54.670 10.284144
54.675 10.079078
54.680 9.923445
54.685 9.764874
54.690 9.522464
54.695 9.278502
54.700 9.224476
54.705 9.147154
54.710 8.805394
54.715 9.313382
54.720 9.529331
54.725 10.00786
54.730 9.857335
54.735 9.955529
54.740 10.182776
54.745 10.486774
54.750 9.932597
54.755 9.786688
54.760 9.416658
54.765 9.781059
54.770 9.647215
54.775 9.701328
54.780 9.797002
54.785 10.052522
54.790 10.591332
54.795 10.613632
54.800 10.640895
54.805 10.829576
54.810 10.67165
54.815 10.661821
54.820 10.588371
54.825 10.237327
54.830 10.368708
54.835 10.407319
54.840 10.429732
54.845 10.576969
54.850 11.223993
54.855 11.092537
54.860 10.879277
54.865 10.655762
54.870 10.48784
54.875 10.491186
54.880 10.598775
54.885 9.80688
54.890 9.510802
54.895 9.971736
54.900 10.281212
54.905 10.014297
54.910 9.539486
54.915 9.341472
54.920 9.526
54.925 9.885938
54.930 9.958556
54.935 9.967778
54.940 10.154426
54.945 10.453572
54.950 10.758444
54.955 10.873713
54.960 10.331779
54.965 10.124738
54.970 10.154067
54.975 10.177953
54.980 9.794226
54.985 9.019082
54.990 8.961993
54.995 9.130941
55.000 8.978059
55.005 8.983037
55.010 9.511901
55.015 9.88911
55.020 10.749475
55.025 11.318239
55.030 11.673967
55.035 11.681855
55.040 11.333725
55.045 10.924414
55.050 10.869534
55.055 10.037997
55.060 9.417981
55.065 9.524249
55.070 10.156761
55.075 10.509272
55.080 10.40175
55.085 10.64745
55.090 10.37099
55.095 10.777972
55.100 10.074684
55.105 9.694828
55.110 9.825431
55.115 10.025359
55.120 9.958888
55.125 10.375982
55.130 10.709674
55.135 11.161679
55.140 11.310497
55.145 11.285426
55.150 11.40455
55.155 11.645135
55.160 11.517323
55.165 11.037629
55.170 10.863539
55.175 11.181652
55.180 11.141226
55.185 11.176289
55.190 11.225124
55.195 11.285697
55.200 11.486886
55.205 11.486431
55.210 11.079093
55.215 11.076138
55.220 11.124109
55.225 10.957489
55.230 11.112163
55.235 10.76458
55.240 10.415064
55.245 10.45226
55.250 10.354554
55.255 10.088938
55.260 10.302555
55.265 10.487917
55.270 11.213852
55.275 11.729939
55.280 11.934705
55.285 11.491277
55.290 11.629216
55.295 11.869965
55.300 11.423486
55.305 11.317413
55.310 11.149708
55.315 11.527882
55.320 12.114449
55.325 11.992465
55.330 11.527444
55.335 11.895935
55.340 11.666185
55.345 11.320759
55.350 11.193525
55.355 11.185618
55.360 10.772174
55.365 10.443955
55.370 9.98248
55.375 9.952065
55.380 10.133831
55.385 9.694904
55.390 9.656401
55.395 9.691115
55.400 10.04155
55.405 10.569288
55.410 10.831482
55.415 10.86433
55.420 10.867319
55.425 11.206851
55.430 11.482433
55.435 11.258635
55.440 11.007292
55.445 11.063577
55.450 11.618407
55.455 11.865154
55.460 12.041478
55.465 12.113085
55.470 12.443019
55.475 12.981823
55.480 12.53096
55.485 12.153946
55.490 11.703856
55.495 11.715572
55.500 11.826538
55.505 11.473295
55.510 11.154413
55.515 11.379285
55.520 11.117197
55.525 11.34083
55.530 10.773667
55.535 10.628177
55.540 10.536347
55.545 10.48177
55.550 10.659189
55.555 10.59509
55.560 10.613701
55.565 11.067734
55.570 10.841607
55.575 11.330958
55.580 11.506326
55.585 11.867001
55.590 12.120026
55.595 11.698155
55.600 11.651764
55.605 11.698585
55.610 11.546009
55.615 10.84332
55.620 10.189528
55.625 10.001759
55.630 10.305616
55.635 10.372945
55.640 10.35519
55.645 10.292898
55.650 10.721563
55.655 10.749036
55.660 10.899391
55.665 10.380432
55.670 10.083018
55.675 10.215615
55.680 10.155976
55.685 10.227562
55.690 10.424417
55.695 10.667541
55.700 11.156671
55.705 11.528219
55.710 11.554609
55.715 11.331242
55.720 11.452515
55.725 11.43548
55.730 11.373124
55.735 11.28091
55.740 11.201426
55.745 11.060122
55.750 11.379506
55.755 10.993259
55.760 10.86027
55.765 10.849469
55.770 10.919617
55.775 10.788803
55.780 10.878902
55.785 10.870328
55.790 11.396441
55.795 11.65414
55.800 11.413255
55.805 11.542107
55.810 11.596337
55.815 11.74368
55.820 11.601993
55.825 11.358339
55.830 11.352048
55.835 12.074388
55.840 12.11983
55.845 12.330374
55.850 12.423823
55.855 12.377339
55.860 12.285857
55.865 12.169719
55.870 12.105416
55.875 12.153815
55.880 11.471517
55.885 11.102327
55.890 11.129989
55.895 11.023033
55.900 10.814857
55.905 10.193807
55.910 10.533371
55.915 10.856661
55.920 11.267566
55.925 11.089586
55.930 11.154388
55.935 11.304667
55.940 11.949193
55.945 11.967339
55.950 12.312722
55.955 12.13111
55.960 11.984202
55.965 11.924445
55.970 11.55253
55.975 11.180734
55.980 10.632697
55.985 10.425328
55.990 10.336161
55.995 10.60497
56.000 10.435328
56.005 10.421707
56.010 10.53427
56.015 11.115706
56.020 11.358011
56.025 11.152995
56.030 11.197284
56.035 11.195713
56.040 10.93649
56.045 11.339993
56.050 10.915855
56.055 10.678715
56.060 10.791626
56.065 10.866727
56.070 10.998531
56.075 10.308431
56.080 9.573792
56.085 9.91894
56.090 10.797315
56.095 11.39153
56.100 11.398369
56.105 12.031811
56.110 12.680239
56.115 12.840868
56.120 12.398682
56.125 11.669019
56.130 11.476845
56.135 11.449153
56.140 11.278012
56.145 11.528092
56.150 11.827697
56.155 12.648355
56.160 12.722727
56.165 12.648961
56.170 12.953992
56.175 12.761868
56.180 12.388967
56.185 11.997119
56.190 11.310789
56.195 10.832063
56.200 10.466063
56.205 10.543043
56.210 10.972667
56.215 11.405565
56.220 11.559186
56.225 12.488557
56.230 13.271093
56.235 13.500919
56.240 13.20495
56.245 12.371913
56.250 12.415903
56.255 12.408667
56.260 11.509025
56.265 11.082975
56.270 10.479973
56.275 10.646495
56.280 10.891521
56.285 10.849328
56.290 10.854029
56.295 11.337655
56.300 11.511696
56.305 11.560313
56.310 11.415758
56.315 11.559055
56.320 11.952725
56.325 11.766198
56.330 11.320615
56.335 11.498015
56.340 11.658422
56.345 11.912791
56.350 11.520366
56.355 10.541663
56.360 10.776172
56.365 11.332938
56.370 11.413228
56.375 11.435076
56.380 10.953526
56.385 11.677236
56.390 12.203447
56.395 12.069869
56.400 11.882868
56.405 11.738894
56.410 12.24965
56.415 12.725477
56.420 12.800087
56.425 12.98643
56.430 13.0474
56.435 13.292651
56.440 13.174897
56.445 12.397165
56.450 12.02656
56.455 11.821135
56.460 12.006719
56.465 12.01556
56.470 11.931971
56.475 12.357889
56.480 12.861123
56.485 13.140041
56.490 13.133606
56.495 13.02056
56.500 12.688383
56.505 12.230689
56.510 12.255929
56.515 11.903153
56.520 11.678741
56.525 11.258165
56.530 11.075022
56.535 11.512833
56.540 11.378035
56.545 11.081139
56.550 11.104143
56.555 11.357594
56.560 11.743681
56.565 11.895578
56.570 11.865218
56.575 11.942539
56.580 12.102454
56.585 12.259053
56.590 11.874231
56.595 11.430335
56.600 11.222283
56.605 11.371776
56.610 11.835132
56.615 11.952787
56.620 12.082024
56.625 12.1773
56.630 12.219645
56.635 12.374574
56.640 11.9145
56.645 11.705009
56.650 11.424029
56.655 11.533493
56.660 11.77198
56.665 11.943514
56.670 11.899263
56.675 11.692887
56.680 12.220436
56.685 12.36864
56.690 12.42377
56.695 12.740092
56.700 12.905794
56.705 12.860955
56.710 12.975469
56.715 12.551506
56.720 12.31815
56.725 11.814735
56.730 11.598687
56.735 11.778769
56.740 11.910015
56.745 12.17972
56.750 12.324645
56.755 12.882564
56.760 13.381666
56.765 13.460328
56.770 13.002079
56.775 12.782975
56.780 13.068954
56.785 13.075467
56.790 12.937477
56.795 12.465119
56.800 12.206218
56.805 12.248425
56.810 11.982302
56.815 11.799053
56.820 11.793824
56.825 12.220389
56.830 12.137196
56.835 12.277144
56.840 13.052945
56.845 13.583372
56.850 13.259782
56.855 12.954678
56.860 12.549814
56.865 12.919271
56.870 12.716269
56.875 12.323271
56.880 11.97476
56.885 12.487824
56.890 12.54848
56.895 12.372963
56.900 12.466185
56.905 12.494692
56.910 12.808384
56.915 13.156038
56.920 12.676668
56.925 12.84083
56.930 13.399083
56.935 13.479904
56.940 13.581061
56.945 13.588978
56.950 13.459224
56.955 13.429026
56.960 13.181517
56.965 12.642593
56.970 12.454917
56.975 12.25035
56.980 11.884933
56.985 11.714229
56.990 12.206444
56.995 12.359927
57.000 12.916245
57.005 12.985079
57.010 13.135191
57.015 13.461464
57.020 13.369987
57.025 13.060099
57.030 13.019148
57.035 12.71968
57.040 12.888912
57.045 12.833708
57.050 12.982032
57.055 13.022336
57.060 12.80098
57.065 12.867551
57.070 12.713878
57.075 12.574243
57.080 12.216329
57.085 12.215598
57.090 12.446446
57.095 12.418074
57.100 12.344253
57.105 12.426778
57.110 12.562367
57.115 12.466226
57.120 12.134162
57.125 12.28443
57.130 12.594383
57.135 12.895752
57.140 13.0027
57.145 13.084228
57.150 13.181486
57.155 12.921337
57.160 13.002074
57.165 12.348464
57.170 12.084025
57.175 11.752753
57.180 12.265032
57.185 12.664987
57.190 12.755198
57.195 12.847094
57.200 13.572987
57.205 13.984776
57.210 14.52199
57.215 14.250179
57.220 14.263291
57.225 14.568611
57.230 14.779028
57.235 14.515003
57.240 14.289747
57.245 14.160845
57.250 13.869158
57.255 13.847188
57.260 13.767294
57.265 13.312881
57.270 13.013254
57.275 12.636061
57.280 12.624226
57.285 12.921654
57.290 12.936066
57.295 12.768622
57.300 12.986541
57.305 13.074055
57.310 13.069931
57.315 12.780506
57.320 12.227312
57.325 12.111521
57.330 11.988281
57.335 11.59986
57.340 11.916025
57.345 12.11108
57.350 13.304691
57.355 13.373601
57.360 13.054609
57.365 13.214364
57.370 13.61445
57.375 14.144624
57.380 14.064064
57.385 12.992494
57.390 13.617835
57.395 14.093263
57.400 14.09983
57.405 14.047749
57.410 13.679452
57.415 13.693418
57.420 13.851788
57.425 13.859526
57.430 14.13405
57.435 14.146659
57.440 13.843651
57.445 13.819827
57.450 13.814473
57.455 13.863109
57.460 13.46818
57.465 13.793813
57.470 13.742539
57.475 13.730065
57.480 13.569897
57.485 13.553943
57.490 13.532486
57.495 13.938532
57.500 14.00682
57.505 14.305672
57.510 14.650559
57.515 14.529006
57.520 14.511432
57.525 14.283303
57.530 13.343721
57.535 13.015761
57.540 12.533013
57.545 12.384417
57.550 12.718854
57.555 12.624093
57.560 13.427126
57.565 13.846611
57.570 13.721527
57.575 13.743413
57.580 13.713222
57.585 14.037338
57.590 13.729027
57.595 13.056511
57.600 12.994218
57.605 12.68542
57.610 12.836232
57.615 12.726557
57.620 12.839468
57.625 13.343217
57.630 13.803399
57.635 14.214784
57.640 14.419875
57.645 14.21632
57.650 14.269538
57.655 13.937448
57.660 14.171976
57.665 13.983637
57.670 13.83629
57.675 14.188051
57.680 14.32023
57.685 14.351683
57.690 14.321586
57.695 13.548133
57.700 13.579148
57.705 13.132465
57.710 13.009027
57.715 13.211439
57.720 13.329127
57.725 13.370214
57.730 13.263862
57.735 12.794892
57.740 12.669549
57.745 12.49587
57.750 12.245404
57.755 11.97931
57.760 12.242961
57.765 13.010344
57.770 13.708713
57.775 14.050853
57.780 14.569148
57.785 15.060231
57.790 14.842624
57.795 14.686198
57.800 13.799906
57.805 13.702806
57.810 13.598273
57.815 12.933102
57.820 12.802231
57.825 12.582335
57.830 12.555932
57.835 12.946531
57.840 12.642287
57.845 12.645487
57.850 13.208747
57.855 13.855386
57.860 14.258123
57.865 14.152528
57.870 14.534697
57.875 14.983336
57.880 15.152282
57.885 15.219485
57.890 14.742335
57.895 14.496574
57.900 14.250825
57.905 13.927664
57.910 14.125928
57.915 14.486828
57.920 13.943716
57.925 13.840972
57.930 14.080892
57.935 14.190376
57.940 14.070652
57.945 13.532938
57.950 13.154719
57.955 13.195942
57.960 13.134942
57.965 13.411816
57.970 13.432728
57.975 13.650587
57.980 14.216784
57.985 14.640201
57.990 14.391372
57.995 14.024814
58.000 14.124863
58.005 14.1658
58.010 13.795851
58.015 13.040023
58.020 12.501775
58.025 12.956417
58.030 13.723141
58.035 13.81969
58.040 13.949634
58.045 13.991089
58.050 14.22323
58.055 13.917902
58.060 13.892303
58.065 13.304587
58.070 13.366202
58.075 13.352801
58.080 13.515739
58.085 13.446286
58.090 13.633602
58.095 13.793894
58.100 13.86502
58.105 13.552095
58.110 13.351304
58.115 13.532922
58.120 13.888932
58.125 13.52207
58.130 13.541718
58.135 13.313293
58.140 13.784123
58.145 14.304903
58.150 14.363379
58.155 14.427731
58.160 14.156749
58.165 14.258384
58.170 14.46979
58.175 14.224871
58.180 13.997169
58.185 13.724199
58.190 13.691057
58.195 13.879832
58.200 13.802667
58.205 13.857626
58.210 13.44758
58.215 13.685019
58.220 14.003779
58.225 14.042055
58.230 14.117828
58.235 13.828279
58.240 13.602222
58.245 13.837645
58.250 13.282849
58.255 13.184723
58.260 13.384945
58.265 13.23234
58.270 13.111304
58.275 13.279354
58.280 13.420786
58.285 14.166675
58.290 14.244352
58.295 14.231294
58.300 14.242727
58.305 14.450203
58.310 14.42289
58.315 14.4265
58.320 13.937779
58.325 14.108552
58.330 14.203513
58.335 14.629901
58.340 14.67671
58.345 14.698268
58.350 14.765556
58.355 14.820906
58.360 14.281322
58.365 14.328524
58.370 13.939151
58.375 14.245182
58.380 14.255552
58.385 14.162396
58.390 14.098969
58.395 14.240368
58.400 14.155554
58.405 14.015627
58.410 13.702464
58.415 13.633183
58.420 13.449075
58.425 13.843904
58.430 14.132449
58.435 14.772175
58.440 15.585776
58.445 15.794123
58.450 15.865202
58.455 16.147984
58.460 16.100439
58.465 15.964989
58.470 16.03245
58.475 15.98631
58.480 15.88844
58.485 15.994263
58.490 16.384203
58.495 16.657412
58.500 16.148643
58.505 15.408884
58.510 15.076275
58.515 15.25736
58.520 14.73169
58.525 14.056699
58.530 13.689193
58.535 13.712022
58.540 13.539476
58.545 13.227874
58.550 13.235248
58.555 13.343993
58.560 12.974244
58.565 13.067007
58.570 13.539647
58.575 13.799257
58.580 13.78432
58.585 13.791857
58.590 14.367384
58.595 15.021888
58.600 14.472493
58.605 14.063659
58.610 14.63961
58.615 14.91922
58.620 15.231705
58.625 15.450728
58.630 15.768737
58.635 16.661957
58.640 16.926065
58.645 16.397818
58.650 16.342909
58.655 15.991424
58.660 15.247489
58.665 14.492303
58.670 13.826035
58.675 14.097356
58.680 14.34207
58.685 14.060521
58.690 14.08591
58.695 14.998278
58.700 15.718937
58.705 15.893827
58.710 15.067985
58.715 14.756663
58.720 14.905167
58.725 15.029285
58.730 14.701101
58.735 14.591787
58.740 14.769478
58.745 15.530577
58.750 16.062656
58.755 16.291229
58.760 16.238333
58.765 15.514206
58.770 15.723208
58.775 15.681907
58.780 15.655571
58.785 15.475644
58.790 15.044901
58.795 15.158248
58.800 15.219825
58.805 14.867228
58.810 14.915532
58.815 14.867518
58.820 15.109487
58.825 15.072566
58.830 14.830768
58.835 14.8128
58.840 14.788218
58.845 15.009793
58.850 14.503134
58.855 14.582335
58.860 14.422561
58.865 14.135039
58.870 14.224848
58.875 14.508927
58.880 14.738374
58.885 14.879188
58.890 14.754465
58.895 14.77065
58.900 15.367032
58.905 15.555899
58.910 14.635657
58.915 14.379737
58.920 14.080717
58.925 14.073664
58.930 14.638498
58.935 14.658505
58.940 14.833003
58.945 14.69909
58.950 14.741572
58.955 14.773932
58.960 14.736017
58.965 14.790027
58.970 14.323729
58.975 14.393724
58.980 14.858879
58.985 14.675139
58.990 14.949712
58.995 14.968423
59.000 14.830063
59.005 15.009862
59.010 15.023882
59.015 15.230962
59.020 15.39963
59.025 15.483515
59.030 15.481008
59.035 15.112395
59.040 15.097041
59.045 14.992856
59.050 14.636061
59.055 15.441753
59.060 15.601167
59.065 15.802712
59.070 16.51733
59.075 16.845627
59.080 16.67757
59.085 16.451643
59.090 15.775385
59.095 15.674016
59.100 15.775596
59.105 15.547379
59.110 14.926069
59.115 15.444507
59.120 15.640285
59.125 15.58609
59.130 15.599933
59.135 15.276264
59.140 15.057528
59.145 15.172052
59.150 14.929572
59.155 15.256843
59.160 15.17153
59.165 15.339268
59.170 15.630165
59.175 15.8729
59.180 16.584503
59.185 16.581028
59.190 16.792469
59.195 17.029709
59.200 16.97043
59.205 16.7866
59.210 16.893354
59.215 16.41139
59.220 16.246807
59.225 15.804828
59.230 15.808848
59.235 15.594507
59.240 15.587948
59.245 15.426489
59.250 15.043444
59.255 14.804646
59.260 14.61806
59.265 14.743043
59.270 15.185093
59.275 15.581296
59.280 15.845616
59.285 16.521919
59.290 16.919394
59.295 17.172091
59.300 17.097597
59.305 16.75292
59.310 16.656521
59.315 16.510956
59.320 16.506786
59.325 16.770144
59.330 16.981684
59.335 16.751762
59.340 16.553669
59.345 16.593796
59.350 16.77379
59.355 17.158228
59.360 16.970272
59.365 16.765381
59.370 17.002607
59.375 17.051115
59.380 16.713139
59.385 16.79133
59.390 16.805599
59.395 16.77816
59.400 16.992306
59.405 16.64822
59.410 16.731833
59.415 17.186192
59.420 17.035839
59.425 16.459841
59.430 17.318184
59.435 17.220417
59.440 17.543634
59.445 17.401049
59.450 16.943838
59.455 17.054825
59.460 17.419266
59.465 16.602465
59.470 16.386763
59.475 16.1793
59.480 16.42952
59.485 16.719099
59.490 16.926188
59.495 16.567797
59.500 16.92647
59.505 17.619083
59.510 17.879375
59.515 17.815756
59.520 18.122395
59.525 18.168612
59.530 18.523081
59.535 18.040453
59.540 17.410769
59.545 17.579069
59.550 17.429062
59.555 17.538937
59.560 17.29023
59.565 17.210594
59.570 17.6553
59.575 17.981791
59.580 17.809124
59.585 17.284773
59.590 17.022354
59.595 17.228445
59.600 17.534943
59.605 17.326979
59.610 17.992151
59.615 17.910915
59.620 17.560564
59.625 17.140736
59.630 17.498089
59.635 17.16321
59.640 17.386656
59.645 16.987114
59.650 17.355423
59.655 17.807941
59.660 18.009506
59.665 17.845459
59.670 17.821249
59.675 17.87697
59.680 18.199106
59.685 18.53286
59.690 19.232164
59.695 19.836885
59.700 19.766584
59.705 19.958292
59.710 19.530279
59.715 19.453323
59.720 19.706062
59.725 19.152054
59.730 18.566662
59.735 19.07226
59.740 18.957651
59.745 19.461704
59.750 19.851723
59.755 19.884285
59.760 20.368196
59.765 20.651804
59.770 20.211578
59.775 21.150921
59.780 21.749649
59.785 21.690409
59.790 21.459286
59.795 21.212944
59.800 21.355268
59.805 21.712917
59.810 21.416523
59.815 21.57855
59.820 21.499498
59.825 22.123947
59.830 22.849302
59.835 23.047764
59.840 23.055815
59.845 22.411442
59.850 21.568365
59.855 21.470934
59.860 21.648043
59.865 21.09351
59.870 20.560631
59.875 20.236231
59.880 20.592709
59.885 20.138224
59.890 19.486929
59.895 18.466438
59.900 18.27809
59.905 18.328848
59.910 18.992336
59.915 19.120131
59.920 19.833595
59.925 19.818136
59.930 20.105125
59.935 21.600866
59.940 22.254396
59.945 21.881445
59.950 21.813164
59.955 21.454102
59.960 22.014204
59.965 22.034929
59.970 21.215605
59.975 20.921663
59.980 21.315859
59.985 20.915016
59.990 20.950701
59.995 21.203861
60.000 21.060755
60.005 20.985401
60.010 20.914396
60.015 20.476555
60.020 21.033743
60.025 21.010351
60.030 20.808662
60.035 20.937397
60.040 21.302582
60.045 21.718328
60.050 21.757744
60.055 22.056726
60.060 22.349985
60.065 22.762669
60.070 22.812176
60.075 22.773745
60.080 22.504194
60.085 23.050045
60.090 22.818277
60.095 22.141781
60.100 21.976603
60.105 22.104586
60.110 21.59256
60.115 21.876049
60.120 22.283165
60.125 22.882839
60.130 23.661762
60.135 23.446255
60.140 22.95693
60.145 22.97159
60.150 22.451973
60.155 21.675287
60.160 21.124424
60.165 20.925255
60.170 21.057459
60.175 21.278721
60.180 21.073381
60.185 21.342844
60.190 21.535002
60.195 21.731909
60.200 22.077459
60.205 22.372852
60.210 22.062603
60.215 22.52523
60.220 22.631599
60.225 23.096169
60.230 23.05195
60.235 22.467888
60.240 22.614515
60.245 23.095114
60.250 22.743122
60.255 22.763556
60.260 22.140198
60.265 21.782581
60.270 22.146624
60.275 22.089674
60.280 22.035345
60.285 22.349819
60.290 22.321775
60.295 21.834215
60.300 21.505274
60.305 21.46389
60.310 21.018023
60.315 20.314873
60.320 19.945095
60.325 20.012581
60.330 19.75246
60.335 19.449274
60.340 18.990326
60.345 19.295605
60.350 20.160019
60.355 19.814341
60.360 19.924915
60.365 20.716682
60.370 21.46282
60.375 21.45661
60.380 21.647474
60.385 21.629921
60.390 21.663116
60.395 21.474152
60.400 21.358553
60.405 21.245338
60.410 21.31826
60.415 20.611568
60.420 20.333376
60.425 19.966894
60.430 19.609135
60.435 19.918749
60.440 20.064058
60.445 19.880859
60.450 19.77038
60.455 19.28359
60.460 19.035215
60.465 19.103798
60.470 18.495571
60.475 17.977074
60.480 17.843847
60.485 17.864298
60.490 17.904495
60.495 17.891575
60.500 17.414131
60.505 17.429245
60.510 17.831959
60.515 18.12678
60.520 18.162704
60.525 18.540785
60.530 18.413723
60.535 18.349854
60.540 18.275768
60.545 18.263483
60.550 18.376974
60.555 18.361189
60.560 17.979895
60.565 17.93844
60.570 18.467146
60.575 18.508289
60.580 18.457106
60.585 18.217684
60.590 18.659756
60.595 19.094261
60.600 18.943474
60.605 18.886623
60.610 19.178194
60.615 19.119032
60.620 18.921629
60.625 18.65613
60.630 18.945929
60.635 19.065529
60.640 18.464256
60.645 18.810844
60.650 18.700991
60.655 18.989727
60.660 19.097708
60.665 18.881735
60.670 19.201519
60.675 19.389687
60.680 18.723257
60.685 18.285919
60.690 17.692329
60.695 17.017677
60.700 16.969587
60.705 16.519493
60.710 16.642412
60.715 16.474268
60.720 16.890575
60.725 17.328117
60.730 17.585718
60.735 17.689272
60.740 18.507303
60.745 18.496906
60.750 18.665777
60.755 19.033026
60.760 19.103762
60.765 19.207659
60.770 18.973831
60.775 18.213152
60.780 18.209171
60.785 17.949482
60.790 17.317377
60.795 16.664503
60.800 16.54328
60.805 16.107761
60.810 15.827533
60.815 15.850462
60.820 15.854923
60.825 16.437244
60.830 16.929619
60.835 17.174023
60.840 17.419371
60.845 18.274849
60.850 18.747522
60.855 18.807253
60.860 18.600807
60.865 18.732384
60.870 18.560617
60.875 18.487978
60.880 18.001787
60.885 17.823328
60.890 18.215557
60.895 17.896435
60.900 18.272671
60.905 18.010992
60.910 18.072981
60.915 17.886103
60.920 17.055428
60.925 16.964113
60.930 17.378847
60.935 17.206484
60.940 17.507074
60.945 17.558905
60.950 17.332298
60.955 18.104712
60.960 17.920326
60.965 17.645409
60.970 17.51458
60.975 17.488115
60.980 17.4359
60.985 17.558681
60.990 17.510206
60.995 17.541506
61.000 17.268486
61.005 17.449009
61.010 17.861578
61.015 17.918406
61.020 17.470678
61.025 17.041794
61.030 17.040127
61.035 17.426085
61.040 17.641558
61.045 17.080997
61.050 17.011681
61.055 16.985147
61.060 17.088522
61.065 16.881731
61.070 16.447582
61.075 16.426943
61.080 16.884689
61.085 16.909357
61.090 16.581211
61.095 16.178226
61.100 16.511627
61.105 16.014389
61.110 15.285952
61.115 15.211974
61.120 15.284433
61.125 15.955189
61.130 16.011728
61.135 15.457943
61.140 15.648646
61.145 16.210732
61.150 16.158001
61.155 16.22798
61.160 16.789715
61.165 17.202984
61.170 17.501745
61.175 17.769386
61.180 17.59519
61.185 17.588591
61.190 17.337072
61.195 16.676031
61.200 17.496998
61.205 17.867952
61.210 17.977066
61.215 17.848188
61.220 18.054844
61.225 19.005604
61.230 18.926739
61.235 18.309361
61.240 17.930489
61.245 17.492754
61.250 16.977728
61.255 16.387964
61.260 15.914291
61.265 16.024054
61.270 15.932234
61.275 16.456711
61.280 16.621563
61.285 16.902853
61.290 16.980495
61.295 16.634796
61.300 16.472086
61.305 16.273579
61.310 15.514634
61.315 15.866002
61.320 15.7011
61.325 15.80566
61.330 15.740351
61.335 15.667497
61.340 15.709593
61.345 16.090977
61.350 15.713673
61.355 16.110973
61.360 16.161304
61.365 16.565815
61.370 15.993399
61.375 15.869077
61.380 15.875801
61.385 15.94515
61.390 15.857168
61.395 15.828633
61.400 15.561075
61.405 16.136412
61.410 16.857723
61.415 17.116617
61.420 17.125399
61.425 16.85252
61.430 16.95105
61.435 17.253038
61.440 17.050413
61.445 16.47476
61.450 16.280508
61.455 16.725811
61.460 16.888618
61.465 17.063848
61.470 17.070629
61.475 16.756939
61.480 16.682682
61.485 16.024248
61.490 15.655075
61.495 15.418791
61.500 15.080935
61.505 14.814795
61.510 15.351914
61.515 16.158892
61.520 16.904461
61.525 16.850237
61.530 17.133543
61.535 16.970127
61.540 16.999405
61.545 17.017017
61.550 16.485796
61.555 16.553612
61.560 16.832142
61.565 17.165728
61.570 17.526913
61.575 17.661118
61.580 17.362522
61.585 17.190393
61.590 16.932632
61.595 16.730179
61.600 16.733805
61.605 17.067095
61.610 17.420816
61.615 17.760803
61.620 18.052208
61.625 18.162336
61.630 17.846031
61.635 17.378922
61.640 17.041811
61.645 16.644936
61.650 16.368834
61.655 16.381559
61.660 16.013474
61.665 16.069927
61.670 16.114555
61.675 16.313028
61.680 16.808578
61.685 16.60099
61.690 15.971469
61.695 15.887934
61.700 15.678736
61.705 15.399018
61.710 14.862797
61.715 14.088655
61.720 13.74616
61.725 14.302382
61.730 14.823713
61.735 15.046194
61.740 14.863297
61.745 14.873699
61.750 15.540902
61.755 16.042913
61.760 16.222303
61.765 16.605036
61.770 16.482683
61.775 16.697035
61.780 16.607048
61.785 16.179075
61.790 16.110418
61.795 16.03441
61.800 15.51984
61.805 15.527921
61.810 15.867311
61.815 16.321589
61.820 16.669252
61.825 16.833551
61.830 16.732861
61.835 17.153379
61.840 17.755968
61.845 17.465231
61.850 17.210981
61.855 17.343966
61.860 17.590593
61.865 17.79578
61.870 17.989496
61.875 17.85984
61.880 18.147039
61.885 18.313389
61.890 17.693462
61.895 17.099356
61.900 16.556534
61.905 15.987546
61.910 15.893487
61.915 15.941685
61.920 15.754
61.925 15.732466
61.930 15.996228
61.935 16.163311
61.940 16.409336
61.945 16.294985
61.950 16.033495
61.955 15.967886
61.960 15.818109
61.965 15.044356
61.970 14.433286
61.975 14.203537
61.980 14.224152
61.985 14.029613
61.990 14.569261
61.995 15.301296
62.000 16.234762
62.005 16.945585
62.010 17.014528
62.015 16.842392
62.020 16.728823
62.025 16.642759
62.030 16.328243
62.035 16.239552
62.040 16.835812
62.045 16.639933
62.050 16.889961
62.055 17.000299
62.060 16.903017
62.065 17.25617
62.070 16.612062
62.075 15.563977
62.080 16.031322
62.085 15.96924
62.090 16.115654
62.095 16.025953
62.100 15.786031
62.105 16.136724
62.110 16.502523
62.115 16.288254
62.120 16.476479
62.125 16.467154
62.130 16.841602
62.135 16.599009
62.140 16.798857
62.145 16.943884
62.150 16.830465
62.155 16.293842
62.160 16.132442
62.165 16.581978
62.170 17.500305
62.175 17.278944
62.180 17.324799
62.185 17.156958
62.190 17.295887
62.195 16.681395
62.200 16.29915
62.205 15.275949
62.210 14.806046
62.215 14.309423
62.220 14.278646
62.225 14.715596
62.230 15.140203
62.235 15.182394
62.240 15.460043
62.245 15.81551
62.250 15.889147
62.255 16.194994
62.260 16.046467
62.265 16.169518
62.270 16.002222
62.275 16.188509
62.280 15.921865
62.285 15.95647
62.290 16.055014
62.295 16.220324
62.300 15.856804
62.305 15.693627
62.310 15.507741
62.315 15.81864
62.320 16.180138
62.325 16.016865
62.330 15.510666
62.335 15.271632
62.340 15.20641
62.345 15.291738
62.350 14.793389
62.355 14.331656
62.360 14.251184
62.365 15.05195
62.370 15.280951
62.375 15.325199
62.380 15.087122
62.385 15.408534
62.390 15.619775
62.395 15.89026
62.400 16.091228
62.405 16.671049
62.410 17.442677
62.415 17.811226
62.420 18.08387
62.425 18.339529
62.430 18.30057
62.435 18.062147
62.440 17.392321
62.445 17.267502
62.450 16.913685
62.455 16.62249
62.460 16.370878
62.465 15.937277
62.470 15.769938
62.475 16.539673
62.480 16.370892
62.485 16.843002
62.490 17.109625
62.495 17.433619
62.500 17.549358
62.505 17.482691
62.510 17.175741
62.515 17.508207
62.520 17.751211
62.525 17.761051
62.530 17.705193
62.535 18.033873
62.540 17.414204
62.545 16.670496
62.550 16.712147
62.555 16.581707
62.560 16.469601
62.565 16.213053
62.570 15.693769
62.575 15.612596
62.580 15.933666
62.585 15.341479
62.590 15.225965
62.595 15.105704
62.600 14.913832
62.605 15.271479
62.610 15.805243
62.615 15.849745
62.620 16.381172
62.625 16.498102
62.630 17.115599
62.635 17.177465
62.640 17.430574
62.645 17.440853
62.650 16.829939
62.655 16.852024
62.660 17.133095
62.665 16.849802
62.670 17.343781
62.675 17.608385
62.680 17.732464
62.685 17.997295
62.690 17.693487
62.695 17.465803
62.700 17.277267
62.705 16.911325
62.710 16.734827
62.715 16.825075
62.720 17.036242
62.725 16.789465
62.730 16.508709
62.735 16.740009
62.740 16.524092
62.745 16.401518
62.750 16.28055
62.755 15.911344
62.760 16.249884
62.765 16.856316
62.770 16.82798
62.775 16.538288
62.780 16.404072
62.785 16.627533
62.790 16.690722
62.795 16.837587
62.800 16.80468
62.805 17.090097
62.810 17.453695
62.815 17.221815
62.820 17.531876
62.825 17.540459
62.830 17.006941
62.835 16.408852
62.840 15.976199
62.845 16.03491
62.850 16.428432
62.855 16.787663
62.860 17.028887
62.865 16.81757
62.870 17.246113
62.875 17.855564
62.880 17.778107
62.885 18.068811
62.890 17.397076
62.895 17.309032
62.900 17.799572
62.905 17.54701
62.910 17.058289
62.915 16.705965
62.920 16.632027
62.925 17.341387
62.930 17.293413
62.935 17.073942
62.940 16.878832
62.945 16.833008
62.950 17.144836
62.955 16.572306
62.960 15.604683
62.965 15.404319
62.970 15.24357
62.975 15.425577
62.980 15.633035
62.985 15.754045
62.990 15.915656
62.995 15.902233
63.000 15.865215
63.005 15.473553
63.010 15.241834
63.015 15.233916
63.020 15.055664
63.025 14.996865
63.030 15.35713
63.035 15.514775
63.040 15.697221
63.045 15.485513
63.050 15.531333
63.055 15.068001
63.060 14.971723
63.065 14.486533
63.070 14.701691
63.075 14.760835
63.080 15.134488
63.085 14.923208
63.090 15.217682
63.095 15.137187
63.100 15.949964
63.105 15.747672
63.110 15.433587
63.115 15.221377
63.120 15.848231
63.125 16.226151
63.130 16.648733
63.135 16.702755
63.140 16.735113
63.145 17.200205
63.150 17.386333
63.155 17.412489
63.160 17.638153
63.165 17.786705
63.170 17.57299
63.175 18.030712
63.180 18.026842
63.185 17.88484
63.190 17.235149
63.195 16.089493
63.200 15.363344
63.205 14.495364
63.210 13.788248
63.215 13.882837
63.220 13.859013
63.225 14.029377
63.230 15.044943
63.235 15.775909
63.240 16.465252
63.245 16.602121
63.250 16.592434
63.255 17.376722
63.260 17.521439
63.265 17.073202
63.270 16.640585
63.275 16.935843
63.280 17.620232
63.285 17.72744
63.290 17.410093
63.295 17.937862
63.300 17.883509
63.305 18.009209
63.310 18.168142
63.315 18.390038
63.320 18.59934
63.325 18.471954
63.330 17.654982
63.335 17.537926
63.340 17.574148
63.345 16.914627
63.350 16.456224
63.355 16.438875
63.360 16.460201
63.365 16.920027
63.370 17.22901
63.375 17.342989
63.380 17.343206
63.385 17.257833
63.390 16.703918
63.395 16.813786
63.400 16.794144
63.405 16.683348
63.410 16.326696
63.415 16.104963
63.420 16.165737
63.425 16.113918
63.430 16.23167
63.435 16.241232
63.440 16.290155
63.445 16.569387
63.450 17.407354
63.455 17.921812
63.460 18.221348
63.465 18.189066
63.470 18.581463
63.475 18.59169
63.480 18.418488
63.485 18.011198
63.490 17.406618
63.495 17.129684
63.500 16.316759
63.505 16.168449
63.510 15.976658
63.515 16.2819
63.520 16.355659
63.525 16.741392
63.530 16.950861
63.535 17.371548
63.540 17.19709
63.545 17.705383
63.550 17.778545
63.555 17.776312
63.560 18.076994
63.565 17.97159
63.570 17.95965
63.575 18.164551
63.580 17.843616
63.585 17.868399
63.590 18.090399
63.595 18.324245
63.600 18.618053
63.605 18.858654
63.610 18.438919
63.615 18.568108
63.620 18.835318
63.625 19.223049
63.630 18.859138
63.635 19.10737
63.640 19.173992
63.645 19.381413
63.650 19.326458
63.655 18.875404
63.660 17.92314
63.665 17.474321
63.670 16.957645
63.675 16.985346
63.680 17.061092
63.685 17.12322
63.690 17.372219
63.695 17.333229
63.700 16.982195
63.705 17.064932
63.710 17.257376
63.715 17.268314
63.720 16.917166
63.725 16.794571
63.730 16.609571
63.735 16.599422
63.740 16.664595
63.745 16.328583
63.750 16.089607
63.755 16.160053
63.760 16.402395
63.765 16.580423
63.770 16.534374
63.775 16.211527
63.780 16.364998
63.785 16.444387
63.790 16.391136
63.795 15.644541
63.800 16.223341
63.805 16.442717
63.810 16.818914
63.815 17.025574
63.820 17.061132
63.825 17.517883
63.830 18.363443
63.835 18.598961
63.840 18.504623
63.845 18.014626
63.850 17.885429
63.855 17.991634
63.860 17.677935
63.865 17.477859
63.870 17.245817
63.875 17.566656
63.880 17.844358
63.885 18.264256
63.890 18.644722
63.895 18.207338
63.900 18.147846
63.905 17.915449
63.910 17.962719
63.915 18.010761
63.920 17.599533
63.925 17.427025
63.930 18.009678
63.935 18.080349
63.940 17.631735
63.945 16.892849
63.950 17.510637
63.955 17.899267
63.960 17.956068
63.965 17.446869
63.970 17.425318
63.975 18.111269
63.980 18.87825
63.985 18.30937
63.990 17.744476
63.995 17.460405
64.000 17.799992
64.005 18.197193
64.010 18.25597
64.015 18.18779
64.020 17.852795
64.025 17.875887
64.030 18.122467
64.035 17.750624
64.040 17.452801
64.045 17.199585
64.050 16.902866
64.055 17.28348
64.060 17.223461
64.065 17.200228
64.070 17.605301
64.075 17.850431
64.080 18.04324
64.085 17.815407
64.090 17.919746
64.095 17.505667
64.100 17.319929
64.105 17.139482
64.110 16.504114
64.115 16.777287
64.120 17.226145
64.125 17.122076
64.130 17.383236
64.135 17.56076
64.140 17.51545
64.145 17.483418
64.150 17.116629
64.155 16.372854
64.160 16.305534
64.165 16.765125
64.170 17.045507
64.175 16.951862
64.180 17.62664
64.185 17.896147
64.190 18.64151
64.195 18.627331
64.200 18.577938
64.205 17.854738
64.210 17.864115
64.215 17.81361
64.220 17.639002
64.225 16.968708
64.230 16.540537
64.235 16.332565
64.240 16.901564
64.245 16.921658
64.250 16.493866
64.255 16.784195
64.260 16.965014
64.265 17.881477
64.270 18.04118
64.275 17.70775
64.280 17.723307
64.285 18.268085
64.290 18.525743
64.295 19.251118
64.300 19.050913
64.305 19.521461
64.310 19.850935
64.315 19.718554
64.320 19.05645
64.325 18.559084
64.330 17.986557
64.335 18.004499
64.340 17.595602
64.345 17.984407
64.350 18.50428
64.355 19.171375
64.360 19.706562
64.365 20.092623
64.370 20.090017
64.375 20.001123
64.380 19.557463
64.385 19.042101
64.390 18.763851
64.395 18.785572
64.400 18.659294
64.405 18.639338
64.410 19.065786
64.415 19.297474
64.420 19.426853
64.425 19.510801
64.430 19.74205
64.435 19.539513
64.440 19.948526
64.445 19.647804
64.450 19.195135
64.455 19.306032
64.460 19.086468
64.465 18.666035
64.470 18.278843
64.475 17.837109
64.480 17.643351
64.485 18.15185
64.490 18.704977
64.495 19.028358
64.500 19.327044
64.505 19.384207
64.510 19.420235
64.515 19.961197
64.520 19.883257
64.525 19.132486
64.530 18.570261
64.535 18.365576
64.540 18.254353
64.545 18.387657
64.550 18.465582
64.555 18.069321
64.560 18.398516
64.565 18.694654
64.570 18.127821
64.575 18.106236
64.580 17.690886
64.585 17.469727
64.590 17.704691
64.595 17.751907
64.600 17.645542
64.605 18.311737
64.610 18.689127
64.615 18.716715
64.620 19.139053
64.625 19.615669
64.630 19.561947
64.635 19.514442
64.640 19.574341
64.645 19.519756
64.650 19.976233
64.655 19.53632
64.660 19.091288
64.665 18.92737
64.670 18.933708
64.675 19.029917
64.680 19.05653
64.685 18.42444
64.690 18.579737
64.695 18.323421
64.700 17.96876
64.705 17.962872
64.710 18.173912
64.715 18.426817
64.720 18.479786
64.725 18.677412
64.730 19.229591
64.735 19.750446
64.740 19.502628
64.745 19.552067
64.750 19.528734
64.755 20.102335
64.760 20.322083
64.765 20.427114
64.770 20.686104
64.775 20.916399
64.780 21.182825
64.785 20.991638
64.790 20.680241
64.795 20.401031
64.800 20.29994
64.805 20.612352
64.810 20.553164
64.815 19.399853
64.820 19.348064
64.825 18.941441
64.830 18.882828
64.835 18.643543
64.840 18.198807
64.845 19.012432
64.850 20.477854
64.855 21.342958
64.860 21.814367
64.865 21.94762
64.870 22.132265
64.875 22.416895
64.880 21.582144
64.885 20.594408
64.890 20.029863
64.895 20.354761
64.900 20.983391
64.905 20.762177
64.910 20.243509
64.915 20.242622
64.920 20.194628
64.925 20.289419
64.930 19.467031
64.935 18.626215
64.940 18.539333
64.945 18.624634
64.950 18.747229
64.955 19.075445
64.960 19.472538
64.965 19.991838
64.970 20.155085
64.975 20.574013
64.980 21.122082
64.985 21.524826
64.990 21.988695
64.995 21.694023
65.000 21.759523
65.005 22.081083
65.010 22.140394
65.015 21.324476
65.020 22.059193
65.025 22.242456
65.030 22.607248
65.035 22.725132
65.040 22.651852
65.045 22.761454
65.050 22.863626
65.055 21.478889
65.060 20.531807
65.065 19.978186
65.070 19.819839
65.075 19.77788
65.080 19.654526
65.085 19.617348
65.090 20.036091
65.095 20.929382
65.100 20.869961
65.105 20.843735
65.110 20.912592
65.115 21.382048
65.120 21.710436
65.125 21.95874
65.130 21.708405
65.135 22.274712
65.140 22.502569
65.145 22.555626
65.150 22.099258
65.155 22.068068
65.160 22.359217
65.165 22.088415
65.170 22.488602
65.175 22.690954
65.180 22.580654
65.185 22.553398
65.190 22.145615
65.195 21.618107
65.200 21.906507
65.205 21.538155
65.210 21.604441
65.215 21.252304
65.220 21.152412
65.225 21.11412
65.230 20.750753
65.235 19.759312
65.240 19.473841
65.245 19.641241
65.250 20.106546
65.255 20.387695
65.260 21.189466
65.265 22.031471
65.270 22.609144
65.275 22.571362
65.280 22.839417
65.285 23.035759
65.290 23.171581
65.295 22.992521
65.300 22.936733
65.305 23.250782
65.310 23.250916
65.315 23.090799
65.320 22.914865
65.325 22.775606
65.330 22.755356
65.335 23.034962
65.340 23.165188
65.345 23.004612
65.350 22.959091
65.355 23.007736
65.360 23.093636
65.365 23.482037
65.370 23.861279
65.375 24.246265
65.380 24.570307
65.385 24.582954
65.390 24.487513
65.395 24.18993
65.400 24.309898
65.405 23.995029
65.410 23.466789
65.415 23.410898
65.420 23.220154
65.425 23.155378
65.430 23.397104
65.435 22.587986
65.440 22.389954
65.445 22.521566
65.450 22.225603
65.455 22.605137
65.460 23.058035
65.465 23.330891
65.470 24.047171
65.475 24.407644
65.480 24.90065
65.485 25.539219
65.490 25.69825
65.495 25.4582
65.500 25.508482
65.505 25.18182
65.510 25.300657
65.515 25.205265
65.520 25.30373
65.525 25.850122
65.530 25.993435
65.535 26.620642
65.540 26.661867
65.545 27.039066
65.550 27.173714
65.555 27.145477
65.560 26.92149
65.565 27.091196
65.570 27.090139
65.575 27.923363
65.580 28.684259
65.585 28.989841
65.590 29.386538
65.595 29.275023
65.600 30.065319
65.605 30.251616
65.610 30.375767
65.615 30.548241
65.620 30.52898
65.625 30.549725
65.630 31.007177
65.635 30.127047
65.640 30.156445
65.645 30.490362
65.650 30.497894
65.655 30.481859
65.660 30.427046
65.665 30.732805
65.670 31.838106
65.675 32.580582
65.680 32.33292
65.685 33.063553
65.690 33.26503
65.695 33.250435
65.700 32.696167
65.705 31.563078
65.710 30.873247
65.715 30.663708
65.720 30.562302
65.725 30.903505
65.730 30.924829
65.735 31.886715
65.740 32.658997
65.745 33.413769
65.750 34.132683
65.755 34.518513
65.760 35.185387
65.765 35.703995
65.770 35.705128
65.775 35.570736
65.780 35.812733
65.785 35.326187
65.790 34.679478
65.795 34.75005
65.800 35.354366
65.805 35.512161
65.810 35.552074
65.815 35.35704
65.820 35.454063
65.825 35.281013
65.830 34.926483
65.835 34.772404
65.840 35.143238
65.845 35.870277
65.850 35.803017
65.855 36.402824
65.860 37.324196
65.865 37.443184
65.870 37.189995
65.875 37.109528
65.880 37.061142
65.885 37.236904
65.890 36.876217
65.895 37.241493
65.900 37.914444
65.905 37.823006
65.910 38.376648
65.915 39.055775
65.920 39.355293
65.925 39.728889
65.930 39.187679
65.935 39.191383
65.940 40.023174
65.945 39.72419
65.950 39.046196
65.955 39.292553
65.960 39.775452
65.965 40.136108
65.970 39.961945
65.975 39.830406
65.980 39.088066
65.985 39.119514
65.990 38.861847
65.995 38.919018
66.000 39.257126
66.005 39.448524
66.010 39.547562
66.015 40.933563
66.020 41.588284
66.025 41.644039
66.030 41.90876
66.035 41.842319
66.040 42.173264
66.045 41.764397
66.050 41.240765
66.055 41.148361
66.060 41.261177
66.065 40.845245
66.070 40.496498
66.075 39.89175
66.080 39.377106
66.085 38.808784
66.090 39.042042
66.095 39.131844
66.100 39.273136
66.105 40.035789
66.110 40.573433
66.115 40.954102
66.120 40.351818
66.125 39.539772
66.130 38.712555
66.135 38.723339
66.140 38.554218
66.145 38.15443
66.150 37.787613
66.155 38.006992
66.160 38.048717
66.165 38.038654
66.170 37.475044
66.175 36.173897
66.180 35.512581
66.185 35.599503
66.190 35.844738
66.195 35.382053
66.200 35.713985
66.205 35.741177
66.210 36.323036
66.215 37.004208
66.220 36.891598
66.225 36.629253
66.230 36.862984
66.235 36.973221
66.240 37.37022
66.245 37.106972
66.250 37.185474
66.255 36.646652
66.260 36.313663
66.265 35.833134
66.270 34.613911
66.275 33.635651
66.280 33.420078
66.285 33.851353
66.290 34.396652
66.295 34.79509
66.300 35.114357
66.305 35.748253
66.310 35.394451
66.315 34.694073
66.320 33.827202
66.325 33.689316
66.330 33.274052
66.335 32.828041
66.340 32.925785
66.345 32.652153
66.350 32.703579
66.355 32.594002
66.360 31.828876
66.365 31.436008
66.370 31.296791
66.375 31.371309
66.380 31.479361
66.385 30.772068
66.390 30.606216
66.395 30.899353
66.400 31.897623
66.405 31.566315
66.410 31.014698
66.415 31.28352
66.420 31.947145
66.425 32.256641
66.430 32.002403
66.435 31.874132
66.440 31.619081
66.445 30.960054
66.450 30.916159
66.455 30.479717
66.460 29.816235
66.465 29.629568
66.470 29.076742
66.475 29.146328
66.480 28.894669
66.485 29.133432
66.490 29.123873
66.495 29.158712
66.500 29.019447
66.505 29.046444
66.510 28.54261
66.515 28.756247
66.520 28.751596
66.525 28.919226
66.530 29.232397
66.535 28.676949
66.540 28.5632
66.545 28.993967
66.550 28.838766
66.555 29.022991
66.560 28.302454
66.565 28.485367
66.570 29.129824
66.575 29.371803
66.580 28.870575
66.585 28.109737
66.590 27.246845
66.595 26.695602
66.600 25.979362
66.605 25.788366
66.610 25.607262
66.615 26.328402
66.620 26.854773
66.625 27.424974
66.630 28.233414
66.635 27.783661
66.640 27.303841
66.645 26.841963
66.650 26.236927
66.655 25.766359
66.660 24.828676
66.665 24.209805
66.670 24.171509
66.675 23.542892
66.680 23.341345
66.685 23.029589
66.690 22.70989
66.695 22.526459
66.700 22.610928
66.705 23.231684
66.710 23.645699
66.715 23.685673
66.720 23.569019
66.725 23.93049
66.730 24.066063
66.735 23.659126
66.740 23.710455
66.745 23.746273
66.750 24.005718
66.755 24.787127
66.760 25.377289
66.765 25.147333
66.770 25.017574
66.775 24.570028
66.780 24.608847
66.785 24.124958
66.790 23.578152
66.795 22.182373
66.800 21.78928
66.805 22.006027
66.810 21.909031
66.815 21.716356
66.820 21.878603
66.825 20.947378
66.830 21.753176
66.835 22.066534
66.840 21.802696
66.845 21.89373
66.850 22.016943
66.855 21.609489
66.860 21.562359
66.865 21.294765
66.870 20.942707
66.875 21.33568
66.880 21.355156
66.885 21.50013
66.890 21.957922
66.895 23.012775
66.900 23.135086
66.905 23.466448
66.910 23.581583
66.915 23.637486
66.920 23.501812
66.925 23.061417
66.930 21.583878
66.935 20.843241
66.940 20.757536
66.945 20.230829
66.950 19.818247
66.955 19.63377
66.960 19.451847
66.965 20.099503
66.970 20.303223
66.975 20.198343
66.980 20.26491
66.985 20.314655
66.990 20.474405
66.995 20.79575
67.000 21.345907
67.005 21.968393
67.010 22.418631
67.015 23.049618
67.020 23.137905
67.025 22.959227
67.030 22.693607
67.035 22.028246
67.040 21.730936
67.045 21.549139
67.050 21.271351
67.055 20.716879
67.060 20.492104
67.065 20.825441
67.070 21.037912
67.075 21.390587
67.080 21.362459
67.085 21.511705
67.090 22.241795
67.095 22.407793
67.100 22.715658
67.105 23.063791
67.110 22.846857
67.115 22.441099
67.120 22.242134
67.125 22.030031
67.130 22.432728
67.135 21.830849
67.140 21.213886
67.145 21.486893
67.150 21.621071
67.155 21.960188
67.160 22.1397
67.165 21.948412
67.170 21.770004
67.175 21.609732
67.180 21.509842
67.185 21.419031
67.190 21.344631
67.195 21.05756
67.200 20.573105
67.205 20.723894
67.210 22.082924
67.215 21.387732
67.220 20.775141
67.225 20.690445
67.230 20.74198
67.235 21.508049
67.240 21.950256
67.245 21.419334
67.250 21.795532
67.255 22.159351
67.260 22.04241
67.265 22.189789
67.270 21.817225
67.275 20.990299
67.280 20.86628
67.285 20.987377
67.290 20.336964
67.295 20.316593
67.300 19.85803
67.305 19.569769
67.310 19.60096
67.315 19.473818
67.320 19.804241
67.325 20.080854
67.330 19.721037
67.335 20.032593
67.340 20.080681
67.345 19.964596
67.350 20.290899
67.355 19.974709
67.360 20.512924
67.365 20.443796
67.370 19.926323
67.375 19.721506
67.380 20.242228
67.385 20.524441
67.390 20.619291
67.395 20.062582
67.400 20.526934
67.405 21.127586
67.410 21.798101
67.415 20.840973
67.420 20.943293
67.425 20.922319
67.430 21.427092
67.435 21.403681
67.440 21.529881
67.445 21.948683
67.450 22.501329
67.455 22.246483
67.460 22.352247
67.465 21.69319
67.470 20.941837
67.475 20.158718
67.480 19.724459
67.485 19.074324
67.490 18.660999
67.495 18.725269
67.500 19.78446
67.505 20.384064
67.510 20.646198
67.515 20.653305
67.520 20.9645
67.525 21.190636
67.530 21.921886
67.535 21.675465
67.540 21.703388
67.545 21.671417
67.550 21.7845
67.555 21.62254
67.560 21.155506
67.565 20.667572
67.570 20.23279
67.575 20.177092
67.580 19.942455
67.585 19.331131
67.590 19.923693
67.595 20.100845
67.600 19.926424
67.605 20.206335
67.610 20.427326
67.615 21.014017
67.620 21.410021
67.625 21.38821
67.630 21.642817
67.635 21.912111
67.640 21.668278
67.645 21.447002
67.650 21.113403
67.655 20.920246
67.660 21.298704
67.665 21.293709
67.670 20.8993
67.675 20.937548
67.680 20.962879
67.685 20.883614
67.690 20.073694
67.695 19.247984
67.700 18.843538
67.705 18.815311
67.710 19.108578
67.715 19.19795
67.720 19.26301
67.725 19.391678
67.730 19.016003
67.735 19.468372
67.740 20.139462
67.745 20.062716
67.750 20.70351
67.755 20.693815
67.760 20.716776
67.765 20.510809
67.770 19.696312
67.775 19.394842
67.780 19.131311
67.785 18.563326
67.790 18.483854
67.795 19.065559
67.800 19.108765
67.805 19.006071
67.810 19.10869
67.815 19.058779
67.820 19.120804
67.825 19.326111
67.830 19.403927
67.835 19.843782
67.840 20.429102
67.845 20.243641
67.850 20.496994
67.855 20.792267
67.860 20.409798
67.865 20.521034
67.870 20.770897
67.875 20.392921
67.880 20.400887
67.885 20.279253
67.890 20.300003
67.895 20.58456
67.900 20.45681
67.905 19.665964
67.910 19.384514
67.915 19.348419
67.920 18.973042
67.925 19.078384
67.930 19.020416
67.935 19.807842
67.940 20.71772
67.945 21.45256
67.950 21.875376
67.955 22.295507
67.960 22.082438
67.965 22.028799
67.970 20.729513
67.975 20.697205
67.980 20.533798
67.985 20.153538
67.990 19.774208
67.995 19.881987
68.000 20.067921
68.005 20.064798
68.010 19.606667
68.015 18.871508
68.020 18.758686
68.025 18.830671
68.030 18.362299
68.035 18.426693
68.040 18.6584
68.045 18.709581
68.050 19.28768
68.055 19.747929
68.060 19.988777
68.065 20.173603
68.070 19.779026
68.075 20.05092
68.080 20.170502
68.085 19.839647
68.090 19.743391
68.095 19.927643
68.100 20.414604
68.105 21.400209
68.110 22.130333
68.115 22.860558
68.120 23.03208
68.125 23.254457
68.130 22.877607
68.135 22.901291
68.140 22.061712
68.145 21.365099
68.150 21.154312
68.155 20.632483
68.160 19.593479
68.165 19.153069
68.170 18.800806
68.175 19.475439
68.180 19.375254
68.185 18.793015
68.190 19.429558
68.195 20.163055
68.200 20.413752
68.205 20.46237
68.210 20.419062
68.215 20.697458
68.220 20.651503
68.225 20.264881
68.230 20.368172
68.235 20.134199
68.240 20.072226
68.245 19.478436
68.250 19.57498
68.255 20.15659
68.260 20.158907
68.265 20.121449
68.270 20.34956
68.275 20.787254
68.280 20.403362
68.285 20.150751
68.290 20.360826
68.295 19.967878
68.300 19.827894
68.305 19.884436
68.310 19.835535
68.315 20.190176
68.320 20.050791
68.325 19.881922
68.330 20.119347
68.335 20.502462
68.340 20.376101
68.345 19.902487
68.350 19.658539
68.355 20.12146
68.360 20.407877
68.365 20.765364
68.370 21.015312
68.375 21.257717
68.380 21.951107
68.385 22.457397
68.390 22.871555
68.395 22.999994
68.400 22.557644
68.405 21.754068
68.410 21.576046
68.415 21.028198
68.420 20.576683
68.425 20.406921
68.430 20.219194
68.435 20.238665
68.440 20.197247
68.445 20.282595
68.450 20.402472
68.455 20.460533
68.460 19.970854
68.465 19.98905
68.470 19.748487
68.475 19.975584
68.480 20.499607
68.485 20.611185
68.490 20.738871
68.495 20.614237
68.500 20.594709
68.505 20.898834
68.510 20.471973
68.515 19.926348
68.520 19.606018
68.525 19.616934
68.530 19.918568
68.535 19.760519
68.540 19.944719
68.545 19.868362
68.550 20.286222
68.555 20.871508
68.560 20.559929
68.565 20.617649
68.570 21.047817
68.575 21.404598
68.580 21.906197
68.585 21.342346
68.590 21.31708
68.595 21.407867
68.600 21.249716
68.605 20.762547
68.610 20.902107
68.615 20.867819
68.620 21.530939
68.625 21.315546
68.630 20.864939
68.635 20.773939
68.640 21.310722
68.645 20.997589
68.650 20.622538
68.655 20.136177
68.660 19.731083
68.665 19.93495
68.670 19.878456
68.675 19.759111
68.680 19.917084
68.685 20.678366
68.690 21.043791
68.695 21.757153
68.700 21.731068
68.705 21.626574
68.710 21.396194
68.715 20.588772
68.720 20.400467
68.725 19.976013
68.730 20.508215
68.735 20.881016
68.740 21.212124
68.745 21.74444
68.750 21.689329
68.755 21.50576
68.760 21.687925
68.765 21.580408
68.770 21.997932
68.775 21.728472
68.780 21.534328
68.785 21.699881
68.790 22.044634
68.795 21.674274
68.800 21.899345
68.805 21.807522
68.810 22.392691
68.815 22.98642
68.820 23.462324
68.825 23.114706
68.830 22.885031
68.835 22.905598
68.840 22.690041
68.845 22.076862
68.850 21.574684
68.855 21.356554
68.860 22.021799
68.865 21.991892
68.870 21.630404
68.875 21.380672
68.880 21.510303
68.885 21.536291
68.890 21.534687
68.895 21.511749
68.900 21.463348
68.905 20.809702
68.910 20.75378
68.915 20.877726
68.920 20.819466
68.925 20.552721
68.930 20.227757
68.935 20.95928
68.940 21.67215
68.945 22.278456
68.950 22.217081
68.955 21.832098
68.960 22.058014
68.965 23.112968
68.970 23.247072
68.975 22.915218
68.980 22.448574
68.985 22.688919
68.990 23.337652
68.995 22.87261
69.000 21.915674
69.005 21.684263
69.010 22.54266
69.015 22.707973
69.020 22.578514
69.025 22.434645
69.030 22.628908
69.035 22.89258
69.040 23.459013
69.045 23.588097
69.050 24.208685
69.055 24.554113
69.060 25.401333
69.065 25.037361
69.070 25.088629
69.075 24.550467
69.080 23.82415
69.085 23.686571
69.090 23.611488
69.095 23.509985
69.100 24.367914
69.105 25.104544
69.110 25.875252
69.115 26.142626
69.120 25.846643
69.125 25.961138
69.130 26.101585
69.135 25.426569
69.140 25.09766
69.145 25.056524
69.150 25.555775
69.155 26.294657
69.160 25.956505
69.165 25.301893
69.170 25.853935
69.175 26.460894
69.180 26.812021
69.185 26.568781
69.190 26.388756
69.195 26.666286
69.200 26.820686
69.205 26.949558
69.210 26.481392
69.215 26.345263
69.220 26.326729
69.225 26.62422
69.230 27.141712
69.235 27.056854
69.240 26.357149
69.245 25.514374
69.250 24.693188
69.255 24.606533
69.260 24.205666
69.265 24.196409
69.270 24.055016
69.275 24.359549
69.280 24.854937
69.285 25.876457
69.290 26.313879
69.295 26.914717
69.300 27.67511
69.305 28.302195
69.310 28.729576
69.315 29.259157
69.320 28.845623
69.325 28.293812
69.330 27.538673
69.335 26.641106
69.340 26.274813
69.345 25.913025
69.350 25.841991
69.355 26.356462
69.360 26.755789
69.365 27.178707
69.370 27.435484
69.375 27.688013
69.380 28.268534
69.385 28.068394
69.390 27.83037
69.395 27.625481
69.400 27.25771
69.405 27.059345
69.410 26.647598
69.415 26.648548
69.420 26.126001
69.425 26.586973
69.430 27.160208
69.435 27.203831
69.440 27.702751
69.445 28.076942
69.450 28.88423
69.455 29.892595
69.460 29.983324
69.465 29.997395
69.470 30.128281
69.475 30.149775
69.480 30.121895
69.485 29.27866
69.490 29.234909
69.495 29.344875
69.500 29.868517
69.505 30.245823
69.510 30.012924
69.515 30.248198
69.520 30.552618
69.525 30.740187
69.530 30.245522
69.535 30.087255
69.540 29.89432
69.545 30.676706
69.550 30.503574
69.555 30.031679
69.560 29.821739
69.565 29.752802
69.570 29.488729
69.575 29.503826
69.580 29.270348
69.585 29.156149
69.590 29.05419
69.595 28.774008
69.600 28.350805
69.605 27.955482
69.610 28.015135
69.615 27.915859
69.620 28.650621
69.625 28.367847
69.630 28.560474
69.635 29.298016
69.640 29.724344
69.645 29.712664
69.650 29.341394
69.655 28.812498
69.660 29.048403
69.665 28.987206
69.670 28.775263
69.675 28.675007
69.680 27.938761
69.685 27.811787
69.690 28.102968
69.695 28.535873
69.700 28.762688
69.705 28.725487
69.710 29.027325
69.715 29.245422
69.720 29.238754
69.725 28.900911
69.730 28.696821
69.735 27.732115
69.740 27.714968
69.745 27.467968
69.750 27.500629
69.755 27.0595
69.760 25.943941
69.765 26.03459
69.770 26.455193
69.775 25.945326
69.780 25.452034
69.785 25.290913
69.790 25.501026
69.795 26.277678
69.800 26.217083
69.805 26.018747
69.810 25.961267
69.815 26.42238
69.820 26.060215
69.825 25.714281
69.830 25.517626
69.835 25.084665
69.840 24.841307
69.845 25.068491
69.850 25.057528
69.855 25.737646
69.860 25.359495
69.865 25.583776
69.870 26.771544
69.875 27.215513
69.880 27.250328
69.885 26.558714
69.890 26.31509
69.895 25.782312
69.900 24.711332
69.905 24.102438
69.910 24.339104
69.915 24.344561
69.920 23.888937
69.925 23.574102
69.930 24.122555
69.935 23.913704
69.940 23.455015
69.945 22.505915
69.950 22.284571
69.955 22.401617
69.960 22.679882
69.965 23.082331
69.970 23.153893
69.975 23.008308
69.980 23.138285
69.985 23.036882
69.990 22.806164
69.995 22.460455
70.000 22.118259
70.005 21.964769
70.010 21.58396
70.015 21.118862
70.020 21.506651
70.025 21.696249
70.030 21.252529
70.035 21.679037
70.040 21.670385
70.045 22.318808
70.050 22.129646
70.055 21.502493
70.060 21.634232
70.065 20.983921
70.070 20.66526
70.075 20.803757
70.080 20.797857
70.085 21.561928
70.090 22.029478
70.095 22.015667
70.100 22.081778
70.105 21.750875
70.110 20.768692
70.115 20.122095
70.120 19.779232
70.125 19.573183
70.130 20.235249
70.135 20.446301
70.140 20.448353
70.145 21.576145
70.150 21.976995
70.155 21.873356
70.160 21.705681
70.165 21.223167
70.170 20.681267
70.175 20.777039
70.180 20.496319
70.185 20.630621
70.190 21.213308
70.195 20.855822
70.200 20.967922
70.205 20.718199
70.210 20.220242
70.215 19.768045
70.220 19.511391
70.225 18.987186
70.230 19.268787
70.235 19.06167
70.240 19.525774
70.245 19.596457
70.250 19.615095
70.255 19.619303
70.260 19.297344
70.265 19.236414
70.270 19.07835
70.275 18.566204
70.280 18.502354
70.285 18.211287
70.290 18.342575
70.295 18.736874
70.300 18.712477
70.305 18.82119
70.310 19.124422
70.315 19.315155
70.320 19.045248
70.325 18.483839
70.330 18.696697
70.335 18.790176
70.340 18.737232
70.345 18.833618
70.350 18.862665
70.355 19.248562
70.360 19.386044
70.365 19.423176
70.370 19.070477
70.375 19.589163
70.380 20.026119
70.385 20.50342
70.390 20.58252
70.395 20.328653
70.400 20.452595
70.405 20.73078
70.410 21.521585
70.415 21.262663
70.420 20.529293
70.425 20.174604
70.430 20.279421
70.435 19.984234
70.440 19.344582
70.445 17.876713
70.450 17.536486
70.455 17.589264
70.460 17.752756
70.465 17.790077
70.470 18.491783
70.475 19.004204
70.480 19.505884
70.485 19.530111
70.490 19.728695
70.495 19.635983
70.500 19.483395
70.505 18.845421
70.510 18.731232
70.515 18.789818
70.520 18.921322
70.525 19.024042
70.530 18.669304
70.535 18.533583
70.540 18.792419
70.545 18.574499
70.550 18.37929
70.555 18.417698
70.560 18.498924
70.565 18.388517
70.570 18.44883
70.575 18.459208
70.580 18.620783
70.585 18.276167
70.590 18.172607
70.595 18.368605
70.600 18.633213
70.605 19.439171
70.610 20.004906
70.615 20.618555
70.620 21.137302
70.625 21.29208
70.630 21.106297
70.635 20.954279
70.640 20.189247
70.645 20.073532
70.650 19.811701
70.655 19.395748
70.660 19.114553
70.665 18.996796
70.670 18.860407
70.675 18.601608
70.680 18.396057
70.685 18.507132
70.690 18.610418
70.695 18.288082
70.700 18.545855
70.705 19.005487
70.710 19.462244
70.715 19.979349
70.720 19.674191
70.725 19.284224
70.730 19.921856
70.735 20.01804
70.740 20.000053
70.745 19.533575
70.750 18.77536
70.755 19.091753
70.760 19.650034
70.765 19.67605
70.770 19.954689
70.775 19.624699
70.780 19.283239
70.785 19.08407
70.790 19.309921
70.795 18.873226
70.800 18.908176
70.805 18.622261
70.810 19.118784
70.815 19.624458
70.820 19.768684
70.825 19.394854
70.830 19.531809
70.835 19.524086
70.840 19.735697
70.845 19.481152
70.850 19.672571
70.855 19.478128
70.860 19.608978
70.865 19.623035
70.870 19.031054
70.875 18.625366
70.880 19.319748
70.885 19.453009
70.890 19.824011
70.895 19.451166
70.900 19.280354
70.905 19.223698
70.910 19.277201
70.915 18.778252
70.920 18.342093
70.925 18.269997
70.930 18.268658
70.935 18.290684
70.940 18.467506
70.945 17.563864
70.950 17.867653
70.955 18.177483
70.960 18.771833
70.965 18.877146
70.970 18.760851
70.975 18.942631
70.980 19.265949
70.985 18.731344
70.990 18.518034
70.995 17.814642
71.000 17.878515
71.005 17.952002
71.010 18.020634
71.015 18.230442
71.020 18.699003
71.025 18.784763
71.030 19.371229
71.035 19.189823
71.040 19.115036
71.045 19.158899
71.050 19.040253
71.055 18.873751
71.060 19.202761
71.065 19.192259
71.070 19.402721
71.075 19.288465
71.080 19.031332
71.085 19.260164
71.090 19.12924
71.095 19.418175
71.100 19.08881
71.105 18.808653
71.110 18.339924
71.115 18.486431
71.120 18.724319
71.125 18.8491
71.130 18.452656
71.135 18.866568
71.140 19.555586
71.145 19.972038
71.150 19.854517
71.155 19.937216
71.160 19.892982
71.165 19.895475
71.170 19.801268
71.175 20.021187
71.180 20.235258
71.185 20.264479
71.190 19.840359
71.195 19.924189
71.200 19.933161
71.205 19.642567
71.210 19.368393
71.215 19.063339
71.220 18.983234
71.225 19.275892
71.230 18.997051
71.235 19.34623
71.240 19.423923
71.245 19.888224
71.250 19.940628
71.255 19.763552
71.260 19.448757
71.265 19.457766
71.270 18.811178
71.275 18.639906
71.280 18.441662
71.285 18.634596
71.290 18.553352
71.295 18.053812
71.300 17.914652
71.305 18.263025
71.310 18.269688
71.315 18.680157
71.320 18.656338
71.325 18.500563
71.330 19.34639
71.335 19.816309
71.340 19.869604
71.345 19.417313
71.350 18.709282
71.355 18.861755
71.360 18.923492
71.365 18.990314
71.370 19.356134
71.375 19.637337
71.380 19.781792
71.385 19.707836
71.390 19.955587
71.395 20.131475
71.400 19.98638
71.405 19.878239
71.410 20.110765
71.415 20.164316
71.420 20.283457
71.425 20.075792
71.430 20.002607
71.435 19.872879
71.440 19.316923
71.445 18.746004
71.450 18.563566
71.455 18.449804
71.460 18.567051
71.465 18.138208
71.470 18.104452
71.475 17.930992
71.480 18.008476
71.485 17.871634
71.490 17.913605
71.495 17.898329
71.500 17.363932
71.505 16.519186
71.510 17.026602
71.515 17.715984
71.520 18.369326
71.525 18.73934
71.530 18.86644
71.535 19.774145
71.540 20.113148
71.545 19.77087
71.550 19.047098
71.555 18.635263
71.560 18.094852
71.565 17.668367
71.570 17.489485
71.575 16.829203
71.580 16.323282
71.585 16.208986
71.590 16.112612
71.595 16.013569
71.600 16.078499
71.605 16.123959
71.610 15.983819
71.615 15.737022
71.620 15.979117
71.625 15.58365
71.630 15.90548
71.635 15.727774
71.640 15.570117
71.645 16.260738
71.650 17.140572
71.655 18.039921
71.660 19.087791
71.665 19.259624
71.670 19.475407
71.675 20.181257
71.680 19.744081
71.685 18.920479
71.690 18.008966
71.695 17.486254
71.700 17.626692
71.705 17.468515
71.710 17.337433
71.715 18.070841
71.720 17.953304
71.725 17.905682
71.730 17.692373
71.735 17.792561
71.740 17.965069
71.745 17.081272
71.750 16.577896
71.755 16.46818
71.760 17.137655
71.765 16.864464
71.770 16.385052
71.775 17.020016
71.780 17.042044
71.785 17.805651
71.790 18.218775
71.795 18.097849
71.800 18.228527
71.805 18.03043
71.810 17.719133
71.815 18.150957
71.820 17.790562
71.825 17.581924
71.830 17.636791
71.835 18.184755
71.840 18.386196
71.845 18.58358
71.850 18.820236
71.855 18.365801
71.860 18.902071
71.865 19.222889
71.870 18.779278
71.875 19.75404
71.880 20.363955
71.885 20.537527
71.890 20.251282
71.895 20.308109
71.900 20.107788
71.905 20.675531
71.910 20.071457
71.915 19.661638
71.920 20.107691
71.925 20.135427
71.930 19.660988
71.935 18.968096
71.940 18.667454
71.945 18.335575
71.950 18.093809
71.955 17.954201
71.960 17.840548
71.965 17.787384
71.970 18.148056
71.975 17.64876
71.980 17.598215
71.985 17.895466
71.990 17.783279
71.995 17.960562
72.000 18.184895
72.005 18.331476
72.010 18.971798
72.015 19.04542
72.020 19.393475
72.025 19.704279
72.030 20.557068
72.035 20.35878
72.040 19.740967
72.045 19.694263
72.050 19.336433
72.055 18.776159
72.060 18.474241
72.065 18.364376
72.070 18.724831
72.075 19.048796
72.080 19.165192
72.085 19.762213
72.090 19.912485
72.095 19.771852
72.100 19.179529
72.105 19.118826
72.110 19.032732
72.115 18.597775
72.120 18.450266
72.125 18.391512
72.130 18.835735
72.135 19.070395
72.140 18.823523
72.145 18.741381
72.150 18.239969
72.155 17.955868
72.160 17.918148
72.165 17.233768
72.170 16.97714
72.175 16.591408
72.180 17.110222
72.185 17.828377
72.190 17.808363
72.195 17.871716
72.200 18.619629
72.205 19.147503
72.210 19.458561
72.215 19.236038
72.220 18.845564
72.225 19.007854
72.230 19.027578
72.235 18.501629
72.240 18.508121
72.245 18.783167
72.250 18.650188
72.255 18.760689
72.260 18.762194
72.265 18.359236
72.270 18.123878
72.275 18.048906
72.280 18.160625
72.285 18.756678
72.290 18.602442
72.295 17.973412
72.300 18.027494
72.305 18.318151
72.310 18.404514
72.315 18.485685
72.320 18.41593
72.325 18.285654
72.330 18.463564
72.335 18.81345
72.340 19.189888
72.345 19.05039
72.350 19.192963
72.355 19.337852
72.360 20.175501
72.365 20.295969
72.370 20.364384
72.375 19.853458
72.380 20.143538
72.385 19.651581
72.390 19.664433
72.395 19.106762
72.400 19.022783
72.405 19.25754
72.410 19.815315
72.415 19.939022
72.420 20.266155
72.425 19.780594
72.430 19.914078
72.435 19.745714
72.440 19.103914
72.445 18.299877
72.450 17.603176
72.455 17.231712
72.460 18.193947
72.465 18.029268
72.470 17.905378
72.475 17.793209
72.480 18.276505
72.485 18.370365
72.490 18.501381
72.495 17.78953
72.500 17.875597
72.505 17.964943
72.510 18.017653
72.515 17.88341
72.520 18.521261
72.525 18.610401
72.530 18.527952
72.535 18.501455
72.540 18.359795
72.545 17.971102
72.550 18.166672
72.555 17.952034
72.560 18.249592
72.565 18.500231
72.570 18.541492
72.575 18.525656
72.580 18.702162
72.585 18.788435
72.590 18.311476
72.595 18.350014
72.600 18.721186
72.605 19.005749
72.610 19.140751
72.615 18.944727
72.620 18.444029
72.625 18.31209
72.630 18.084547
72.635 17.726847
72.640 17.664959
72.645 17.083008
72.650 17.090513
72.655 17.062698
72.660 16.928776
72.665 16.929663
72.670 16.735357
72.675 16.758467
72.680 17.174288
72.685 16.902344
72.690 17.602152
72.695 17.626232
72.700 17.550379
72.705 18.028728
72.710 17.959864
72.715 17.832211
72.720 17.633383
72.725 17.123837
72.730 17.351099
72.735 17.07452
72.740 17.426491
72.745 18.573444
72.750 18.236462
72.755 18.274103
72.760 17.98546
72.765 17.780725
72.770 17.48336
72.775 16.927891
72.780 16.667894
72.785 16.471083
72.790 16.384493
72.795 16.953072
72.800 16.681755
72.805 16.062407
72.810 15.662335
72.815 15.403009
72.820 16.168419
72.825 16.091228
72.830 16.137327
72.835 16.864168
72.840 17.176228
72.845 17.422895
72.850 17.03462
72.855 16.355448
72.860 16.873547
72.865 16.595324
72.870 16.706667
72.875 17.128881
72.880 17.163374
72.885 17.592943
72.890 17.407255
72.895 16.795435
72.900 16.604044
72.905 16.472004
72.910 16.233301
72.915 16.537611
72.920 16.926416
72.925 17.416739
72.930 17.505936
72.935 17.609348
72.940 17.490973
72.945 17.133106
72.950 16.944021
72.955 17.141462
72.960 17.528322
72.965 17.685572
72.970 17.300465
72.975 17.073975
72.980 17.18379
72.985 17.008682
72.990 16.560537
72.995 16.333296
73.000 16.540113
