!@!!GADDS PLOTSO FILE: Chi integration type
!@!!Title/SampleName: map-cf
!@!!Comment: ?
!@!!User: Bruker Instrument Administrator
!@!!Site: University of Illinois Chicago
!@!!Frame: map-cf_01_000.gfrm
!@!!Wavelengths    1.54184   1.54056   1.54439
!@!!Frame angles: 2Theta: 63.000 Omega: 50.000 Phi: 0.000 Chi: 90.000
!@!!Integration range: 2Theta: 53.000 to 73.000  Gamma: -105.000 to -75.000
!@!!Integration method: bin normalized
!@!N
!@!SS
!@!M
!@!L 0.0 0.0 0.0 0.0
!@!XDegrees
!@!YCounts
53.000 8.258501
53.005 8.242243
53.010 8.753451
53.015 9.25372
53.020 8.961359
53.025 8.322353
53.030 8.165148
53.035 7.997456
53.040 7.875288
53.045 7.09175
53.050 6.717558
53.055 7.097776
53.060 7.057243
53.065 7.054465
53.070 7.387529
53.075 7.635799
53.080 8.364014
53.085 8.097383
53.090 7.933828
53.095 8.278452
53.100 8.767442
53.105 9.23197
53.110 9.141008
53.115 9.082355
53.120 9.136722
53.125 8.820353
53.130 8.455077
53.135 8.167889
53.140 7.650555
53.145 7.68061
53.150 7.610746
53.155 8.07302
53.160 8.668243
53.165 8.612089
53.170 8.565527
53.175 8.636387
53.180 8.579814
53.185 8.926384
53.190 8.420849
53.195 7.757586
53.200 7.618313
53.205 7.788746
53.210 7.64961
53.215 7.607091
53.220 7.477137
53.225 7.827077
53.230 8.703349
53.235 9.303965
53.240 9.697818
53.245 10.45501
53.250 10.25468
53.255 10.402509
53.260 10.525308
53.265 10.293002
53.270 9.760444
53.275 9.296149
53.280 9.26625
53.285 9.220336
53.290 8.926435
53.295 8.503506
53.300 8.537673
53.305 8.569445
53.310 8.012895
53.315 7.696405
53.320 7.833097
53.325 8.121368
53.330 8.351166
53.335 7.874095
53.340 7.270184
53.345 7.311774
53.350 7.406703
53.355 7.445382
53.360 7.534092
53.365 7.844461
53.370 8.418911
53.375 8.964722
53.380 8.58438
53.385 8.637254
53.390 8.508541
53.395 8.190623
53.400 8.407601
53.405 8.425702
53.410 8.742288
53.415 9.164354
53.420 9.611989
53.425 9.831
53.430 9.699905
53.435 9.619729
53.440 9.756117
53.445 9.618534
53.450 9.259333
53.455 9.100114
53.460 9.069495
53.465 9.403507
53.470 9.294735
53.475 9.171695
53.480 9.115628
53.485 8.906091
53.490 9.013563
53.495 8.98641
53.500 8.795465
53.505 8.895367
53.510 9.062001
53.515 9.461084
53.520 9.658007
53.525 9.346268
53.530 9.420921
53.535 9.644032
53.540 9.74215
53.545 9.227076
53.550 8.957053
53.555 9.140542
53.560 9.132996
53.565 8.675625
53.570 8.808661
53.575 9.176136
53.580 9.476173
53.585 9.863124
53.590 9.855334
53.595 10.220523
53.600 10.327413
53.605 10.111089
53.610 10.041137
53.615 10.070941
53.620 9.763548
53.625 9.885256
53.630 9.862317
53.635 9.914462
53.640 9.677807
53.645 9.8419
53.650 9.946845
53.655 9.69159
53.660 9.380482
53.665 9.712296
53.670 9.612822
53.675 9.439305
53.680 9.141777
53.685 9.232446
53.690 9.578033
53.695 9.506607
53.700 9.602362
53.705 10.042617
53.710 10.1806
53.715 10.427321
53.720 10.440737
53.725 10.646159
53.730 10.503802
53.735 10.065792
53.740 9.751227
53.745 9.787307
53.750 9.652082
53.755 9.302546
53.760 9.400392
53.765 9.725278
53.770 9.531052
53.775 9.287233
53.780 8.854107
53.785 8.684393
53.790 8.601437
53.795 8.491805
53.800 8.925936
53.805 9.108496
53.810 9.377023
53.815 10.204401
53.820 10.542235
53.825 10.700353
53.830 10.270163
53.835 10.103586
53.840 10.00391
53.845 9.990746
53.850 9.410438
53.855 9.430581
53.860 9.290282
53.865 9.071934
53.870 9.079786
53.875 8.84237
53.880 8.559741
53.885 8.968014
53.890 9.162115
53.895 9.362382
53.900 9.703879
53.905 9.518505
53.910 10.029357
53.915 10.115865
53.920 9.672479
53.925 9.46461
53.930 9.749349
53.935 9.597309
53.940 9.925967
53.945 9.746828
53.950 9.662768
53.955 9.189699
53.960 8.489885
53.965 8.096512
53.970 8.047982
53.975 8.146726
53.980 8.126588
53.985 7.881018
53.990 8.117005
53.995 9.348946
54.000 9.300804
54.005 8.930567
54.010 8.629826
54.015 8.791915
54.020 9.187469
54.025 9.11161
54.030 9.036585
54.035 9.704712
54.040 10.683797
54.045 11.418564
54.050 11.877028
54.055 12.313034
54.060 12.50896
54.065 12.231082
54.070 11.878988
54.075 11.363503
54.080 11.231364
54.085 11.342514
54.090 10.833632
54.095 10.493743
54.100 10.543492
54.105 10.313223
54.110 10.069817
54.115 9.67689
54.120 9.256146
54.125 9.806864
54.130 9.507829
54.135 9.157516
54.140 9.201376
54.145 8.71395
54.150 8.86206
54.155 9.172139
54.160 8.920428
54.165 9.873434
54.170 10.430249
54.175 10.718384
54.180 11.249384
54.185 11.119276
54.190 11.04051
54.195 11.366122
54.200 11.316857
54.205 10.898553
54.210 10.937206
54.215 10.908051
54.220 11.19845
54.225 11.110175
54.230 11.059525
54.235 11.050037
54.240 11.222003
54.245 11.162389
54.250 10.972589
54.255 10.593532
54.260 10.548676
54.265 10.126871
54.270 10.434063
54.275 10.716119
54.280 10.663857
54.285 10.802542
54.290 10.831861
54.295 10.969236
54.300 10.964586
54.305 10.593114
54.310 10.582705
54.315 10.988612
54.320 11.234105
54.325 10.961452
54.330 10.787746
54.335 10.645269
54.340 10.728597
54.345 10.45409
54.350 10.336362
54.355 10.38221
54.360 10.549745
54.365 10.782227
54.370 10.577422
54.375 10.453253
54.380 10.371572
54.385 10.157832
54.390 9.959653
54.395 9.80959
54.400 9.587363
54.405 9.879385
54.410 10.117892
54.415 10.28808
54.420 10.659225
54.425 10.693587
54.430 11.030752
54.435 11.003844
54.440 10.88482
54.445 11.059041
54.450 10.719954
54.455 10.826337
54.460 11.051766
54.465 11.190017
54.470 11.894482
54.475 11.411657
54.480 10.668472
54.485 10.411307
54.490 9.717717
54.495 9.563839
54.500 9.397795
54.505 8.709618
54.510 9.125117
54.515 9.322093
54.520 9.660686
54.525 9.828568
54.530 9.830709
54.535 9.693939
54.540 9.258843
54.545 8.750638
54.550 9.085864
54.555 9.171535
54.560 9.355121
54.565 9.404497
54.570 9.672886
54.575 9.891847
54.580 10.307419
54.585 10.039097
54.590 10.006299
54.595 9.610305
54.600 9.204706
54.605 9.214426
54.610 9.114346
54.615 8.955673
54.620 9.047503
54.625 8.723885
54.630 9.142763
54.635 9.198267
54.640 9.113802
54.645 9.400966
54.650 9.564155
54.655 9.72397
54.660 10.090587
54.665 10.290661
54.670 10.198872
54.675 10.769438
54.680 10.852509
54.685 11.171548
54.690 10.862577
54.695 10.801491
54.700 10.722925
54.705 10.824193
54.710 10.477942
54.715 10.031316
54.720 9.732496
54.725 9.737793
54.730 9.262344
54.735 9.160809
54.740 9.295745
54.745 9.104193
54.750 9.260703
54.755 9.65575
54.760 10.334269
54.765 10.529268
54.770 10.703048
54.775 10.904328
54.780 10.870385
54.785 10.551459
54.790 10.480178
54.795 10.242284
54.800 10.614521
54.805 10.54111
54.810 10.276791
54.815 10.644959
54.820 10.524031
54.825 10.311901
54.830 10.134124
54.835 9.670216
54.840 9.483662
54.845 9.035359
54.850 9.258389
54.855 9.506775
54.860 9.525605
54.865 9.560698
54.870 9.961161
54.875 10.959058
54.880 11.601957
54.885 11.295517
54.890 11.12911
54.895 11.115102
54.900 10.85073
54.905 10.593106
54.910 9.853282
54.915 9.356812
54.920 9.564814
54.925 9.449173
54.930 9.98969
54.935 10.847603
54.940 10.642384
54.945 11.268261
54.950 11.637847
54.955 11.796935
54.960 11.854864
54.965 11.61647
54.970 11.119249
54.975 11.31365
54.980 11.062865
54.985 11.430264
54.990 11.073378
54.995 10.835536
55.000 10.723229
55.005 10.954956
55.010 11.062553
55.015 10.749942
55.020 10.696028
55.025 11.243583
55.030 11.255225
55.035 11.222897
55.040 11.270227
55.045 11.576847
55.050 11.837277
55.055 11.317546
55.060 11.176797
55.065 11.270947
55.070 11.669501
55.075 11.733205
55.080 11.553749
55.085 12.55004
55.090 13.083315
55.095 13.107744
55.100 13.225583
55.105 13.249251
55.110 13.057347
55.115 12.819957
55.120 11.531289
55.125 11.450853
55.130 11.491654
55.135 11.066599
55.140 10.668998
55.145 10.527143
55.150 10.345503
55.155 10.582996
55.160 10.591934
55.165 10.294804
55.170 10.236975
55.175 10.136168
55.180 10.24595
55.185 10.687111
55.190 10.578169
55.195 10.546323
55.200 10.794992
55.205 11.219027
55.210 11.539451
55.215 11.253118
55.220 10.70234
55.225 10.138165
55.230 9.760247
55.235 9.168142
55.240 9.132751
55.245 8.811677
55.250 9.016856
55.255 10.074678
55.260 10.512754
55.265 10.716094
55.270 10.822748
55.275 10.5734
55.280 10.753552
55.285 10.40298
55.290 10.031151
55.295 10.11617
55.300 10.449996
55.305 10.746893
55.310 10.824433
55.315 10.747282
55.320 11.317913
55.325 10.895863
55.330 10.671345
55.335 10.50215
55.340 10.720705
55.345 11.018619
55.350 11.128905
55.355 10.972667
55.360 11.103345
55.365 11.405716
55.370 11.041973
55.375 10.59888
55.380 10.209679
55.385 10.024528
55.390 10.565402
55.395 10.970679
55.400 10.681011
55.405 11.166006
55.410 11.279818
55.415 11.315494
55.420 10.85108
55.425 10.787418
55.430 10.938739
55.435 10.981704
55.440 10.943931
55.445 11.004414
55.450 11.25355
55.455 11.450575
55.460 11.024593
55.465 11.005912
55.470 11.203622
55.475 11.097101
55.480 11.014653
55.485 10.827988
55.490 10.832806
55.495 11.033497
55.500 11.163583
55.505 11.380362
55.510 11.809461
55.515 12.076635
55.520 12.480872
55.525 12.732497
55.530 12.309107
55.535 12.192925
55.540 12.201117
55.545 12.33337
55.550 12.589486
55.555 12.302889
55.560 12.304806
55.565 12.886351
55.570 12.879502
55.575 12.429852
55.580 11.648786
55.585 11.51759
55.590 11.64189
55.595 11.196715
55.600 10.852454
55.605 10.912427
55.610 11.581082
55.615 11.989909
55.620 12.351208
55.625 12.484724
55.630 12.735887
55.635 13.034637
55.640 13.301496
55.645 12.965968
55.650 12.873899
55.655 12.413445
55.660 12.459705
55.665 12.661656
55.670 12.445935
55.675 12.485705
55.680 12.651714
55.685 12.251959
55.690 12.106993
55.695 12.446155
55.700 12.416821
55.705 12.405685
55.710 11.934298
55.715 12.074416
55.720 12.378785
55.725 12.946399
55.730 12.840396
55.735 12.304862
55.740 12.213961
55.745 12.119806
55.750 12.023415
55.755 11.91665
55.760 11.66825
55.765 11.633331
55.770 11.645301
55.775 11.330777
55.780 10.949218
55.785 10.557372
55.790 10.40056
55.795 9.998682
55.800 9.566627
55.805 9.449001
55.810 10.093422
55.815 10.503433
55.820 10.851492
55.825 10.697004
55.830 11.242311
55.835 12.068524
55.840 12.613973
55.845 12.426724
55.850 13.15828
55.855 13.469237
55.860 13.492638
55.865 12.839154
55.870 12.172439
55.875 11.656197
55.880 11.167655
55.885 10.755944
55.890 10.586197
55.895 11.141492
55.900 11.430908
55.905 11.132251
55.910 11.494531
55.915 11.667315
55.920 11.415154
55.925 11.050984
55.930 11.092347
55.935 11.561184
55.940 11.994544
55.945 12.234159
55.950 12.10859
55.955 12.37326
55.960 12.509697
55.965 12.187756
55.970 12.409772
55.975 12.287472
55.980 12.190592
55.985 12.425568
55.990 12.419948
55.995 12.345791
56.000 12.18096
56.005 12.021931
56.010 12.26945
56.015 12.215052
56.020 12.219683
56.025 12.064301
56.030 12.106629
56.035 11.72525
56.040 11.755391
56.045 11.808867
56.050 11.598774
56.055 11.46399
56.060 11.420758
56.065 11.524616
56.070 11.598535
56.075 11.185912
56.080 10.937853
56.085 10.935957
56.090 10.884433
56.095 11.277962
56.100 11.047009
56.105 11.073966
56.110 11.295632
56.115 11.33462
56.120 11.307899
56.125 11.130188
56.130 10.680865
56.135 11.011642
56.140 11.067427
56.145 10.888532
56.150 10.89797
56.155 11.451018
56.160 12.006869
56.165 12.368378
56.170 12.219137
56.175 12.192685
56.180 12.059409
56.185 12.480144
56.190 12.547931
56.195 12.391505
56.200 12.550554
56.205 12.380867
56.210 12.49032
56.215 12.321774
56.220 12.236096
56.225 12.135971
56.230 12.221155
56.235 12.272465
56.240 12.725286
56.245 12.672575
56.250 12.771476
56.255 12.773779
56.260 12.812288
56.265 12.661561
56.270 12.2765
56.275 11.999817
56.280 12.053112
56.285 12.428405
56.290 12.300797
56.295 12.452318
56.300 12.493739
56.305 13.014112
56.310 13.45527
56.315 14.054346
56.320 13.828927
56.325 14.256321
56.330 13.680194
56.335 13.676644
56.340 13.322576
56.345 12.959435
56.350 12.707072
56.355 12.796326
56.360 12.54935
56.365 12.66019
56.370 12.572897
56.375 12.663747
56.380 12.334217
56.385 12.179843
56.390 11.966783
56.395 11.659657
56.400 11.615977
56.405 11.908595
56.410 11.798196
56.415 11.769295
56.420 11.669455
56.425 11.510032
56.430 12.04493
56.435 12.147232
56.440 12.318082
56.445 12.476198
56.450 12.57746
56.455 12.423693
56.460 12.441259
56.465 12.004436
56.470 11.962751
56.475 11.396735
56.480 11.404553
56.485 11.622959
56.490 11.796711
56.495 11.832606
56.500 11.99857
56.505 11.677796
56.510 11.728101
56.515 12.05105
56.520 12.336542
56.525 12.43935
56.530 12.56192
56.535 12.706197
56.540 13.007229
56.545 12.827597
56.550 12.661535
56.555 12.472477
56.560 11.904067
56.565 11.745246
56.570 12.005285
56.575 12.378465
56.580 12.901412
56.585 12.387856
56.590 12.487553
56.595 12.809793
56.600 12.680507
56.605 12.683025
56.610 12.141877
56.615 12.010405
56.620 12.468678
56.625 12.539145
56.630 12.860214
56.635 12.824328
56.640 12.415972
56.645 12.161852
56.650 12.058821
56.655 11.889932
56.660 11.856138
56.665 11.96106
56.670 12.739831
56.675 13.458528
56.680 13.776137
56.685 13.812256
56.690 13.606531
56.695 13.308375
56.700 12.922249
56.705 12.758721
56.710 12.757082
56.715 12.594435
56.720 12.859653
56.725 13.363754
56.730 13.293708
56.735 13.541583
56.740 13.227752
56.745 12.903179
56.750 12.766118
56.755 12.646668
56.760 12.297391
56.765 12.4583
56.770 11.803369
56.775 11.315194
56.780 11.406999
56.785 11.539998
56.790 11.712568
56.795 12.070486
56.800 12.352345
56.805 12.568848
56.810 12.779954
56.815 13.077531
56.820 13.145322
56.825 13.250496
56.830 13.04334
56.835 13.085631
56.840 13.211081
56.845 13.087864
56.850 13.255962
56.855 13.488459
56.860 13.443659
56.865 13.613087
56.870 13.629348
56.875 13.779949
56.880 13.850178
56.885 13.423961
56.890 12.803349
56.895 12.989791
56.900 12.871096
56.905 13.078449
56.910 13.109286
56.915 13.161728
56.920 13.082664
56.925 13.011458
56.930 12.540846
56.935 12.838781
56.940 12.548673
56.945 12.275834
56.950 12.406445
56.955 12.586278
56.960 12.992163
56.965 12.881089
56.970 12.500755
56.975 12.549701
56.980 12.67607
56.985 13.229545
56.990 12.970731
56.995 12.508437
57.000 12.689418
57.005 13.436608
57.010 13.794652
57.015 13.33448
57.020 12.313046
57.025 12.990932
57.030 13.717495
57.035 14.474954
57.040 14.389879
57.045 14.554855
57.050 15.598204
57.055 16.111704
57.060 16.019934
57.065 15.505362
57.070 15.087692
57.075 14.771187
57.080 14.787826
57.085 13.968652
57.090 13.665462
57.095 13.086104
57.100 13.196019
57.105 13.075171
57.110 13.355268
57.115 13.401484
57.120 13.471734
57.125 13.462415
57.130 13.635711
57.135 13.652815
57.140 13.471203
57.145 13.244427
57.150 13.603144
57.155 13.437654
57.160 13.310042
57.165 13.25571
57.170 13.283807
57.175 13.215681
57.180 13.091939
57.185 12.85866
57.190 13.619764
57.195 14.070234
57.200 13.933374
57.205 13.85889
57.210 14.062326
57.215 14.318992
57.220 14.112902
57.225 13.329615
57.230 13.24908
57.235 13.039735
57.240 12.799058
57.245 12.417822
57.250 11.949129
57.255 12.094153
57.260 12.54304
57.265 13.042295
57.270 13.371782
57.275 12.990282
57.280 13.043889
57.285 13.494241
57.290 13.370261
57.295 13.525053
57.300 13.531128
57.305 13.975604
57.310 14.57915
57.315 14.957638
57.320 15.157021
57.325 15.28096
57.330 15.311032
57.335 15.14125
57.340 14.989663
57.345 14.966028
57.350 15.421691
57.355 15.037895
57.360 14.776326
57.365 14.474022
57.370 14.286132
57.375 14.059373
57.380 14.049165
57.385 13.366077
57.390 13.071116
57.395 13.017276
57.400 13.401455
57.405 13.298512
57.410 13.366611
57.415 13.107777
57.420 13.038766
57.425 13.627674
57.430 13.664196
57.435 13.116225
57.440 13.441746
57.445 13.535477
57.450 13.382605
57.455 13.358743
57.460 13.358149
57.465 13.280851
57.470 13.392115
57.475 13.648188
57.480 13.465122
57.485 13.336926
57.490 13.304267
57.495 13.44259
57.500 13.704235
57.505 13.77746
57.510 13.572073
57.515 13.637936
57.520 13.8507
57.525 13.853519
57.530 13.692908
57.535 13.511415
57.540 13.374303
57.545 13.715987
57.550 14.089266
57.555 14.473168
57.560 14.629045
57.565 14.117032
57.570 14.184086
57.575 14.075407
57.580 13.539939
57.585 13.038655
57.590 12.638382
57.595 12.451035
57.600 12.985968
57.605 13.064085
57.610 13.169346
57.615 13.779166
57.620 14.011524
57.625 14.20232
57.630 14.548407
57.635 14.934408
57.640 14.992859
57.645 14.655792
57.650 14.087099
57.655 14.137891
57.660 13.746531
57.665 13.367645
57.670 13.123612
57.675 13.271955
57.680 13.003773
57.685 13.137238
57.690 12.994429
57.695 13.19423
57.700 13.163358
57.705 13.091122
57.710 13.346752
57.715 13.817563
57.720 14.349599
57.725 14.700748
57.730 14.91154
57.735 14.618393
57.740 14.696987
57.745 15.528464
57.750 15.5759
57.755 14.889223
57.760 14.516977
57.765 14.535717
57.770 14.255257
57.775 13.694969
57.780 13.360607
57.785 13.767279
57.790 14.143008
57.795 14.723945
57.800 15.010531
57.805 15.089781
57.810 14.969643
57.815 14.856604
57.820 14.644011
57.825 14.745045
57.830 15.384007
57.835 15.705494
57.840 16.330128
57.845 16.354641
57.850 16.496244
57.855 16.551336
57.860 16.241823
57.865 15.019543
57.870 14.854937
57.875 14.255076
57.880 14.23933
57.885 13.652765
57.890 13.597197
57.895 13.803334
57.900 14.161922
57.905 14.746581
57.910 15.281982
57.915 15.513686
57.920 15.344338
57.925 15.081543
57.930 15.278741
57.935 14.796885
57.940 13.910206
57.945 13.454808
57.950 13.487873
57.955 13.442364
57.960 13.187242
57.965 12.838109
57.970 12.739444
57.975 13.082648
57.980 13.518722
57.985 13.636357
57.990 14.047107
57.995 13.916944
58.000 13.354712
58.005 13.247964
58.010 13.547899
58.015 13.666388
58.020 13.606645
58.025 13.588942
58.030 14.156246
58.035 14.641046
58.040 14.735422
58.045 14.300342
58.050 14.01684
58.055 14.276197
58.060 14.084802
58.065 13.520378
58.070 13.760385
58.075 13.932487
58.080 14.200038
58.085 14.163484
58.090 13.434913
58.095 13.610302
58.100 14.179249
58.105 13.969706
58.110 13.970254
58.115 13.684306
58.120 13.686863
58.125 14.01446
58.130 14.032497
58.135 14.025033
58.140 13.67935
58.145 13.759773
58.150 13.930533
58.155 14.21701
58.160 14.582164
58.165 14.545795
58.170 14.294887
58.175 14.013477
58.180 13.611206
58.185 13.180946
58.190 12.552155
58.195 12.62824
58.200 12.325526
58.205 12.457232
58.210 12.92665
58.215 13.4351
58.220 13.754096
58.225 13.950148
58.230 13.96394
58.235 14.407075
58.240 14.645377
58.245 14.838663
58.250 14.948057
58.255 14.838792
58.260 14.997538
58.265 15.005436
58.270 14.882668
58.275 14.577156
58.280 14.163092
58.285 13.7691
58.290 14.082409
58.295 14.196901
58.300 14.010933
58.305 14.100685
58.310 14.211276
58.315 14.068957
58.320 14.140464
58.325 14.103114
58.330 13.699227
58.335 13.644716
58.340 13.579
58.345 13.532535
58.350 13.602668
58.355 14.014128
58.360 13.949718
58.365 14.178796
58.370 14.208019
58.375 14.597234
58.380 14.793522
58.385 15.840583
58.390 15.556396
58.395 15.550405
58.400 15.666239
58.405 15.31335
58.410 15.137177
58.415 14.693778
58.420 13.992043
58.425 13.947964
58.430 13.408787
58.435 13.470745
58.440 14.207645
58.445 14.921418
58.450 15.143856
58.455 14.620963
58.460 14.530364
58.465 15.187378
58.470 15.232354
58.475 14.513389
58.480 13.824016
58.485 14.101336
58.490 14.314502
58.495 14.479988
58.500 14.839025
58.505 14.63528
58.510 14.672763
58.515 15.125341
58.520 14.948142
58.525 14.978298
58.530 14.855177
58.535 14.222985
58.540 14.055437
58.545 13.661722
58.550 13.204838
58.555 13.557128
58.560 14.078391
58.565 14.764474
58.570 15.139522
58.575 15.902464
58.580 16.439661
58.585 16.610577
58.590 16.529369
58.595 15.432917
58.600 14.629346
58.605 14.578332
58.610 14.274955
58.615 13.929359
58.620 13.498102
58.625 13.675219
58.630 14.349966
58.635 14.86083
58.640 14.666939
58.645 14.596719
58.650 14.882143
58.655 15.087818
58.660 15.299644
58.665 15.372995
58.670 15.113774
58.675 15.112347
58.680 15.499393
58.685 16.099108
58.690 16.325867
58.695 15.994856
58.700 15.753385
58.705 15.500136
58.710 15.434997
58.715 15.150542
58.720 14.211291
58.725 14.056435
58.730 14.139565
58.735 14.078298
58.740 14.347313
58.745 14.392356
58.750 14.445533
58.755 14.647318
58.760 14.713257
58.765 14.797099
58.770 14.958626
58.775 14.957172
58.780 15.678744
58.785 15.640752
58.790 16.339792
58.795 16.259331
58.800 16.431456
58.805 16.879929
58.810 17.08952
58.815 16.587374
58.820 16.463514
58.825 16.221237
58.830 16.56498
58.835 15.73877
58.840 15.176747
58.845 14.54068
58.850 14.839776
58.855 14.413761
58.860 14.119404
58.865 14.280853
58.870 15.230029
58.875 15.293742
58.880 15.553541
58.885 15.584134
58.890 15.937417
58.895 15.572687
58.900 15.527862
58.905 15.565201
58.910 16.246344
58.915 15.704559
58.920 15.465481
58.925 15.762736
58.930 16.071352
58.935 15.655041
58.940 14.897205
58.945 14.860847
58.950 15.756462
58.955 15.788134
58.960 15.54474
58.965 15.121219
58.970 15.065287
58.975 15.143188
58.980 15.10329
58.985 14.972658
58.990 15.012032
58.995 14.639151
59.000 14.73353
59.005 15.118412
59.010 15.255324
59.015 15.178236
59.020 15.410749
59.025 15.609661
59.030 15.815422
59.035 16.261801
59.040 16.573549
59.045 16.042572
59.050 15.439669
59.055 15.131643
59.060 14.567903
59.065 14.361596
59.070 13.214112
59.075 12.628309
59.080 12.322315
59.085 12.185751
59.090 12.454863
59.095 13.162564
59.100 13.768759
59.105 14.368398
59.110 14.412764
59.115 15.248339
59.120 15.404978
59.125 15.147693
59.130 15.202193
59.135 14.975856
59.140 14.986831
59.145 14.767254
59.150 14.452362
59.155 14.161493
59.160 13.793243
59.165 13.708842
59.170 13.681302
59.175 13.891771
59.180 14.73861
59.185 15.289398
59.190 16.056044
59.195 16.616585
59.200 16.590109
59.205 16.851881
59.210 16.821804
59.215 16.824512
59.220 16.2927
59.225 16.287094
59.230 17.103157
59.235 17.26314
59.240 17.310059
59.245 17.167376
59.250 17.250841
59.255 17.384369
59.260 16.789614
59.265 15.932812
59.270 15.601292
59.275 15.376436
59.280 15.312573
59.285 14.928569
59.290 15.909434
59.295 16.688095
59.300 16.891546
59.305 17.166485
59.310 17.195658
59.315 16.947803
59.320 16.536106
59.325 15.926898
59.330 15.947077
59.335 15.693091
59.340 15.643507
59.345 15.71037
59.350 16.0492
59.355 16.34601
59.360 16.44948
59.365 16.016787
59.370 16.279688
59.375 16.167751
59.380 16.081831
59.385 16.475597
59.390 17.223991
59.395 17.592644
59.400 17.886702
59.405 17.669397
59.410 18.07432
59.415 17.92098
59.420 17.552927
59.425 17.531752
59.430 17.156328
59.435 16.984198
59.440 17.394785
59.445 17.257925
59.450 17.724791
59.455 17.60998
59.460 17.703344
59.465 17.989788
59.470 17.823553
59.475 17.677708
59.480 18.430056
59.485 18.679836
59.490 19.074299
59.495 18.29616
59.500 18.066826
59.505 18.197392
59.510 18.309849
59.515 17.7736
59.520 17.698072
59.525 17.617809
59.530 17.761372
59.535 18.11655
59.540 17.928059
59.545 17.536213
59.550 17.738089
59.555 17.887924
59.560 18.093081
59.565 17.681747
59.570 17.148886
59.575 18.286865
59.580 18.86392
59.585 18.620031
59.590 18.117912
59.595 17.798187
59.600 18.136295
59.605 18.46085
59.610 17.840782
59.615 17.917633
59.620 18.548603
59.625 18.910629
59.630 19.254608
59.635 19.130598
59.640 18.976263
59.645 19.138184
59.650 19.02523
59.655 18.492023
59.660 18.325972
59.665 18.175213
59.670 18.058029
59.675 18.598583
59.680 17.884626
59.685 17.65657
59.690 17.338104
59.695 17.486786
59.700 17.993547
59.705 18.335697
59.710 17.800066
59.715 18.344231
59.720 19.013475
59.725 20.02729
59.730 19.969458
59.735 19.986389
59.740 20.230228
59.745 20.760689
59.750 20.3969
59.755 20.035616
59.760 19.982412
59.765 20.520023
59.770 20.713308
59.775 20.876129
59.780 20.801239
59.785 21.189478
59.790 20.754694
59.795 20.126709
59.800 19.78866
59.805 19.217419
59.810 18.904411
59.815 19.025915
59.820 19.307182
59.825 20.158207
59.830 19.815195
59.835 18.988104
59.840 18.77832
59.845 19.063015
59.850 18.689688
59.855 18.144808
59.860 17.774961
59.865 19.057817
59.870 19.738647
59.875 19.72011
59.880 19.62834
59.885 19.697514
59.890 19.462221
59.895 19.142488
59.900 19.08135
59.905 19.132185
59.910 18.881977
59.915 18.880907
59.920 19.130936
59.925 19.368551
59.930 19.904812
59.935 19.810896
59.940 20.118996
59.945 20.71339
59.950 20.743225
59.955 20.440372
59.960 20.755617
59.965 20.350939
59.970 20.582666
59.975 21.168711
59.980 21.347061
59.985 21.314888
59.990 21.841709
59.995 21.812149
60.000 21.874907
60.005 21.919874
60.010 21.584713
60.015 21.800213
60.020 22.547354
60.025 22.029703
60.030 21.847769
60.035 21.928867
60.040 21.653961
60.045 21.758459
60.050 21.359001
60.055 21.400795
60.060 21.986698
60.065 21.876617
60.070 21.698067
60.075 21.922842
60.080 21.686827
60.085 21.538471
60.090 21.058052
60.095 20.931173
60.100 21.031733
60.105 21.572348
60.110 21.561586
60.115 21.594677
60.120 22.264992
60.125 22.167974
60.130 21.987379
60.135 22.259026
60.140 21.957899
60.145 22.053719
60.150 22.45676
60.155 22.975689
60.160 23.631546
60.165 24.028694
60.170 23.88216
60.175 23.755058
60.180 23.767334
60.185 23.376827
60.190 22.8706
60.195 22.268694
60.200 22.04685
60.205 22.364122
60.210 22.504435
60.215 22.410387
60.220 21.951704
60.225 21.37122
60.230 21.35195
60.235 21.537163
60.240 21.165623
60.245 20.844791
60.250 20.64539
60.255 20.880289
60.260 20.768656
60.265 21.046141
60.270 21.34605
60.275 21.269321
60.280 21.33774
60.285 21.329517
60.290 21.168169
60.295 20.57032
60.300 20.280989
60.305 20.271477
60.310 20.773962
60.315 20.993507
60.320 21.407995
60.325 21.733973
60.330 21.659653
60.335 21.77788
60.340 21.455557
60.345 21.110319
60.350 21.078979
60.355 20.214754
60.360 20.295637
60.365 20.843098
60.370 20.435219
60.375 20.656464
60.380 20.736273
60.385 21.010937
60.390 21.546806
60.395 21.530685
60.400 21.176855
60.405 20.889633
60.410 21.039831
60.415 20.817291
60.420 20.234606
60.425 20.11585
60.430 19.946932
60.435 20.222355
60.440 19.697737
60.445 19.276958
60.450 19.389452
60.455 20.0896
60.460 20.405508
60.465 20.100756
60.470 20.400301
60.475 21.312601
60.480 21.166349
60.485 20.785454
60.490 20.758888
60.495 20.21604
60.500 21.040165
60.505 21.284462
60.510 21.007721
60.515 20.745687
60.520 21.161625
60.525 20.954823
60.530 20.935907
60.535 20.753283
60.540 20.854399
60.545 20.692322
60.550 20.779852
60.555 20.471096
60.560 20.053543
60.565 19.467236
60.570 18.835091
60.575 18.348253
60.580 18.882381
60.585 18.748104
60.590 18.646507
60.595 18.709854
60.600 18.863531
60.605 18.674788
60.610 18.282148
60.615 17.855354
60.620 18.443638
60.625 18.497959
60.630 18.475384
60.635 18.944439
60.640 18.902012
60.645 19.02117
60.650 18.918169
60.655 17.98724
60.660 18.411417
60.665 18.202147
60.670 18.25984
60.675 18.209768
60.680 18.093546
60.685 17.717678
60.690 17.649422
60.695 17.523739
60.700 17.806091
60.705 17.693138
60.710 17.998945
60.715 17.790192
60.720 17.837212
60.725 17.930563
60.730 17.315903
60.735 17.708302
60.740 18.276611
60.745 18.517653
60.750 18.977718
60.755 19.996832
60.760 20.273243
60.765 20.367533
60.770 19.92783
60.775 19.332127
60.780 18.752865
60.785 18.067583
60.790 17.654453
60.795 17.81922
60.800 17.573265
60.805 17.021769
60.810 17.082462
60.815 17.136465
60.820 17.320728
60.825 17.410511
60.830 17.707815
60.835 17.78023
60.840 17.773254
60.845 17.545467
60.850 17.630169
60.855 17.571533
60.860 17.18565
60.865 16.663059
60.870 16.363741
60.875 16.616831
60.880 16.747561
60.885 17.195072
60.890 17.703468
60.895 18.080465
60.900 18.259089
60.905 18.02512
60.910 18.101883
60.915 18.239412
60.920 17.41947
60.925 17.149946
60.930 17.040497
60.935 17.050722
60.940 18.028315
60.945 18.267193
60.950 18.230049
60.955 19.128
60.960 19.557913
60.965 19.319803
60.970 19.14139
60.975 18.710272
60.980 18.775455
60.985 18.77726
60.990 18.061342
60.995 17.785259
61.000 18.182541
61.005 18.769403
61.010 18.650105
61.015 18.299292
61.020 18.214754
61.025 18.329451
61.030 17.541416
61.035 16.99663
61.040 16.630968
61.045 16.809641
61.050 17.440266
61.055 17.583897
61.060 17.750162
61.065 18.350039
61.070 18.757826
61.075 18.585468
61.080 18.384615
61.085 17.698566
61.090 16.97036
61.095 16.368221
61.100 16.004679
61.105 15.846065
61.110 15.781553
61.115 15.602505
61.120 15.636267
61.125 16.366314
61.130 16.220594
61.135 16.025246
61.140 16.197136
61.145 16.628164
61.150 16.764069
61.155 16.724958
61.160 16.39362
61.165 16.807831
61.170 17.161261
61.175 17.353958
61.180 16.877472
61.185 17.310472
61.190 17.753935
61.195 18.599636
61.200 19.336834
61.205 19.557297
61.210 19.283726
61.215 19.49263
61.220 19.193466
61.225 19.011627
61.230 19.094095
61.235 18.509819
61.240 18.045498
61.245 18.046547
61.250 18.083418
61.255 18.169638
61.260 18.17342
61.265 17.796715
61.270 18.029076
61.275 18.500931
61.280 18.767223
61.285 18.503918
61.290 18.203302
61.295 18.142591
61.300 17.867146
61.305 17.203327
61.310 16.829073
61.315 16.595434
61.320 16.638557
61.325 16.376581
61.330 15.890039
61.335 15.961223
61.340 15.775023
61.345 15.223686
61.350 15.314161
61.355 15.651499
61.360 16.211533
61.365 16.792845
61.370 16.726574
61.375 17.248995
61.380 17.532503
61.385 16.95429
61.390 16.97628
61.395 16.452736
61.400 15.720622
61.405 15.81968
61.410 15.569735
61.415 15.757478
61.420 15.974306
61.425 15.686533
61.430 16.352587
61.435 17.140066
61.440 17.057806
61.445 17.402445
61.450 17.57391
61.455 17.852753
61.460 17.533651
61.465 16.724663
61.470 16.035898
61.475 15.884127
61.480 15.826237
61.485 16.133486
61.490 16.019346
61.495 16.646448
61.500 17.143677
61.505 17.223196
61.510 17.301708
61.515 17.238642
61.520 16.83017
61.525 16.953861
61.530 16.538149
61.535 16.878113
61.540 17.032585
61.545 17.073084
61.550 16.626802
61.555 16.305449
61.560 15.798669
61.565 15.928529
61.570 15.696747
61.575 15.946733
61.580 16.739737
61.585 17.35099
61.590 17.755236
61.595 18.05736
61.600 17.712786
61.605 17.535061
61.610 17.580774
61.615 16.984947
61.620 16.385098
61.625 16.594318
61.630 16.749706
61.635 16.83597
61.640 16.838974
61.645 16.367613
61.650 16.053516
61.655 15.934719
61.660 15.306034
61.665 15.480541
61.670 15.589999
61.675 15.521678
61.680 15.864499
61.685 16.667688
61.690 16.957737
61.695 17.004171
61.700 16.878986
61.705 17.494928
61.710 17.530485
61.715 17.198586
61.720 16.712126
61.725 16.839821
61.730 17.100096
61.735 17.119457
61.740 16.495623
61.745 16.660686
61.750 17.149269
61.755 17.548029
61.760 17.752686
61.765 17.886711
61.770 18.05061
61.775 18.125959
61.780 17.867914
61.785 17.065845
61.790 16.705767
61.795 17.098129
61.800 17.00919
61.805 16.888807
61.810 16.974846
61.815 17.127977
61.820 17.260857
61.825 17.343973
61.830 16.67334
61.835 16.369204
61.840 16.183485
61.845 16.380178
61.850 16.584785
61.855 17.249798
61.860 17.798992
61.865 18.626513
61.870 18.985399
61.875 19.146427
61.880 19.358982
61.885 19.192059
61.890 18.627069
61.895 17.849058
61.900 17.317862
61.905 17.525734
61.910 17.625042
61.915 17.350922
61.920 17.342421
61.925 17.338572
61.930 17.383772
61.935 17.255102
61.940 17.193863
61.945 16.891373
61.950 16.471638
61.955 16.686523
61.960 16.497091
61.965 16.361385
61.970 16.270304
61.975 16.216022
61.980 16.09926
61.985 16.437555
61.990 16.432854
61.995 16.606607
62.000 16.957012
62.005 17.147141
62.010 16.851194
62.015 17.072842
62.020 17.005268
62.025 17.233583
62.030 16.906696
62.035 16.47085
62.040 16.417303
62.045 16.524153
62.050 16.539669
62.055 16.619284
62.060 16.469954
62.065 16.590117
62.070 17.158579
62.075 17.462317
62.080 17.263485
62.085 17.096918
62.090 16.929834
62.095 17.166418
62.100 17.81452
62.105 17.231394
62.110 17.153265
62.115 17.338682
62.120 17.564213
62.125 17.380104
62.130 16.867079
62.135 16.49931
62.140 16.383848
62.145 16.508114
62.150 16.418982
62.155 16.002459
62.160 15.940303
62.165 15.809811
62.170 16.088499
62.175 16.687489
62.180 17.154091
62.185 17.215897
62.190 16.938766
62.195 16.875578
62.200 17.011011
62.205 16.276474
62.210 15.275462
62.215 14.411623
62.220 14.441879
62.225 15.230689
62.230 15.393321
62.235 15.530942
62.240 15.675187
62.245 15.847644
62.250 15.950563
62.255 15.835643
62.260 15.565018
62.265 15.615283
62.270 15.63044
62.275 16.080229
62.280 16.266909
62.285 16.490236
62.290 16.574245
62.295 16.529827
62.300 16.64728
62.305 16.357283
62.310 16.562717
62.315 16.596716
62.320 16.256224
62.325 15.92281
62.330 16.114185
62.335 16.242384
62.340 16.624666
62.345 15.820726
62.350 15.700663
62.355 15.635464
62.360 15.708239
62.365 15.332291
62.370 14.948306
62.375 14.774472
62.380 14.660417
62.385 14.379234
62.390 14.851804
62.395 15.326298
62.400 15.781252
62.405 16.242369
62.410 16.771868
62.415 17.852232
62.420 18.445349
62.425 18.068117
62.430 17.802805
62.435 17.547043
62.440 17.469782
62.445 17.658821
62.450 17.796204
62.455 17.302288
62.460 17.700888
62.465 17.749468
62.470 17.99369
62.475 17.959732
62.480 17.276186
62.485 16.612877
62.490 16.517458
62.495 16.203703
62.500 16.467066
62.505 15.913774
62.510 15.909137
62.515 15.929673
62.520 15.849646
62.525 16.160234
62.530 15.806314
62.535 15.500053
62.540 15.490827
62.545 15.33492
62.550 15.874552
62.555 16.26992
62.560 16.029568
62.565 16.276775
62.570 16.438496
62.575 16.830084
62.580 17.090202
62.585 17.239109
62.590 17.272123
62.595 17.157486
62.600 17.034132
62.605 16.977251
62.610 16.831017
62.615 16.680151
62.620 16.447943
62.625 16.16164
62.630 16.882956
62.635 17.455715
62.640 17.78334
62.645 17.939657
62.650 17.454294
62.655 17.567486
62.660 18.634762
62.665 18.462112
62.670 18.142426
62.675 18.308167
62.680 18.058411
62.685 17.846439
62.690 18.039267
62.695 17.002079
62.700 16.531338
62.705 16.259745
62.710 15.606966
62.715 16.124865
62.720 16.606155
62.725 16.41975
62.730 16.83824
62.735 17.4911
62.740 17.697792
62.745 17.858551
62.750 18.184366
62.755 18.407177
62.760 17.996716
62.765 18.185806
62.770 18.292427
62.775 18.075083
62.780 17.902565
62.785 16.810387
62.790 16.864513
62.795 16.759396
62.800 15.628506
62.805 15.832782
62.810 16.487968
62.815 16.174093
62.820 16.374104
62.825 16.15132
62.830 16.435671
62.835 16.729492
62.840 16.373896
62.845 16.099457
62.850 16.656061
62.855 16.494453
62.860 16.235334
62.865 16.880043
62.870 17.059269
62.875 17.038042
62.880 16.906597
62.885 16.789055
62.890 16.260517
62.895 15.817438
62.900 15.446375
62.905 14.988855
62.910 14.578827
62.915 14.594446
62.920 14.751534
62.925 15.215772
62.930 15.604109
62.935 15.687784
62.940 16.502445
62.945 16.545023
62.950 16.3419
62.955 16.536751
62.960 16.951864
62.965 16.839315
62.970 17.075666
62.975 16.447212
62.980 16.835381
62.985 17.053421
62.990 17.289152
62.995 17.505047
63.000 17.405018
63.005 16.565338
63.010 16.708223
63.015 16.263859
63.020 15.674553
63.025 15.423094
63.030 14.985885
63.035 15.179563
63.040 15.751941
63.045 16.16066
63.050 16.846821
63.055 17.867916
63.060 17.976278
63.065 18.281569
63.070 18.431404
63.075 18.209679
63.080 17.978065
63.085 17.482752
63.090 17.011868
63.095 16.753485
63.100 16.785736
63.105 16.77426
63.110 17.286688
63.115 17.477371
63.120 17.583654
63.125 17.720112
63.130 18.181509
63.135 18.203125
63.140 18.624475
63.145 18.384329
63.150 18.300905
63.155 18.592218
63.160 18.748905
63.165 19.020559
63.170 19.30146
63.175 18.863964
63.180 18.598923
63.185 19.034138
63.190 18.526196
63.195 17.697748
63.200 17.007675
63.205 16.317062
63.210 16.441948
63.215 16.641163
63.220 15.924919
63.225 15.564281
63.230 15.847813
63.235 16.172144
63.240 16.803602
63.245 16.737314
63.250 16.967022
63.255 17.480169
63.260 18.418983
63.265 18.889824
63.270 18.708532
63.275 18.848486
63.280 19.183006
63.285 19.119438
63.290 18.964275
63.295 18.629429
63.300 18.348146
63.305 18.211359
63.310 18.196682
63.315 18.193731
63.320 18.257196
63.325 18.118195
63.330 18.370609
63.335 18.507925
63.340 18.379963
63.345 18.663412
63.350 18.814413
63.355 18.838934
63.360 19.792881
63.365 20.056946
63.370 20.463671
63.375 20.714436
63.380 20.068209
63.385 20.103571
63.390 20.176363
63.395 19.263115
63.400 18.498489
63.405 18.253796
63.410 17.741879
63.415 17.843386
63.420 16.895271
63.425 17.185495
63.430 17.499014
63.435 17.693449
63.440 17.773323
63.445 17.67754
63.450 18.362696
63.455 19.564842
63.460 18.890583
63.465 18.779732
63.470 19.307306
63.475 20.307812
63.480 21.027912
63.485 20.703213
63.490 20.320356
63.495 20.591248
63.500 20.650482
63.505 20.217297
63.510 19.301493
63.515 18.652721
63.520 18.357225
63.525 17.660082
63.530 17.674131
63.535 17.858465
63.540 17.56101
63.545 17.43609
63.550 17.440691
63.555 17.550411
63.560 18.284414
63.565 18.391342
63.570 17.724146
63.575 17.781551
63.580 17.457584
63.585 17.122574
63.590 16.961802
63.595 16.799923
63.600 17.084105
63.605 17.150686
63.610 16.942625
63.615 17.467163
63.620 17.893187
63.625 17.230509
63.630 16.019308
63.635 15.84407
63.640 16.090759
63.645 16.116259
63.650 15.763765
63.655 15.81578
63.660 16.105562
63.665 16.496891
63.670 16.281612
63.675 16.461496
63.680 16.528227
63.685 16.766542
63.690 16.763418
63.695 16.829174
63.700 17.400518
63.705 17.452524
63.710 17.153477
63.715 17.371943
63.720 17.616116
63.725 17.839037
63.730 17.950054
63.735 18.182056
63.740 18.641159
63.745 18.597284
63.750 18.111658
63.755 17.98138
63.760 18.291285
63.765 18.442818
63.770 18.131712
63.775 18.136387
63.780 18.491743
63.785 18.57411
63.790 18.406857
63.795 18.145512
63.800 18.429111
63.805 18.549093
63.810 18.275326
63.815 18.143642
63.820 18.169685
63.825 18.269274
63.830 18.208057
63.835 18.272896
63.840 19.164421
63.845 19.438902
63.850 19.819683
63.855 19.74024
63.860 19.363909
63.865 19.579615
63.870 19.431673
63.875 18.576035
63.880 17.858603
63.885 17.701813
63.890 17.980764
63.895 18.060606
63.900 16.9839
63.905 16.341373
63.910 16.377062
63.915 16.598513
63.920 16.3997
63.925 16.136574
63.930 16.58062
63.935 17.324926
63.940 17.477825
63.945 17.023693
63.950 17.568155
63.955 18.128542
63.960 18.403687
63.965 18.487236
63.970 18.458099
63.975 18.607771
63.980 18.799782
63.985 18.455345
63.990 18.605991
63.995 18.783691
64.000 18.591551
64.005 18.917381
64.010 19.341688
64.015 19.306498
64.020 19.595608
64.025 19.704653
64.030 19.590454
64.035 19.627777
64.040 19.701023
64.045 19.77611
64.050 19.922592
64.055 19.187487
64.060 18.621937
64.065 18.664738
64.070 18.78363
64.075 18.343981
64.080 18.259109
64.085 18.869751
64.090 18.663837
64.095 18.153946
64.100 17.745701
64.105 17.695692
64.110 18.063417
64.115 17.998123
64.120 17.724796
64.125 18.018328
64.130 18.779305
64.135 19.211594
64.140 19.147997
64.145 18.858847
64.150 18.601685
64.155 17.596163
64.160 17.956734
64.165 18.16947
64.170 18.263094
64.175 17.974216
64.180 17.903894
64.185 17.82893
64.190 18.090221
64.195 17.761106
64.200 17.464457
64.205 17.206816
64.210 17.53805
64.215 17.802416
64.220 17.787394
64.225 18.211273
64.230 18.594816
64.235 18.765932
64.240 19.19722
64.245 19.252323
64.250 19.001013
64.255 20.004467
64.260 20.56028
64.265 20.697323
64.270 20.373487
64.275 19.953331
64.280 19.588041
64.285 19.466146
64.290 19.098597
64.295 18.401932
64.300 18.262846
64.305 18.392284
64.310 18.503532
64.315 18.774902
64.320 18.76457
64.325 18.153692
64.330 18.148252
64.335 17.572927
64.340 17.211363
64.345 17.085125
64.350 17.270853
64.355 17.307146
64.360 17.729645
64.365 17.525011
64.370 17.407625
64.375 17.56951
64.380 17.437923
64.385 17.328455
64.390 16.977568
64.395 16.926571
64.400 17.574047
64.405 18.127836
64.410 18.56315
64.415 18.56274
64.420 18.122889
64.425 18.456772
64.430 18.580692
64.435 18.269371
64.440 17.848295
64.445 17.609512
64.450 18.2034
64.455 18.498325
64.460 18.756662
64.465 18.641485
64.470 18.894524
64.475 19.091009
64.480 19.421585
64.485 19.196659
64.490 19.340466
64.495 19.739983
64.500 20.070093
64.505 20.843739
64.510 20.954866
64.515 20.860186
64.520 20.737062
64.525 20.354412
64.530 19.748249
64.535 19.786581
64.540 19.277746
64.545 19.044823
64.550 19.18018
64.555 19.55316
64.560 19.722
64.565 19.930256
64.570 20.488176
64.575 20.384912
64.580 20.083241
64.585 19.816175
64.590 19.793543
64.595 20.033838
64.600 20.457846
64.605 19.86824
64.610 19.825407
64.615 19.86171
64.620 20.123644
64.625 20.241777
64.630 20.059025
64.635 19.825867
64.640 19.585684
64.645 19.385456
64.650 19.245979
64.655 18.964777
64.660 18.907724
64.665 19.038862
64.670 18.619774
64.675 18.725731
64.680 19.120064
64.685 19.249779
64.690 19.433434
64.695 19.137247
64.700 19.03199
64.705 19.504581
64.710 20.030998
64.715 20.119102
64.720 19.889357
64.725 19.47204
64.730 19.881659
64.735 20.118193
64.740 19.270123
64.745 18.11371
64.750 17.677483
64.755 17.893892
64.760 18.452986
64.765 18.415854
64.770 18.37784
64.775 19.045132
64.780 20.232618
64.785 20.719952
64.790 20.731709
64.795 20.170605
64.800 20.17371
64.805 19.930815
64.810 20.217661
64.815 20.067303
64.820 20.175282
64.825 20.894466
64.830 20.745729
64.835 21.035467
64.840 21.475986
64.845 21.666162
64.850 21.571598
64.855 21.453787
64.860 22.031425
64.865 22.961351
64.870 22.588297
64.875 21.928188
64.880 21.01726
64.885 20.545942
64.890 19.700294
64.895 19.246078
64.900 18.973295
64.905 18.879705
64.910 19.168293
64.915 19.54903
64.920 19.757751
64.925 19.849224
64.930 19.064137
64.935 18.831268
64.940 19.077089
64.945 19.19869
64.950 18.770529
64.955 18.554173
64.960 19.304977
64.965 20.315054
64.970 20.363777
64.975 20.555758
64.980 21.054491
64.985 21.996332
64.990 22.664545
64.995 22.263567
65.000 21.868666
65.005 21.982094
65.010 21.593676
65.015 21.325493
65.020 21.703386
65.025 21.814566
65.030 21.483221
65.035 21.065439
65.040 20.851421
65.045 21.265503
65.050 21.032021
65.055 20.763388
65.060 20.589499
65.065 20.821732
65.070 21.904097
65.075 22.436329
65.080 22.548853
65.085 23.010914
65.090 22.894691
65.095 22.910322
65.100 22.985594
65.105 22.374535
65.110 21.977688
65.115 21.679958
65.120 21.311192
65.125 21.963459
65.130 22.410173
65.135 22.698837
65.140 22.440523
65.145 22.826618
65.150 23.131039
65.155 23.040543
65.160 22.280355
65.165 21.607565
65.170 21.782978
65.175 22.139572
65.180 22.682911
65.185 22.505396
65.190 21.913061
65.195 21.326624
65.200 21.882404
65.205 22.297607
65.210 22.542984
65.215 21.749409
65.220 21.857578
65.225 22.826435
65.230 24.055601
65.235 23.361252
65.240 22.869415
65.245 22.293917
65.250 22.51878
65.255 22.596037
65.260 22.125513
65.265 21.892586
65.270 22.469292
65.275 22.232424
65.280 22.217035
65.285 22.527161
65.290 22.22604
65.295 22.074488
65.300 22.009693
65.305 21.993668
65.310 22.053988
65.315 22.087704
65.320 21.819788
65.325 21.70858
65.330 21.624725
65.335 21.258566
65.340 21.173035
65.345 21.622221
65.350 21.291098
65.355 20.666977
65.360 21.109701
65.365 21.469156
65.370 21.894886
65.375 22.283592
65.380 22.288416
65.385 22.571978
65.390 23.009813
65.395 22.759846
65.400 22.825319
65.405 23.182932
65.410 23.179384
65.415 23.326759
65.420 23.627611
65.425 23.924034
65.430 24.252415
65.435 24.497776
65.440 24.677063
65.445 24.081305
65.450 24.215073
65.455 24.892187
65.460 25.824537
65.465 26.298679
65.470 26.316269
65.475 26.239292
65.480 26.814573
65.485 27.447453
65.490 27.489851
65.495 27.26692
65.500 26.668398
65.505 26.460678
65.510 26.454493
65.515 26.325373
65.520 26.34049
65.525 26.257196
65.530 26.364697
65.535 26.917654
65.540 27.460711
65.545 27.928417
65.550 27.794903
65.555 27.296408
65.560 27.390797
65.565 26.99762
65.570 26.750547
65.575 27.045897
65.580 27.730886
65.585 27.77866
65.590 27.976566
65.595 27.483068
65.600 27.596481
65.605 27.816668
65.610 27.144636
65.615 26.189566
65.620 26.246254
65.625 25.585514
65.630 25.608803
65.635 26.155729
65.640 26.341797
65.645 27.29653
65.650 28.318668
65.655 28.587654
65.660 29.466497
65.665 30.152575
65.670 30.557657
65.675 31.151842
65.680 31.215612
65.685 31.393986
65.690 31.966398
65.695 32.22065
65.700 31.936569
65.705 31.907402
65.710 32.36182
65.715 32.900475
65.720 32.644592
65.725 32.854588
65.730 32.95718
65.735 33.192513
65.740 32.926548
65.745 32.485413
65.750 32.831734
65.755 33.024292
65.760 33.210068
65.765 33.841499
65.770 35.053665
65.775 35.277874
65.780 35.711483
65.785 35.684132
65.790 36.648914
65.795 36.830753
65.800 37.225578
65.805 37.180393
65.810 37.707905
65.815 37.742222
65.820 39.413498
65.825 40.385139
65.830 40.741013
65.835 39.626511
65.840 39.410713
65.845 39.592014
65.850 39.013161
65.855 37.728657
65.860 37.282173
65.865 37.46368
65.870 38.187988
65.875 37.612991
65.880 36.719307
65.885 36.737022
65.890 37.16069
65.895 37.08025
65.900 37.721294
65.905 37.888588
65.910 38.36393
65.915 39.017513
65.920 39.703751
65.925 39.881912
65.930 40.045544
65.935 39.131992
65.940 38.971447
65.945 38.432419
65.950 38.108223
65.955 38.162476
65.960 37.72847
65.965 37.540119
65.970 37.516815
65.975 37.776897
65.980 38.666405
65.985 39.277912
65.990 39.37854
65.995 39.815342
66.000 40.271988
66.005 40.069908
66.010 39.678062
66.015 39.0783
66.020 38.653641
66.025 38.070072
66.030 37.836845
66.035 37.093082
66.040 37.255157
66.045 37.763199
66.050 37.720154
66.055 38.370846
66.060 37.767654
66.065 37.327797
66.070 37.631104
66.075 37.998413
66.080 37.908031
66.085 37.722004
66.090 37.106289
66.095 37.847767
66.100 37.896873
66.105 37.73175
66.110 37.822594
66.115 37.569012
66.120 37.824451
66.125 37.507862
66.130 36.988232
66.135 36.848148
66.140 37.721424
66.145 37.366611
66.150 37.590969
66.155 37.473286
66.160 37.262009
66.165 37.80827
66.170 37.878937
66.175 37.072601
66.180 37.07753
66.185 37.219032
66.190 37.288006
66.195 38.329639
66.200 38.217018
66.205 37.515705
66.210 37.086132
66.215 37.672737
66.220 37.318115
66.225 36.511875
66.230 35.546394
66.235 35.412876
66.240 35.657879
66.245 35.187908
66.250 34.811878
66.255 35.119705
66.260 34.890469
66.265 34.117168
66.270 33.652027
66.275 33.588272
66.280 33.292767
66.285 33.798115
66.290 33.953804
66.295 34.363041
66.300 35.014286
66.305 35.152527
66.310 34.938038
66.315 34.967606
66.320 33.619682
66.325 33.420013
66.330 33.289299
66.335 32.871056
66.340 32.727428
66.345 32.370495
66.350 31.621246
66.355 31.654158
66.360 31.460981
66.365 30.858232
66.370 30.271036
66.375 29.8703
66.380 29.7861
66.385 30.184341
66.390 29.892035
66.395 30.449274
66.400 31.058861
66.405 31.559774
66.410 31.230682
66.415 31.16131
66.420 31.252871
66.425 31.175112
66.430 30.776787
66.435 30.818907
66.440 30.264023
66.445 30.323078
66.450 30.03264
66.455 29.934628
66.460 29.481306
66.465 28.790819
66.470 28.20826
66.475 28.106903
66.480 28.244354
66.485 28.658972
66.490 28.202991
66.495 27.761927
66.500 27.259283
66.505 27.4398
66.510 28.075445
66.515 28.279802
66.520 27.699209
66.525 27.828367
66.530 28.273008
66.535 28.918871
66.540 29.408321
66.545 29.178553
66.550 28.927048
66.555 29.06427
66.560 29.41284
66.565 29.797184
66.570 29.566866
66.575 29.156475
66.580 28.076344
66.585 27.833694
66.590 27.473066
66.595 26.770491
66.600 26.181311
66.605 26.089828
66.610 25.588778
66.615 25.903109
66.620 25.814054
66.625 26.128496
66.630 26.235456
66.635 26.361475
66.640 25.878582
66.645 25.717951
66.650 25.562595
66.655 25.275322
66.660 24.898542
66.665 23.995991
66.670 23.315681
66.675 23.288574
66.680 23.034861
66.685 22.631123
66.690 23.03442
66.695 23.24362
66.700 23.454206
66.705 23.624479
66.710 23.716908
66.715 24.342018
66.720 24.441626
66.725 23.732107
66.730 23.750166
66.735 24.366156
66.740 24.450169
66.745 23.850403
66.750 23.681293
66.755 23.621708
66.760 23.601967
66.765 23.238111
66.770 23.42449
66.775 23.975588
66.780 24.573376
66.785 24.545307
66.790 24.760546
66.795 24.203907
66.800 24.32052
66.805 23.539362
66.810 22.875376
66.815 22.858387
66.820 23.106424
66.825 23.099741
66.830 23.383509
66.835 23.364973
66.840 23.516617
66.845 23.655832
66.850 23.469093
66.855 23.684076
66.860 24.106121
66.865 24.212669
66.870 24.131216
66.875 24.705246
66.880 24.82254
66.885 25.440374
66.890 25.437269
66.895 25.052132
66.900 24.712456
66.905 24.182533
66.910 24.019863
66.915 24.237738
66.920 23.666716
66.925 23.069838
66.930 22.821199
66.935 23.445263
66.940 23.600155
66.945 22.915474
66.950 22.153685
66.955 22.00036
66.960 22.139071
66.965 22.721596
66.970 22.952486
66.975 23.114639
66.980 23.695
66.985 24.301643
66.990 24.765436
66.995 24.638315
67.000 23.748997
67.005 23.501656
67.010 23.415762
67.015 22.419888
67.020 21.556107
67.025 20.871193
67.030 20.950399
67.035 21.189713
67.040 20.788855
67.045 20.951941
67.050 21.525944
67.055 21.902294
67.060 22.240492
67.065 22.145393
67.070 22.262955
67.075 22.175201
67.080 22.135956
67.085 21.809778
67.090 21.613262
67.095 21.753769
67.100 21.609713
67.105 21.20463
67.110 21.191986
67.115 21.072496
67.120 21.345367
67.125 21.326077
67.130 21.504234
67.135 21.458092
67.140 21.692097
67.145 21.496443
67.150 21.646425
67.155 22.038063
67.160 22.445002
67.165 22.522129
67.170 22.543797
67.175 22.720629
67.180 22.935701
67.185 22.408298
67.190 21.865534
67.195 21.91984
67.200 21.859375
67.205 21.161255
67.210 21.021191
67.215 21.235897
67.220 21.419025
67.225 21.191523
67.230 19.973763
67.235 19.417223
67.240 20.448479
67.245 20.171242
67.250 19.740406
67.255 19.824089
67.260 20.530529
67.265 20.904316
67.270 21.086287
67.275 20.849779
67.280 21.156244
67.285 21.30138
67.290 21.668131
67.295 21.499014
67.300 21.852774
67.305 22.105722
67.310 22.244862
67.315 22.372223
67.320 22.325005
67.325 21.826815
67.330 21.566811
67.335 21.838324
67.340 21.455566
67.345 20.558352
67.350 20.000631
67.355 19.907492
67.360 19.91033
67.365 19.941967
67.370 20.517378
67.375 21.218691
67.380 21.766922
67.385 22.527536
67.390 22.896223
67.395 22.728443
67.400 22.151011
67.405 21.514732
67.410 21.343412
67.415 21.615677
67.420 21.601242
67.425 20.96216
67.430 20.860342
67.435 21.121178
67.440 20.964272
67.445 20.79405
67.450 20.542503
67.455 20.100054
67.460 20.206882
67.465 20.845303
67.470 21.363899
67.475 21.721056
67.480 21.905542
67.485 21.584183
67.490 22.185528
67.495 22.528887
67.500 22.193958
67.505 22.016489
67.510 21.75108
67.515 21.964766
67.520 21.826916
67.525 20.884472
67.530 21.722033
67.535 22.31724
67.540 22.044106
67.545 21.98139
67.550 21.581648
67.555 21.573734
67.560 21.834862
67.565 21.779633
67.570 21.48941
67.575 21.529802
67.580 21.617039
67.585 21.69598
67.590 21.820005
67.595 21.948687
67.600 21.426987
67.605 21.453287
67.610 20.910643
67.615 20.695608
67.620 20.693066
67.625 20.668631
67.630 20.210699
67.635 19.524063
67.640 19.03824
67.645 18.969185
67.650 18.945053
67.655 18.840534
67.660 18.615963
67.665 18.7339
67.670 18.824736
67.675 19.02725
67.680 19.37635
67.685 19.726547
67.690 20.113087
67.695 20.288904
67.700 20.774097
67.705 20.877733
67.710 20.80398
67.715 20.933306
67.720 20.74832
67.725 20.683405
67.730 20.534302
67.735 20.409906
67.740 20.738653
67.745 20.981798
67.750 21.303852
67.755 21.151072
67.760 21.059034
67.765 21.089699
67.770 20.925005
67.775 20.37442
67.780 20.335924
67.785 19.665077
67.790 19.284456
67.795 19.418825
67.800 19.617683
67.805 19.844553
67.810 20.374046
67.815 20.132906
67.820 20.460714
67.825 20.859468
67.830 20.551624
67.835 20.259129
67.840 20.155882
67.845 19.99782
67.850 19.869364
67.855 19.803288
67.860 20.436548
67.865 21.451208
67.870 21.489548
67.875 21.540333
67.880 21.672487
67.885 21.82686
67.890 21.651163
67.895 21.201756
67.900 20.628311
67.905 20.966347
67.910 20.992954
67.915 21.025429
67.920 21.05043
67.925 21.431168
67.930 21.694576
67.935 21.477436
67.940 21.073574
67.945 21.115496
67.950 21.583019
67.955 21.065851
67.960 20.578699
67.965 19.859753
67.970 18.952551
67.975 18.502956
67.980 17.884375
67.985 18.165548
67.990 18.691444
67.995 19.062672
68.000 19.604692
68.005 21.112356
68.010 21.66333
68.015 22.004353
68.020 21.740978
68.025 21.83407
68.030 21.531149
68.035 20.959223
68.040 20.38352
68.045 20.804909
68.050 20.088202
68.055 19.360832
68.060 19.027134
68.065 19.086008
68.070 19.209923
68.075 19.40019
68.080 19.411432
68.085 19.814556
68.090 20.273521
68.095 20.259361
68.100 20.217115
68.105 20.091644
68.110 20.038618
68.115 19.943022
68.120 20.000963
68.125 19.897346
68.130 20.365213
68.135 21.112913
68.140 21.521271
68.145 21.299082
68.150 21.189896
68.155 21.535641
68.160 21.768343
68.165 21.583389
68.170 21.581699
68.175 21.712872
68.180 21.57077
68.185 22.016918
68.190 21.485302
68.195 21.589716
68.200 21.491459
68.205 21.231913
68.210 20.735209
68.215 20.598022
68.220 20.13999
68.225 19.923777
68.230 19.811375
68.235 19.488361
68.240 19.460617
68.245 19.609255
68.250 19.553944
68.255 20.029814
68.260 20.570576
68.265 20.436064
68.270 20.774578
68.275 21.612936
68.280 22.173191
68.285 22.249002
68.290 22.598101
68.295 22.442101
68.300 22.936338
68.305 22.856478
68.310 21.907347
68.315 21.109673
68.320 20.981167
68.325 20.852638
68.330 21.17153
68.335 21.268843
68.340 21.09094
68.345 21.278175
68.350 21.927231
68.355 22.168388
68.360 21.825182
68.365 21.764189
68.370 21.56901
68.375 21.972481
68.380 22.697124
68.385 22.579224
68.390 22.074556
68.395 22.271799
68.400 22.323246
68.405 22.15332
68.410 21.891788
68.415 20.977705
68.420 20.189827
68.425 20.724499
68.430 20.233042
68.435 19.647455
68.440 19.133226
68.445 18.887655
68.450 19.794641
68.455 20.479906
68.460 20.387503
68.465 20.335859
68.470 20.659428
68.475 21.395609
68.480 21.245714
68.485 20.56646
68.490 20.401861
68.495 21.010523
68.500 21.355703
68.505 21.371374
68.510 21.396406
68.515 21.496521
68.520 22.343763
68.525 22.329548
68.530 21.949642
68.535 21.862101
68.540 21.801186
68.545 21.705517
68.550 21.993544
68.555 22.280968
68.560 22.537531
68.565 22.079418
68.570 22.225424
68.575 21.87904
68.580 21.996546
68.585 21.330675
68.590 20.722019
68.595 20.825043
68.600 20.840031
68.605 20.618759
68.610 20.959412
68.615 20.881422
68.620 21.215214
68.625 20.96295
68.630 20.749897
68.635 21.601883
68.640 21.874182
68.645 21.770084
68.650 21.531622
68.655 21.449814
68.660 21.224831
68.665 20.999878
68.670 20.504473
68.675 20.64106
68.680 21.24416
68.685 21.718533
68.690 22.323801
68.695 22.967066
68.700 23.394835
68.705 23.617882
68.710 23.440958
68.715 22.877287
68.720 22.380112
68.725 22.590485
68.730 22.920094
68.735 22.810028
68.740 22.500193
68.745 22.798048
68.750 23.075079
68.755 23.600027
68.760 22.840088
68.765 22.583166
68.770 22.203669
68.775 22.37002
68.780 22.206387
68.785 22.353302
68.790 21.367264
68.795 21.462767
68.800 21.365551
68.805 21.420162
68.810 21.582008
68.815 21.477776
68.820 21.269392
68.825 21.875273
68.830 22.631178
68.835 22.421698
68.840 22.969206
68.845 22.440624
68.850 22.546778
68.855 22.527599
68.860 22.579697
68.865 22.284636
68.870 22.34767
68.875 22.019651
68.880 21.900486
68.885 21.298985
68.890 21.542372
68.895 21.736866
68.900 22.334602
68.905 22.858505
68.910 23.37821
68.915 23.830929
68.920 24.15764
68.925 23.79859
68.930 23.315458
68.935 22.303705
68.940 21.478909
68.945 21.15649
68.950 21.310566
68.955 21.612879
68.960 21.633801
68.965 21.177427
68.970 21.746853
68.975 21.807768
68.980 21.842634
68.985 22.007326
68.990 22.138184
68.995 22.114288
69.000 22.359049
69.005 23.359995
69.010 24.483114
69.015 24.865513
69.020 24.674994
69.025 25.093231
69.030 25.254461
69.035 25.404436
69.040 25.267012
69.045 24.933611
69.050 24.665613
69.055 24.458647
69.060 24.332819
69.065 24.724367
69.070 25.098734
69.075 24.611706
69.080 24.341305
69.085 24.136112
69.090 23.92557
69.095 23.873226
69.100 23.726269
69.105 23.055094
69.110 22.549076
69.115 22.643507
69.120 23.104013
69.125 23.116539
69.130 22.616226
69.135 22.420389
69.140 22.448088
69.145 22.799326
69.150 22.763834
69.155 22.745087
69.160 23.203747
69.165 24.105028
69.170 24.924921
69.175 25.28533
69.180 25.298752
69.185 26.056705
69.190 26.461851
69.195 26.904119
69.200 27.085091
69.205 27.148615
69.210 27.29291
69.215 27.846781
69.220 27.762526
69.225 27.416122
69.230 27.550507
69.235 27.110043
69.240 27.954746
69.245 28.721991
69.250 28.042509
69.255 27.930202
69.260 27.971855
69.265 27.614056
69.270 27.15344
69.275 26.654722
69.280 27.050232
69.285 27.638865
69.290 27.472933
69.295 28.089018
69.300 28.46279
69.305 28.844486
69.310 27.923815
69.315 27.264231
69.320 26.868889
69.325 27.241371
69.330 25.96788
69.335 25.636454
69.340 24.976366
69.345 25.617943
69.350 25.993858
69.355 26.440872
69.360 26.388182
69.365 26.956671
69.370 27.505348
69.375 27.952204
69.380 28.279722
69.385 28.423262
69.390 29.169041
69.395 29.836191
69.400 29.812181
69.405 29.180685
69.410 29.501436
69.415 29.963106
69.420 30.454897
69.425 30.48768
69.430 30.621925
69.435 30.712017
69.440 31.080347
69.445 31.296509
69.450 30.784678
69.455 29.87302
69.460 28.5896
69.465 28.347437
69.470 28.730944
69.475 28.902592
69.480 29.069662
69.485 28.574387
69.490 28.746889
69.495 29.314102
69.500 29.474318
69.505 29.415733
69.510 30.064129
69.515 30.286896
69.520 30.464449
69.525 30.863115
69.530 30.288185
69.535 30.24111
69.540 30.277431
69.545 29.692753
69.550 29.860964
69.555 30.026188
69.560 29.795462
69.565 30.220215
69.570 30.215288
69.575 30.198338
69.580 29.924053
69.585 29.508135
69.590 29.385506
69.595 29.800215
69.600 29.609171
69.605 29.293859
69.610 29.133772
69.615 28.99217
69.620 29.525814
69.625 29.600681
69.630 29.854736
69.635 30.180735
69.640 30.133606
69.645 30.008186
69.650 30.523817
69.655 30.119385
69.660 30.181677
69.665 29.935183
69.670 29.995064
69.675 30.796873
69.680 31.343533
69.685 31.115412
69.690 31.000893
69.695 30.648808
69.700 30.609245
69.705 30.166893
69.710 28.650631
69.715 27.660772
69.720 27.019539
69.725 27.405981
69.730 27.040476
69.735 26.949463
69.740 27.036804
69.745 27.193115
69.750 27.223982
69.755 27.226364
69.760 26.04583
69.765 25.984852
69.770 25.512079
69.775 24.780838
69.780 25.06226
69.785 25.718088
69.790 25.676769
69.795 25.832382
69.800 25.37232
69.805 25.585827
69.810 26.405447
69.815 26.530745
69.820 26.104265
69.825 26.148584
69.830 26.480215
69.835 26.843365
69.840 26.342524
69.845 25.937792
69.850 25.634035
69.855 25.474937
69.860 25.197292
69.865 25.194933
69.870 25.514671
69.875 26.132807
69.880 26.176435
69.885 26.096088
69.890 25.790216
69.895 26.157528
69.900 26.037357
69.905 25.249596
69.910 24.598694
69.915 24.444334
69.920 24.538118
69.925 25.333988
69.930 25.209181
69.935 25.113422
69.940 25.055094
69.945 24.51041
69.950 24.393333
69.955 24.315411
69.960 23.608683
69.965 23.253332
69.970 22.420973
69.975 22.528898
69.980 23.13896
69.985 22.87303
69.990 22.569912
69.995 22.356609
70.000 22.056896
70.005 22.311653
70.010 21.905506
70.015 21.343391
70.020 20.826513
70.025 20.857542
70.030 21.113279
70.035 20.676279
70.040 21.001261
70.045 21.306091
70.050 21.62208
70.055 21.653086
70.060 21.509014
70.065 21.631557
70.070 22.169754
70.075 21.873474
70.080 21.921738
70.085 21.966946
70.090 22.169949
70.095 21.679821
70.100 22.623083
70.105 22.143255
70.110 22.165928
70.115 22.161564
70.120 21.901377
70.125 22.301544
70.130 22.668949
70.135 21.462643
70.140 21.14682
70.145 20.816008
70.150 21.063093
70.155 21.486425
70.160 20.983488
70.165 20.570963
70.170 21.381634
70.175 22.549522
70.180 23.293276
70.185 22.711603
70.190 22.430899
70.195 22.742079
70.200 22.612928
70.205 21.972479
70.210 21.452251
70.215 21.49579
70.220 21.751286
70.225 21.439842
70.230 21.170322
70.235 21.427113
70.240 21.472521
70.245 21.403107
70.250 21.12891
70.255 22.172541
70.260 22.217823
70.265 22.219721
70.270 21.755491
70.275 21.963226
70.280 21.807236
70.285 21.099325
70.290 20.336384
70.295 19.985847
70.300 20.332424
70.305 20.620083
70.310 20.168974
70.315 19.863958
70.320 20.198421
70.325 20.636715
70.330 21.708689
70.335 22.059504
70.340 21.678085
70.345 21.827957
70.350 21.852264
70.355 20.655525
70.360 20.625641
70.365 20.431593
70.370 19.607054
70.375 19.948896
70.380 20.019798
70.385 20.518873
70.390 20.690346
70.395 20.192352
70.400 19.409914
70.405 19.365572
70.410 18.467585
70.415 18.343891
70.420 18.532246
70.425 19.326593
70.430 19.392429
70.435 20.092163
70.440 20.843616
70.445 21.245014
70.450 21.403576
70.455 21.471416
70.460 21.344624
70.465 21.257456
70.470 21.26033
70.475 21.16749
70.480 20.580111
70.485 20.379725
70.490 20.196005
70.495 19.781542
70.500 19.506521
70.505 18.972221
70.510 18.763861
70.515 19.029659
70.520 18.935827
70.525 19.17425
70.530 19.934549
70.535 20.22908
70.540 19.949802
70.545 19.945061
70.550 19.776131
70.555 19.735451
70.560 19.296535
70.565 18.875502
70.570 18.921961
70.575 18.833952
70.580 19.398125
70.585 19.246111
70.590 18.621363
70.595 18.819036
70.600 19.213772
70.605 20.255148
70.610 21.092848
70.615 21.112982
70.620 21.573122
70.625 22.214481
70.630 21.841158
70.635 21.339104
70.640 20.67452
70.645 20.540632
70.650 20.632647
70.655 21.14271
70.660 21.118486
70.665 20.744326
70.670 20.118826
70.675 19.542583
70.680 19.108294
70.685 18.743042
70.690 19.021845
70.695 19.455393
70.700 20.014275
70.705 20.241133
70.710 20.352043
70.715 20.617558
70.720 20.050709
70.725 19.568781
70.730 19.501471
70.735 19.547112
70.740 19.416414
70.745 19.030031
70.750 18.858408
70.755 19.246077
70.760 19.00462
70.765 18.868406
70.770 19.021215
70.775 18.78607
70.780 19.306814
70.785 19.475691
70.790 19.779819
70.795 19.989279
70.800 20.006594
70.805 19.597776
70.810 19.621138
70.815 18.737299
70.820 19.063358
70.825 18.836065
70.830 17.972351
70.835 18.197493
70.840 18.366129
70.845 18.478546
70.850 19.359093
70.855 18.530563
70.860 18.956001
70.865 19.242889
70.870 19.193703
70.875 19.017252
70.880 19.358866
70.885 18.95155
70.890 18.828371
70.895 18.413639
70.900 18.871164
70.905 19.026339
70.910 19.289688
70.915 19.12361
70.920 19.26749
70.925 19.514391
70.930 19.885178
70.935 19.228807
70.940 19.242628
70.945 19.037832
70.950 19.43037
70.955 19.279478
70.960 19.570414
70.965 19.627518
70.970 20.708502
70.975 21.28392
70.980 21.077209
70.985 20.582685
70.990 20.327824
70.995 19.926643
71.000 18.880705
71.005 18.478371
71.010 18.309652
71.015 18.152557
71.020 17.920145
71.025 17.525936
71.030 17.449835
71.035 17.735464
71.040 16.890665
71.045 16.434229
71.050 17.1658
71.055 17.640306
71.060 17.788456
71.065 17.359016
71.070 17.117825
71.075 17.478977
71.080 17.80431
71.085 17.852081
71.090 17.865362
71.095 18.60746
71.100 19.560211
71.105 19.984694
71.110 19.931646
71.115 19.866438
71.120 19.57255
71.125 19.658804
71.130 19.610117
71.135 19.599392
71.140 19.814137
71.145 19.598223
71.150 19.737312
71.155 19.880257
71.160 19.842222
71.165 19.283869
71.170 19.275881
71.175 18.916883
71.180 18.320169
71.185 18.173843
71.190 17.868887
71.195 17.824076
71.200 17.964676
71.205 17.920956
71.210 18.315123
71.215 19.320732
71.220 19.461542
71.225 19.854826
71.230 20.571671
71.235 21.082745
71.240 20.669521
71.245 20.573069
71.250 20.11672
71.255 20.09412
71.260 20.042355
71.265 19.154745
71.270 18.916136
71.275 19.059368
71.280 19.062681
71.285 19.209791
71.290 19.184153
71.295 18.632452
71.300 19.309231
71.305 18.985504
71.310 18.398033
71.315 18.186855
71.320 18.253466
71.325 18.3349
71.330 18.30477
71.335 17.892622
71.340 18.194201
71.345 19.170729
71.350 19.103302
71.355 18.965097
71.360 19.303228
71.365 19.325254
71.370 19.53091
71.375 19.599264
71.380 19.137154
71.385 19.1903
71.390 19.500011
71.395 19.27928
71.400 19.390081
71.405 19.782482
71.410 19.831112
71.415 19.652395
71.420 18.888578
71.425 18.485674
71.430 18.296272
71.435 18.136629
71.440 17.252577
71.445 17.196718
71.450 17.749956
71.455 18.332897
71.460 18.568588
71.465 18.734547
71.470 18.914043
71.475 18.836769
71.480 18.518444
71.485 18.101627
71.490 17.566668
71.495 17.335281
71.500 16.762758
71.505 17.420155
71.510 18.44729
71.515 18.868616
71.520 19.338682
71.525 19.230221
71.530 19.4223
71.535 20.04389
71.540 19.063622
71.545 18.526789
71.550 18.281393
71.555 18.246197
71.560 18.547506
71.565 18.387581
71.570 18.041639
71.575 18.685415
71.580 18.8046
71.585 18.846222
71.590 18.891041
71.595 19.154369
71.600 19.874079
71.605 19.602617
71.610 19.179192
71.615 18.85853
71.620 18.816618
71.625 18.837082
71.630 18.686518
71.635 18.048368
71.640 17.880947
71.645 17.857353
71.650 18.265488
71.655 17.962408
71.660 17.7215
71.665 17.844355
71.670 18.317726
71.675 18.188576
71.680 17.834249
71.685 17.898796
71.690 18.226767
71.695 18.309126
71.700 17.996481
71.705 17.944712
71.710 18.377401
71.715 17.913916
71.720 17.736879
71.725 17.729553
71.730 17.372591
71.735 17.580816
71.740 17.337231
71.745 17.570648
71.750 17.733551
71.755 17.714096
71.760 17.614723
71.765 17.877758
71.770 17.777899
71.775 17.168066
71.780 17.000217
71.785 17.417538
71.790 17.506025
71.795 17.485756
71.800 17.48843
71.805 17.737322
71.810 18.435785
71.815 18.83882
71.820 18.822453
71.825 19.237835
71.830 19.925507
71.835 20.098995
71.840 20.444918
71.845 20.263329
71.850 20.621361
71.855 20.391926
71.860 19.893303
71.865 19.191971
71.870 18.757074
71.875 18.253353
71.880 18.409216
71.885 18.412901
71.890 19.077454
71.895 19.475893
71.900 19.754543
71.905 20.575293
71.910 21.498911
71.915 21.515606
71.920 21.43755
71.925 20.978621
71.930 21.018461
71.935 20.79088
71.940 20.031055
71.945 19.932079
71.950 19.702114
71.955 19.389338
71.960 19.042091
71.965 18.26185
71.970 17.809471
71.975 18.347742
71.980 18.447531
71.985 18.931862
71.990 19.396568
71.995 19.572857
72.000 20.218498
72.005 20.333385
72.010 20.13151
72.015 19.479717
72.020 19.410814
72.025 19.137318
72.030 19.34985
72.035 19.470697
72.040 19.363977
72.045 18.981064
72.050 19.668598
72.055 19.312908
72.060 19.287996
72.065 19.197001
72.070 19.00716
72.075 18.802525
72.080 18.772127
72.085 18.202208
72.090 18.382242
72.095 18.504757
72.100 18.268862
72.105 17.744329
72.110 17.880863
72.115 17.979273
72.120 17.942667
72.125 17.567545
72.130 17.201124
72.135 17.114012
72.140 17.279333
72.145 16.758501
72.150 16.833818
72.155 17.276491
72.160 17.354904
72.165 17.919283
72.170 17.884706
72.175 17.958981
72.180 18.943357
72.185 18.926962
72.190 18.833452
72.195 19.301376
72.200 19.56041
72.205 19.89957
72.210 19.808357
72.215 18.262005
72.220 17.767263
72.225 17.295219
72.230 16.807289
72.235 16.574827
72.240 16.657986
72.245 17.435755
72.250 18.62044
72.255 18.977856
72.260 19.30514
72.265 19.847305
72.270 19.707033
72.275 19.642179
72.280 19.193014
72.285 19.635601
72.290 19.461494
72.295 19.565454
72.300 19.242153
72.305 19.070677
72.310 18.803104
72.315 18.962383
72.320 18.35862
72.325 18.091967
72.330 17.992453
72.335 18.217014
72.340 18.432266
72.345 18.819023
72.350 18.302853
72.355 18.355183
72.360 18.701044
72.365 18.504705
72.370 18.201481
72.375 17.914667
72.380 17.736059
72.385 17.124449
72.390 16.789827
72.395 16.544275
72.400 17.00157
72.405 17.255859
72.410 17.695738
72.415 18.373106
72.420 19.188362
72.425 19.315918
72.430 19.795843
72.435 19.552685
72.440 19.520903
72.445 19.388351
72.450 18.887184
72.455 18.79595
72.460 18.012686
72.465 17.161066
72.470 17.275187
72.475 17.507092
72.480 17.320436
72.485 16.852127
72.490 16.865316
72.495 17.39933
72.500 17.659044
72.505 17.47607
72.510 17.295034
72.515 17.253298
72.520 17.515387
72.525 18.023911
72.530 18.040649
72.535 18.319847
72.540 19.043116
72.545 18.887577
72.550 19.388142
72.555 19.567808
72.560 19.963688
72.565 19.993334
72.570 19.606245
72.575 19.163107
72.580 19.218307
72.585 19.488426
72.590 19.640978
72.595 18.902988
72.600 19.424906
72.605 19.358723
72.610 19.240915
72.615 18.879541
72.620 18.394711
72.625 18.535698
72.630 17.997581
72.635 17.571955
72.640 17.114038
72.645 16.880379
72.650 17.134462
72.655 16.693108
72.660 16.136087
72.665 16.487423
72.670 16.592169
72.675 17.097977
72.680 17.472399
72.685 17.766312
72.690 17.900013
72.695 17.544226
72.700 17.128965
72.705 17.397146
72.710 17.188568
72.715 16.554472
72.720 17.330999
72.725 17.899769
72.730 18.993427
72.735 19.0812
72.740 18.43656
72.745 18.517366
72.750 18.754612
72.755 17.920496
72.760 17.697567
72.765 18.201653
72.770 18.820959
72.775 19.560013
72.780 19.280088
72.785 18.84877
72.790 18.393463
72.795 17.933601
72.800 17.262012
72.805 16.945164
72.810 16.82781
72.815 16.669321
72.820 17.006207
72.825 17.529558
72.830 18.100967
72.835 18.592199
72.840 18.184427
72.845 17.69908
72.850 18.034733
72.855 17.562698
72.860 16.522379
72.865 15.52455
72.870 14.884735
72.875 14.719378
72.880 15.018095
72.885 14.827077
72.890 14.893204
72.895 15.804497
72.900 16.04668
72.905 16.765259
72.910 17.011444
72.915 17.86797
72.920 18.253555
72.925 18.689505
72.930 18.855114
72.935 18.728922
72.940 18.612705
72.945 18.403666
72.950 17.756979
72.955 18.157421
72.960 17.721018
72.965 17.327724
72.970 17.232126
72.975 17.221258
72.980 17.394176
72.985 16.925001
72.990 16.260712
72.995 16.372948
73.000 16.733908
