!@!!GADDS PLOTSO FILE: Chi integration type
!@!!Title/SampleName: map-24
!@!!Comment: ?
!@!!User: Bruker Instrument Administrator
!@!!Site: University of Illinois Chicago
!@!!Frame: map-24_01_000.gfrm
!@!!Wavelengths    1.54184   1.54056   1.54439
!@!!Frame angles: 2Theta: 63.000 Omega: 50.000 Phi: 0.000 Chi: 90.000
!@!!Integration range: 2Theta: 53.000 to 73.000  Gamma: -105.000 to -75.000
!@!!Integration method: bin normalized
!@!N
!@!SS
!@!M
!@!L 0.0 0.0 0.0 0.0
!@!XDegrees
!@!YCounts
53.000 7.583894
53.005 7.666988
53.010 7.523538
53.015 7.378659
53.020 6.845707
53.025 7.06725
53.030 7.221725
53.035 6.932565
53.040 7.074568
53.045 7.07077
53.050 7.588106
53.055 8.029926
53.060 7.887177
53.065 8.2974
53.070 8.240584
53.075 8.33339
53.080 8.320207
53.085 8.042364
53.090 7.585866
53.095 7.279525
53.100 7.039433
53.105 7.229051
53.110 7.18272
53.115 7.708987
53.120 7.849224
53.125 7.625782
53.130 7.574165
53.135 7.746754
53.140 8.014547
53.145 8.108893
53.150 7.891418
53.155 7.847746
53.160 8.198436
53.165 8.425279
53.170 8.303993
53.175 7.969283
53.180 7.423777
53.185 7.267457
53.190 7.512706
53.195 8.104777
53.200 8.187073
53.205 7.883098
53.210 7.96984
53.215 8.398911
53.220 8.610029
53.225 8.502131
53.230 8.030622
53.235 8.288347
53.240 8.721092
53.245 8.794632
53.250 8.858593
53.255 9.140698
53.260 8.966436
53.265 8.968974
53.270 8.723663
53.275 8.709125
53.280 8.49549
53.285 8.363056
53.290 8.293012
53.295 8.356071
53.300 8.440106
53.305 8.689249
53.310 8.667612
53.315 8.620875
53.320 8.224244
53.325 7.934706
53.330 8.055596
53.335 7.66723
53.340 7.338641
53.345 7.440393
53.350 7.900468
53.355 8.375669
53.360 8.524041
53.365 8.735756
53.370 9.029508
53.375 9.170305
53.380 9.220674
53.385 9.206897
53.390 9.144691
53.395 8.826517
53.400 8.481931
53.405 8.429709
53.410 8.66503
53.415 8.746307
53.420 8.616336
53.425 8.824594
53.430 8.977893
53.435 9.184642
53.440 8.685444
53.445 8.173262
53.450 8.025401
53.455 8.241182
53.460 8.131746
53.465 8.266481
53.470 8.174156
53.475 8.691586
53.480 9.102834
53.485 9.365208
53.490 9.890605
53.495 10.255855
53.500 10.424657
53.505 10.357669
53.510 10.334855
53.515 10.361721
53.520 10.058398
53.525 9.377727
53.530 9.453903
53.535 9.485283
53.540 9.574581
53.545 9.567484
53.550 9.367184
53.555 9.308923
53.560 8.98977
53.565 8.834726
53.570 8.85411
53.575 8.957897
53.580 9.071257
53.585 9.559818
53.590 9.643285
53.595 9.551002
53.600 9.608083
53.605 9.849883
53.610 9.557101
53.615 9.273948
53.620 8.650812
53.625 8.646388
53.630 9.204932
53.635 9.224916
53.640 8.866932
53.645 8.754122
53.650 8.393365
53.655 8.54121
53.660 8.618629
53.665 8.293004
53.670 8.491435
53.675 8.872948
53.680 8.999167
53.685 9.154494
53.690 8.929676
53.695 8.738358
53.700 8.54134
53.705 7.949652
53.710 8.04339
53.715 8.34878
53.720 8.142863
53.725 8.289335
53.730 8.296839
53.735 8.600947
53.740 8.582616
53.745 8.144456
53.750 8.006778
53.755 8.254862
53.760 8.051075
53.765 7.88305
53.770 7.718668
53.775 7.827783
53.780 7.622159
53.785 7.680835
53.790 7.469967
53.795 7.772713
53.800 8.074083
53.805 8.548633
53.810 8.978035
53.815 9.33204
53.820 9.865613
53.825 10.060011
53.830 10.072939
53.835 9.846578
53.840 9.553072
53.845 9.261603
53.850 9.214596
53.855 9.013975
53.860 8.897011
53.865 8.895818
53.870 8.970225
53.875 8.797089
53.880 8.971909
53.885 8.611228
53.890 8.478806
53.895 8.55521
53.900 7.949105
53.905 7.934307
53.910 8.02193
53.915 7.84667
53.920 7.764928
53.925 7.774761
53.930 7.844993
53.935 7.72293
53.940 7.700775
53.945 7.998765
53.950 8.226986
53.955 8.453284
53.960 8.605364
53.965 8.625635
53.970 8.636478
53.975 8.445093
53.980 8.187908
53.985 8.124195
53.990 7.993823
53.995 8.183868
54.000 9.10237
54.005 9.330705
54.010 9.256892
54.015 9.312063
54.020 9.374543
54.025 9.52718
54.030 9.328658
54.035 8.818071
54.040 8.513483
54.045 8.488609
54.050 8.938807
54.055 8.981476
54.060 8.815151
54.065 8.698364
54.070 8.738122
54.075 8.79397
54.080 9.028208
54.085 9.160662
54.090 9.455091
54.095 9.646819
54.100 9.678275
54.105 9.745569
54.110 10.189714
54.115 10.053482
54.120 9.845705
54.125 9.588613
54.130 9.255526
54.135 9.708187
54.140 9.916382
54.145 9.601254
54.150 8.931451
54.155 8.742761
54.160 8.638576
54.165 8.375095
54.170 8.240515
54.175 8.439565
54.180 8.579459
54.185 8.749912
54.190 9.167933
54.195 9.436731
54.200 9.839041
54.205 9.694949
54.210 10.025751
54.215 9.747401
54.220 9.498666
54.225 9.274515
54.230 9.25036
54.235 9.702918
54.240 9.675144
54.245 9.540483
54.250 9.772545
54.255 9.931103
54.260 10.055015
54.265 9.899185
54.270 9.737165
54.275 9.796343
54.280 10.002461
54.285 10.463062
54.290 10.841528
54.295 10.838119
54.300 10.426531
54.305 9.950231
54.310 9.936809
54.315 9.882093
54.320 9.747478
54.325 10.198895
54.330 10.265738
54.335 10.163298
54.340 10.343944
54.345 10.058459
54.350 9.926776
54.355 9.402782
54.360 8.729882
54.365 8.677819
54.370 9.007719
54.375 8.735572
54.380 8.347912
54.385 8.232416
54.390 8.740967
54.395 8.989773
54.400 8.893988
54.405 8.70962
54.410 8.721435
54.415 8.949417
54.420 9.143014
54.425 8.773155
54.430 8.856309
54.435 9.381024
54.440 9.410728
54.445 9.584705
54.450 9.965554
54.455 9.973603
54.460 10.073977
54.465 10.441481
54.470 10.152377
54.475 10.30375
54.480 10.443313
54.485 10.164942
54.490 10.291401
54.495 10.127763
54.500 9.389413
54.505 9.083413
54.510 8.856067
54.515 8.380027
54.520 8.244294
54.525 8.083467
54.530 7.943581
54.535 7.854618
54.540 7.954414
54.545 7.886526
54.550 7.965708
54.555 7.742649
54.560 7.585942
54.565 7.940901
54.570 8.485691
54.575 8.978109
54.580 9.808912
54.585 10.153783
54.590 10.352016
54.595 10.145191
54.600 10.124026
54.605 10.412391
54.610 10.058809
54.615 9.632113
54.620 9.728344
54.625 9.953929
54.630 10.00834
54.635 9.932002
54.640 9.191761
54.645 9.353854
54.650 9.086986
54.655 8.839608
54.660 8.730097
54.665 8.806951
54.670 9.075813
54.675 9.125169
54.680 8.940635
54.685 8.91457
54.690 9.40873
54.695 9.542085
54.700 9.585685
54.705 9.479613
54.710 9.504282
54.715 9.775457
54.720 9.556526
54.725 8.993419
54.730 8.712391
54.735 8.392255
54.740 8.844177
54.745 9.213531
54.750 8.699857
54.755 8.825757
54.760 9.423471
54.765 9.414535
54.770 9.175737
54.775 8.739725
54.780 8.875106
54.785 9.222464
54.790 8.986895
54.795 8.745815
54.800 9.388327
54.805 9.324021
54.810 9.197055
54.815 8.843338
54.820 8.682424
54.825 9.222837
54.830 8.964421
54.835 8.968503
54.840 9.361094
54.845 9.750839
54.850 10.495811
54.855 11.231524
54.860 11.455209
54.865 11.520191
54.870 11.501981
54.875 11.542824
54.880 11.243348
54.885 10.611059
54.890 10.00575
54.895 9.597733
54.900 9.679301
54.905 9.494879
54.910 9.706405
54.915 10.206445
54.920 10.410873
54.925 10.158519
54.930 10.234115
54.935 10.284228
54.940 10.268229
54.945 9.801245
54.950 9.27813
54.955 9.474195
54.960 10.070705
54.965 10.033415
54.970 9.767905
54.975 9.618801
54.980 10.023448
54.985 10.60293
54.990 10.382792
54.995 9.824471
55.000 9.86626
55.005 9.794767
55.010 9.71694
55.015 8.982186
55.020 8.603619
55.025 8.89227
55.030 8.929177
55.035 9.376895
55.040 9.576637
55.045 10.076231
55.050 10.530632
55.055 10.51274
55.060 10.443481
55.065 10.695869
55.070 10.724262
55.075 10.724199
55.080 10.544153
55.085 10.826266
55.090 11.071224
55.095 11.146623
55.100 10.671721
55.105 10.495028
55.110 10.681918
55.115 10.338425
55.120 9.685281
55.125 9.539338
55.130 9.69086
55.135 9.875334
55.140 10.034822
55.145 10.275929
55.150 10.581074
55.155 10.595884
55.160 10.137355
55.165 10.181567
55.170 10.416193
55.175 10.106749
55.180 10.019483
55.185 10.505516
55.190 11.118496
55.195 11.528742
55.200 11.327972
55.205 11.244215
55.210 11.589782
55.215 11.369963
55.220 10.991846
55.225 11.1119
55.230 10.989307
55.235 11.373178
55.240 11.094274
55.245 10.833668
55.250 11.084494
55.255 11.371799
55.260 11.385201
55.265 11.660942
55.270 11.228475
55.275 11.115461
55.280 11.307437
55.285 11.023275
55.290 10.694222
55.295 10.263832
55.300 9.904821
55.305 9.925342
55.310 10.128207
55.315 10.091728
55.320 10.2402
55.325 9.994628
55.330 9.94273
55.335 10.412215
55.340 10.693599
55.345 10.23842
55.350 10.163292
55.355 9.922734
55.360 10.526721
55.365 10.66222
55.370 10.520296
55.375 10.282435
55.380 10.105549
55.385 10.630904
55.390 11.045068
55.395 11.204262
55.400 11.055625
55.405 10.813449
55.410 11.069034
55.415 11.188784
55.420 10.94434
55.425 11.209419
55.430 11.008379
55.435 11.237967
55.440 11.503428
55.445 11.588388
55.450 11.145376
55.455 11.054114
55.460 10.362872
55.465 10.29096
55.470 10.626118
55.475 10.482215
55.480 10.588894
55.485 10.570237
55.490 10.423578
55.495 10.698803
55.500 10.492375
55.505 9.714038
55.510 9.952757
55.515 9.950394
55.520 9.683656
55.525 9.856911
55.530 10.271902
55.535 10.781983
55.540 10.592185
55.545 10.64119
55.550 11.203181
55.555 12.001148
55.560 11.708359
55.565 11.37404
55.570 11.38746
55.575 11.984024
55.580 11.766407
55.585 11.404437
55.590 11.13303
55.595 10.66087
55.600 10.446484
55.605 10.337453
55.610 10.520432
55.615 10.77653
55.620 10.952906
55.625 10.969598
55.630 11.198666
55.635 11.302177
55.640 11.524207
55.645 10.758292
55.650 10.81718
55.655 10.843942
55.660 10.667613
55.665 10.842597
55.670 10.893271
55.675 10.986248
55.680 11.546099
55.685 11.35983
55.690 11.224488
55.695 11.64453
55.700 11.710561
55.705 11.83615
55.710 11.382373
55.715 10.931535
55.720 10.699696
55.725 10.393866
55.730 10.173511
55.735 9.932438
55.740 9.703805
55.745 10.105961
55.750 10.204032
55.755 10.150089
55.760 10.212895
55.765 10.490941
55.770 10.693552
55.775 10.556336
55.780 10.458067
55.785 10.946226
55.790 11.330779
55.795 11.722651
55.800 11.797152
55.805 12.14443
55.810 12.376435
55.815 12.310505
55.820 12.059688
55.825 11.917714
55.830 11.676631
55.835 11.793855
55.840 11.903099
55.845 11.952097
55.850 12.001393
55.855 12.004886
55.860 12.506032
55.865 12.625193
55.870 12.474038
55.875 12.317366
55.880 12.227201
55.885 11.630097
55.890 11.510663
55.895 11.5052
55.900 11.688968
55.905 11.614302
55.910 11.327183
55.915 11.992412
55.920 12.685022
55.925 12.591222
55.930 12.009432
55.935 11.997625
55.940 12.801417
55.945 13.181232
55.950 13.069364
55.955 13.264568
55.960 13.50384
55.965 13.545601
55.970 13.273036
55.975 12.29736
55.980 11.859275
55.985 11.543259
55.990 11.300468
55.995 11.08567
56.000 11.01647
56.005 10.725927
56.010 10.778793
56.015 10.797686
56.020 10.779953
56.025 10.70649
56.030 10.309316
56.035 10.092634
56.040 9.959268
56.045 10.24885
56.050 10.262794
56.055 10.015554
56.060 9.484878
56.065 9.456289
56.070 9.413637
56.075 9.524048
56.080 9.779795
56.085 9.876291
56.090 10.236802
56.095 11.03279
56.100 11.523433
56.105 11.625573
56.110 11.556214
56.115 11.075962
56.120 11.378677
56.125 11.097994
56.130 10.722711
56.135 10.894371
56.140 11.28738
56.145 11.32563
56.150 11.355185
56.155 10.859751
56.160 10.941358
56.165 10.861001
56.170 10.961988
56.175 10.660065
56.180 11.282887
56.185 11.578735
56.190 12.211135
56.195 12.46156
56.200 12.340484
56.205 12.247734
56.210 12.31704
56.215 12.048815
56.220 11.529868
56.225 11.500198
56.230 11.868823
56.235 12.302978
56.240 12.369004
56.245 12.224675
56.250 11.917513
56.255 12.249736
56.260 11.824866
56.265 11.444787
56.270 10.762802
56.275 10.581327
56.280 10.776531
56.285 10.678937
56.290 10.682999
56.295 11.453989
56.300 11.528199
56.305 11.698121
56.310 11.811133
56.315 12.037114
56.320 12.134721
56.325 11.293268
56.330 10.734715
56.335 11.402749
56.340 11.802824
56.345 11.24559
56.350 10.643224
56.355 10.807507
56.360 11.275992
56.365 11.217158
56.370 10.542916
56.375 10.529185
56.380 11.374383
56.385 11.905154
56.390 12.451617
56.395 12.535093
56.400 12.893712
56.405 13.401652
56.410 12.981683
56.415 12.550418
56.420 12.017105
56.425 11.697357
56.430 11.798884
56.435 11.174774
56.440 10.745893
56.445 11.201278
56.450 11.486502
56.455 11.532175
56.460 11.706513
56.465 11.221016
56.470 11.327126
56.475 11.481199
56.480 11.326085
56.485 11.446324
56.490 11.541407
56.495 11.303488
56.500 11.851506
56.505 11.858199
56.510 11.85023
56.515 12.128939
56.520 12.068888
56.525 12.608881
56.530 12.851419
56.535 12.798522
56.540 13.298155
56.545 13.071478
56.550 12.761168
56.555 12.135785
56.560 11.543707
56.565 11.464599
56.570 11.474794
56.575 11.020921
56.580 11.00279
56.585 11.064857
56.590 11.184899
56.595 11.202383
56.600 11.331287
56.605 11.199226
56.610 11.161272
56.615 11.176138
56.620 11.231299
56.625 11.33315
56.630 11.984077
56.635 11.814354
56.640 11.731248
56.645 11.918306
56.650 12.161787
56.655 11.910589
56.660 12.10986
56.665 11.687167
56.670 11.470622
56.675 11.768829
56.680 11.76907
56.685 12.046902
56.690 12.265287
56.695 12.638779
56.700 12.820092
56.705 13.213139
56.710 13.35395
56.715 13.408245
56.720 13.238762
56.725 13.504869
56.730 13.058311
56.735 13.108925
56.740 12.588909
56.745 12.444057
56.750 12.507874
56.755 11.985791
56.760 11.637108
56.765 11.436976
56.770 11.541484
56.775 12.272429
56.780 12.282369
56.785 12.501002
56.790 12.88945
56.795 13.306525
56.800 13.675928
56.805 13.83508
56.810 13.590743
56.815 13.312365
56.820 13.074829
56.825 13.268697
56.830 13.282074
56.835 12.941855
56.840 12.533743
56.845 12.430674
56.850 12.501539
56.855 12.85689
56.860 12.283442
56.865 11.933366
56.870 11.96439
56.875 11.962403
56.880 12.024628
56.885 12.237156
56.890 11.566251
56.895 11.802543
56.900 11.908422
56.905 12.235245
56.910 12.679762
56.915 13.169369
56.920 13.236891
56.925 13.788942
56.930 13.951045
56.935 13.782107
56.940 13.593837
56.945 13.492987
56.950 13.570129
56.955 13.445978
56.960 13.044621
56.965 12.852404
56.970 12.779243
56.975 12.61569
56.980 12.26445
56.985 11.927976
56.990 12.259663
56.995 12.379789
57.000 12.433113
57.005 12.274508
57.010 11.811685
57.015 12.081744
57.020 12.24801
57.025 12.530248
57.030 12.656044
57.035 12.803281
57.040 13.72577
57.045 14.577906
57.050 14.277134
57.055 13.776578
57.060 13.556315
57.065 13.654793
57.070 13.700258
57.075 13.58521
57.080 12.76673
57.085 12.874868
57.090 12.741633
57.095 12.256128
57.100 12.253236
57.105 11.966506
57.110 11.86746
57.115 12.078718
57.120 12.15394
57.125 12.158896
57.130 12.307395
57.135 12.538952
57.140 12.750997
57.145 13.065271
57.150 13.337054
57.155 13.074386
57.160 13.045104
57.165 12.971379
57.170 12.907538
57.175 12.596601
57.180 12.041025
57.185 11.974922
57.190 12.214199
57.195 12.474172
57.200 12.649673
57.205 12.645714
57.210 13.185242
57.215 13.557198
57.220 13.74552
57.225 13.949186
57.230 13.923305
57.235 13.783357
57.240 13.82775
57.245 13.75235
57.250 13.428762
57.255 13.411969
57.260 13.528278
57.265 13.822328
57.270 14.020611
57.275 13.556297
57.280 13.264708
57.285 13.430305
57.290 13.456608
57.295 13.023122
57.300 13.249928
57.305 13.225039
57.310 13.822027
57.315 14.394225
57.320 14.700355
57.325 15.185139
57.330 15.668272
57.335 15.518582
57.340 15.888091
57.345 15.633265
57.350 14.642907
57.355 13.973357
57.360 13.263387
57.365 12.945535
57.370 12.554572
57.375 12.507575
57.380 12.350516
57.385 12.796461
57.390 12.969555
57.395 13.268332
57.400 13.51176
57.405 13.387988
57.410 13.328297
57.415 13.38825
57.420 13.853289
57.425 13.791046
57.430 13.644704
57.435 13.291405
57.440 13.143113
57.445 12.94858
57.450 12.828091
57.455 12.084908
57.460 12.35191
57.465 12.455427
57.470 12.63127
57.475 13.021053
57.480 13.150186
57.485 13.401713
57.490 13.735354
57.495 13.309416
57.500 13.001573
57.505 12.745271
57.510 12.419765
57.515 12.401077
57.520 12.479779
57.525 12.096464
57.530 12.451563
57.535 12.735906
57.540 12.962795
57.545 13.227799
57.550 12.94918
57.555 12.708131
57.560 13.093349
57.565 12.971523
57.570 12.664647
57.575 12.346423
57.580 12.369625
57.585 12.503333
57.590 12.869085
57.595 12.935308
57.600 13.26899
57.605 13.335418
57.610 13.740159
57.615 13.555459
57.620 13.206272
57.625 13.318519
57.630 13.405666
57.635 13.067924
57.640 12.872432
57.645 12.652118
57.650 12.954964
57.655 13.164344
57.660 12.956464
57.665 13.421315
57.670 14.173323
57.675 14.740996
57.680 14.514994
57.685 14.808104
57.690 15.022102
57.695 15.476462
57.700 14.999269
57.705 15.022427
57.710 15.267485
57.715 15.278808
57.720 14.798053
57.725 14.604239
57.730 14.396973
57.735 14.110171
57.740 13.640268
57.745 13.304021
57.750 13.73992
57.755 13.945027
57.760 13.831256
57.765 13.84484
57.770 13.89577
57.775 13.893672
57.780 13.758487
57.785 13.685571
57.790 13.770982
57.795 13.476665
57.800 13.099778
57.805 13.494992
57.810 13.569398
57.815 13.65249
57.820 13.23755
57.825 13.091364
57.830 12.899025
57.835 13.176042
57.840 13.066292
57.845 13.37597
57.850 13.735517
57.855 14.29382
57.860 14.433052
57.865 14.752824
57.870 14.05707
57.875 13.856403
57.880 13.58964
57.885 12.76458
57.890 12.053837
57.895 12.088071
57.900 12.52396
57.905 12.868714
57.910 12.684114
57.915 12.895342
57.920 13.573811
57.925 13.868211
57.930 13.665504
57.935 13.260197
57.940 12.785569
57.945 13.194
57.950 13.630094
57.955 12.929013
57.960 12.996161
57.965 12.757739
57.970 12.980468
57.975 13.528109
57.980 12.997432
57.985 12.536881
57.990 12.775928
57.995 13.198448
58.000 13.81921
58.005 14.164846
58.010 14.707227
58.015 15.012169
58.020 15.348965
58.025 15.383649
58.030 14.698045
58.035 14.927455
58.040 14.556612
58.045 14.038826
58.050 13.795425
58.055 13.72077
58.060 13.936252
58.065 14.175865
58.070 13.866725
58.075 14.156708
58.080 14.127022
58.085 13.800817
58.090 14.065955
58.095 14.132288
58.100 14.394779
58.105 14.415045
58.110 14.623911
58.115 14.71813
58.120 14.717666
58.125 14.534304
58.130 14.760671
58.135 14.76223
58.140 14.554166
58.145 14.12806
58.150 14.328453
58.155 14.702969
58.160 14.665894
58.165 14.364182
58.170 13.958399
58.175 13.925748
58.180 13.734967
58.185 13.530668
58.190 13.235868
58.195 12.961596
58.200 12.616772
58.205 12.731813
58.210 13.045169
58.215 13.435943
58.220 13.649036
58.225 13.631024
58.230 13.62425
58.235 13.715039
58.240 13.587296
58.245 12.613395
58.250 12.638937
58.255 12.77418
58.260 12.782937
58.265 13.083685
58.270 13.191672
58.275 13.347363
58.280 13.895287
58.285 14.01116
58.290 14.187971
58.295 14.294866
58.300 14.272729
58.305 14.570734
58.310 14.481296
58.315 14.060624
58.320 13.406732
58.325 13.196509
58.330 12.891579
58.335 12.914198
58.340 13.171707
58.345 12.98662
58.350 12.788814
58.355 13.160418
58.360 13.340667
58.365 13.816427
58.370 13.616828
58.375 13.249852
58.380 13.18386
58.385 13.588762
58.390 13.796953
58.395 14.144453
58.400 14.215589
58.405 13.970786
58.410 13.958029
58.415 14.392041
58.420 14.530737
58.425 14.615512
58.430 14.529554
58.435 14.613818
58.440 15.420875
58.445 15.82432
58.450 15.853213
58.455 15.313457
58.460 14.856207
58.465 13.72477
58.470 13.380316
58.475 12.479523
58.480 12.530619
58.485 12.554741
58.490 12.342041
58.495 12.396999
58.500 12.630496
58.505 12.522244
58.510 12.537264
58.515 12.245531
58.520 12.148255
58.525 12.670222
58.530 12.82692
58.535 12.816871
58.540 12.888784
58.545 12.808608
58.550 12.570833
58.555 12.97259
58.560 12.921718
58.565 13.121417
58.570 13.511749
58.575 13.895493
58.580 14.168985
58.585 14.097606
58.590 13.459406
58.595 13.153157
58.600 12.83732
58.605 12.869072
58.610 12.695701
58.615 12.41128
58.620 12.691521
58.625 12.903627
58.630 13.625135
58.635 14.337673
58.640 14.947365
58.645 15.172365
58.650 15.399071
58.655 15.691228
58.660 15.263896
58.665 14.911036
58.670 14.459924
58.675 13.892217
58.680 14.013677
58.685 14.100002
58.690 13.903576
58.695 14.595415
58.700 14.641555
58.705 15.099177
58.710 15.623602
58.715 16.211428
58.720 16.422733
58.725 16.653469
58.730 16.441689
58.735 16.152552
58.740 15.791154
58.745 15.104169
58.750 14.61538
58.755 14.593969
58.760 14.767111
58.765 15.066345
58.770 14.764884
58.775 14.853765
58.780 15.111176
58.785 15.151124
58.790 15.092917
58.795 14.83631
58.800 14.605902
58.805 14.818545
58.810 15.003331
58.815 15.040118
58.820 15.211277
58.825 15.003937
58.830 14.84346
58.835 14.832918
58.840 14.422764
58.845 13.945904
58.850 13.756182
58.855 13.907628
58.860 14.082142
58.865 14.716192
58.870 15.410352
58.875 15.986903
58.880 15.76111
58.885 15.561425
58.890 15.671067
58.895 15.731293
58.900 15.221083
58.905 14.661184
58.910 14.747847
58.915 15.174721
58.920 14.983301
58.925 14.909943
58.930 15.128922
58.935 15.509461
58.940 15.832065
58.945 15.740094
58.950 16.002716
58.955 16.403875
58.960 16.315609
58.965 15.901832
58.970 15.269317
58.975 15.464236
58.980 16.060713
58.985 15.967399
58.990 15.817183
58.995 15.90836
59.000 15.973758
59.005 16.38826
59.010 16.807062
59.015 16.956453
59.020 16.789614
59.025 16.597284
59.030 16.527382
59.035 16.507223
59.040 16.493631
59.045 15.843089
59.050 15.825275
59.055 15.741464
59.060 15.699393
59.065 15.988254
59.070 16.120108
59.075 15.772128
59.080 15.712951
59.085 15.578675
59.090 15.728136
59.095 15.747833
59.100 15.596086
59.105 15.466085
59.110 15.469516
59.115 15.056314
59.120 15.220212
59.125 15.095379
59.130 15.019815
59.135 14.953038
59.140 15.263923
59.145 15.247423
59.150 15.517903
59.155 15.231441
59.160 15.495114
59.165 15.449449
59.170 15.592668
59.175 15.785077
59.180 15.907716
59.185 15.8809
59.190 15.719587
59.195 15.550035
59.200 15.380431
59.205 15.047799
59.210 15.105616
59.215 14.621023
59.220 14.418747
59.225 15.00598
59.230 15.402981
59.235 15.782817
59.240 15.829829
59.245 15.706333
59.250 16.514093
59.255 16.511553
59.260 16.363865
59.265 16.098804
59.270 15.343865
59.275 15.161094
59.280 14.828782
59.285 14.431762
59.290 14.297927
59.295 14.516085
59.300 14.378568
59.305 14.43711
59.310 14.410691
59.315 14.615224
59.320 15.138312
59.325 15.351719
59.330 15.318109
59.335 16.001038
59.340 16.208416
59.345 16.132444
59.350 16.23377
59.355 16.141926
59.360 16.577763
59.365 16.49917
59.370 15.863327
59.375 16.119825
59.380 16.723013
59.385 16.708736
59.390 16.371891
59.395 15.985332
59.400 16.053335
59.405 15.901011
59.410 15.732862
59.415 15.577211
59.420 15.68078
59.425 15.658559
59.430 16.019194
59.435 16.418337
59.440 17.055021
59.445 16.874689
59.450 16.545103
59.455 16.01734
59.460 16.297709
59.465 15.813931
59.470 15.515067
59.475 15.386175
59.480 15.647518
59.485 15.448329
59.490 15.95952
59.495 16.271093
59.500 16.766495
59.505 16.730558
59.510 16.730427
59.515 16.644154
59.520 17.100773
59.525 16.954758
59.530 16.897484
59.535 16.860493
59.540 16.85606
59.545 17.033997
59.550 17.434776
59.555 17.021143
59.560 17.264856
59.565 16.589773
59.570 16.325935
59.575 16.255878
59.580 15.937438
59.585 15.670089
59.590 16.483353
59.595 16.490202
59.600 16.530928
59.605 16.188335
59.610 15.998836
59.615 16.356293
59.620 16.185366
59.625 15.543782
59.630 15.361887
59.635 15.53367
59.640 15.962404
59.645 16.357857
59.650 16.56995
59.655 16.819298
59.660 16.661867
59.665 16.566322
59.670 16.535141
59.675 16.673815
59.680 16.451822
59.685 15.900321
59.690 15.578583
59.695 15.945928
59.700 17.049383
59.705 17.433372
59.710 17.378347
59.715 17.994413
59.720 18.913898
59.725 19.4377
59.730 19.541451
59.735 18.5194
59.740 18.343939
59.745 18.368382
59.750 18.199303
59.755 17.604132
59.760 17.256052
59.765 17.247995
59.770 17.783558
59.775 18.421886
59.780 18.411306
59.785 18.046001
59.790 18.073874
59.795 18.354557
59.800 17.879938
59.805 17.281464
59.810 16.746929
59.815 16.856934
59.820 17.237299
59.825 17.329245
59.830 17.405525
59.835 17.612766
59.840 17.892052
59.845 17.759232
59.850 17.429478
59.855 17.440037
59.860 17.479559
59.865 17.30924
59.870 17.464867
59.875 17.541395
59.880 17.700508
59.885 18.016449
59.890 18.640928
59.895 19.023844
59.900 19.471268
59.905 19.406113
59.910 18.87863
59.915 19.076244
59.920 19.054655
59.925 18.60689
59.930 18.270021
59.935 18.44558
59.940 18.570711
59.945 18.697718
59.950 18.474922
59.955 18.379545
59.960 18.468824
59.965 18.437288
59.970 18.593874
59.975 18.571871
59.980 18.026388
59.985 18.441277
59.990 18.308672
59.995 17.860348
60.000 17.558737
60.005 17.571104
60.010 18.478195
60.015 19.967728
60.020 19.837034
60.025 20.444921
60.030 20.819809
60.035 20.535841
60.040 19.895527
60.045 19.205112
60.050 18.081213
60.055 17.951683
60.060 17.699511
60.065 17.643677
60.070 18.09301
60.075 18.273951
60.080 18.428476
60.085 18.58802
60.090 18.841846
60.095 18.876659
60.100 19.654099
60.105 19.697937
60.110 19.738747
60.115 19.778545
60.120 19.998055
60.125 19.360252
60.130 19.157711
60.135 18.732864
60.140 18.621241
60.145 19.185263
60.150 19.459454
60.155 19.778778
60.160 20.355497
60.165 20.309336
60.170 21.224136
60.175 21.645779
60.180 21.261208
60.185 21.375267
60.190 20.792694
60.195 21.145527
60.200 21.110924
60.205 20.17449
60.210 20.336061
60.215 20.737574
60.220 20.829714
60.225 21.228609
60.230 21.288977
60.235 21.927696
60.240 21.783777
60.245 21.724335
60.250 21.52927
60.255 21.4422
60.260 21.590033
60.265 21.510185
60.270 20.776268
60.275 20.211626
60.280 19.839872
60.285 20.373203
60.290 20.308977
60.295 19.716757
60.300 19.546143
60.305 20.220636
60.310 20.733242
60.315 20.889542
60.320 20.201605
60.325 19.88051
60.330 20.490974
60.335 20.212032
60.340 19.810099
60.345 20.162043
60.350 19.496685
60.355 19.148264
60.360 19.427408
60.365 19.503563
60.370 19.761105
60.375 19.669521
60.380 19.30405
60.385 19.612843
60.390 20.337381
60.395 20.352329
60.400 19.934435
60.405 19.861128
60.410 19.956255
60.415 19.967407
60.420 20.125973
60.425 19.93082
60.430 19.717825
60.435 19.1567
60.440 19.178303
60.445 19.421679
60.450 19.680304
60.455 19.630007
60.460 19.734827
60.465 20.449501
60.470 21.053907
60.475 20.571783
60.480 20.354017
60.485 20.426256
60.490 20.589699
60.495 20.377678
60.500 19.488911
60.505 19.388609
60.510 19.446577
60.515 19.981638
60.520 19.70718
60.525 19.176823
60.530 19.171873
60.535 19.416574
60.540 19.874866
60.545 20.028221
60.550 19.992664
60.555 20.05055
60.560 20.088327
60.565 19.777807
60.570 19.441015
60.575 18.625731
60.580 18.694418
60.585 18.761553
60.590 19.121569
60.595 19.652172
60.600 19.867138
60.605 20.59099
60.610 21.087292
60.615 20.88168
60.620 20.670069
60.625 20.70344
60.630 20.132359
60.635 19.698606
60.640 19.031458
60.645 18.961323
60.650 18.208452
60.655 17.730234
60.660 17.602192
60.665 17.331104
60.670 17.323627
60.675 17.599752
60.680 17.826477
60.685 18.421722
60.690 18.483946
60.695 18.416759
60.700 18.376518
60.705 18.543989
60.710 17.518713
60.715 17.205416
60.720 17.027164
60.725 16.752853
60.730 16.678946
60.735 17.08214
60.740 17.160942
60.745 17.36224
60.750 17.140059
60.755 16.781143
60.760 16.412512
60.765 16.431011
60.770 16.199511
60.775 16.058796
60.780 16.745592
60.785 17.089174
60.790 17.466475
60.795 17.815111
60.800 17.728743
60.805 17.885088
60.810 18.02438
60.815 17.409023
60.820 16.543873
60.825 16.244022
60.830 16.19775
60.835 16.533365
60.840 16.764032
60.845 16.802208
60.850 17.183094
60.855 17.983118
60.860 18.511057
60.865 18.721039
60.870 18.571241
60.875 18.305738
60.880 17.862385
60.885 17.617939
60.890 17.049147
60.895 16.469931
60.900 16.062855
60.905 16.30389
60.910 16.577066
60.915 16.905897
60.920 17.451305
60.925 17.95669
60.930 18.34359
60.935 18.462814
60.940 18.297571
60.945 18.556068
60.950 18.991793
60.955 18.653217
60.960 18.358643
60.965 17.996983
60.970 17.701279
60.975 17.563686
60.980 17.04335
60.985 16.564236
60.990 16.358988
60.995 16.207054
61.000 16.423605
61.005 16.537317
61.010 16.755875
61.015 16.736794
61.020 16.858379
61.025 16.980131
61.030 17.30588
61.035 17.316786
61.040 17.354788
61.045 17.504898
61.050 17.65859
61.055 17.069355
61.060 17.07085
61.065 16.677183
61.070 16.99716
61.075 16.737055
61.080 16.277895
61.085 16.480757
61.090 16.838921
61.095 16.924852
61.100 16.996988
61.105 16.784809
61.110 16.881193
61.115 16.904291
61.120 16.503788
61.125 17.111677
61.130 17.203314
61.135 18.010386
61.140 17.872147
61.145 17.932074
61.150 17.894184
61.155 18.045259
61.160 17.492235
61.165 17.290705
61.170 16.683474
61.175 16.764351
61.180 16.878477
61.185 16.850752
61.190 16.452343
61.195 16.819048
61.200 17.082005
61.205 17.275719
61.210 17.365585
61.215 17.253925
61.220 17.508062
61.225 17.468996
61.230 17.015533
61.235 17.106524
61.240 16.930792
61.245 16.653788
61.250 16.431768
61.255 16.517139
61.260 16.844629
61.265 17.050873
61.270 16.468691
61.275 16.412668
61.280 16.447067
61.285 16.614649
61.290 16.643721
61.295 16.766014
61.300 16.396263
61.305 16.079149
61.310 16.062965
61.315 15.980899
61.320 15.916301
61.325 15.266052
61.330 14.587142
61.335 14.627213
61.340 14.99407
61.345 14.339702
61.350 14.693249
61.355 14.602974
61.360 14.830007
61.365 15.311128
61.370 15.52459
61.375 15.540782
61.380 15.680748
61.385 15.294433
61.390 15.490615
61.395 15.711761
61.400 15.724882
61.405 15.45983
61.410 15.713417
61.415 15.994294
61.420 16.263926
61.425 16.856569
61.430 17.452932
61.435 17.380219
61.440 17.779757
61.445 18.007364
61.450 18.461412
61.455 18.245756
61.460 17.289963
61.465 16.589722
61.470 17.184881
61.475 17.465338
61.480 17.405508
61.485 17.039143
61.490 17.066338
61.495 17.506868
61.500 17.645056
61.505 16.918144
61.510 16.170271
61.515 15.529009
61.520 15.558243
61.525 15.622808
61.530 15.439767
61.535 15.672483
61.540 15.422201
61.545 15.470191
61.550 15.851669
61.555 16.165472
61.560 16.204145
61.565 16.019993
61.570 16.080935
61.575 16.528353
61.580 17.646942
61.585 18.180115
61.590 17.994991
61.595 17.978645
61.600 17.994343
61.605 17.794395
61.610 17.777311
61.615 16.56105
61.620 16.662745
61.625 16.700497
61.630 16.265841
61.635 16.25091
61.640 16.091721
61.645 15.723435
61.650 15.93174
61.655 15.194571
61.660 15.068481
61.665 15.579528
61.670 15.442682
61.675 15.498684
61.680 15.770707
61.685 15.729469
61.690 15.684643
61.695 15.999728
61.700 15.907311
61.705 15.905221
61.710 15.452839
61.715 16.111069
61.720 16.540768
61.725 16.740448
61.730 16.899345
61.735 16.923927
61.740 17.061584
61.745 17.152454
61.750 16.326181
61.755 15.802319
61.760 15.375511
61.765 14.644179
61.770 14.413382
61.775 14.686917
61.780 14.596483
61.785 14.727188
61.790 15.181976
61.795 15.514213
61.800 15.681128
61.805 15.74089
61.810 16.077183
61.815 16.548134
61.820 16.30858
61.825 16.537039
61.830 16.89702
61.835 17.153858
61.840 16.904785
61.845 16.123175
61.850 15.561009
61.855 15.371947
61.860 15.423978
61.865 15.594395
61.870 16.172329
61.875 16.882547
61.880 17.300224
61.885 18.104906
61.890 18.958323
61.895 18.75028
61.900 18.482391
61.905 17.828873
61.910 17.340555
61.915 17.05372
61.920 16.938522
61.925 16.795609
61.930 16.066154
61.935 16.014698
61.940 16.256008
61.945 16.140587
61.950 16.007118
61.955 15.859433
61.960 15.333611
61.965 15.44412
61.970 15.219878
61.975 15.011384
61.980 15.432357
61.985 15.352929
61.990 14.787599
61.995 15.242934
62.000 16.220194
62.005 16.284809
62.010 16.460747
62.015 16.588453
62.020 16.814764
62.025 16.940527
62.030 16.759062
62.035 16.195171
62.040 16.75482
62.045 16.692566
62.050 16.380882
62.055 16.535261
62.060 16.590424
62.065 15.997763
62.070 15.492493
62.075 15.185903
62.080 15.241221
62.085 15.705837
62.090 16.02282
62.095 16.437229
62.100 17.12093
62.105 17.748707
62.110 17.450197
62.115 17.624067
62.120 18.033417
62.125 18.396631
62.130 18.287098
62.135 17.985697
62.140 18.508133
62.145 18.500042
62.150 18.183155
62.155 17.211149
62.160 16.297499
62.165 16.533846
62.170 16.738571
62.175 16.124741
62.180 16.687216
62.185 16.671524
62.190 16.827686
62.195 17.58461
62.200 17.370869
62.205 16.938005
62.210 16.835897
62.215 16.312963
62.220 15.971105
62.225 16.186687
62.230 15.843413
62.235 15.684155
62.240 16.072554
62.245 16.249424
62.250 16.48192
62.255 16.349625
62.260 16.057545
62.265 16.027266
62.270 16.307796
62.275 17.005058
62.280 17.176882
62.285 17.227375
62.290 17.073875
62.295 17.230581
62.300 16.616802
62.305 16.641115
62.310 15.752684
62.315 15.722129
62.320 15.791468
62.325 16.388332
62.330 16.29664
62.335 16.717581
62.340 16.720873
62.345 16.345716
62.350 15.889635
62.355 16.186161
62.360 16.191895
62.365 16.360291
62.370 15.973366
62.375 15.827234
62.380 16.308405
62.385 16.279606
62.390 15.965109
62.395 15.875183
62.400 15.898588
62.405 15.774534
62.410 16.291231
62.415 17.6511
62.420 18.42127
62.425 18.315413
62.430 18.048029
62.435 18.254036
62.440 18.781538
62.445 18.085434
62.450 17.222488
62.455 16.91223
62.460 17.569757
62.465 17.900862
62.470 17.996328
62.475 18.571812
62.480 18.520821
62.485 17.612064
62.490 17.138918
62.495 16.670815
62.500 16.711706
62.505 16.267269
62.510 15.408996
62.515 15.588767
62.520 16.202597
62.525 16.51927
62.530 16.369982
62.535 15.621931
62.540 15.262239
62.545 14.993388
62.550 14.805618
62.555 14.95083
62.560 14.968973
62.565 15.389736
62.570 16.132235
62.575 16.319616
62.580 17.126934
62.585 16.816509
62.590 16.44842
62.595 16.329861
62.600 16.077036
62.605 15.608042
62.610 15.654848
62.615 14.860165
62.620 15.46003
62.625 15.49931
62.630 15.812829
62.635 15.794244
62.640 15.818385
62.645 15.903074
62.650 16.89957
62.655 16.955183
62.660 17.357754
62.665 17.126503
62.670 17.299067
62.675 17.907787
62.680 17.957565
62.685 17.513872
62.690 17.501047
62.695 17.418989
62.700 17.226517
62.705 17.167295
62.710 16.97991
62.715 16.908499
62.720 17.126202
62.725 17.023005
62.730 17.006443
62.735 17.415852
62.740 17.036392
62.745 17.441422
62.750 17.83353
62.755 18.207911
62.760 18.88863
62.765 18.923643
62.770 19.104786
62.775 19.321709
62.780 19.202013
62.785 19.340408
62.790 18.995016
62.795 18.112017
62.800 17.74612
62.805 17.823793
62.810 17.839216
62.815 16.968536
62.820 16.506304
62.825 16.570738
62.830 16.621674
62.835 16.595419
62.840 16.403185
62.845 16.644482
62.850 17.198652
62.855 17.31679
62.860 17.100101
62.865 16.706692
62.870 16.363016
62.875 16.273499
62.880 16.30353
62.885 16.52887
62.890 16.96769
62.895 17.620823
62.900 18.47706
62.905 18.660305
62.910 18.425013
62.915 17.914959
62.920 17.383167
62.925 16.206495
62.930 15.472184
62.935 15.185853
62.940 15.166587
62.945 14.71217
62.950 14.717046
62.955 14.585584
62.960 14.815129
62.965 14.848301
62.970 15.147293
62.975 15.645701
62.980 16.68652
62.985 16.672094
62.990 17.113615
62.995 17.582151
63.000 17.46863
63.005 16.74929
63.010 16.425676
63.015 16.614929
63.020 16.830753
63.025 16.96769
63.030 16.880676
63.035 17.298338
63.040 17.639359
63.045 17.962154
63.050 17.557238
63.055 17.836786
63.060 18.176945
63.065 17.896376
63.070 17.674541
63.075 17.579517
63.080 17.418386
63.085 17.350624
63.090 17.021139
63.095 16.592327
63.100 17.078884
63.105 17.484013
63.110 17.530981
63.115 17.335735
63.120 17.200897
63.125 16.745667
63.130 16.419205
63.135 16.051842
63.140 16.091955
63.145 16.184288
63.150 16.589827
63.155 16.929132
63.160 17.221184
63.165 17.08222
63.170 16.89542
63.175 16.419313
63.180 16.98053
63.185 16.515356
63.190 16.694044
63.195 17.198559
63.200 18.017622
63.205 17.812332
63.210 17.670252
63.215 17.390947
63.220 17.49159
63.225 17.023298
63.230 16.745426
63.235 16.496157
63.240 16.620573
63.245 16.180714
63.250 15.681108
63.255 15.876317
63.260 16.215305
63.265 15.959682
63.270 15.849677
63.275 16.53363
63.280 16.998781
63.285 16.697493
63.290 16.070045
63.295 15.72715
63.300 16.360041
63.305 16.763262
63.310 16.855421
63.315 17.325138
63.320 18.045456
63.325 18.144634
63.330 18.351055
63.335 18.020243
63.340 17.494202
63.345 17.353357
63.350 17.006035
63.355 16.94524
63.360 17.530199
63.365 17.784447
63.370 17.680267
63.375 17.528244
63.380 17.29911
63.385 17.251608
63.390 17.179258
63.395 16.825079
63.400 16.668198
63.405 16.096579
63.410 15.775854
63.415 15.407894
63.420 15.326744
63.425 15.101498
63.430 14.886667
63.435 15.259717
63.440 16.401873
63.445 17.266594
63.450 17.840277
63.455 18.551826
63.460 19.540997
63.465 20.141575
63.470 20.034515
63.475 19.464279
63.480 19.129286
63.485 19.293884
63.490 18.951687
63.495 18.565496
63.500 17.965321
63.505 17.986645
63.510 17.90093
63.515 17.949495
63.520 18.157446
63.525 17.783848
63.530 17.851542
63.535 18.20665
63.540 17.878046
63.545 17.858465
63.550 17.588573
63.555 17.5245
63.560 17.359316
63.565 17.113503
63.570 16.861797
63.575 17.163357
63.580 17.453289
63.585 17.738068
63.590 17.731346
63.595 17.620941
63.600 17.467772
63.605 17.109245
63.610 15.993251
63.615 15.30805
63.620 15.189288
63.625 15.031776
63.630 15.379237
63.635 15.467148
63.640 15.775758
63.645 16.755972
63.650 17.240017
63.655 16.802547
63.660 16.762453
63.665 17.419436
63.670 17.699751
63.675 18.044426
63.680 18.255758
63.685 18.49711
63.690 18.657255
63.695 18.337603
63.700 17.26717
63.705 17.171516
63.710 16.911541
63.715 15.970674
63.720 15.165175
63.725 15.221229
63.730 15.8501
63.735 16.291433
63.740 16.55768
63.745 16.509684
63.750 16.804308
63.755 17.361336
63.760 17.420219
63.765 16.519798
63.770 15.772516
63.775 15.196679
63.780 15.381258
63.785 15.926366
63.790 15.918372
63.795 16.312325
63.800 16.821829
63.805 16.349703
63.810 16.605492
63.815 16.733555
63.820 16.180481
63.825 16.021172
63.830 15.957149
63.835 16.269709
63.840 17.813135
63.845 18.105028
63.850 18.086002
63.855 18.685108
63.860 18.926985
63.865 18.669918
63.870 18.777966
63.875 18.55092
63.880 18.669664
63.885 18.64591
63.890 17.962866
63.895 17.814346
63.900 17.804667
63.905 17.688643
63.910 17.378832
63.915 17.073088
63.920 17.506388
63.925 17.881111
63.930 18.010855
63.935 18.67094
63.940 18.932352
63.945 19.386887
63.950 19.425802
63.955 19.140514
63.960 19.381708
63.965 19.40695
63.970 19.421642
63.975 19.152748
63.980 17.945322
63.985 17.520523
63.990 17.424057
63.995 17.118986
64.000 16.90794
64.005 16.474604
64.010 16.575821
64.015 17.450268
64.020 17.924923
64.025 18.070642
64.030 17.885159
64.035 18.242613
64.040 18.399214
64.045 19.12398
64.050 20.176399
64.055 20.108479
64.060 20.099043
64.065 19.94923
64.070 19.405075
64.075 19.143454
64.080 18.556257
64.085 17.790327
64.090 17.765968
64.095 18.163729
64.100 18.601536
64.105 18.964127
64.110 18.754082
64.115 18.780298
64.120 18.574064
64.125 18.50305
64.130 17.990602
64.135 17.228897
64.140 16.625898
64.145 16.907518
64.150 16.922588
64.155 17.016027
64.160 16.911041
64.165 17.08149
64.170 17.785156
64.175 17.889639
64.180 18.12278
64.185 17.765324
64.190 17.252684
64.195 16.966856
64.200 16.315908
64.205 16.547791
64.210 16.870922
64.215 16.985725
64.220 16.871916
64.225 17.321159
64.230 17.728741
64.235 18.322144
64.240 17.748167
64.245 17.427769
64.250 16.58992
64.255 17.247414
64.260 17.621561
64.265 17.800297
64.270 17.684601
64.275 17.830254
64.280 18.031021
64.285 18.152052
64.290 17.908636
64.295 17.71633
64.300 17.52289
64.305 17.269602
64.310 17.660389
64.315 17.866079
64.320 17.68786
64.325 17.250195
64.330 17.263636
64.335 17.535101
64.340 17.800468
64.345 17.882082
64.350 18.190641
64.355 18.695372
64.360 19.175835
64.365 19.397491
64.370 19.275131
64.375 19.138693
64.380 18.601391
64.385 18.338717
64.390 18.487894
64.395 18.639248
64.400 18.824263
64.405 19.147858
64.410 19.581493
64.415 19.996382
64.420 19.969622
64.425 19.859045
64.430 19.70623
64.435 19.365486
64.440 19.226583
64.445 19.794687
64.450 19.446239
64.455 19.29184
64.460 19.10955
64.465 19.852543
64.470 20.27726
64.475 20.523195
64.480 20.120981
64.485 20.570662
64.490 21.02709
64.495 21.636681
64.500 21.233349
64.505 20.580166
64.510 19.7931
64.515 19.270781
64.520 18.755157
64.525 18.385025
64.530 17.819239
64.535 17.52503
64.540 17.498438
64.545 18.243498
64.550 18.32342
64.555 18.444519
64.560 18.0138
64.565 18.382359
64.570 17.799652
64.575 17.45244
64.580 16.87517
64.585 16.661032
64.590 16.444933
64.595 16.151426
64.600 15.421742
64.605 15.425833
64.610 15.549399
64.615 15.824944
64.620 16.21703
64.625 16.206951
64.630 16.651863
64.635 16.799089
64.640 16.937881
64.645 17.012135
64.650 17.070639
64.655 17.248304
64.660 17.765385
64.665 17.972548
64.670 18.624556
64.675 19.577986
64.680 19.787357
64.685 20.316027
64.690 20.631313
64.695 20.781912
64.700 20.607979
64.705 20.561441
64.710 20.602463
64.715 20.609072
64.720 20.189383
64.725 19.761269
64.730 19.784981
64.735 19.650532
64.740 19.420113
64.745 19.376293
64.750 19.798855
64.755 19.510983
64.760 19.065046
64.765 19.065823
64.770 19.372524
64.775 19.550993
64.780 19.28665
64.785 18.892962
64.790 19.109974
64.795 19.38402
64.800 20.19408
64.805 20.101904
64.810 20.376036
64.815 20.815166
64.820 20.793945
64.825 20.675898
64.830 20.455301
64.835 20.276806
64.840 20.360466
64.845 19.746574
64.850 19.006815
64.855 18.436335
64.860 18.776258
64.865 19.019844
64.870 18.691183
64.875 18.832748
64.880 19.438471
64.885 20.012577
64.890 20.212652
64.895 20.185324
64.900 19.9764
64.905 19.993015
64.910 19.848562
64.915 19.156897
64.920 18.823271
64.925 18.56599
64.930 18.307364
64.935 17.998144
64.940 18.355667
64.945 18.658062
64.950 18.812347
64.955 18.626467
64.960 19.358042
64.965 19.853077
64.970 19.629442
64.975 18.966957
64.980 18.77466
64.985 18.615093
64.990 18.819643
64.995 18.892689
65.000 19.314548
65.005 19.805923
65.010 20.112421
65.015 20.102839
65.020 20.991678
65.025 21.36224
65.030 21.1852
65.035 21.465322
65.040 21.635405
65.045 21.5226
65.050 21.812487
65.055 21.666035
65.060 21.846926
65.065 22.120972
65.070 21.842913
65.075 22.081078
65.080 22.22233
65.085 22.443073
65.090 22.434837
65.095 22.094742
65.100 21.412916
65.105 21.396622
65.110 21.579517
65.115 21.641479
65.120 21.240095
65.125 21.231434
65.130 21.608454
65.135 21.734268
65.140 21.297611
65.145 20.888971
65.150 20.775997
65.155 20.679571
65.160 20.707758
65.165 21.168655
65.170 21.847031
65.175 21.948643
65.180 22.222069
65.185 22.499838
65.190 22.442694
65.195 22.261784
65.200 22.111517
65.205 22.17206
65.210 22.793846
65.215 22.737226
65.220 22.348963
65.225 22.351618
65.230 22.235373
65.235 21.616079
65.240 21.649549
65.245 21.695511
65.250 22.169352
65.255 22.352888
65.260 22.295031
65.265 22.387413
65.270 22.88693
65.275 22.668037
65.280 22.20026
65.285 22.21487
65.290 22.730938
65.295 23.356165
65.300 23.488857
65.305 23.109743
65.310 22.942692
65.315 22.488302
65.320 22.088535
65.325 21.4939
65.330 21.234358
65.335 21.565077
65.340 21.847288
65.345 21.982559
65.350 22.157217
65.355 22.665966
65.360 22.542805
65.365 22.431292
65.370 21.789625
65.375 21.897245
65.380 22.357174
65.385 22.77051
65.390 22.511761
65.395 22.984713
65.400 23.633354
65.405 24.013302
65.410 23.958933
65.415 23.745052
65.420 23.729687
65.425 24.016039
65.430 24.060284
65.435 23.625984
65.440 23.69128
65.445 23.770535
65.450 23.104336
65.455 22.995302
65.460 23.129868
65.465 23.371231
65.470 23.558786
65.475 23.734983
65.480 24.54772
65.485 25.610832
65.490 25.198864
65.495 25.589077
65.500 25.80044
65.505 25.841301
65.510 25.593355
65.515 25.481598
65.520 25.452332
65.525 25.750418
65.530 25.372627
65.535 25.181976
65.540 25.443567
65.545 25.509214
65.550 25.459684
65.555 25.675165
65.560 26.849899
65.565 26.704393
65.570 26.741682
65.575 27.658773
65.580 28.002279
65.585 28.159817
65.590 28.366697
65.595 27.698006
65.600 28.023293
65.605 27.971418
65.610 28.121925
65.615 28.686703
65.620 28.613781
65.625 29.174385
65.630 29.481031
65.635 29.579588
65.640 30.447617
65.645 30.304102
65.650 30.507513
65.655 30.394516
65.660 29.863504
65.665 30.418829
65.670 30.273376
65.675 30.900507
65.680 30.579157
65.685 30.466124
65.690 31.042084
65.695 31.059977
65.700 30.868467
65.705 30.790018
65.710 30.353182
65.715 30.635014
65.720 30.792511
65.725 31.145941
65.730 31.583111
65.735 31.278305
65.740 31.19775
65.745 30.94619
65.750 31.362072
65.755 31.585138
65.760 31.982962
65.765 32.501656
65.770 33.421329
65.775 34.626842
65.780 35.541458
65.785 35.68203
65.790 35.208145
65.795 34.526947
65.800 34.12236
65.805 34.033085
65.810 33.67313
65.815 33.555164
65.820 34.320442
65.825 34.982712
65.830 35.707844
65.835 35.86282
65.840 36.172581
65.845 35.998981
65.850 35.492622
65.855 35.735107
65.860 36.718063
65.865 36.817326
65.870 37.29055
65.875 37.536476
65.880 37.476959
65.885 37.688774
65.890 37.080936
65.895 35.887959
65.900 35.804123
65.905 35.33707
65.910 34.62627
65.915 34.663025
65.920 34.119705
65.925 34.593868
65.930 34.911327
65.935 35.265629
65.940 35.68681
65.945 36.675251
65.950 37.093388
65.955 37.50835
65.960 37.160946
65.965 36.971783
65.970 37.133308
65.975 37.157738
65.980 36.849514
65.985 36.912273
65.990 37.045235
65.995 37.384171
66.000 37.575401
66.005 36.854298
66.010 37.49342
66.015 37.928543
66.020 38.072418
66.025 38.623001
66.030 39.16304
66.035 39.399544
66.040 39.051559
66.045 38.022076
66.050 37.805447
66.055 38.078815
66.060 37.527412
66.065 36.600983
66.070 36.285835
66.075 36.731041
66.080 36.467659
66.085 36.619209
66.090 36.747093
66.095 36.71743
66.100 37.468853
66.105 38.464561
66.110 38.129295
66.115 38.226028
66.120 38.026134
66.125 37.989357
66.130 37.452347
66.135 36.321198
66.140 35.585987
66.145 35.925385
66.150 35.972355
66.155 35.10323
66.160 34.808685
66.165 35.715176
66.170 36.357403
66.175 36.282543
66.180 35.961777
66.185 36.211765
66.190 36.642551
66.195 36.034908
66.200 35.49485
66.205 34.45718
66.210 34.288437
66.215 33.952362
66.220 33.435574
66.225 32.847195
66.230 33.407154
66.235 33.129242
66.240 33.311993
66.245 33.195736
66.250 33.518032
66.255 34.245888
66.260 34.56926
66.265 34.313766
66.270 33.87841
66.275 33.754314
66.280 33.461254
66.285 33.018555
66.290 32.340603
66.295 32.602165
66.300 32.951584
66.305 32.709106
66.310 31.744909
66.315 31.459681
66.320 31.142252
66.325 31.339678
66.330 30.93066
66.335 30.345127
66.340 30.628855
66.345 31.519909
66.350 32.358681
66.355 32.259342
66.360 31.938509
66.365 32.341843
66.370 32.436649
66.375 32.051029
66.380 31.944836
66.385 31.082048
66.390 31.596504
66.395 31.351978
66.400 31.326796
66.405 31.663057
66.410 31.702749
66.415 31.168886
66.420 31.411802
66.425 30.788048
66.430 31.016472
66.435 30.414015
66.440 30.43568
66.445 31.05125
66.450 31.612698
66.455 31.587143
66.460 31.53113
66.465 31.103596
66.470 30.447159
66.475 29.937273
66.480 29.465107
66.485 28.728308
66.490 28.672909
66.495 28.470404
66.500 28.582491
66.505 29.315168
66.510 29.143187
66.515 29.660492
66.520 29.686951
66.525 29.022072
66.530 29.273109
66.535 28.738451
66.540 27.791744
66.545 27.105263
66.550 26.297945
66.555 25.486454
66.560 25.483479
66.565 25.386055
66.570 25.585648
66.575 25.884842
66.580 25.830429
66.585 25.857058
66.590 26.408794
66.595 26.679344
66.600 25.726067
66.605 25.621149
66.610 25.460911
66.615 25.614462
66.620 25.389315
66.625 25.592531
66.630 25.684193
66.635 26.743141
66.640 26.980183
66.645 27.004248
66.650 26.802286
66.655 26.704754
66.660 26.038494
66.665 25.777189
66.670 24.91501
66.675 24.188398
66.680 24.62569
66.685 24.558712
66.690 24.196001
66.695 24.380816
66.700 24.192156
66.705 24.663197
66.710 25.132721
66.715 24.866861
66.720 24.770954
66.725 24.56082
66.730 23.960899
66.735 24.440912
66.740 24.451689
66.745 23.982578
66.750 24.223461
66.755 24.840099
66.760 25.339794
66.765 25.499018
66.770 25.322832
66.775 25.05513
66.780 24.759344
66.785 24.63179
66.790 24.111069
66.795 23.623482
66.800 23.225449
66.805 22.462099
66.810 22.310881
66.815 22.272478
66.820 21.969889
66.825 22.070192
66.830 22.251133
66.835 22.565557
66.840 23.370934
66.845 24.055368
66.850 24.10915
66.855 23.523687
66.860 23.197054
66.865 23.166269
66.870 22.666229
66.875 22.230839
66.880 22.245369
66.885 22.595583
66.890 22.462173
66.895 22.868959
66.900 22.607782
66.905 23.509205
66.910 23.51564
66.915 23.31461
66.920 23.276413
66.925 23.52965
66.930 23.371033
66.935 23.302128
66.940 22.452854
66.945 22.150293
66.950 21.82058
66.955 21.521029
66.960 21.642345
66.965 21.253885
66.970 20.948153
66.975 21.656054
66.980 22.050095
66.985 22.530016
66.990 22.784109
66.995 22.9946
67.000 23.68078
67.005 23.951727
67.010 23.662415
67.015 23.884212
67.020 24.528364
67.025 24.591888
67.030 24.357687
67.035 24.057446
67.040 23.808771
67.045 23.195988
67.050 22.154516
67.055 22.099579
67.060 22.483036
67.065 23.019838
67.070 23.521397
67.075 24.599224
67.080 25.586594
67.085 25.6001
67.090 25.188858
67.095 24.682589
67.100 23.845808
67.105 23.604616
67.110 22.975443
67.115 22.553778
67.120 22.840052
67.125 23.168888
67.130 23.133804
67.135 23.187721
67.140 22.686441
67.145 22.636015
67.150 22.394308
67.155 21.689482
67.160 21.547949
67.165 21.453411
67.170 21.817207
67.175 22.037493
67.180 21.939384
67.185 22.247787
67.190 22.520422
67.195 22.218493
67.200 22.916061
67.205 23.11508
67.210 22.902361
67.215 23.681723
67.220 23.694412
67.225 23.705172
67.230 23.441364
67.235 22.896967
67.240 22.654085
67.245 22.916042
67.250 22.443068
67.255 22.703571
67.260 22.301424
67.265 22.317354
67.270 22.707729
67.275 22.437321
67.280 22.698481
67.285 22.563934
67.290 22.428392
67.295 22.825287
67.300 23.166613
67.305 23.108105
67.310 23.658295
67.315 22.928989
67.320 22.581659
67.325 21.94463
67.330 21.426096
67.335 21.803272
67.340 21.94585
67.345 21.40119
67.350 21.415449
67.355 21.30958
67.360 21.808611
67.365 21.957535
67.370 21.079296
67.375 21.417448
67.380 22.653334
67.385 23.064611
67.390 23.114504
67.395 22.89356
67.400 22.172665
67.405 21.925573
67.410 21.612522
67.415 20.685673
67.420 20.739433
67.425 20.685654
67.430 20.768534
67.435 21.586065
67.440 21.523958
67.445 21.182749
67.450 21.00943
67.455 20.22501
67.460 20.35564
67.465 20.160597
67.470 20.173899
67.475 20.21541
67.480 20.286369
67.485 20.476759
67.490 20.829939
67.495 20.99189
67.500 21.232347
67.505 21.295771
67.510 21.63254
67.515 21.664808
67.520 22.490452
67.525 22.529257
67.530 23.001305
67.535 22.918343
67.540 22.514559
67.545 21.996868
67.550 21.732891
67.555 21.216301
67.560 21.441462
67.565 21.405901
67.570 21.391787
67.575 21.37627
67.580 21.053598
67.585 20.754938
67.590 20.467543
67.595 19.708328
67.600 19.200823
67.605 19.375336
67.610 19.50378
67.615 19.936182
67.620 20.276991
67.625 20.912966
67.630 21.351519
67.635 22.033796
67.640 21.952261
67.645 21.797707
67.650 21.821972
67.655 21.564886
67.660 21.432863
67.665 21.29851
67.670 21.059587
67.675 21.123573
67.680 21.373062
67.685 20.919033
67.690 20.802822
67.695 19.899096
67.700 19.798206
67.705 19.919546
67.710 19.905363
67.715 19.817726
67.720 20.010035
67.725 20.221664
67.730 21.269659
67.735 21.50201
67.740 21.474733
67.745 21.577475
67.750 21.619394
67.755 21.92523
67.760 23.010569
67.765 22.982946
67.770 22.196898
67.775 21.816051
67.780 21.518709
67.785 21.662281
67.790 21.135637
67.795 20.197426
67.800 20.593925
67.805 21.55051
67.810 21.38109
67.815 21.186281
67.820 20.677717
67.825 20.829664
67.830 20.778118
67.835 20.185457
67.840 19.418749
67.845 19.34906
67.850 20.5114
67.855 21.40313
67.860 21.66328
67.865 21.479067
67.870 21.867472
67.875 22.485043
67.880 23.239336
67.885 22.84786
67.890 22.564713
67.895 22.617662
67.900 22.550255
67.905 21.986235
67.910 21.201574
67.915 20.541933
67.920 20.058723
67.925 19.702309
67.930 19.605463
67.935 19.22854
67.940 19.720114
67.945 20.371912
67.950 20.555607
67.955 20.733753
67.960 20.455782
67.965 20.569071
67.970 20.761808
67.975 20.657797
67.980 20.726732
67.985 20.714031
67.990 20.912626
67.995 21.055641
68.000 20.23387
68.005 19.50536
68.010 19.608269
68.015 19.894953
68.020 19.716661
68.025 19.641468
68.030 20.058842
68.035 20.596411
68.040 21.24246
68.045 21.060352
68.050 20.511417
68.055 20.7672
68.060 20.774229
68.065 20.58008
68.070 20.768604
68.075 20.50144
68.080 20.379126
68.085 20.811466
68.090 20.407879
68.095 20.112118
68.100 20.584995
68.105 20.810047
68.110 20.737837
68.115 20.783375
68.120 20.319447
68.125 20.345106
68.130 20.469522
68.135 20.228897
68.140 19.570745
68.145 19.515018
68.150 19.474321
68.155 19.859987
68.160 20.08806
68.165 19.605656
68.170 18.970802
68.175 18.971289
68.180 19.173262
68.185 19.510612
68.190 19.454189
68.195 19.407732
68.200 19.270079
68.205 19.664936
68.210 19.87392
68.215 19.918711
68.220 19.530474
68.225 19.194576
68.230 19.517805
68.235 19.959742
68.240 20.157234
68.245 20.87956
68.250 20.875923
68.255 21.046793
68.260 21.384281
68.265 21.389429
68.270 21.639771
68.275 21.432507
68.280 20.943228
68.285 20.773764
68.290 20.721752
68.295 20.620546
68.300 20.985378
68.305 21.19318
68.310 21.819502
68.315 22.393723
68.320 22.182859
68.325 21.794495
68.330 21.575165
68.335 21.061226
68.340 20.324617
68.345 19.585379
68.350 18.757402
68.355 18.465891
68.360 18.825457
68.365 18.852577
68.370 18.872358
68.375 19.309813
68.380 19.610664
68.385 19.966293
68.390 20.142694
68.395 20.176605
68.400 20.111479
68.405 20.638731
68.410 20.250513
68.415 20.996941
68.420 21.684412
68.425 22.024145
68.430 21.693989
68.435 21.237072
68.440 20.387924
68.445 20.278259
68.450 19.356346
68.455 19.358622
68.460 19.375841
68.465 19.993784
68.470 20.463696
68.475 20.442732
68.480 20.11146
68.485 21.032587
68.490 20.309525
68.495 20.35412
68.500 20.035769
68.505 19.703991
68.510 20.245634
68.515 20.598574
68.520 19.692902
68.525 19.784945
68.530 20.021332
68.535 20.035664
68.540 20.600399
68.545 21.104025
68.550 20.794052
68.555 20.283558
68.560 20.480513
68.565 20.557676
68.570 20.625528
68.575 20.266962
68.580 19.787552
68.585 19.981524
68.590 20.95348
68.595 20.570835
68.600 20.273458
68.605 20.671499
68.610 20.829418
68.615 21.203493
68.620 21.349724
68.625 21.507887
68.630 22.057701
68.635 22.188427
68.640 22.125801
68.645 21.991339
68.650 22.042934
68.655 21.444351
68.660 21.142315
68.665 20.914474
68.670 20.845802
68.675 20.887041
68.680 20.773766
68.685 20.830198
68.690 21.499975
68.695 21.427145
68.700 21.736704
68.705 21.787609
68.710 21.983355
68.715 22.209284
68.720 22.302818
68.725 22.256872
68.730 21.858219
68.735 21.682713
68.740 21.609304
68.745 21.544756
68.750 21.293051
68.755 21.647417
68.760 21.582268
68.765 22.064779
68.770 22.381567
68.775 22.386003
68.780 22.212971
68.785 22.108831
68.790 21.542646
68.795 22.233261
68.800 22.79561
68.805 22.199982
68.810 22.125025
68.815 22.10141
68.820 21.96394
68.825 22.216148
68.830 21.587418
68.835 21.178782
68.840 21.51819
68.845 21.553104
68.850 21.664698
68.855 22.620472
68.860 22.730412
68.865 23.093943
68.870 23.060619
68.875 23.311241
68.880 23.364691
68.885 23.179523
68.890 22.024046
68.895 21.771803
68.900 21.390133
68.905 21.746834
68.910 21.137291
68.915 21.494032
68.920 21.604092
68.925 22.178875
68.930 22.321512
68.935 22.598875
68.940 23.114323
68.945 23.379765
68.950 23.154354
68.955 23.017138
68.960 22.878675
68.965 22.645979
68.970 22.6147
68.975 22.261662
68.980 22.498377
68.985 22.560513
68.990 22.799919
68.995 23.086292
69.000 23.925795
69.005 24.024323
69.010 24.155746
69.015 23.97735
69.020 24.612381
69.025 25.075768
69.030 25.064016
69.035 24.368771
69.040 24.330336
69.045 24.992477
69.050 24.800453
69.055 24.408031
69.060 24.198988
69.065 24.627625
69.070 24.97949
69.075 24.473682
69.080 23.769728
69.085 23.96018
69.090 23.969788
69.095 24.55212
69.100 24.506784
69.105 25.056116
69.110 25.385559
69.115 25.672138
69.120 25.825668
69.125 25.729486
69.130 25.016476
69.135 25.189211
69.140 25.428867
69.145 25.563383
69.150 25.746292
69.155 26.507887
69.160 26.745506
69.165 26.854479
69.170 26.633677
69.175 25.753241
69.180 26.353987
69.185 26.51548
69.190 25.846088
69.195 25.654406
69.200 25.208082
69.205 25.197933
69.210 25.23797
69.215 25.218082
69.220 25.119333
69.225 25.032093
69.230 25.023466
69.235 25.691545
69.240 26.042885
69.245 26.682796
69.250 27.26388
69.255 27.031063
69.260 27.249781
69.265 27.346172
69.270 27.445908
69.275 27.41573
69.280 26.237164
69.285 25.61599
69.290 26.150414
69.295 25.954212
69.300 25.995163
69.305 26.035191
69.310 26.588781
69.315 27.266802
69.320 27.401579
69.325 27.108389
69.330 26.785963
69.335 26.675695
69.340 26.254683
69.345 26.233427
69.350 26.300426
69.355 26.633657
69.360 27.082119
69.365 27.720404
69.370 28.123014
69.375 27.877304
69.380 27.460155
69.385 27.732901
69.390 27.593081
69.395 27.335102
69.400 27.029703
69.405 26.586256
69.410 26.823349
69.415 26.844744
69.420 26.35927
69.425 26.233269
69.430 26.976585
69.435 27.704828
69.440 28.375534
69.445 28.094858
69.450 28.147696
69.455 28.376101
69.460 28.146513
69.465 27.968613
69.470 27.921755
69.475 27.696449
69.480 28.366436
69.485 28.416393
69.490 28.982841
69.495 29.243843
69.500 29.409187
69.505 29.533463
69.510 29.455038
69.515 29.482264
69.520 29.794859
69.525 29.70019
69.530 29.866549
69.535 29.892118
69.540 29.894844
69.545 30.270231
69.550 30.698103
69.555 30.32205
69.560 30.620903
69.565 30.257643
69.570 29.897886
69.575 29.88422
69.580 29.874691
69.585 28.922873
69.590 28.555454
69.595 27.581015
69.600 27.38114
69.605 27.136801
69.610 26.777769
69.615 26.883595
69.620 27.132244
69.625 27.161278
69.630 28.342888
69.635 28.333391
69.640 28.370995
69.645 28.150543
69.650 28.080965
69.655 28.886219
69.660 29.077564
69.665 29.027891
69.670 29.554012
69.675 29.253393
69.680 29.258253
69.685 29.813593
69.690 29.910505
69.695 29.359182
69.700 28.650179
69.705 28.032473
69.710 27.99291
69.715 27.602678
69.720 26.778805
69.725 26.269131
69.730 25.77725
69.735 25.393856
69.740 25.839724
69.745 26.346857
69.750 26.222034
69.755 25.657545
69.760 25.676365
69.765 26.152361
69.770 26.669199
69.775 26.822361
69.780 26.604248
69.785 27.192863
69.790 27.080275
69.795 27.18157
69.800 26.865078
69.805 26.927618
69.810 26.471121
69.815 26.454821
69.820 25.480042
69.825 25.311012
69.830 25.076534
69.835 25.28688
69.840 25.109306
69.845 24.802637
69.850 24.149315
69.855 24.261333
69.860 23.879412
69.865 23.501907
69.870 23.195286
69.875 23.1611
69.880 22.925476
69.885 23.411934
69.890 23.782431
69.895 24.517843
69.900 24.829329
69.905 24.905836
69.910 24.709444
69.915 24.17417
69.920 23.555889
69.925 23.120279
69.930 22.707935
69.935 22.331411
69.940 21.247877
69.945 20.949673
69.950 21.265581
69.955 21.57548
69.960 21.796186
69.965 22.730654
69.970 22.687099
69.975 22.764227
69.980 23.143625
69.985 23.992514
69.990 23.74428
69.995 23.716576
70.000 22.498705
70.005 22.828194
70.010 23.131863
70.015 23.140554
70.020 23.434086
70.025 23.52043
70.030 22.783283
70.035 22.61454
70.040 22.571835
70.045 22.871077
70.050 22.492504
70.055 21.972704
70.060 22.478844
70.065 23.516697
70.070 23.549065
70.075 22.850138
70.080 22.773695
70.085 22.633801
70.090 21.955904
70.095 21.529131
70.100 21.478441
70.105 21.721693
70.110 21.765833
70.115 21.13619
70.120 21.024797
70.125 21.329477
70.130 21.135195
70.135 19.945765
70.140 19.792677
70.145 20.469851
70.150 21.059156
70.155 21.74185
70.160 21.409779
70.165 21.297501
70.170 21.853477
70.175 21.450624
70.180 21.261578
70.185 20.750549
70.190 19.912373
70.195 19.845612
70.200 19.669125
70.205 19.941803
70.210 19.519421
70.215 19.279964
70.220 19.373074
70.225 19.280909
70.230 19.189835
70.235 18.944258
70.240 18.192366
70.245 18.304134
70.250 18.563574
70.255 18.79262
70.260 19.125675
70.265 18.986723
70.270 19.175373
70.275 19.681482
70.280 19.8071
70.285 19.86747
70.290 19.64921
70.295 19.732727
70.300 20.055265
70.305 20.450157
70.310 20.679121
70.315 20.22657
70.320 19.963266
70.325 19.806784
70.330 19.727312
70.335 19.823277
70.340 19.16206
70.345 18.653803
70.350 18.697664
70.355 18.824932
70.360 19.462767
70.365 19.576721
70.370 19.461666
70.375 19.683691
70.380 20.35182
70.385 20.52121
70.390 20.320255
70.395 20.119841
70.400 20.454103
70.405 20.587635
70.410 20.649565
70.415 20.180004
70.420 20.379654
70.425 20.298576
70.430 20.071484
70.435 19.787054
70.440 19.682688
70.445 18.732248
70.450 17.889555
70.455 17.383064
70.460 17.56596
70.465 18.672373
70.470 18.899939
70.475 19.545349
70.480 20.341171
70.485 21.32151
70.490 21.306097
70.495 20.61293
70.500 20.167181
70.505 20.395409
70.510 20.145199
70.515 20.598566
70.520 20.639748
70.525 20.854511
70.530 20.764412
70.535 20.309505
70.540 19.43759
70.545 19.415112
70.550 18.84462
70.555 18.378929
70.560 18.846451
70.565 19.420315
70.570 19.705429
70.575 20.188202
70.580 20.656845
70.585 21.09704
70.590 20.983875
70.595 20.410423
70.600 20.174984
70.605 20.685877
70.610 20.803066
70.615 20.169367
70.620 20.042192
70.625 20.808865
70.630 20.796362
70.635 19.970612
70.640 19.038202
70.645 18.375227
70.650 17.98942
70.655 17.928102
70.660 17.206276
70.665 17.483644
70.670 18.33289
70.675 19.106644
70.680 19.322634
70.685 19.884645
70.690 20.018261
70.695 20.764107
70.700 20.671867
70.705 20.143856
70.710 20.680649
70.715 21.294809
70.720 20.911699
70.725 20.696924
70.730 20.322763
70.735 20.271803
70.740 20.270086
70.745 19.092318
70.750 18.159452
70.755 17.963812
70.760 17.62678
70.765 17.356352
70.770 17.071871
70.775 16.619471
70.780 16.504576
70.785 17.013638
70.790 17.856981
70.795 18.493668
70.800 18.469929
70.805 18.586325
70.810 19.511986
70.815 19.760862
70.820 19.591459
70.825 18.833935
70.830 18.187796
70.835 18.363876
70.840 18.548388
70.845 18.637581
70.850 19.395792
70.855 19.533611
70.860 19.580679
70.865 19.914848
70.870 19.741236
70.875 19.631504
70.880 19.252504
70.885 18.893476
70.890 18.51622
70.895 18.779997
70.900 18.925537
70.905 18.974354
70.910 18.792822
70.915 18.781717
70.920 19.101866
70.925 19.21505
70.930 18.532036
70.935 18.270794
70.940 18.576633
70.945 19.352217
70.950 19.002728
70.955 18.589775
70.960 18.79978
70.965 19.311501
70.970 19.578878
70.975 19.903849
70.980 19.291985
70.985 19.766281
70.990 20.161703
70.995 19.979128
71.000 20.260246
71.005 19.804806
71.010 19.420635
71.015 19.378927
71.020 18.932747
71.025 18.606792
71.030 18.221502
71.035 17.457426
71.040 17.37138
71.045 17.177767
71.050 17.364594
71.055 17.835058
71.060 17.568878
71.065 17.577576
71.070 17.923594
71.075 18.126148
71.080 18.154623
71.085 18.002087
71.090 18.235956
71.095 18.810991
71.100 19.535358
71.105 19.210024
71.110 18.777071
71.115 19.023926
71.120 19.043161
71.125 18.551189
71.130 18.505371
71.135 18.401594
71.140 19.113352
71.145 19.308582
71.150 18.520012
71.155 18.370113
71.160 18.442657
71.165 18.439728
71.170 18.410891
71.175 18.270279
71.180 18.616415
71.185 18.833099
71.190 18.584789
71.195 18.733603
71.200 18.514088
71.205 18.418056
71.210 18.270233
71.215 18.344734
71.220 18.212511
71.225 18.085974
71.230 17.85021
71.235 18.714834
71.240 18.798628
71.245 18.482285
71.250 18.148846
71.255 18.417156
71.260 18.637014
71.265 19.148775
71.270 18.526239
71.275 18.038292
71.280 17.945314
71.285 18.410366
71.290 19.124865
71.295 18.628664
71.300 17.368258
71.305 17.322365
71.310 17.654501
71.315 17.591398
71.320 17.199545
71.325 17.379013
71.330 17.648699
71.335 18.691057
71.340 18.95261
71.345 19.638605
71.350 19.662022
71.355 19.541212
71.360 19.381399
71.365 19.395708
71.370 18.966904
71.375 18.67013
71.380 18.967106
71.385 19.226921
71.390 19.214169
71.395 19.301048
71.400 19.516857
71.405 19.990694
71.410 20.264362
71.415 20.158274
71.420 19.927036
71.425 19.716686
71.430 19.340694
71.435 18.775824
71.440 18.361769
71.445 18.143564
71.450 18.508217
71.455 19.023312
71.460 19.480225
71.465 20.09243
71.470 20.056717
71.475 19.904392
71.480 19.872698
71.485 18.890533
71.490 18.306217
71.495 18.22674
71.500 17.198183
71.505 16.960459
71.510 16.792006
71.515 16.608538
71.520 17.212576
71.525 17.569599
71.530 17.402536
71.535 18.081045
71.540 18.605745
71.545 18.76355
71.550 18.843977
71.555 18.799202
71.560 18.653898
71.565 19.289625
71.570 19.365038
71.575 19.186008
71.580 19.154318
71.585 18.757788
71.590 18.8281
71.595 18.841265
71.600 18.891897
71.605 19.701611
71.610 19.469536
71.615 19.548517
71.620 19.54874
71.625 19.459787
71.630 18.939857
71.635 18.967337
71.640 18.568565
71.645 19.030741
71.650 19.537067
71.655 19.075478
71.660 18.690392
71.665 18.635458
71.670 17.989624
71.675 18.049244
71.680 17.640781
71.685 18.197981
71.690 19.035105
71.695 19.253012
71.700 19.326828
71.705 19.331839
71.710 19.155645
71.715 19.220028
71.720 18.198923
71.725 18.583572
71.730 19.483776
71.735 19.569103
71.740 19.659498
71.745 20.099985
71.750 20.216005
71.755 20.427908
71.760 19.911684
71.765 19.483263
71.770 19.106527
71.775 19.326231
71.780 19.143372
71.785 19.180717
71.790 19.39167
71.795 19.109163
71.800 19.097233
71.805 19.134062
71.810 19.253469
71.815 19.533968
71.820 18.982143
71.825 18.771709
71.830 18.895578
71.835 18.841194
71.840 19.387135
71.845 19.145861
71.850 19.049519
71.855 19.117359
71.860 18.780651
71.865 18.995979
71.870 19.217426
71.875 19.171177
71.880 19.051083
71.885 19.040564
71.890 18.736151
71.895 18.272802
71.900 18.237675
71.905 18.476181
71.910 17.75856
71.915 17.942545
71.920 17.954126
71.925 18.538788
71.930 18.632412
71.935 18.307268
71.940 17.875175
71.945 17.594143
71.950 17.548145
71.955 17.505653
71.960 17.606915
71.965 17.710159
71.970 17.76582
71.975 18.397842
71.980 18.887232
71.985 19.445492
71.990 19.260248
71.995 18.957989
72.000 19.17621
72.005 18.33737
72.010 17.723133
72.015 18.018341
72.020 17.701488
72.025 17.708666
72.030 17.641666
72.035 17.738008
72.040 18.557064
72.045 19.006901
72.050 18.385298
72.055 18.097998
72.060 18.738647
72.065 18.911125
72.070 19.067911
72.075 18.472246
72.080 18.439631
72.085 18.449915
72.090 18.330984
72.095 18.038338
72.100 17.725582
72.105 17.65835
72.110 17.200413
72.115 17.83226
72.120 18.770996
72.125 18.718708
72.130 18.677074
72.135 18.708992
72.140 18.865274
72.145 18.855757
72.150 17.674868
72.155 17.428656
72.160 17.264423
72.165 17.376789
72.170 17.253887
72.175 17.879061
72.180 18.452389
72.185 19.169462
72.190 18.964706
72.195 19.461752
72.200 19.517088
72.205 19.660688
72.210 19.250107
72.215 18.727238
72.220 18.966671
72.225 19.375292
72.230 19.277302
72.235 19.549
72.240 19.366098
72.245 19.339958
72.250 19.119528
72.255 18.471186
72.260 18.102455
72.265 18.210573
72.270 17.87826
72.275 18.108128
72.280 18.549459
72.285 18.427404
72.290 18.274885
72.295 18.003866
72.300 18.121401
72.305 18.45756
72.310 18.236898
72.315 18.619287
72.320 18.693205
72.325 18.519146
72.330 18.718752
72.335 18.440123
72.340 18.265102
72.345 17.603609
72.350 17.01482
72.355 17.553751
72.360 18.160124
72.365 18.215452
72.370 17.965759
72.375 18.203232
72.380 18.45413
72.385 19.053728
72.390 19.350151
72.395 18.755487
72.400 18.697372
72.405 18.745449
72.410 18.740242
72.415 18.593241
72.420 18.068951
72.425 17.566862
72.430 17.513517
72.435 17.329538
72.440 17.034664
72.445 16.835846
72.450 16.554745
72.455 16.199526
72.460 15.929273
72.465 16.149483
72.470 16.382828
72.475 17.155272
72.480 18.148375
72.485 18.994442
72.490 19.336145
72.495 19.125643
72.500 18.839624
72.505 18.447405
72.510 17.918077
72.515 17.522537
72.520 17.346067
72.525 17.897472
72.530 18.520643
72.535 18.887764
72.540 19.026428
72.545 18.705658
72.550 18.22492
72.555 18.499884
72.560 18.353485
72.565 18.453501
72.570 18.022312
72.575 17.877371
72.580 18.154457
72.585 17.715897
72.590 17.471289
72.595 16.835976
72.600 16.890615
72.605 16.580107
72.610 16.695223
72.615 16.731276
72.620 17.188753
72.625 16.803354
72.630 17.283199
72.635 17.195194
72.640 16.677723
72.645 16.113085
72.650 16.054461
72.655 15.46802
72.660 15.546984
72.665 15.794658
72.670 16.363564
72.675 16.962992
72.680 17.205658
72.685 17.112816
72.690 17.350601
72.695 17.558317
72.700 17.329021
72.705 17.497385
72.710 17.323296
72.715 17.582594
72.720 17.691044
72.725 17.381926
72.730 17.236933
72.735 17.021658
72.740 17.045233
72.745 17.641314
72.750 17.434155
72.755 17.692448
72.760 17.805756
72.765 17.755623
72.770 17.5823
72.775 17.843327
72.780 17.707941
72.785 17.757849
72.790 17.450562
72.795 17.298992
72.800 17.295301
72.805 17.39666
72.810 16.599903
72.815 16.387621
72.820 16.322544
72.825 16.627684
72.830 16.456982
72.835 15.757038
72.840 15.357179
72.845 15.696685
72.850 15.838502
72.855 15.585798
72.860 15.09272
72.865 14.941141
72.870 15.285604
72.875 15.299648
72.880 15.97914
72.885 16.392433
72.890 17.163237
72.895 17.947264
72.900 17.970203
72.905 17.547739
72.910 17.255222
72.915 16.827543
72.920 16.771866
72.925 16.377865
72.930 15.97269
72.935 15.836243
72.940 16.485142
72.945 16.395315
72.950 16.320475
72.955 15.701069
72.960 15.028027
72.965 15.442095
72.970 16.02957
72.975 16.312588
72.980 16.760401
72.985 16.258123
72.990 16.628498
72.995 17.265472
73.000 17.658724
