!@!!GADDS PLOTSO FILE: Chi integration type
!@!!Title/SampleName: map-93
!@!!Comment: ?
!@!!User: Bruker Instrument Administrator
!@!!Site: University of Illinois Chicago
!@!!Frame: map-93_01_000.gfrm
!@!!Wavelengths    1.54184   1.54056   1.54439
!@!!Frame angles: 2Theta: 63.000 Omega: 50.000 Phi: 0.000 Chi: 90.000
!@!!Integration range: 2Theta: 53.000 to 73.000  Gamma: -105.000 to -75.000
!@!!Integration method: bin normalized
!@!N
!@!SS
!@!M
!@!L 0.0 0.0 0.0 0.0
!@!XDegrees
!@!YCounts
53.000 7.449523
53.005 7.243233
53.010 6.704945
53.015 6.778645
53.020 6.880731
53.025 7.194551
53.030 7.244269
53.035 7.38556
53.040 7.722812
53.045 7.992925
53.050 8.315696
53.055 8.417848
53.060 8.068104
53.065 8.117519
53.070 8.022107
53.075 7.837617
53.080 8.060924
53.085 7.740438
53.090 7.666246
53.095 8.126056
53.100 8.620909
53.105 8.814522
53.110 8.807178
53.115 8.753472
53.120 8.796698
53.125 8.734681
53.130 8.378173
53.135 8.596915
53.140 9.205667
53.145 9.621494
53.150 9.683969
53.155 9.834053
53.160 9.734399
53.165 9.702363
53.170 9.009453
53.175 8.341468
53.180 7.834782
53.185 7.481712
53.190 7.03424
53.195 6.941698
53.200 6.837401
53.205 7.053621
53.210 7.595327
53.215 7.903655
53.220 8.251364
53.225 8.591301
53.230 8.679201
53.235 8.756437
53.240 8.758988
53.245 8.490872
53.250 8.435348
53.255 9.089767
53.260 9.126178
53.265 9.26313
53.270 9.177607
53.275 9.236758
53.280 9.479537
53.285 9.594966
53.290 9.154826
53.295 9.084643
53.300 8.937796
53.305 8.435879
53.310 8.446521
53.315 8.18572
53.320 7.712564
53.325 7.465121
53.330 7.324344
53.335 7.768452
53.340 8.10425
53.345 7.881509
53.350 8.053933
53.355 8.404014
53.360 8.687197
53.365 8.780649
53.370 8.366308
53.375 8.346987
53.380 8.617936
53.385 8.922076
53.390 9.183885
53.395 8.906109
53.400 9.284416
53.405 9.108525
53.410 8.792211
53.415 8.865432
53.420 8.218259
53.425 8.202867
53.430 8.168655
53.435 7.97468
53.440 8.441348
53.445 8.734022
53.450 8.794802
53.455 9.152847
53.460 9.183028
53.465 9.431918
53.470 9.406188
53.475 9.31141
53.480 8.833482
53.485 8.731305
53.490 8.667712
53.495 8.963694
53.500 8.730554
53.505 8.710962
53.510 8.506259
53.515 8.346142
53.520 8.11084
53.525 7.682907
53.530 7.20734
53.535 7.142405
53.540 7.325447
53.545 7.763968
53.550 8.17536
53.555 8.535766
53.560 8.86267
53.565 8.633242
53.570 8.464539
53.575 8.267969
53.580 8.358253
53.585 8.267898
53.590 8.625656
53.595 9.066069
53.600 10.01907
53.605 10.547997
53.610 10.196676
53.615 9.994663
53.620 10.405827
53.625 10.474344
53.630 10.0513
53.635 9.289114
53.640 8.842181
53.645 9.086914
53.650 9.303569
53.655 8.748636
53.660 8.228425
53.665 8.252614
53.670 8.309904
53.675 8.225724
53.680 7.795043
53.685 7.277625
53.690 7.275777
53.695 7.452006
53.700 7.818942
53.705 8.175428
53.710 8.714871
53.715 9.528718
53.720 10.149733
53.725 9.955589
53.730 10.088346
53.735 10.141938
53.740 10.259358
53.745 9.871973
53.750 9.253193
53.755 9.356476
53.760 9.712974
53.765 9.486132
53.770 9.281599
53.775 8.942886
53.780 8.949304
53.785 9.168631
53.790 8.586382
53.795 8.712176
53.800 8.884422
53.805 8.818187
53.810 8.940101
53.815 8.638209
53.820 8.602337
53.825 8.763991
53.830 8.184129
53.835 8.013765
53.840 8.18749
53.845 8.338828
53.850 9.054166
53.855 9.217856
53.860 9.489798
53.865 9.509139
53.870 10.271436
53.875 10.696017
53.880 10.849623
53.885 10.959158
53.890 10.723921
53.895 10.957584
53.900 10.930396
53.905 10.367903
53.910 10.181621
53.915 9.536507
53.920 8.85902
53.925 8.512955
53.930 8.117372
53.935 8.07183
53.940 8.40069
53.945 8.759418
53.950 9.272758
53.955 9.840746
53.960 10.530415
53.965 11.240515
53.970 11.35386
53.975 10.823958
53.980 10.306761
53.985 10.05958
53.990 9.812428
53.995 9.756196
54.000 9.234725
54.005 9.167817
54.010 9.457053
54.015 9.40558
54.020 9.596278
54.025 9.594081
54.030 9.08587
54.035 9.527071
54.040 9.831745
54.045 9.663638
54.050 9.761445
54.055 9.800832
54.060 9.963104
54.065 10.244493
54.070 10.156199
54.075 10.076679
54.080 10.496354
54.085 10.911487
54.090 10.852945
54.095 10.872907
54.100 10.598335
54.105 10.655607
54.110 10.387412
54.115 9.937889
54.120 9.608371
54.125 9.990809
54.130 9.679418
54.135 9.976995
54.140 10.114477
54.145 10.392889
54.150 10.846853
54.155 10.48076
54.160 10.525581
54.165 10.714279
54.170 10.395098
54.175 10.14001
54.180 9.830326
54.185 9.431925
54.190 9.554656
54.195 9.278347
54.200 9.308441
54.205 9.77511
54.210 10.42876
54.215 10.924956
54.220 11.159101
54.225 11.079147
54.230 11.480385
54.235 11.377052
54.240 10.662245
54.245 10.475451
54.250 10.322551
54.255 10.035856
54.260 10.153118
54.265 10.159579
54.270 10.337641
54.275 10.360167
54.280 9.970645
54.285 10.282534
54.290 10.638826
54.295 10.195773
54.300 10.160872
54.305 9.671991
54.310 9.492241
54.315 9.26852
54.320 8.717193
54.325 8.997031
54.330 9.428079
54.335 9.438457
54.340 10.139018
54.345 10.500942
54.350 10.697005
54.355 10.792882
54.360 10.513839
54.365 10.050639
54.370 10.040964
54.375 9.645286
54.380 9.283864
54.385 9.145927
54.390 9.096672
54.395 9.104942
54.400 9.170215
54.405 9.499932
54.410 10.010644
54.415 10.497473
54.420 10.518559
54.425 10.972005
54.430 11.515286
54.435 11.554133
54.440 11.125006
54.445 10.837351
54.450 10.657837
54.455 10.924298
54.460 10.418661
54.465 9.939549
54.470 10.235753
54.475 10.480213
54.480 10.331529
54.485 10.322894
54.490 10.062241
54.495 10.072367
54.500 9.975696
54.505 9.300952
54.510 8.991087
54.515 8.638998
54.520 8.740868
54.525 8.885704
54.530 8.715659
54.535 8.703867
54.540 8.916744
54.545 9.494853
54.550 9.505675
54.555 9.760607
54.560 9.562525
54.565 9.616881
54.570 9.433885
54.575 9.696124
54.580 9.695612
54.585 10.017883
54.590 9.700069
54.595 9.909415
54.600 10.273209
54.605 10.912395
54.610 10.641888
54.615 10.356343
54.620 10.377493
54.625 10.310594
54.630 10.096974
54.635 9.189143
54.640 8.431
54.645 8.635643
54.650 8.562699
54.655 8.457613
54.660 8.53876
54.665 9.278409
54.670 10.293206
54.675 10.672795
54.680 10.960542
54.685 11.047231
54.690 11.477627
54.695 11.683176
54.700 11.041809
54.705 10.847829
54.710 10.54476
54.715 10.218086
54.720 10.161963
54.725 10.149431
54.730 10.106661
54.735 10.431704
54.740 10.812825
54.745 11.552319
54.750 12.29524
54.755 12.394265
54.760 12.150887
54.765 11.956819
54.770 12.017502
54.775 11.60812
54.780 10.544457
54.785 9.385853
54.790 9.211447
54.795 9.569884
54.800 9.703644
54.805 9.560532
54.810 10.133293
54.815 11.017303
54.820 11.438598
54.825 11.888676
54.830 11.310411
54.835 11.297744
54.840 11.558187
54.845 10.942679
54.850 10.6296
54.855 10.590926
54.860 10.332614
54.865 10.834972
54.870 10.906052
54.875 11.023207
54.880 11.393996
54.885 11.328527
54.890 11.421832
54.895 11.63121
54.900 11.281994
54.905 11.072078
54.910 10.746015
54.915 10.604878
54.920 9.956224
54.925 9.436272
54.930 9.114654
54.935 8.943831
54.940 8.691233
54.945 8.803312
54.950 9.538282
54.955 10.443978
54.960 10.42931
54.965 10.688016
54.970 11.074791
54.975 11.015592
54.980 11.060026
54.985 10.743966
54.990 10.673749
54.995 10.617124
55.000 10.225754
55.005 10.028438
55.010 9.814215
55.015 9.596471
55.020 9.114049
55.025 8.912345
55.030 8.931291
55.035 9.207544
55.040 9.340688
55.045 9.365996
55.050 9.18504
55.055 9.373409
55.060 9.316324
55.065 9.268609
55.070 9.600356
55.075 9.780025
55.080 9.769916
55.085 10.074816
55.090 10.415256
55.095 10.731764
55.100 11.111469
55.105 10.728069
55.110 10.837886
55.115 11.307651
55.120 10.717622
55.125 10.568515
55.130 10.428356
55.135 10.239993
55.140 10.134799
55.145 10.288852
55.150 10.204084
55.155 10.721505
55.160 11.015877
55.165 11.20804
55.170 11.201603
55.175 11.188472
55.180 10.823997
55.185 10.762499
55.190 10.543602
55.195 10.069396
55.200 10.234698
55.205 10.622777
55.210 10.879497
55.215 10.756011
55.220 11.090477
55.225 11.226254
55.230 11.289581
55.235 10.987937
55.240 10.717266
55.245 10.53144
55.250 10.720325
55.255 10.549475
55.260 10.501071
55.265 10.155991
55.270 10.144037
55.275 10.373342
55.280 10.687136
55.285 10.450603
55.290 10.381236
55.295 10.221213
55.300 10.154828
55.305 10.134991
55.310 10.037451
55.315 9.969741
55.320 10.218383
55.325 10.36159
55.330 10.815169
55.335 10.966978
55.340 10.409665
55.345 10.478118
55.350 10.486303
55.355 10.212563
55.360 9.76242
55.365 9.505722
55.370 9.669997
55.375 9.822993
55.380 9.820022
55.385 9.735806
55.390 9.84345
55.395 10.231675
55.400 10.34358
55.405 10.64375
55.410 10.899549
55.415 11.05406
55.420 11.1058
55.425 11.261899
55.430 11.421626
55.435 11.509197
55.440 11.374547
55.445 11.093031
55.450 10.682015
55.455 10.576447
55.460 10.395984
55.465 10.06234
55.470 9.642267
55.475 9.516503
55.480 9.648086
55.485 9.855203
55.490 10.16432
55.495 10.453195
55.500 10.848878
55.505 11.043722
55.510 11.071662
55.515 11.0059
55.520 11.024889
55.525 10.734199
55.530 10.517285
55.535 10.330626
55.540 10.479165
55.545 10.465478
55.550 10.900707
55.555 11.268479
55.560 11.080838
55.565 10.934123
55.570 10.709034
55.575 10.376359
55.580 10.418591
55.585 10.216275
55.590 10.374586
55.595 10.94507
55.600 10.86247
55.605 10.738503
55.610 11.376478
55.615 11.64395
55.620 11.335115
55.625 11.321983
55.630 11.51028
55.635 12.210792
55.640 12.743718
55.645 12.30397
55.650 12.086977
55.655 12.251329
55.660 11.821673
55.665 11.465783
55.670 10.584611
55.675 10.589833
55.680 10.942595
55.685 10.612324
55.690 9.995328
55.695 10.099383
55.700 10.419318
55.705 11.197488
55.710 10.92458
55.715 10.883216
55.720 11.422132
55.725 11.806505
55.730 11.981202
55.735 11.792576
55.740 11.693783
55.745 11.18115
55.750 11.216054
55.755 11.147029
55.760 10.687956
55.765 10.254507
55.770 9.808131
55.775 9.667149
55.780 9.665572
55.785 9.36045
55.790 9.61771
55.795 9.769485
55.800 9.565321
55.805 9.981703
55.810 10.065895
55.815 10.389709
55.820 10.839245
55.825 11.130596
55.830 11.872693
55.835 12.342544
55.840 12.790898
55.845 13.087296
55.850 13.123962
55.855 12.796688
55.860 12.503985
55.865 12.022771
55.870 11.954795
55.875 11.473475
55.880 11.537744
55.885 11.451548
55.890 11.46958
55.895 11.64244
55.900 11.74722
55.905 12.028131
55.910 12.158157
55.915 12.205564
55.920 11.920293
55.925 11.791855
55.930 12.148231
55.935 12.612036
55.940 12.943053
55.945 12.853188
55.950 12.931162
55.955 13.274858
55.960 13.368328
55.965 13.054794
55.970 12.27509
55.975 11.785918
55.980 11.386256
55.985 11.020403
55.990 10.980086
55.995 10.596292
56.000 10.557156
56.005 10.771719
56.010 10.852344
56.015 11.0522
56.020 11.391678
56.025 11.365973
56.030 11.621659
56.035 11.688198
56.040 12.053561
56.045 11.915927
56.050 11.88027
56.055 11.773578
56.060 11.995947
56.065 11.877774
56.070 11.893878
56.075 11.783353
56.080 11.61794
56.085 11.726241
56.090 12.126233
56.095 12.537716
56.100 12.566551
56.105 12.127243
56.110 11.705249
56.115 11.923267
56.120 11.98213
56.125 10.990191
56.130 10.356566
56.135 10.583439
56.140 10.906973
56.145 11.57543
56.150 11.713112
56.155 11.639544
56.160 12.129753
56.165 12.327341
56.170 11.847106
56.175 11.21861
56.180 10.853022
56.185 10.790144
56.190 10.487722
56.195 10.370878
56.200 10.195824
56.205 10.634751
56.210 10.629538
56.215 10.789851
56.220 11.046539
56.225 11.258654
56.230 11.101635
56.235 11.288505
56.240 11.33849
56.245 11.857046
56.250 12.15821
56.255 11.673528
56.260 11.665092
56.265 11.767651
56.270 11.556792
56.275 11.57566
56.280 11.295281
56.285 11.149818
56.290 11.773587
56.295 11.677217
56.300 11.459411
56.305 11.334724
56.310 11.184231
56.315 11.407108
56.320 11.099348
56.325 11.016078
56.330 11.289258
56.335 11.942645
56.340 12.65641
56.345 12.662588
56.350 12.829511
56.355 12.708852
56.360 12.544184
56.365 12.306522
56.370 11.85916
56.375 11.868417
56.380 11.607455
56.385 11.620731
56.390 12.220372
56.395 12.848814
56.400 13.59392
56.405 13.697904
56.410 13.791797
56.415 13.866395
56.420 13.815587
56.425 13.317837
56.430 12.801799
56.435 12.138953
56.440 11.501948
56.445 11.173904
56.450 10.505294
56.455 10.281113
56.460 10.883228
56.465 11.264573
56.470 11.630589
56.475 11.980651
56.480 11.833321
56.485 12.139806
56.490 12.035873
56.495 11.598394
56.500 11.362225
56.505 10.761017
56.510 10.450734
56.515 10.539653
56.520 10.858227
56.525 10.925062
56.530 11.100806
56.535 11.37941
56.540 11.990533
56.545 12.184229
56.550 12.523712
56.555 12.078751
56.560 12.075185
56.565 11.87518
56.570 11.601791
56.575 11.453397
56.580 11.495678
56.585 11.35813
56.590 11.51237
56.595 11.027097
56.600 10.858925
56.605 10.95972
56.610 11.191319
56.615 11.00777
56.620 11.06486
56.625 11.35798
56.630 11.565166
56.635 11.814733
56.640 11.584906
56.645 11.538919
56.650 11.572063
56.655 11.308189
56.660 10.935286
56.665 10.718457
56.670 10.78506
56.675 10.699435
56.680 10.650336
56.685 11.109045
56.690 11.31986
56.695 11.923059
56.700 12.562657
56.705 12.792472
56.710 13.022308
56.715 12.854298
56.720 12.595387
56.725 12.83938
56.730 12.513315
56.735 12.619702
56.740 12.408392
56.745 12.283808
56.750 12.731831
56.755 13.09514
56.760 13.022637
56.765 12.618723
56.770 12.431
56.775 12.347941
56.780 12.487647
56.785 12.675957
56.790 12.606672
56.795 12.479144
56.800 12.863339
56.805 13.214314
56.810 13.486937
56.815 13.503034
56.820 12.966087
56.825 12.68677
56.830 12.413832
56.835 12.002416
56.840 11.72679
56.845 11.692655
56.850 11.372916
56.855 11.140917
56.860 11.593809
56.865 12.24702
56.870 12.429459
56.875 12.497114
56.880 12.415063
56.885 12.943494
56.890 13.338632
56.895 13.054488
56.900 12.602062
56.905 12.604021
56.910 12.643127
56.915 12.68485
56.920 12.653438
56.925 12.759313
56.930 13.035341
56.935 13.116117
56.940 13.000704
56.945 13.089968
56.950 12.934141
56.955 12.844041
56.960 12.667864
56.965 12.845984
56.970 13.022189
56.975 13.285761
56.980 13.434738
56.985 13.417512
56.990 13.518775
56.995 13.397468
57.000 13.042874
57.005 12.895207
57.010 12.600821
57.015 12.733233
57.020 12.646532
57.025 12.721344
57.030 12.824715
57.035 13.24749
57.040 13.774321
57.045 13.930998
57.050 13.857352
57.055 14.171641
57.060 14.19428
57.065 14.152478
57.070 14.058467
57.075 14.328728
57.080 14.062243
57.085 13.559879
57.090 13.373999
57.095 12.977036
57.100 12.856943
57.105 12.588519
57.110 11.895538
57.115 11.917328
57.120 11.974445
57.125 12.248116
57.130 12.495372
57.135 12.713852
57.140 12.51043
57.145 12.094381
57.150 12.106931
57.155 12.030549
57.160 11.97296
57.165 12.096985
57.170 12.357568
57.175 12.628513
57.180 13.155565
57.185 12.945984
57.190 12.959147
57.195 12.786852
57.200 12.579175
57.205 12.211498
57.210 11.874231
57.215 11.765229
57.220 12.12803
57.225 12.166511
57.230 12.202147
57.235 11.942527
57.240 12.04186
57.245 12.60748
57.250 12.362591
57.255 12.357212
57.260 12.235271
57.265 12.337382
57.270 12.48618
57.275 12.656424
57.280 12.640747
57.285 12.957258
57.290 13.023434
57.295 13.140213
57.300 13.171712
57.305 13.304244
57.310 12.911531
57.315 13.316481
57.320 13.482292
57.325 14.025478
57.330 13.916115
57.335 13.617546
57.340 13.372056
57.345 13.294534
57.350 12.765182
57.355 12.637243
57.360 12.197456
57.365 12.701001
57.370 13.375017
57.375 13.851832
57.380 14.104231
57.385 14.311514
57.390 14.479342
57.395 14.694052
57.400 14.193798
57.405 14.013221
57.410 14.060852
57.415 13.858542
57.420 13.16933
57.425 12.487361
57.430 12.41025
57.435 12.185608
57.440 11.761169
57.445 11.426536
57.450 11.54877
57.455 11.968646
57.460 12.109758
57.465 12.372979
57.470 12.837045
57.475 13.129483
57.480 13.116514
57.485 13.391257
57.490 13.510749
57.495 13.221213
57.500 12.988452
57.505 12.706362
57.510 12.432716
57.515 12.341921
57.520 12.267987
57.525 12.499031
57.530 13.20904
57.535 13.321315
57.540 13.442932
57.545 13.883038
57.550 14.624557
57.555 14.79444
57.560 14.892763
57.565 14.574105
57.570 14.785301
57.575 14.975273
57.580 14.63122
57.585 13.595845
57.590 13.223178
57.595 13.183393
57.600 13.697181
57.605 13.841695
57.610 13.929435
57.615 14.178208
57.620 15.22541
57.625 15.623958
57.630 14.810081
57.635 13.940588
57.640 13.634744
57.645 13.84958
57.650 13.979577
57.655 13.937302
57.660 13.794646
57.665 14.256576
57.670 14.21569
57.675 14.118786
57.680 13.298473
57.685 12.688495
57.690 11.994146
57.695 12.015144
57.700 12.342425
57.705 12.390134
57.710 12.245932
57.715 12.627313
57.720 13.262267
57.725 13.44488
57.730 13.211422
57.735 13.007945
57.740 13.646447
57.745 13.691742
57.750 13.990618
57.755 13.900496
57.760 13.786115
57.765 13.68192
57.770 13.897272
57.775 13.834557
57.780 13.99862
57.785 13.904644
57.790 13.979956
57.795 14.397429
57.800 14.636574
57.805 14.296733
57.810 14.281682
57.815 14.138244
57.820 14.213062
57.825 14.00624
57.830 13.656223
57.835 13.5983
57.840 13.712296
57.845 13.414552
57.850 13.554403
57.855 13.54533
57.860 13.747149
57.865 13.850597
57.870 13.908903
57.875 13.940248
57.880 13.842382
57.885 13.929611
57.890 14.232745
57.895 14.035593
57.900 13.936663
57.905 13.899527
57.910 13.85874
57.915 13.899117
57.920 13.251545
57.925 13.030341
57.930 13.390793
57.935 13.547332
57.940 13.614263
57.945 13.524015
57.950 13.769432
57.955 14.431735
57.960 14.40086
57.965 14.279945
57.970 14.323894
57.975 15.145824
57.980 15.376128
57.985 15.317085
57.990 15.034708
57.995 14.903529
58.000 14.931445
58.005 15.151271
58.010 14.567203
58.015 14.395485
58.020 14.232655
58.025 14.337532
58.030 14.110889
58.035 14.364542
58.040 14.431112
58.045 15.026305
58.050 15.070056
58.055 15.950977
58.060 16.637758
58.065 17.292923
58.070 17.129381
58.075 17.014585
58.080 16.856258
58.085 16.654367
58.090 16.133871
58.095 15.392278
58.100 14.961516
58.105 14.73401
58.110 13.961472
58.115 13.587083
58.120 14.199039
58.125 14.484106
58.130 14.917087
58.135 15.311029
58.140 16.102371
58.145 16.83325
58.150 17.263491
58.155 16.921741
58.160 16.37122
58.165 16.487265
58.170 16.82881
58.175 16.193195
58.180 16.11307
58.185 16.361431
58.190 16.371468
58.195 16.617191
58.200 16.670017
58.205 16.710308
58.210 17.298569
58.215 16.688932
58.220 16.249397
58.225 16.579208
58.230 16.807274
58.235 16.249643
58.240 16.047493
58.245 16.039173
58.250 16.901905
58.255 16.689369
58.260 16.748823
58.265 16.663336
58.270 17.292116
58.275 17.248909
58.280 17.090803
58.285 16.941044
58.290 17.410227
58.295 17.768284
58.300 18.062794
58.305 17.973686
58.310 18.182882
58.315 17.553303
58.320 17.356503
58.325 17.657127
58.330 17.142176
58.335 17.088001
58.340 17.161253
58.345 17.064222
58.350 17.483351
58.355 18.177925
58.360 17.538496
58.365 17.6894
58.370 17.57773
58.375 17.782627
58.380 18.074306
58.385 18.760723
58.390 19.019907
58.395 19.422117
58.400 19.263874
58.405 18.912029
58.410 18.501167
58.415 18.130728
58.420 17.659801
58.425 17.591099
58.430 17.805979
58.435 18.127537
58.440 19.101601
58.445 19.83729
58.450 20.079498
58.455 19.987228
58.460 20.386354
58.465 20.921701
58.470 21.51408
58.475 21.285456
58.480 21.335758
58.485 22.653612
58.490 23.448704
58.495 24.31892
58.500 24.284664
58.505 24.555767
58.510 24.418661
58.515 24.265896
58.520 23.897022
58.525 23.929668
58.530 23.592115
58.535 24.057707
58.540 24.065615
58.545 25.189474
58.550 25.651161
58.555 26.50898
58.560 27.928726
58.565 28.497232
58.570 29.600327
58.575 30.471338
58.580 30.90942
58.585 31.655998
58.590 31.813622
58.595 31.545485
58.600 31.747255
58.605 30.633406
58.610 31.038015
58.615 31.429243
58.620 31.278347
58.625 32.115089
58.630 33.837368
58.635 33.896175
58.640 34.571972
58.645 34.565842
58.650 35.0853
58.655 35.673473
58.660 36.106628
58.665 35.472797
58.670 36.060005
58.675 36.830898
58.680 36.684761
58.685 35.775257
58.690 35.717163
58.695 36.039371
58.700 35.656048
58.705 35.406021
58.710 34.941921
58.715 35.66357
58.720 36.327755
58.725 35.787235
58.730 34.765305
58.735 34.785244
58.740 34.587353
58.745 34.679798
58.750 34.49865
58.755 34.296062
58.760 33.911697
58.765 34.782707
58.770 35.192345
58.775 34.903336
58.780 33.76086
58.785 33.263485
58.790 33.003296
58.795 32.825489
58.800 31.037949
58.805 29.924248
58.810 28.845585
58.815 28.454254
58.820 27.654272
58.825 27.760317
58.830 27.81288
58.835 27.468374
58.840 28.019081
58.845 28.378454
58.850 27.837845
58.855 26.933495
58.860 26.195402
58.865 25.54154
58.870 24.211432
58.875 23.222187
58.880 23.126539
58.885 23.327772
58.890 23.469269
58.895 22.964521
58.900 22.815983
58.905 23.106157
58.910 23.280519
58.915 23.517029
58.920 24.031799
58.925 24.141161
58.930 24.23951
58.935 23.487923
58.940 22.895288
58.945 22.250834
58.950 21.569624
58.955 20.853378
58.960 20.345566
58.965 20.10224
58.970 20.638819
58.975 20.985188
58.980 21.182877
58.985 20.860968
58.990 20.917648
58.995 20.782255
59.000 20.437296
59.005 20.437855
59.010 19.83173
59.015 19.215477
59.020 19.086891
59.025 18.823027
59.030 18.834663
59.035 18.652641
59.040 18.462086
59.045 18.426842
59.050 18.805592
59.055 18.34561
59.060 18.27327
59.065 18.55715
59.070 18.501659
59.075 17.973507
59.080 17.773411
59.085 17.531164
59.090 17.735281
59.095 17.987358
59.100 17.796692
59.105 17.276993
59.110 17.180609
59.115 17.24716
59.120 17.20241
59.125 16.420786
59.130 15.749941
59.135 15.725815
59.140 16.114315
59.145 16.388319
59.150 16.445196
59.155 16.448036
59.160 16.954006
59.165 17.022551
59.170 16.725147
59.175 16.839266
59.180 16.491627
59.185 16.332766
59.190 16.060333
59.195 16.151064
59.200 15.907247
59.205 15.88113
59.210 15.677653
59.215 15.481606
59.220 14.788973
59.225 14.530926
59.230 14.207792
59.235 14.292163
59.240 14.183833
59.245 14.302929
59.250 14.383068
59.255 14.644408
59.260 14.333106
59.265 14.193911
59.270 14.068146
59.275 14.246346
59.280 14.056608
59.285 14.598037
59.290 14.857177
59.295 15.191145
59.300 15.126636
59.305 15.551299
59.310 15.450773
59.315 15.102111
59.320 14.453352
59.325 14.228693
59.330 14.499368
59.335 14.761567
59.340 14.852971
59.345 14.666947
59.350 14.903404
59.355 15.347607
59.360 15.505019
59.365 15.271369
59.370 15.158683
59.375 15.027095
59.380 15.072151
59.385 15.568866
59.390 15.365533
59.395 15.628057
59.400 15.953904
59.405 15.865468
59.410 15.879372
59.415 15.550113
59.420 14.882804
59.425 14.857698
59.430 14.880119
59.435 14.935138
59.440 14.628847
59.445 14.240744
59.450 14.922683
59.455 15.379818
59.460 15.312174
59.465 15.022623
59.470 14.524458
59.475 15.038074
59.480 15.889571
59.485 16.065058
59.490 15.620986
59.495 15.217922
59.500 15.537498
59.505 16.099005
59.510 15.720972
59.515 15.258981
59.520 14.565179
59.525 14.583487
59.530 14.454767
59.535 14.665469
59.540 14.615388
59.545 14.794401
59.550 14.643325
59.555 14.989781
59.560 15.499953
59.565 15.605301
59.570 15.410124
59.575 15.292955
59.580 15.115252
59.585 15.052045
59.590 15.252931
59.595 15.168948
59.600 14.979049
59.605 14.394627
59.610 14.648748
59.615 15.285039
59.620 15.216917
59.625 14.87264
59.630 15.082664
59.635 15.263445
59.640 15.681238
59.645 16.198494
59.650 16.418989
59.655 16.962042
59.660 17.254124
59.665 17.513035
59.670 17.307999
59.675 16.857246
59.680 16.413464
59.685 16.003572
59.690 15.501163
59.695 15.016394
59.700 15.291073
59.705 15.683353
59.710 15.541984
59.715 15.145173
59.720 14.73019
59.725 14.991683
59.730 15.299797
59.735 14.62338
59.740 14.68135
59.745 14.044088
59.750 13.583298
59.755 13.603943
59.760 13.5337
59.765 14.035566
59.770 14.251974
59.775 14.367649
59.780 15.252243
59.785 15.571679
59.790 16.237577
59.795 16.451237
59.800 16.199095
59.805 16.427317
59.810 16.236444
59.815 15.97072
59.820 15.993368
59.825 16.276382
59.830 16.305119
59.835 16.189253
59.840 15.521924
59.845 15.770324
59.850 15.626459
59.855 15.744189
59.860 14.993302
59.865 14.672417
59.870 14.450119
59.875 14.739766
59.880 15.039041
59.885 15.000881
59.890 14.371775
59.895 14.64991
59.900 14.664742
59.905 14.719325
59.910 14.863024
59.915 14.51157
59.920 14.908996
59.925 15.247604
59.930 14.912896
59.935 14.668086
59.940 14.671309
59.945 14.5429
59.950 14.79995
59.955 14.542189
59.960 15.003196
59.965 15.232067
59.970 15.308354
59.975 14.986452
59.980 14.668062
59.985 14.882565
59.990 14.979515
59.995 14.659312
60.000 14.903787
60.005 15.248221
60.010 15.581585
60.015 15.093943
60.020 14.579547
60.025 14.533298
60.030 14.365262
60.035 14.155633
60.040 14.292603
60.045 14.130806
60.050 15.058068
60.055 15.357191
60.060 15.282282
60.065 15.627018
60.070 15.562586
60.075 15.04868
60.080 15.174891
60.085 14.391379
60.090 14.394037
60.095 14.932858
60.100 14.557162
60.105 14.593863
60.110 14.879544
60.115 14.740523
60.120 15.239843
60.125 15.100359
60.130 14.815895
60.135 15.010579
60.140 15.014778
60.145 14.979073
60.150 15.248191
60.155 14.204572
60.160 13.429362
60.165 13.032707
60.170 13.364796
60.175 13.592377
60.180 13.757998
60.185 14.135229
60.190 14.846193
60.195 15.473818
60.200 15.911712
60.205 15.500134
60.210 15.110877
60.215 15.202902
60.220 15.436109
60.225 15.939674
60.230 15.460957
60.235 14.986123
60.240 14.468096
60.245 14.491322
60.250 14.65226
60.255 13.990978
60.260 13.509251
60.265 13.95365
60.270 14.219399
60.275 14.825207
60.280 14.657814
60.285 14.142645
60.290 14.351331
60.295 14.498799
60.300 14.327189
60.305 14.498548
60.310 14.72596
60.315 14.746272
60.320 14.997128
60.325 15.138476
60.330 15.517494
60.335 15.754104
60.340 15.382688
60.345 15.309264
60.350 15.643332
60.355 16.041061
60.360 16.516651
60.365 16.052471
60.370 15.938781
60.375 15.366924
60.380 14.893771
60.385 14.956413
60.390 14.50316
60.395 14.398277
60.400 14.443491
60.405 14.4218
60.410 15.210632
60.415 14.991905
60.420 14.636105
60.425 14.385132
60.430 14.487939
60.435 14.733347
60.440 15.710231
60.445 15.540663
60.450 15.998471
60.455 16.07992
60.460 16.110203
60.465 16.001356
60.470 15.94135
60.475 15.228901
60.480 15.121505
60.485 14.563693
60.490 14.565004
60.495 14.584277
60.500 14.290279
60.505 13.986525
60.510 14.044815
60.515 13.833908
60.520 14.21707
60.525 14.251431
60.530 14.13626
60.535 14.194111
60.540 14.439172
60.545 14.293226
60.550 14.479264
60.555 14.473374
60.560 14.568966
60.565 14.327492
60.570 14.074065
60.575 13.55497
60.580 13.664059
60.585 13.822585
60.590 14.085601
60.595 14.737213
60.600 14.846341
60.605 14.897816
60.610 15.482869
60.615 15.663597
60.620 15.388503
60.625 14.74706
60.630 14.255144
60.635 14.560547
60.640 14.968122
60.645 14.738415
60.650 14.980624
60.655 15.58234
60.660 15.996815
60.665 16.119471
60.670 15.827209
60.675 15.677364
60.680 15.967899
60.685 16.228117
60.690 15.76323
60.695 15.640953
60.700 15.646236
60.705 15.923813
60.710 15.252487
60.715 14.529332
60.720 14.252689
60.725 14.608608
60.730 15.156298
60.735 15.177409
60.740 15.095931
60.745 15.321733
60.750 16.138189
60.755 15.961529
60.760 16.158501
60.765 16.168844
60.770 16.500685
60.775 16.38969
60.780 16.335659
60.785 16.12949
60.790 16.005793
60.795 15.842711
60.800 15.909208
60.805 15.581267
60.810 15.679171
60.815 15.923301
60.820 15.581147
60.825 15.764101
60.830 15.388978
60.835 14.993121
60.840 15.113782
60.845 15.482637
60.850 15.84386
60.855 16.259825
60.860 15.56669
60.865 15.785979
60.870 15.816229
60.875 15.57946
60.880 15.243222
60.885 14.618931
60.890 14.276904
60.895 14.594506
60.900 14.839532
60.905 14.583296
60.910 14.600552
60.915 14.741548
60.920 15.006952
60.925 15.244813
60.930 15.385957
60.935 15.072037
60.940 15.586349
60.945 15.868973
60.950 15.91357
60.955 15.827116
60.960 15.866542
60.965 15.495904
60.970 15.376727
60.975 15.549918
60.980 15.625103
60.985 15.335004
60.990 15.617601
60.995 15.756695
61.000 15.839458
61.005 15.266457
61.010 14.524329
61.015 14.081482
61.020 14.304751
61.025 13.516578
61.030 13.090987
61.035 13.42037
61.040 14.275249
61.045 14.516578
61.050 14.609893
61.055 14.703809
61.060 15.317074
61.065 15.867615
61.070 15.715977
61.075 15.313549
61.080 15.352234
61.085 15.429235
61.090 14.914074
61.095 14.864219
61.100 14.949512
61.105 15.389169
61.110 15.777218
61.115 15.613078
61.120 15.668668
61.125 16.336802
61.130 16.329887
61.135 15.554378
61.140 15.286407
61.145 14.723729
61.150 14.812318
61.155 14.769836
61.160 14.008682
61.165 14.102032
61.170 14.550085
61.175 14.695061
61.180 14.563488
61.185 14.50594
61.190 14.610874
61.195 15.04748
61.200 14.788876
61.205 14.589839
61.210 14.409012
61.215 14.962749
61.220 15.168756
61.225 15.075536
61.230 15.272346
61.235 15.272808
61.240 15.138419
61.245 14.943179
61.250 14.532243
61.255 14.269895
61.260 14.342898
61.265 14.004939
61.270 14.038341
61.275 14.584717
61.280 14.761917
61.285 14.645811
61.290 15.109828
61.295 14.656631
61.300 14.842003
61.305 14.543
61.310 14.114549
61.315 14.394876
61.320 14.63255
61.325 14.24186
61.330 14.085306
61.335 13.942321
61.340 14.72904
61.345 14.499542
61.350 14.008471
61.355 13.988392
61.360 14.505336
61.365 15.463162
61.370 15.57536
61.375 15.82363
61.380 16.459579
61.385 16.807478
61.390 16.584396
61.395 16.278122
61.400 16.100368
61.405 16.469389
61.410 16.007706
61.415 15.836527
61.420 16.087515
61.425 16.256281
61.430 16.629696
61.435 17.011255
61.440 16.665232
61.445 16.963484
61.450 17.177107
61.455 17.021648
61.460 17.104568
61.465 16.955536
61.470 16.895842
61.475 16.691629
61.480 16.223749
61.485 16.517117
61.490 16.690845
61.495 16.734379
61.500 16.479231
61.505 16.436255
61.510 16.671038
61.515 16.537907
61.520 15.833738
61.525 15.677529
61.530 15.809184
61.535 15.542136
61.540 15.28581
61.545 15.36304
61.550 15.182397
61.555 15.471097
61.560 15.593922
61.565 15.537472
61.570 16.25905
61.575 16.754784
61.580 16.561327
61.585 16.245016
61.590 15.899585
61.595 15.56063
61.600 15.729358
61.605 15.604058
61.610 15.16091
61.615 15.795654
61.620 16.205956
61.625 16.10944
61.630 16.106491
61.635 15.583976
61.640 15.30336
61.645 15.157582
61.650 15.371929
61.655 15.790083
61.660 15.901772
61.665 15.999449
61.670 16.025591
61.675 16.286573
61.680 15.976545
61.685 15.601139
61.690 15.111144
61.695 14.841959
61.700 14.906187
61.705 14.874296
61.710 14.454153
61.715 14.637888
61.720 14.685372
61.725 14.561053
61.730 14.511391
61.735 14.513153
61.740 14.626498
61.745 14.582959
61.750 15.087951
61.755 14.80202
61.760 15.057076
61.765 15.524885
61.770 15.813356
61.775 15.98569
61.780 16.114511
61.785 15.684091
61.790 16.115419
61.795 16.708883
61.800 17.173841
61.805 16.927792
61.810 16.76685
61.815 17.063269
61.820 17.022631
61.825 16.979197
61.830 16.38028
61.835 15.913345
61.840 15.837754
61.845 16.04681
61.850 16.217945
61.855 16.257082
61.860 16.314344
61.865 16.796318
61.870 16.769835
61.875 16.7411
61.880 16.665777
61.885 16.310307
61.890 16.085863
61.895 15.94947
61.900 15.896813
61.905 16.037031
61.910 16.277918
61.915 15.957639
61.920 16.016962
61.925 16.01478
61.930 16.139997
61.935 16.121265
61.940 16.622528
61.945 16.215111
61.950 16.526079
61.955 16.513813
61.960 16.373173
61.965 16.241892
61.970 16.350227
61.975 16.361881
61.980 16.905188
61.985 16.731205
61.990 17.035213
61.995 17.578323
62.000 17.616558
62.005 17.060116
62.010 16.083618
62.015 15.955168
62.020 16.316051
62.025 16.253986
62.030 15.50289
62.035 15.35853
62.040 16.084589
62.045 16.620546
62.050 16.389561
62.055 15.958794
62.060 15.865215
62.065 16.638929
62.070 16.5889
62.075 15.83235
62.080 15.903885
62.085 15.950751
62.090 16.118565
62.095 15.418296
62.100 14.956614
62.105 15.495482
62.110 15.757615
62.115 15.874133
62.120 16.136627
62.125 16.660969
62.130 17.313519
62.135 17.580038
62.140 16.997372
62.145 16.919834
62.150 16.922127
62.155 17.024311
62.160 16.396112
62.165 16.3144
62.170 16.192554
62.175 16.540628
62.180 16.650745
62.185 16.403074
62.190 16.236088
62.195 16.463816
62.200 16.527073
62.205 16.58725
62.210 16.681032
62.215 16.682127
62.220 16.756056
62.225 16.238289
62.230 15.75071
62.235 15.336025
62.240 14.78132
62.245 13.966934
62.250 13.789783
62.255 13.810731
62.260 14.274248
62.265 15.113754
62.270 15.20187
62.275 15.555099
62.280 16.052794
62.285 16.229162
62.290 16.147198
62.295 16.333748
62.300 16.099117
62.305 16.388439
62.310 16.45735
62.315 16.311659
62.320 16.349762
62.325 16.347515
62.330 15.824868
62.335 15.752327
62.340 15.518149
62.345 15.199132
62.350 15.593104
62.355 15.21328
62.360 15.096435
62.365 14.934438
62.370 14.742026
62.375 14.778832
62.380 15.195897
62.385 14.885043
62.390 15.308528
62.395 15.560349
62.400 15.829976
62.405 15.737842
62.410 15.554555
62.415 15.490639
62.420 15.661704
62.425 15.002442
62.430 14.995616
62.435 15.632847
62.440 16.06793
62.445 17.09277
62.450 17.76862
62.455 17.842939
62.460 18.608334
62.465 19.209047
62.470 18.350121
62.475 18.315432
62.480 17.821714
62.485 16.726139
62.490 16.68701
62.495 16.525431
62.500 16.343086
62.505 16.573881
62.510 16.942736
62.515 16.631929
62.520 17.072939
62.525 16.901608
62.530 17.073683
62.535 17.437878
62.540 17.084032
62.545 16.131746
62.550 16.620232
62.555 16.831442
62.560 17.220396
62.565 16.863262
62.570 16.34708
62.575 16.958801
62.580 17.068123
62.585 16.545769
62.590 15.937731
62.595 15.295381
62.600 15.33506
62.605 15.078806
62.610 14.779445
62.615 14.794276
62.620 14.530775
62.625 14.957339
62.630 15.365477
62.635 15.583309
62.640 15.41339
62.645 16.09845
62.650 16.718821
62.655 16.963623
62.660 17.096579
62.665 17.059164
62.670 17.019838
62.675 17.602724
62.680 17.145788
62.685 16.919777
62.690 16.812319
62.695 16.867327
62.700 16.810656
62.705 16.207153
62.710 16.040861
62.715 16.290695
62.720 16.117559
62.725 16.439045
62.730 16.258387
62.735 16.51293
62.740 16.756174
62.745 16.598705
62.750 16.494242
62.755 16.350441
62.760 16.317692
62.765 16.491453
62.770 16.823517
62.775 16.709126
62.780 16.290203
62.785 16.252956
62.790 16.056355
62.795 15.955202
62.800 15.62386
62.805 15.135901
62.810 15.125779
62.815 15.267424
62.820 15.226893
62.825 15.353118
62.830 15.161023
62.835 14.889358
62.840 14.559148
62.845 14.869993
62.850 14.553534
62.855 14.585671
62.860 14.770105
62.865 14.414285
62.870 14.817587
62.875 15.123096
62.880 15.27767
62.885 15.997967
62.890 15.900046
62.895 16.011086
62.900 16.484524
62.905 16.020864
62.910 15.919608
62.915 15.94714
62.920 15.642119
62.925 16.216305
62.930 16.027136
62.935 16.295547
62.940 16.740601
62.945 16.791014
62.950 16.609669
62.955 16.191946
62.960 15.787121
62.965 16.326027
62.970 16.563559
62.975 16.851788
62.980 16.95804
62.985 17.300554
62.990 18.003212
62.995 18.339619
63.000 18.07823
63.005 17.159044
63.010 17.087086
63.015 17.256338
63.020 16.976164
63.025 16.333488
63.030 16.522453
63.035 16.831516
63.040 17.329645
63.045 16.727106
63.050 16.537615
63.055 16.383074
63.060 16.061132
63.065 15.916903
63.070 15.70762
63.075 15.599795
63.080 15.894136
63.085 16.025343
63.090 16.534861
63.095 16.690676
63.100 16.364119
63.105 16.814222
63.110 17.224634
63.115 17.11347
63.120 17.597601
63.125 17.70134
63.130 17.689985
63.135 17.367708
63.140 16.762659
63.145 15.995572
63.150 16.133848
63.155 15.57131
63.160 15.384194
63.165 15.969258
63.170 16.112812
63.175 16.389532
63.180 16.917561
63.185 17.171808
63.190 17.521296
63.195 17.782127
63.200 17.905575
63.205 17.931616
63.210 17.522358
63.215 17.3766
63.220 16.823254
63.225 16.591278
63.230 16.174225
63.235 15.777285
63.240 15.973771
63.245 16.660179
63.250 17.087366
63.255 17.329824
63.260 17.521147
63.265 17.34791
63.270 17.58382
63.275 17.880169
63.280 17.846378
63.285 17.429947
63.290 17.143694
63.295 16.743746
63.300 17.347511
63.305 17.170605
63.310 16.227942
63.315 15.380755
63.320 15.284665
63.325 15.386909
63.330 15.185129
63.335 14.489181
63.340 14.220922
63.345 14.480676
63.350 14.810269
63.355 15.059821
63.360 15.155952
63.365 15.006452
63.370 15.623613
63.375 16.002932
63.380 16.176371
63.385 17.022793
63.390 17.033998
63.395 17.01889
63.400 17.550663
63.405 17.380608
63.410 17.445347
63.415 17.449659
63.420 16.946222
63.425 17.130899
63.430 17.358595
63.435 17.228872
63.440 16.961563
63.445 17.29014
63.450 17.696316
63.455 17.769943
63.460 17.633951
63.465 17.41864
63.470 17.436789
63.475 17.556665
63.480 17.286158
63.485 16.992514
63.490 16.986849
63.495 16.918741
63.500 16.751623
63.505 16.640409
63.510 16.310699
63.515 16.498871
63.520 16.692827
63.525 16.867596
63.530 17.008326
63.535 17.535463
63.540 17.227398
63.545 17.183256
63.550 16.893854
63.555 16.595007
63.560 16.840178
63.565 16.900511
63.570 17.017668
63.575 17.852428
63.580 18.31641
63.585 18.489521
63.590 18.774029
63.595 18.417507
63.600 18.573929
63.605 18.333281
63.610 17.86315
63.615 17.635128
63.620 17.330566
63.625 17.012865
63.630 16.639542
63.635 16.559834
63.640 16.592667
63.645 16.274269
63.650 16.323372
63.655 16.4785
63.660 16.819824
63.665 16.767082
63.670 16.482754
63.675 16.145014
63.680 16.50375
63.685 16.734997
63.690 16.242161
63.695 16.282888
63.700 16.818834
63.705 16.71443
63.710 17.02359
63.715 17.545696
63.720 17.733822
63.725 18.422873
63.730 18.36861
63.735 17.769695
63.740 18.110199
63.745 18.070423
63.750 17.374926
63.755 16.802713
63.760 16.618484
63.765 16.600752
63.770 17.460125
63.775 17.503197
63.780 17.289682
63.785 18.335489
63.790 19.048615
63.795 19.485937
63.800 19.450218
63.805 19.451727
63.810 19.950336
63.815 20.181622
63.820 19.056658
63.825 18.951035
63.830 18.395235
63.835 18.514196
63.840 18.588785
63.845 18.163183
63.850 18.390684
63.855 18.638643
63.860 18.485823
63.865 18.367086
63.870 18.682222
63.875 18.753036
63.880 18.920362
63.885 18.97504
63.890 19.153107
63.895 19.459873
63.900 19.66428
63.905 19.27597
63.910 18.897608
63.915 18.792452
63.920 18.417789
63.925 18.256788
63.930 18.328279
63.935 18.657681
63.940 18.858322
63.945 19.266134
63.950 19.620659
63.955 20.69665
63.960 20.679817
63.965 20.353754
63.970 19.852743
63.975 19.419491
63.980 18.954206
63.985 18.539747
63.990 17.755123
63.995 17.640688
64.000 17.954439
64.005 18.485182
64.010 19.569429
64.015 20.198498
64.020 20.320177
64.025 20.964918
64.030 21.717834
64.035 22.143118
64.040 22.125053
64.045 21.508892
64.050 21.652758
64.055 21.56254
64.060 21.169226
64.065 20.955462
64.070 20.544548
64.075 20.477026
64.080 20.803932
64.085 20.521219
64.090 20.68288
64.095 21.549059
64.100 21.467054
64.105 21.659719
64.110 21.602274
64.115 21.428614
64.120 22.516014
64.125 22.426153
64.130 22.015144
64.135 22.882114
64.140 23.095507
64.145 23.670502
64.150 23.77194
64.155 23.40637
64.160 23.796669
64.165 23.740301
64.170 23.344059
64.175 23.697371
64.180 24.051661
64.185 25.151367
64.190 26.33733
64.195 27.235508
64.200 27.93791
64.205 27.897675
64.210 28.029144
64.215 27.656651
64.220 27.097954
64.225 26.940832
64.230 27.5567
64.235 28.450012
64.240 29.938457
64.245 30.358576
64.250 31.14967
64.255 31.872229
64.260 32.345867
64.265 33.205948
64.270 34.012482
64.275 34.401199
64.280 34.922302
64.285 36.197571
64.290 37.234791
64.295 37.637581
64.300 37.740929
64.305 38.050293
64.310 38.297615
64.315 38.676929
64.320 39.107983
64.325 40.414528
64.330 41.215534
64.335 41.199776
64.340 41.254295
64.345 41.689159
64.350 42.471603
64.355 42.915112
64.360 44.830437
64.365 45.62701
64.370 46.527103
64.375 47.269547
64.380 48.681107
64.385 49.947792
64.390 50.549175
64.395 50.535252
64.400 50.707001
64.405 51.145721
64.410 51.977558
64.415 51.905888
64.420 52.539528
64.425 52.235558
64.430 52.895954
64.435 53.84552
64.440 54.777344
64.445 54.54174
64.450 53.970867
64.455 52.842533
64.460 52.542099
64.465 52.716782
64.470 52.659985
64.475 52.147964
64.480 52.542618
64.485 52.846619
64.490 53.754501
64.495 54.032928
64.500 52.66473
64.505 52.053593
64.510 52.116188
64.515 51.895195
64.520 51.235065
64.525 50.035076
64.530 49.15535
64.535 48.63382
64.540 48.602886
64.545 48.102631
64.550 47.304394
64.555 47.081623
64.560 47.355659
64.565 46.704548
64.570 46.059097
64.575 44.553909
64.580 43.426071
64.585 42.798363
64.590 42.472095
64.595 41.669136
64.600 41.499832
64.605 41.241508
64.610 41.228558
64.615 41.11396
64.620 40.975288
64.625 40.368256
64.630 39.57375
64.635 38.57291
64.640 38.063385
64.645 37.837116
64.650 37.712555
64.655 36.967266
64.660 36.88863
64.665 37.050972
64.670 37.163406
64.675 36.474247
64.680 35.653275
64.685 34.764263
64.690 34.093235
64.695 33.00436
64.700 32.756088
64.705 32.388458
64.710 31.72629
64.715 31.032969
64.720 30.601513
64.725 30.566618
64.730 30.468727
64.735 30.349058
64.740 30.151361
64.745 29.836868
64.750 28.965984
64.755 28.791405
64.760 27.796249
64.765 26.867607
64.770 26.080223
64.775 25.397848
64.780 24.857332
64.785 25.239902
64.790 25.089687
64.795 25.528383
64.800 26.009481
64.805 25.502377
64.810 25.225691
64.815 24.735743
64.820 24.347181
64.825 23.899515
64.830 23.433348
64.835 23.694416
64.840 23.96114
64.845 23.904984
64.850 23.716742
64.855 23.343523
64.860 23.458511
64.865 23.573359
64.870 23.352957
64.875 23.062042
64.880 22.822515
64.885 23.115595
64.890 23.530544
64.895 23.583109
64.900 23.627409
64.905 24.333395
64.910 24.4732
64.915 24.417858
64.920 24.570778
64.925 24.627628
64.930 24.772459
64.935 24.530109
64.940 23.915371
64.945 23.884228
64.950 24.730635
64.955 25.326729
64.960 26.025146
64.965 26.525682
64.970 27.192757
64.975 27.874432
64.980 28.820393
64.985 29.432566
64.990 29.737642
64.995 29.973412
65.000 30.725079
65.005 31.816597
65.010 32.286648
65.015 32.358395
65.020 32.808716
65.025 32.981888
65.030 33.230259
65.035 33.326496
65.040 33.502522
65.045 34.154545
65.050 34.731251
65.055 34.351673
65.060 34.490875
65.065 34.47818
65.070 34.420456
65.075 34.007725
65.080 34.499485
65.085 35.709053
65.090 37.509426
65.095 38.530666
65.100 39.181423
65.105 40.035034
65.110 40.02869
65.115 39.515804
65.120 38.90781
65.125 39.107559
65.130 39.780594
65.135 40.557247
65.140 40.558533
65.145 41.056248
65.150 41.828732
65.155 42.090366
65.160 42.125484
65.165 42.155621
65.170 42.316521
65.175 42.198963
65.180 42.418705
65.185 42.091919
65.190 42.387138
65.195 40.958004
65.200 40.830196
65.205 40.400742
65.210 40.445427
65.215 40.564213
65.220 40.591469
65.225 40.128338
65.230 40.651428
65.235 40.113182
65.240 40.283772
65.245 41.023457
65.250 40.377293
65.255 40.00441
65.260 40.214108
65.265 40.266911
65.270 39.943367
65.275 39.454723
65.280 38.540344
65.285 38.525394
65.290 38.252041
65.295 39.34811
65.300 40.36079
65.305 41.272987
65.310 41.864117
65.315 41.885754
65.320 41.926014
65.325 42.51754
65.330 41.901817
65.335 40.824684
65.340 40.733704
65.345 40.466484
65.350 40.473862
65.355 40.517597
65.360 39.812748
65.365 38.961208
65.370 38.756126
65.375 37.814297
65.380 38.31543
65.385 38.753796
65.390 38.568356
65.395 39.24873
65.400 39.945755
65.405 40.060722
65.410 39.607563
65.415 38.983398
65.420 39.469704
65.425 39.350883
65.430 37.929653
65.435 38.071556
65.440 39.026764
65.445 39.865948
65.450 38.781757
65.455 38.14933
65.460 38.65295
65.465 39.110985
65.470 38.32967
65.475 37.576218
65.480 37.587212
65.485 38.636509
65.490 39.151405
65.495 39.255882
65.500 38.990231
65.505 38.36076
65.510 37.822357
65.515 37.722668
65.520 37.547974
65.525 37.321274
65.530 37.80014
65.535 37.982948
65.540 38.518421
65.545 38.958008
65.550 38.772583
65.555 38.053387
65.560 37.053024
65.565 36.290588
65.570 35.959064
65.575 35.606735
65.580 35.821655
65.585 35.657181
65.590 35.68243
65.595 34.844555
65.600 34.347332
65.605 34.261276
65.610 34.224754
65.615 34.416927
65.620 34.121429
65.625 34.254303
65.630 34.596886
65.635 34.846325
65.640 34.594994
65.645 33.749447
65.650 32.595375
65.655 31.83382
65.660 31.9198
65.665 32.867748
65.670 33.05085
65.675 33.16444
65.680 33.500744
65.685 33.668655
65.690 33.351471
65.695 32.616421
65.700 31.428307
65.705 30.513964
65.710 29.824982
65.715 28.527628
65.720 27.646448
65.725 27.887373
65.730 27.895969
65.735 27.891373
65.740 27.510464
65.745 27.630503
65.750 28.356588
65.755 28.365107
65.760 27.718075
65.765 27.661077
65.770 27.508102
65.775 27.597231
65.780 27.437078
65.785 27.450104
65.790 27.329578
65.795 27.154083
65.800 26.858791
65.805 26.884676
65.810 26.322226
65.815 25.766647
65.820 24.310057
65.825 24.262648
65.830 24.610535
65.835 24.769278
65.840 24.818972
65.845 24.99774
65.850 25.183729
65.855 25.701225
65.860 25.187246
65.865 24.102522
65.870 23.422119
65.875 23.308062
65.880 23.443974
65.885 23.290514
65.890 23.123892
65.895 23.060432
65.900 23.142506
65.905 23.086435
65.910 23.063526
65.915 22.791164
65.920 23.141821
65.925 22.25263
65.930 22.197666
65.935 22.152512
65.940 21.23419
65.945 20.77179
65.950 20.149914
65.955 19.227905
65.960 19.24649
65.965 18.951473
65.970 18.954966
65.975 19.535879
65.980 19.993916
65.985 20.530684
65.990 21.054708
65.995 21.443991
66.000 21.270363
66.005 21.619816
66.010 21.655388
66.015 21.315777
66.020 21.747875
66.025 21.61935
66.030 21.951841
66.035 22.303436
66.040 21.976751
66.045 21.514681
66.050 21.656391
66.055 21.390642
66.060 21.736942
66.065 21.486937
66.070 20.788374
66.075 20.486187
66.080 20.389326
66.085 19.690159
66.090 18.635387
66.095 17.796997
66.100 17.578894
66.105 18.24781
66.110 18.118103
66.115 18.72471
66.120 18.678108
66.125 19.71151
66.130 19.965549
66.135 20.265486
66.140 19.956804
66.145 19.611971
66.150 18.944736
66.155 18.708017
66.160 17.935266
66.165 17.415466
66.170 17.887802
66.175 17.526423
66.180 17.518999
66.185 17.924944
66.190 18.342344
66.195 18.62409
66.200 19.002518
66.205 17.918936
66.210 17.939825
66.215 18.372179
66.220 18.237528
66.225 17.925749
66.230 18.088688
66.235 18.144152
66.240 18.428358
66.245 18.90839
66.250 18.277857
66.255 18.535166
66.260 18.468122
66.265 18.100197
66.270 18.554119
66.275 19.002361
66.280 18.995333
66.285 19.233477
66.290 19.206432
66.295 19.296217
66.300 18.853722
66.305 18.491507
66.310 18.018845
66.315 17.6434
66.320 17.892509
66.325 17.985472
66.330 18.387329
66.335 18.297369
66.340 17.563276
66.345 17.79571
66.350 17.907509
66.355 17.615349
66.360 17.739744
66.365 17.610416
66.370 18.243568
66.375 18.833958
66.380 18.71788
66.385 18.594015
66.390 18.430593
66.395 18.539927
66.400 18.531248
66.405 18.217081
66.410 17.926611
66.415 17.698391
66.420 18.08923
66.425 18.026176
66.430 17.737698
66.435 17.773945
66.440 17.687597
66.445 17.524881
66.450 17.238785
66.455 17.14591
66.460 17.273155
66.465 17.401148
66.470 17.82576
66.475 18.312794
66.480 18.451166
66.485 18.740097
66.490 18.92174
66.495 18.945492
66.500 18.72554
66.505 18.308365
66.510 17.817144
66.515 18.031622
66.520 17.651974
66.525 17.630913
66.530 17.300018
66.535 17.302444
66.540 17.677849
66.545 17.949402
66.550 17.864138
66.555 18.201851
66.560 17.481308
66.565 17.365416
66.570 17.480991
66.575 17.840649
66.580 17.506144
66.585 17.130474
66.590 16.712326
66.595 17.140772
66.600 17.228865
66.605 16.789232
66.610 16.516994
66.615 16.532141
66.620 17.148277
66.625 17.378468
66.630 17.184242
66.635 16.891125
66.640 16.720327
66.645 16.422674
66.650 16.340178
66.655 16.104528
66.660 15.979808
66.665 16.262959
66.670 16.421705
66.675 16.364262
66.680 16.92178
66.685 16.930742
66.690 16.988995
66.695 17.427097
66.700 17.120846
66.705 17.559589
66.710 17.640278
66.715 17.369629
66.720 17.210939
66.725 17.189507
66.730 16.812349
66.735 17.392576
66.740 17.61038
66.745 17.869473
66.750 17.54888
66.755 17.784388
66.760 18.078606
66.765 18.006071
66.770 17.746914
66.775 17.380898
66.780 17.140306
66.785 16.982021
66.790 16.804064
66.795 16.7665
66.800 16.908094
66.805 16.141056
66.810 15.880816
66.815 15.862142
66.820 15.794506
66.825 15.982564
66.830 16.040651
66.835 15.718532
66.840 16.530634
66.845 16.885836
66.850 17.033255
66.855 17.747639
66.860 17.371895
66.865 16.950043
66.870 17.458521
66.875 17.464209
66.880 17.209389
66.885 17.216776
66.890 17.172075
66.895 17.119255
66.900 17.333714
66.905 17.309275
66.910 17.575703
66.915 17.591995
66.920 17.357626
66.925 17.018175
66.930 17.079233
66.935 17.45352
66.940 17.060194
66.945 17.140697
66.950 17.558159
66.955 17.532509
66.960 17.972843
66.965 18.783165
66.970 18.753706
66.975 18.924921
66.980 18.328068
66.985 18.42655
66.990 18.616926
66.995 18.533661
67.000 18.266998
67.005 18.389715
67.010 18.464237
67.015 17.960918
67.020 17.777021
67.025 18.129053
67.030 17.598392
67.035 17.139818
67.040 17.248604
67.045 17.502699
67.050 18.136002
67.055 18.046379
67.060 18.382961
67.065 18.458675
67.070 18.287399
67.075 18.237093
67.080 18.605186
67.085 18.688164
67.090 18.44285
67.095 17.703764
67.100 18.680809
67.105 18.730145
67.110 17.976751
67.115 17.673025
67.120 17.97864
67.125 18.221941
67.130 18.123667
67.135 17.682123
67.140 17.247883
67.145 17.927999
67.150 18.13879
67.155 17.899002
67.160 17.995615
67.165 17.983343
67.170 17.737865
67.175 18.022589
67.180 17.502218
67.185 17.173622
67.190 16.977961
67.195 17.193953
67.200 17.147163
67.205 17.215355
67.210 18.060331
67.215 18.518459
67.220 18.675041
67.225 18.304737
67.230 17.781839
67.235 17.857105
67.240 17.955511
67.245 17.19739
67.250 16.619081
67.255 16.985197
67.260 17.961267
67.265 18.284389
67.270 18.595106
67.275 18.466669
67.280 18.360479
67.285 19.086033
67.290 18.910873
67.295 18.399088
67.300 18.491617
67.305 18.416304
67.310 18.453243
67.315 18.340282
67.320 17.965601
67.325 17.718199
67.330 18.08312
67.335 18.757711
67.340 18.908781
67.345 18.867184
67.350 18.72027
67.355 18.338213
67.360 17.899355
67.365 17.236773
67.370 16.559235
67.375 16.4468
67.380 16.588795
67.385 17.255291
67.390 17.997601
67.395 18.139061
67.400 18.507122
67.405 18.402845
67.410 18.655096
67.415 18.539913
67.420 18.108597
67.425 18.027252
67.430 17.956656
67.435 17.267967
67.440 16.882719
67.445 16.668766
67.450 16.408106
67.455 16.452379
67.460 16.004629
67.465 16.662794
67.470 16.550316
67.475 16.439156
67.480 16.485603
67.485 17.179291
67.490 17.582788
67.495 18.123104
67.500 18.006584
67.505 18.321602
67.510 19.205391
67.515 19.895887
67.520 20.00873
67.525 19.980249
67.530 19.691141
67.535 19.718195
67.540 19.920759
67.545 19.976261
67.550 19.790089
67.555 19.684389
67.560 19.163351
67.565 18.946156
67.570 18.807608
67.575 18.162376
67.580 17.452459
67.585 17.134577
67.590 17.144587
67.595 17.316015
67.600 17.506296
67.605 17.78006
67.610 18.19068
67.615 18.48909
67.620 18.938681
67.625 18.777695
67.630 19.30077
67.635 19.310539
67.640 18.861055
67.645 18.400011
67.650 18.629782
67.655 18.152607
67.660 17.973639
67.665 18.005524
67.670 18.316961
67.675 18.614214
67.680 18.562286
67.685 17.908543
67.690 17.753719
67.695 17.314705
67.700 16.919111
67.705 16.634792
67.710 17.193432
67.715 17.404348
67.720 17.499424
67.725 17.961817
67.730 18.390293
67.735 18.6019
67.740 18.426241
67.745 17.510641
67.750 17.481573
67.755 17.958818
67.760 17.713758
67.765 17.628998
67.770 17.782928
67.775 18.188179
67.780 18.266733
67.785 18.405426
67.790 18.261461
67.795 18.426107
67.800 18.583265
67.805 18.407833
67.810 18.398184
67.815 18.842308
67.820 18.458311
67.825 17.96505
67.830 17.145184
67.835 16.731833
67.840 16.47473
67.845 16.566156
67.850 16.495443
67.855 16.771696
67.860 17.031748
67.865 17.559477
67.870 17.77652
67.875 18.066486
67.880 17.808035
67.885 17.995714
67.890 18.487284
67.895 18.574869
67.900 19.273575
67.905 19.484755
67.910 19.254478
67.915 19.523388
67.920 18.985163
67.925 18.415283
67.930 18.440847
67.935 17.867699
67.940 17.508347
67.945 17.207413
67.950 16.998957
67.955 17.135048
67.960 16.769009
67.965 16.741892
67.970 16.772825
67.975 17.183243
67.980 17.894276
67.985 18.232265
67.990 18.463854
67.995 19.184132
68.000 19.43829
68.005 19.728369
68.010 19.919836
68.015 19.457928
68.020 19.642904
68.025 19.52504
68.030 19.164515
68.035 18.825712
68.040 18.837475
68.045 18.813656
68.050 18.94725
68.055 18.677923
68.060 18.992592
68.065 19.10437
68.070 19.434076
68.075 19.345064
68.080 19.573395
68.085 19.579556
68.090 19.58176
68.095 19.647074
68.100 20.449772
68.105 20.50963
68.110 20.46913
68.115 20.090372
68.120 19.974361
68.125 20.399096
68.130 20.189516
68.135 19.405661
68.140 19.060617
68.145 18.66893
68.150 18.653143
68.155 18.746246
68.160 19.041018
68.165 18.572119
68.170 18.309774
68.175 18.225332
68.180 18.246046
68.185 18.756439
68.190 18.779993
68.195 18.405209
68.200 18.857496
68.205 19.721958
68.210 20.269045
68.215 21.433582
68.220 21.779356
68.225 22.133308
68.230 22.600828
68.235 23.065952
68.240 23.068439
68.245 22.723776
68.250 22.624073
68.255 22.755827
68.260 23.247206
68.265 23.465958
68.270 23.418701
68.275 24.0516
68.280 24.695217
68.285 24.842287
68.290 24.765705
68.295 25.192835
68.300 25.028587
68.305 25.518002
68.310 25.205317
68.315 25.331972
68.320 25.447563
68.325 26.114222
68.330 26.706131
68.335 26.83116
68.340 26.62196
68.345 27.241041
68.350 28.250425
68.355 28.622641
68.360 28.65324
68.365 29.102913
68.370 30.522146
68.375 31.075264
68.380 30.832481
68.385 31.555117
68.390 31.918455
68.395 31.682362
68.400 31.302313
68.405 31.491222
68.410 31.937855
68.415 32.541039
68.420 32.417267
68.425 32.46312
68.430 32.255455
68.435 32.038422
68.440 31.8125
68.445 31.979164
68.450 31.728737
68.455 32.536922
68.460 33.683327
68.465 34.44696
68.470 34.473228
68.475 34.611618
68.480 34.671387
68.485 35.17329
68.490 34.359577
68.495 33.893017
68.500 33.501835
68.505 33.562744
68.510 33.496719
68.515 33.906403
68.520 34.53339
68.525 34.492577
68.530 34.762905
68.535 34.686985
68.540 35.29063
68.545 35.060532
68.550 34.737633
68.555 33.760464
68.560 33.557289
68.565 34.7826
68.570 35.77409
68.575 35.349705
68.580 35.383572
68.585 35.449722
68.590 36.35162
68.595 36.444645
68.600 35.451164
68.605 35.291721
68.610 35.915058
68.615 36.199501
68.620 36.277439
68.625 36.39101
68.630 36.878296
68.635 36.718712
68.640 36.673714
68.645 36.293144
68.650 35.96117
68.655 35.82431
68.660 36.018311
68.665 35.158619
68.670 34.56295
68.675 34.014736
68.680 33.866566
68.685 34.824684
68.690 34.43972
68.695 34.966156
68.700 35.510715
68.705 35.645428
68.710 36.276176
68.715 36.644512
68.720 36.158096
68.725 36.295807
68.730 35.200584
68.735 35.227825
68.740 35.021
68.745 34.116924
68.750 33.364983
68.755 33.5019
68.760 33.071888
68.765 32.943317
68.770 32.974709
68.775 33.224163
68.780 32.792164
68.785 32.821903
68.790 32.774727
68.795 31.893429
68.800 31.743015
68.805 30.860855
68.810 30.743074
68.815 31.122906
68.820 30.277634
68.825 29.827377
68.830 29.327999
68.835 29.006733
68.840 28.780888
68.845 29.114689
68.850 29.42613
68.855 30.0205
68.860 30.714741
68.865 31.401337
68.870 31.963079
68.875 32.282524
68.880 31.307423
68.885 30.967308
68.890 31.000248
68.895 30.499043
68.900 29.663961
68.905 29.062925
68.910 28.312477
68.915 28.605207
68.920 28.518394
68.925 28.151669
68.930 28.308979
68.935 28.756933
68.940 28.170004
68.945 28.601316
68.950 28.084772
68.955 28.030634
68.960 28.561712
68.965 29.010271
68.970 28.844893
68.975 29.403286
68.980 29.437239
68.985 29.566183
68.990 29.174505
68.995 27.727928
69.000 27.066933
69.005 27.065704
69.010 26.537186
69.015 26.002264
69.020 26.44562
69.025 26.495403
69.030 26.979595
69.035 26.864246
69.040 26.564583
69.045 26.931036
69.050 26.708334
69.055 26.181009
69.060 26.178104
69.065 25.77157
69.070 24.378176
69.075 23.976915
69.080 23.945614
69.085 24.079304
69.090 23.882357
69.095 23.533644
69.100 23.482649
69.105 23.883307
69.110 23.640223
69.115 22.98633
69.120 22.180042
69.125 22.358429
69.130 22.215885
69.135 22.051287
69.140 22.325861
69.145 21.66655
69.150 21.00156
69.155 21.091682
69.160 21.087114
69.165 20.977077
69.170 21.03167
69.175 21.444412
69.180 21.877708
69.185 22.697069
69.190 22.837442
69.195 22.96784
69.200 23.194847
69.205 22.906603
69.210 22.331121
69.215 21.995234
69.220 21.917257
69.225 21.860928
69.230 21.626322
69.235 21.807653
69.240 21.462708
69.245 21.164408
69.250 21.389212
69.255 20.8339
69.260 19.80361
69.265 19.703543
69.270 19.674871
69.275 19.736305
69.280 19.384586
69.285 19.13685
69.290 20.079044
69.295 20.144011
69.300 19.469725
69.305 18.962889
69.310 19.287207
69.315 19.430283
69.320 19.354822
69.325 18.773643
69.330 18.891953
69.335 19.252344
69.340 19.136532
69.345 19.177668
69.350 19.683296
69.355 19.829035
69.360 19.791424
69.365 19.720242
69.370 19.458069
69.375 19.074413
69.380 19.35375
69.385 19.515268
69.390 19.598824
69.395 19.722618
69.400 19.679882
69.405 19.818859
69.410 20.194002
69.415 19.945299
69.420 19.280668
69.425 18.798037
69.430 19.551674
69.435 20.134562
69.440 20.355339
69.445 20.861937
69.450 20.93346
69.455 20.710623
69.460 20.484085
69.465 19.240376
69.470 18.501535
69.475 17.910662
69.480 17.054762
69.485 16.381615
69.490 16.649105
69.495 17.048912
69.500 17.260145
69.505 17.209877
69.510 17.473152
69.515 17.775154
69.520 18.051111
69.525 18.12093
69.530 18.190695
69.535 18.57906
69.540 18.551502
69.545 18.938082
69.550 18.743383
69.555 18.477015
69.560 18.292362
69.565 18.341871
69.570 18.512106
69.575 18.902845
69.580 18.256203
69.585 18.277788
69.590 17.743357
69.595 17.358637
69.600 16.793385
69.605 16.714226
69.610 16.744486
69.615 16.59057
69.620 16.99066
69.625 17.632133
69.630 18.257788
69.635 18.717489
69.640 19.10084
69.645 19.402681
69.650 19.2234
69.655 18.904535
69.660 18.506374
69.665 18.216688
69.670 17.883894
69.675 17.568949
69.680 18.060022
69.685 18.526033
69.690 18.520121
69.695 18.495302
69.700 18.73735
69.705 18.763966
69.710 18.593954
69.715 18.159403
69.720 18.305996
69.725 18.387894
69.730 18.033831
69.735 18.060177
69.740 18.269381
69.745 18.692173
69.750 18.1553
69.755 18.082462
69.760 18.59716
69.765 18.651247
69.770 18.032316
69.775 17.629154
69.780 17.20632
69.785 17.885515
69.790 17.617924
69.795 17.466938
69.800 17.914862
69.805 18.223623
69.810 17.766571
69.815 17.410618
69.820 17.367043
69.825 17.829645
69.830 18.001797
69.835 17.919729
69.840 17.753929
69.845 18.289074
69.850 18.626238
69.855 18.235886
69.860 18.048019
69.865 17.996691
69.870 17.977463
69.875 18.385706
69.880 18.280235
69.885 18.350292
69.890 18.206629
69.895 17.772131
69.900 17.463766
69.905 17.2973
69.910 17.012331
69.915 17.236589
69.920 17.414984
69.925 18.024347
69.930 18.056889
69.935 18.005892
69.940 17.980934
69.945 17.762163
69.950 17.874727
69.955 17.671331
69.960 17.36286
69.965 17.184149
69.970 17.58963
69.975 18.057192
69.980 18.209724
69.985 18.021225
69.990 17.573153
69.995 17.650429
70.000 18.24612
70.005 17.741043
70.010 17.664745
70.015 17.615532
70.020 17.838764
70.025 17.932632
70.030 17.926044
70.035 18.041782
70.040 17.962244
70.045 18.249258
70.050 18.498514
70.055 17.972569
70.060 18.331192
70.065 18.578491
70.070 18.197956
70.075 18.56032
70.080 17.746141
70.085 17.487169
70.090 17.823986
70.095 17.145241
70.100 16.96456
70.105 17.143808
70.110 16.887892
70.115 17.216948
70.120 17.643288
70.125 17.973038
70.130 18.520969
70.135 18.812708
70.140 18.869604
70.145 18.882544
70.150 18.565334
70.155 18.460709
70.160 17.860086
70.165 17.337538
70.170 17.121693
70.175 17.121027
70.180 16.428495
70.185 16.048189
70.190 16.187538
70.195 16.771732
70.200 17.017633
70.205 16.907562
70.210 17.161087
70.215 17.584902
70.220 17.829828
70.225 17.786816
70.230 18.238007
70.235 18.386063
70.240 17.944469
70.245 18.120224
70.250 18.895123
70.255 19.046137
70.260 18.669584
70.265 18.106194
70.270 18.297058
70.275 19.086056
70.280 19.009329
70.285 18.993889
70.290 18.831333
70.295 18.753368
70.300 18.683199
70.305 18.337389
70.310 18.032677
70.315 18.298359
70.320 18.123581
70.325 18.612576
70.330 18.671902
70.335 18.864687
70.340 18.598858
70.345 18.163256
70.350 17.604082
70.355 16.841131
70.360 16.551861
70.365 16.604837
70.370 16.688683
70.375 16.705566
70.380 16.640131
70.385 16.735964
70.390 16.965328
70.395 17.414974
70.400 17.717535
70.405 18.009035
70.410 18.340399
70.415 18.065952
70.420 18.373938
70.425 18.443695
70.430 17.870434
70.435 17.54632
70.440 17.041317
70.445 17.57682
70.450 17.872881
70.455 18.011665
70.460 17.973211
70.465 17.9186
70.470 17.531055
70.475 17.637655
70.480 17.618462
70.485 17.288481
70.490 16.859919
70.495 16.574722
70.500 16.691099
70.505 16.840527
70.510 16.662889
70.515 16.599115
70.520 16.543396
70.525 16.711771
70.530 17.098248
70.535 17.6133
70.540 18.243664
70.545 18.703293
70.550 18.726164
70.555 19.503048
70.560 19.72653
70.565 19.960115
70.570 19.110401
70.575 18.176888
70.580 17.78097
70.585 17.259344
70.590 16.741385
70.595 16.196882
70.600 15.577327
70.605 15.932967
70.610 16.318811
70.615 16.875568
70.620 17.37314
70.625 17.956785
70.630 18.63468
70.635 18.912304
70.640 19.25148
70.645 18.723524
70.650 18.380648
70.655 18.039503
70.660 18.459728
70.665 18.421574
70.670 18.1758
70.675 17.862356
70.680 18.323481
70.685 18.847322
70.690 18.647867
70.695 18.183647
70.700 18.395731
70.705 18.286631
70.710 18.108807
70.715 18.304096
70.720 18.506332
70.725 17.648943
70.730 16.646006
70.735 16.294785
70.740 16.320517
70.745 17.025185
70.750 16.622864
70.755 16.767752
70.760 17.499968
70.765 18.042439
70.770 17.993351
70.775 17.982059
70.780 17.652615
70.785 16.851517
70.790 16.513868
70.795 16.769623
70.800 17.224928
70.805 17.320486
70.810 17.331074
70.815 17.325333
70.820 18.016417
70.825 18.316824
70.830 18.234915
70.835 17.846102
70.840 18.501097
70.845 18.964333
70.850 19.151112
70.855 19.159534
70.860 18.891758
70.865 18.964678
70.870 19.23321
70.875 19.075405
70.880 18.707613
70.885 18.796961
70.890 18.745869
70.895 18.785505
70.900 18.736198
70.905 18.399319
70.910 17.939646
70.915 18.025585
70.920 18.080956
70.925 17.769777
70.930 17.718658
70.935 17.155767
70.940 17.485804
70.945 17.175158
70.950 17.143433
70.955 16.824465
70.960 16.835739
70.965 16.867825
70.970 17.222708
70.975 17.491814
70.980 18.072762
70.985 18.094494
70.990 18.583483
70.995 19.237373
71.000 19.684696
71.005 19.164324
71.010 18.564508
71.015 18.613407
71.020 18.500309
71.025 18.121656
71.030 17.627062
71.035 17.892172
71.040 18.323221
71.045 18.311468
71.050 18.134556
71.055 18.469868
71.060 18.587317
71.065 18.291147
71.070 18.490639
71.075 18.526297
71.080 19.01078
71.085 19.180897
71.090 18.854008
71.095 18.524975
71.100 18.474483
71.105 18.094141
71.110 17.899035
71.115 17.471672
71.120 17.170595
71.125 17.080511
71.130 17.796144
71.135 17.708488
71.140 18.136831
71.145 18.650862
71.150 18.86655
71.155 19.794451
71.160 20.081995
71.165 19.800793
71.170 20.295471
71.175 19.975351
71.180 19.902401
71.185 19.71504
71.190 19.124409
71.195 19.205599
71.200 19.01095
71.205 18.313522
71.210 18.324568
71.215 17.6721
71.220 18.192415
71.225 18.132215
71.230 17.820082
71.235 18.165897
71.240 18.317093
71.245 18.370121
71.250 18.583597
71.255 18.284309
71.260 18.176231
71.265 17.836256
71.270 17.779121
71.275 17.750452
71.280 17.351963
71.285 17.617546
71.290 17.556656
71.295 17.521936
71.300 17.325891
71.305 16.553699
71.310 16.61684
71.315 16.566994
71.320 16.703474
71.325 17.146492
71.330 17.64255
71.335 18.257647
71.340 18.91431
71.345 19.281761
71.350 19.346523
71.355 19.100405
71.360 18.44311
71.365 17.594563
71.370 17.164646
71.375 17.133883
71.380 16.878086
71.385 16.987915
71.390 16.723984
71.395 16.686636
71.400 17.382847
71.405 17.420807
71.410 17.446926
71.415 17.397911
71.420 17.674889
71.425 17.904779
71.430 18.399536
71.435 18.393791
71.440 18.675522
71.445 18.490286
71.450 18.823996
71.455 19.356405
71.460 19.559084
71.465 19.340673
71.470 19.325054
71.475 18.438173
71.480 18.064262
71.485 18.124815
71.490 17.509464
71.495 17.218792
71.500 16.978014
71.505 16.822088
71.510 17.987545
71.515 18.191589
71.520 17.671444
71.525 17.756138
71.530 18.063259
71.535 19.127527
71.540 19.342297
71.545 19.429523
71.550 19.20225
71.555 19.434599
71.560 19.100451
71.565 18.998253
71.570 18.128649
71.575 18.543571
71.580 17.960621
71.585 17.632681
71.590 17.048891
71.595 17.148689
71.600 17.114714
71.605 17.037828
71.610 16.085793
71.615 16.491785
71.620 16.890238
71.625 17.095963
71.630 17.028519
71.635 17.076422
71.640 17.250872
71.645 17.173084
71.650 17.192913
71.655 17.024137
71.660 16.827282
71.665 17.066662
71.670 17.516222
71.675 18.353003
71.680 18.160597
71.685 18.223537
71.690 18.33378
71.695 18.558678
71.700 18.516066
71.705 17.98074
71.710 17.522081
71.715 17.60132
71.720 17.889999
71.725 18.016281
71.730 17.148233
71.735 16.779657
71.740 17.15836
71.745 17.794762
71.750 17.395885
71.755 17.244928
71.760 17.368212
71.765 17.803144
71.770 18.047396
71.775 18.064106
71.780 18.609707
71.785 18.449007
71.790 17.959213
71.795 18.129639
71.800 18.166433
71.805 18.36133
71.810 18.054729
71.815 18.098667
71.820 18.384323
71.825 18.741842
71.830 18.55879
71.835 18.136755
71.840 17.764057
71.845 17.835423
71.850 17.761721
71.855 17.785797
71.860 17.686617
71.865 17.369019
71.870 17.456762
71.875 17.644655
71.880 17.444977
71.885 18.104969
71.890 18.631306
71.895 19.158392
71.900 19.306759
71.905 19.133057
71.910 18.397932
71.915 18.688341
71.920 18.091185
71.925 17.68453
71.930 17.910818
71.935 18.664692
71.940 18.972342
71.945 18.77734
71.950 18.064724
71.955 18.036188
71.960 17.738623
71.965 17.151876
71.970 16.467661
71.975 16.287304
71.980 16.49835
71.985 16.865412
71.990 16.431431
71.995 16.724958
72.000 16.924042
72.005 17.228031
72.010 17.487186
72.015 17.476334
72.020 17.300434
72.025 17.96599
72.030 17.524906
72.035 17.400335
72.040 16.973831
72.045 16.211206
72.050 16.069292
72.055 15.833757
72.060 15.579152
72.065 15.861732
72.070 15.853967
72.075 15.792522
72.080 16.865837
72.085 17.250538
72.090 17.715427
72.095 18.019857
72.100 18.290241
72.105 18.43915
72.110 18.186666
72.115 17.428232
72.120 17.453804
72.125 17.034153
72.130 16.765295
72.135 17.018391
72.140 16.92226
72.145 16.830898
72.150 16.908819
72.155 16.405411
72.160 16.295109
72.165 16.384874
72.170 15.822088
72.175 15.909698
72.180 16.083338
72.185 15.812603
72.190 15.933064
72.195 15.943213
72.200 16.036222
72.205 15.968771
72.210 15.568252
72.215 15.918706
72.220 16.254534
72.225 16.645044
72.230 16.457014
72.235 16.586569
72.240 17.212721
72.245 17.688448
72.250 18.053432
72.255 18.134607
72.260 17.921373
72.265 18.096792
72.270 17.817318
72.275 17.289454
72.280 17.095789
72.285 16.59757
72.290 16.396585
72.295 16.382645
72.300 16.190865
72.305 16.798517
72.310 17.062189
72.315 17.338564
72.320 17.203918
72.325 17.246321
72.330 17.622789
72.335 17.959055
72.340 17.457846
72.345 17.807953
72.350 17.900686
72.355 18.099146
72.360 17.693415
72.365 17.858744
72.370 18.709599
72.375 19.157177
72.380 18.715485
72.385 18.365688
72.390 18.638885
72.395 19.128418
72.400 18.924351
72.405 17.994642
72.410 18.205805
72.415 18.180792
72.420 18.058006
72.425 17.82811
72.430 17.035582
72.435 16.671545
72.440 16.50264
72.445 16.807289
72.450 17.115192
72.455 17.336693
72.460 16.89922
72.465 17.006142
72.470 16.994316
72.475 16.863556
72.480 16.286491
72.485 16.082773
72.490 16.229342
72.495 16.77607
72.500 16.587727
72.505 16.445679
72.510 16.532393
72.515 16.875011
72.520 16.493557
72.525 16.71027
72.530 16.758326
72.535 17.46508
72.540 18.019096
72.545 17.741608
72.550 17.450071
72.555 17.347239
72.560 17.401808
72.565 17.236624
72.570 16.829727
72.575 16.699005
72.580 17.466904
72.585 17.836859
72.590 17.544487
72.595 16.9879
72.600 16.922028
72.605 16.694384
72.610 15.944604
72.615 15.819195
72.620 15.769844
72.625 16.293337
72.630 17.254469
72.635 17.212839
72.640 17.532465
72.645 16.814604
72.650 16.870554
72.655 16.990437
72.660 16.748787
72.665 15.612791
72.670 15.915416
72.675 15.997746
72.680 16.45912
72.685 16.960848
72.690 17.271835
72.695 17.625086
72.700 18.708778
72.705 18.373737
72.710 18.506153
72.715 18.272066
72.720 17.640884
72.725 17.72225
72.730 17.881456
72.735 17.558512
72.740 18.245153
72.745 18.129576
72.750 18.098047
72.755 18.127518
72.760 17.495729
72.765 17.496359
72.770 17.560373
72.775 17.345898
72.780 17.352398
72.785 17.066515
72.790 16.767279
72.795 16.87941
72.800 16.562178
72.805 15.902615
72.810 15.953534
72.815 15.978518
72.820 16.660152
72.825 16.272083
72.830 15.750834
72.835 15.570004
72.840 15.055052
72.845 15.690293
72.850 15.416894
72.855 15.18254
72.860 15.791298
72.865 15.845083
72.870 16.053381
72.875 16.303993
72.880 16.147703
72.885 16.764975
72.890 17.122099
72.895 16.805119
72.900 16.619556
72.905 16.679152
72.910 16.676739
72.915 16.192215
72.920 15.85561
72.925 15.588347
72.930 16.140587
72.935 16.341122
72.940 16.603846
72.945 16.619993
72.950 16.607021
72.955 16.365
72.960 16.368792
72.965 15.678009
72.970 15.634906
72.975 15.374925
72.980 15.669024
72.985 15.9421
72.990 16.495199
72.995 16.84981
73.000 17.190775
