!@!!GADDS PLOTSO FILE: Chi integration type
!@!!Title/SampleName: map-64
!@!!Comment: ?
!@!!User: Bruker Instrument Administrator
!@!!Site: University of Illinois Chicago
!@!!Frame: map-64_01_000.gfrm
!@!!Wavelengths    1.54184   1.54056   1.54439
!@!!Frame angles: 2Theta: 63.000 Omega: 50.000 Phi: 0.000 Chi: 90.000
!@!!Integration range: 2Theta: 53.000 to 73.000  Gamma: -105.000 to -75.000
!@!!Integration method: bin normalized
!@!N
!@!SS
!@!M
!@!L 0.0 0.0 0.0 0.0
!@!XDegrees
!@!YCounts
53.000 9.495584
53.005 9.492446
53.010 9.391744
53.015 9.09478
53.020 9.210374
53.025 9.323306
53.030 9.187366
53.035 9.195401
53.040 8.972194
53.045 9.377427
53.050 9.841116
53.055 9.527097
53.060 9.164848
53.065 9.22473
53.070 9.179349
53.075 9.490351
53.080 9.736055
53.085 10.038287
53.090 10.744765
53.095 11.619384
53.100 12.063931
53.105 12.010739
53.110 11.865595
53.115 11.293118
53.120 10.890915
53.125 10.427965
53.130 10.594999
53.135 10.518017
53.140 10.421339
53.145 10.083481
53.150 9.823801
53.155 10.070967
53.160 9.856997
53.165 9.460118
53.170 9.606603
53.175 9.848117
53.180 9.86537
53.185 10.30556
53.190 10.215518
53.195 10.22725
53.200 10.350976
53.205 10.62781
53.210 10.887792
53.215 11.229788
53.220 11.24791
53.225 11.561149
53.230 12.08458
53.235 11.88027
53.240 11.795583
53.245 12.115699
53.250 11.880884
53.255 11.708579
53.260 11.047979
53.265 11.028658
53.270 11.149455
53.275 10.871769
53.280 10.66302
53.285 11.129346
53.290 11.370118
53.295 11.386354
53.300 10.831059
53.305 10.440413
53.310 10.474309
53.315 10.784187
53.320 10.964564
53.325 10.974489
53.330 11.293178
53.335 11.552797
53.340 11.81862
53.345 11.691425
53.350 11.333377
53.355 11.255787
53.360 11.014584
53.365 10.978524
53.370 10.922707
53.375 10.963413
53.380 10.644251
53.385 10.493173
53.390 10.032874
53.395 9.703139
53.400 9.568634
53.405 9.397575
53.410 9.460879
53.415 9.636939
53.420 9.600993
53.425 9.9959
53.430 10.01423
53.435 9.896562
53.440 9.933209
53.445 9.545175
53.450 9.491928
53.455 9.745601
53.460 10.274655
53.465 10.045829
53.470 10.152499
53.475 10.299066
53.480 10.375371
53.485 10.389305
53.490 10.136388
53.495 10.46897
53.500 11.304348
53.505 11.389353
53.510 11.162879
53.515 11.653968
53.520 11.587955
53.525 11.882423
53.530 11.49634
53.535 11.270481
53.540 11.570513
53.545 11.550459
53.550 11.427103
53.555 11.266976
53.560 10.953049
53.565 11.000144
53.570 10.838549
53.575 10.739187
53.580 10.739211
53.585 10.482268
53.590 10.852987
53.595 11.099734
53.600 10.846046
53.605 11.012453
53.610 11.128843
53.615 11.013355
53.620 11.040731
53.625 10.866885
53.630 10.729701
53.635 11.027705
53.640 11.246433
53.645 11.195222
53.650 11.471513
53.655 11.446496
53.660 11.485353
53.665 11.259612
53.670 11.215981
53.675 11.192653
53.680 11.200003
53.685 11.35532
53.690 11.301425
53.695 11.00132
53.700 11.037131
53.705 10.582129
53.710 10.252131
53.715 10.177735
53.720 10.004798
53.725 10.088272
53.730 10.264165
53.735 10.082007
53.740 10.305056
53.745 10.498418
53.750 10.097859
53.755 9.884933
53.760 10.229748
53.765 10.481501
53.770 10.616245
53.775 10.688162
53.780 10.91986
53.785 11.317869
53.790 11.48762
53.795 11.25741
53.800 11.056423
53.805 10.927581
53.810 10.753505
53.815 10.479446
53.820 10.455682
53.825 10.374672
53.830 10.404666
53.835 10.353096
53.840 10.286452
53.845 10.411709
53.850 10.683412
53.855 10.612287
53.860 10.667483
53.865 10.248429
53.870 10.370423
53.875 10.329355
53.880 10.133911
53.885 10.053438
53.890 10.177637
53.895 10.020563
53.900 10.596916
53.905 10.544292
53.910 10.713232
53.915 10.806142
53.920 10.840094
53.925 10.850105
53.930 10.882069
53.935 10.932177
53.940 10.716866
53.945 10.669869
53.950 10.925756
53.955 10.938001
53.960 10.862413
53.965 10.603778
53.970 10.696535
53.975 10.462666
53.980 9.946768
53.985 9.862761
53.990 9.673588
53.995 9.910859
54.000 9.945582
54.005 9.723882
54.010 10.037199
54.015 10.551588
54.020 10.909914
54.025 11.090205
54.030 11.098461
54.035 11.522546
54.040 12.05118
54.045 12.212433
54.050 11.886683
54.055 11.761122
54.060 12.279809
54.065 12.391622
54.070 12.086624
54.075 11.942393
54.080 11.565736
54.085 11.622391
54.090 11.522066
54.095 10.972813
54.100 10.716237
54.105 10.765676
54.110 10.827895
54.115 11.027527
54.120 10.72348
54.125 10.707664
54.130 11.478687
54.135 11.787555
54.140 11.562101
54.145 11.37862
54.150 11.662683
54.155 11.65841
54.160 11.744268
54.165 11.442695
54.170 11.265583
54.175 11.413648
54.180 11.432907
54.185 11.327206
54.190 12.219415
54.195 11.976387
54.200 11.980538
54.205 11.94022
54.210 12.364999
54.215 12.711319
54.220 12.421558
54.225 12.081474
54.230 12.359075
54.235 12.466645
54.240 12.550097
54.245 12.379459
54.250 12.583928
54.255 12.231939
54.260 11.964884
54.265 11.887662
54.270 12.18203
54.275 11.833843
54.280 11.47265
54.285 11.577528
54.290 11.740219
54.295 11.549654
54.300 11.523939
54.305 11.468808
54.310 12.082956
54.315 11.885612
54.320 12.112435
54.325 12.288428
54.330 12.537694
54.335 12.342561
54.340 12.228977
54.345 12.449301
54.350 13.008193
54.355 12.72365
54.360 12.439368
54.365 12.024425
54.370 11.925606
54.375 12.223511
54.380 11.45389
54.385 11.102296
54.390 11.594446
54.395 11.908645
54.400 11.814459
54.405 11.164994
54.410 10.876166
54.415 10.90772
54.420 10.838064
54.425 10.671567
54.430 10.869403
54.435 11.205278
54.440 11.454632
54.445 11.454262
54.450 11.682772
54.455 11.583932
54.460 11.210761
54.465 10.816224
54.470 11.165736
54.475 11.498219
54.480 11.554817
54.485 11.216117
54.490 11.52039
54.495 11.693295
54.500 11.774007
54.505 11.358005
54.510 11.223932
54.515 11.485698
54.520 11.520996
54.525 11.278467
54.530 11.293363
54.535 11.224625
54.540 11.349959
54.545 11.420977
54.550 11.485599
54.555 11.649088
54.560 11.665296
54.565 11.670298
54.570 11.141015
54.575 10.900517
54.580 10.961235
54.585 11.366937
54.590 12.009691
54.595 12.022076
54.600 12.459883
54.605 12.931955
54.610 12.545717
54.615 11.780277
54.620 11.159118
54.625 10.491748
54.630 10.469986
54.635 10.007689
54.640 10.30052
54.645 11.028913
54.650 11.926911
54.655 12.312479
54.660 12.032663
54.665 12.087052
54.670 12.137509
54.675 11.675895
54.680 10.980372
54.685 10.901164
54.690 10.690057
54.695 10.544379
54.700 10.109574
54.705 10.179741
54.710 10.297414
54.715 10.938773
54.720 10.892729
54.725 11.040813
54.730 11.257514
54.735 12.009433
54.740 12.376354
54.745 12.670094
54.750 12.524318
54.755 12.520916
54.760 12.599195
54.765 12.570864
54.770 12.314064
54.775 12.20027
54.780 12.402718
54.785 11.794925
54.790 11.795345
54.795 12.226497
54.800 12.455991
54.805 12.369167
54.810 11.948191
54.815 12.097672
54.820 12.731031
54.825 12.565849
54.830 12.038832
54.835 11.547936
54.840 11.43849
54.845 11.312179
54.850 11.282191
54.855 10.87262
54.860 11.012581
54.865 10.893698
54.870 10.725059
54.875 10.680068
54.880 11.058868
54.885 11.063624
54.890 11.14436
54.895 11.965343
54.900 12.775445
54.905 13.529928
54.910 13.719314
54.915 13.54947
54.920 13.313553
54.925 13.245179
54.930 12.816331
54.935 12.417668
54.940 11.838656
54.945 12.116041
54.950 12.185559
54.955 12.335879
54.960 12.392198
54.965 12.468888
54.970 12.746282
54.975 13.082865
54.980 13.150129
54.985 13.572667
54.990 13.92642
54.995 13.854524
55.000 13.412757
55.005 13.461386
55.010 13.070191
55.015 12.52358
55.020 11.868978
55.025 11.649936
55.030 11.651107
55.035 11.862934
55.040 11.183522
55.045 11.136799
55.050 11.317995
55.055 11.40743
55.060 11.343962
55.065 10.77294
55.070 10.976111
55.075 11.735423
55.080 12.033649
55.085 12.258946
55.090 12.195767
55.095 12.571235
55.100 13.294524
55.105 13.45125
55.110 13.843496
55.115 13.665415
55.120 13.621681
55.125 13.965357
55.130 13.537792
55.135 13.568096
55.140 13.316956
55.145 12.762344
55.150 12.632871
55.155 11.819977
55.160 11.511799
55.165 11.526337
55.170 10.874681
55.175 10.843555
55.180 10.998949
55.185 11.451371
55.190 12.05973
55.195 12.171776
55.200 11.915504
55.205 11.914021
55.210 12.034575
55.215 12.099274
55.220 11.50751
55.225 11.455268
55.230 11.127178
55.235 11.496803
55.240 11.605308
55.245 11.508876
55.250 11.553215
55.255 12.313557
55.260 12.765363
55.265 13.254552
55.270 13.38674
55.275 13.209393
55.280 12.605922
55.285 12.145088
55.290 12.12767
55.295 12.083226
55.300 11.611459
55.305 11.473198
55.310 11.630877
55.315 12.615533
55.320 13.091719
55.325 12.587201
55.330 11.823958
55.335 11.583722
55.340 11.470112
55.345 11.121856
55.350 10.386205
55.355 10.251561
55.360 10.597372
55.365 10.955758
55.370 11.258538
55.375 11.199818
55.380 11.515841
55.385 12.019227
55.390 11.455653
55.395 11.192206
55.400 11.125675
55.405 11.011713
55.410 11.505094
55.415 11.717122
55.420 11.61533
55.425 12.284526
55.430 12.452153
55.435 12.645355
55.440 13.076708
55.445 12.655562
55.450 12.332182
55.455 12.256006
55.460 12.29433
55.465 12.33331
55.470 12.282498
55.475 12.025068
55.480 12.346539
55.485 12.340702
55.490 12.126085
55.495 12.183866
55.500 12.237029
55.505 12.625657
55.510 12.889179
55.515 13.007374
55.520 13.034196
55.525 12.973568
55.530 13.375611
55.535 13.582309
55.540 13.400439
55.545 13.213408
55.550 12.933067
55.555 13.339171
55.560 13.383463
55.565 13.092037
55.570 12.471792
55.575 12.30059
55.580 12.692245
55.585 12.691798
55.590 12.598919
55.595 12.604429
55.600 12.352258
55.605 12.007817
55.610 11.937806
55.615 11.019205
55.620 10.989508
55.625 10.896249
55.630 11.442056
55.635 11.838204
55.640 13.220126
55.645 13.499147
55.650 14.114912
55.655 14.998181
55.660 15.124288
55.665 14.734423
55.670 14.170207
55.675 13.466674
55.680 13.217147
55.685 13.212307
55.690 12.61055
55.695 12.439641
55.700 12.800817
55.705 13.702834
55.710 13.608316
55.715 13.931414
55.720 13.986371
55.725 13.996527
55.730 13.820449
55.735 13.236268
55.740 12.705276
55.745 12.641562
55.750 12.65556
55.755 12.296254
55.760 12.203218
55.765 12.42333
55.770 12.794812
55.775 12.885204
55.780 12.810207
55.785 12.594041
55.790 12.270451
55.795 12.181123
55.800 11.939958
55.805 11.767095
55.810 11.688027
55.815 11.738178
55.820 12.015395
55.825 12.093192
55.830 11.887819
55.835 12.610568
55.840 13.029079
55.845 13.067946
55.850 13.062829
55.855 12.802275
55.860 13.155103
55.865 13.463072
55.870 12.795281
55.875 12.799391
55.880 12.599436
55.885 12.488365
55.890 12.768048
55.895 12.450687
55.900 12.144709
55.905 11.887461
55.910 12.270864
55.915 12.3395
55.920 12.259613
55.925 12.367873
55.930 12.534012
55.935 13.295313
55.940 13.572028
55.945 13.700146
55.950 14.179012
55.955 14.003769
55.960 13.831418
55.965 13.961826
55.970 13.651791
55.975 13.707222
55.980 13.609932
55.985 13.799345
55.990 13.980991
55.995 13.73899
56.000 13.729651
56.005 13.455555
56.010 13.415616
56.015 13.371085
56.020 13.351426
56.025 13.616762
56.030 13.794344
56.035 13.660269
56.040 13.787564
56.045 13.63485
56.050 13.730252
56.055 13.719077
56.060 13.72825
56.065 14.31739
56.070 14.415536
56.075 14.486506
56.080 14.330127
56.085 14.04369
56.090 13.582019
56.095 13.844092
56.100 13.873257
56.105 13.597889
56.110 12.994074
56.115 12.873199
56.120 12.859609
56.125 13.301288
56.130 13.273942
56.135 13.444757
56.140 13.779303
56.145 13.762327
56.150 13.758984
56.155 13.946107
56.160 13.749475
56.165 13.084388
56.170 12.83778
56.175 13.066624
56.180 13.159492
56.185 12.972366
56.190 12.56722
56.195 12.702459
56.200 13.196202
56.205 13.228774
56.210 13.485017
56.215 14.150021
56.220 14.330714
56.225 14.230614
56.230 13.916852
56.235 13.648768
56.240 13.679773
56.245 13.973153
56.250 14.220073
56.255 14.17274
56.260 14.103759
56.265 14.453152
56.270 14.456635
56.275 13.813061
56.280 13.16431
56.285 12.718378
56.290 13.169089
56.295 13.169677
56.300 13.098233
56.305 13.061364
56.310 13.22352
56.315 13.520568
56.320 13.673704
56.325 13.722615
56.330 13.792721
56.335 13.38074
56.340 13.268111
56.345 13.174212
56.350 13.122524
56.355 13.294755
56.360 13.226899
56.365 13.656856
56.370 14.128761
56.375 14.009039
56.380 14.094872
56.385 13.927426
56.390 14.038001
56.395 14.019923
56.400 13.115641
56.405 13.05105
56.410 13.605431
56.415 13.856898
56.420 13.450206
56.425 13.30039
56.430 13.588067
56.435 13.96023
56.440 13.870507
56.445 13.320354
56.450 12.710001
56.455 12.580973
56.460 12.382326
56.465 12.078221
56.470 12.107694
56.475 12.309067
56.480 12.54851
56.485 13.119464
56.490 13.193291
56.495 13.095165
56.500 13.011525
56.505 13.431258
56.510 13.386504
56.515 13.422054
56.520 13.137448
56.525 13.76463
56.530 13.846921
56.535 14.008608
56.540 13.878543
56.545 13.960666
56.550 13.721931
56.555 14.017888
56.560 14.106832
56.565 14.69767
56.570 14.589147
56.575 14.061818
56.580 14.116758
56.585 14.383423
56.590 14.079284
56.595 14.039741
56.600 13.63254
56.605 13.543999
56.610 13.500344
56.615 13.101185
56.620 12.660382
56.625 12.206452
56.630 12.257083
56.635 12.605886
56.640 12.822543
56.645 12.756683
56.650 12.476346
56.655 12.835961
56.660 13.226214
56.665 12.975677
56.670 12.543952
56.675 12.71876
56.680 13.333889
56.685 14.086744
56.690 14.384834
56.695 14.435789
56.700 14.609277
56.705 15.001059
56.710 15.358475
56.715 15.23378
56.720 14.915078
56.725 14.319238
56.730 14.123756
56.735 14.242052
56.740 14.095853
56.745 13.877815
56.750 14.043959
56.755 14.343491
56.760 14.667234
56.765 14.694017
56.770 14.654501
56.775 14.401508
56.780 14.188656
56.785 14.168008
56.790 14.02452
56.795 14.132376
56.800 13.96207
56.805 13.93964
56.810 14.263983
56.815 14.169273
56.820 13.955961
56.825 13.989443
56.830 13.599907
56.835 13.53523
56.840 13.264141
56.845 12.966648
56.850 12.925088
56.855 13.479067
56.860 13.986615
56.865 14.308087
56.870 14.487193
56.875 14.88818
56.880 15.353131
56.885 15.367719
56.890 14.449183
56.895 14.279611
56.900 14.367131
56.905 14.11854
56.910 14.103485
56.915 13.926229
56.920 13.716255
56.925 14.135832
56.930 14.260172
56.935 14.528986
56.940 14.2194
56.945 14.151651
56.950 14.193314
56.955 14.361828
56.960 14.048245
56.965 13.600312
56.970 13.751399
56.975 14.606995
56.980 14.843568
56.985 14.94099
56.990 15.206647
56.995 15.345145
57.000 15.772527
57.005 15.621389
57.010 15.547029
57.015 15.585702
57.020 15.207906
57.025 15.024987
57.030 15.221569
57.035 15.080811
57.040 14.53701
57.045 14.164543
57.050 14.438816
57.055 14.28476
57.060 13.702072
57.065 13.065342
57.070 13.248485
57.075 13.769525
57.080 13.629268
57.085 13.2689
57.090 13.425397
57.095 13.928669
57.100 14.378574
57.105 14.163269
57.110 13.799303
57.115 13.673079
57.120 14.286348
57.125 14.9794
57.130 14.790858
57.135 14.203769
57.140 14.022623
57.145 14.039248
57.150 13.662785
57.155 13.19851
57.160 13.033909
57.165 13.042556
57.170 13.078104
57.175 13.042499
57.180 12.572605
57.185 12.562915
57.190 13.004953
57.195 12.999583
57.200 13.462487
57.205 13.731463
57.210 14.554821
57.215 15.439065
57.220 15.662924
57.225 15.731564
57.230 16.124063
57.235 16.225845
57.240 16.775434
57.245 16.873627
57.250 17.040638
57.255 16.709858
57.260 16.020477
57.265 15.678179
57.270 15.075709
57.275 14.503722
57.280 14.276631
57.285 13.705465
57.290 14.086705
57.295 14.491244
57.300 14.701299
57.305 15.004131
57.310 14.600284
57.315 15.073553
57.320 15.256369
57.325 14.755446
57.330 14.626326
57.335 14.456096
57.340 14.726513
57.345 15.013282
57.350 14.482863
57.355 14.617661
57.360 14.7746
57.365 15.079576
57.370 14.957507
57.375 15.225993
57.380 15.169092
57.385 15.061352
57.390 14.755978
57.395 14.824314
57.400 14.654927
57.405 14.591954
57.410 14.591499
57.415 14.584657
57.420 14.826427
57.425 15.259217
57.430 15.212583
57.435 15.464418
57.440 15.901351
57.445 15.616854
57.450 15.776443
57.455 15.918504
57.460 15.962667
57.465 15.845413
57.470 15.6085
57.475 15.050941
57.480 15.561852
57.485 15.22878
57.490 14.73768
57.495 14.97803
57.500 15.035099
57.505 15.051373
57.510 14.985023
57.515 14.796333
57.520 15.489277
57.525 15.387469
57.530 15.296098
57.535 15.173532
57.540 15.324601
57.545 15.874447
57.550 15.939201
57.555 15.844412
57.560 15.646924
57.565 15.179179
57.570 15.579809
57.575 15.387667
57.580 15.174335
57.585 15.045299
57.590 15.372958
57.595 15.430488
57.600 15.815315
57.605 15.535935
57.610 15.689351
57.615 15.566173
57.620 15.467401
57.625 15.985014
57.630 16.059772
57.635 15.962863
57.640 15.719428
57.645 15.569432
57.650 15.460183
57.655 15.516299
57.660 14.982963
57.665 15.184376
57.670 15.775847
57.675 16.158867
57.680 16.443295
57.685 16.740234
57.690 16.644924
57.695 17.258242
57.700 17.618574
57.705 17.100262
57.710 16.738012
57.715 16.660326
57.720 16.206465
57.725 15.848112
57.730 14.992532
57.735 14.848175
57.740 15.041475
57.745 15.452592
57.750 15.971531
57.755 16.294405
57.760 16.304192
57.765 16.571325
57.770 16.139112
57.775 16.290907
57.780 16.131907
57.785 15.832575
57.790 15.947281
57.795 15.948889
57.800 15.864864
57.805 15.142565
57.810 14.457855
57.815 14.421803
57.820 14.802114
57.825 15.279532
57.830 15.453715
57.835 15.530632
57.840 15.997746
57.845 16.293514
57.850 15.846163
57.855 15.406037
57.860 14.643991
57.865 14.636855
57.870 14.768485
57.875 14.934702
57.880 15.031259
57.885 15.321795
57.890 15.614492
57.895 15.997311
57.900 16.0049
57.905 15.509478
57.910 15.406689
57.915 15.423284
57.920 15.60331
57.925 15.759031
57.930 15.703838
57.935 15.653033
57.940 16.328575
57.945 16.245422
57.950 16.164663
57.955 15.942172
57.960 15.640319
57.965 15.69385
57.970 15.592896
57.975 15.384676
57.980 15.712816
57.985 15.865383
57.990 15.816897
57.995 15.939632
58.000 16.18351
58.005 16.655859
58.010 16.996424
58.015 17.282595
58.020 17.17215
58.025 17.515709
58.030 17.803047
58.035 17.769236
58.040 18.053778
58.045 18.367357
58.050 18.366404
58.055 18.060661
58.060 17.376492
58.065 17.249237
58.070 17.407532
58.075 17.641489
58.080 17.070602
58.085 16.920141
58.090 16.937923
58.095 17.086136
58.100 16.92358
58.105 16.708794
58.110 16.763172
58.115 16.654356
58.120 16.664183
58.125 16.921812
58.130 16.782309
58.135 16.900927
58.140 16.743206
58.145 16.258871
58.150 16.384731
58.155 16.478188
58.160 16.209101
58.165 16.467113
58.170 16.744007
58.175 16.760891
58.180 16.287161
58.185 16.358154
58.190 16.55204
58.195 17.142252
58.200 17.049183
58.205 16.764528
58.210 17.103931
58.215 17.367067
58.220 17.462458
58.225 17.671747
58.230 17.687908
58.235 17.955006
58.240 17.730598
58.245 17.787006
58.250 18.436947
58.255 18.857229
58.260 18.899946
58.265 18.946962
58.270 19.026735
58.275 19.617487
58.280 19.345135
58.285 19.211977
58.290 18.912855
58.295 18.673473
58.300 18.333246
58.305 18.331905
58.310 18.282621
58.315 18.321289
58.320 18.196577
58.325 18.222244
58.330 18.622549
58.335 19.914619
58.340 19.781277
58.345 20.055059
58.350 20.690165
58.355 20.380491
58.360 20.036785
58.365 19.806906
58.370 18.888834
58.375 19.056257
58.380 19.135313
58.385 18.998922
58.390 19.676588
58.395 20.339035
58.400 20.606705
58.405 20.894781
58.410 20.671978
58.415 20.884279
58.420 21.129726
58.425 21.525389
58.430 21.713552
58.435 21.601233
58.440 21.773254
58.445 22.077896
58.450 22.118774
58.455 22.314587
58.460 21.81743
58.465 21.322927
58.470 21.154879
58.475 21.157698
58.480 20.89575
58.485 20.90217
58.490 20.514944
58.495 20.326521
58.500 20.714863
58.505 20.91963
58.510 20.955891
58.515 21.152487
58.520 20.725916
58.525 21.048717
58.530 20.53791
58.535 19.926916
58.540 19.510349
58.545 19.515482
58.550 19.030645
58.555 19.316597
58.560 19.164955
58.565 19.760614
58.570 19.850904
58.575 20.138239
58.580 20.037336
58.585 20.114025
58.590 20.373247
58.595 21.146454
58.600 21.407299
58.605 22.168497
58.610 21.871941
58.615 22.406979
58.620 22.881958
58.625 23.148737
58.630 23.030331
58.635 23.551794
58.640 23.295637
58.645 23.289146
58.650 22.812271
58.655 22.152388
58.660 21.286785
58.665 20.824604
58.670 19.97661
58.675 20.011204
58.680 20.181654
58.685 19.796539
58.690 19.578962
58.695 19.878195
58.700 20.275034
58.705 20.529245
58.710 20.377758
58.715 20.745747
58.720 21.594669
58.725 21.775187
58.730 21.198694
58.735 20.866865
58.740 20.434486
58.745 20.546192
58.750 20.310978
58.755 20.160259
58.760 20.632515
58.765 20.608109
58.770 20.487898
58.775 20.467026
58.780 19.839663
58.785 19.278736
58.790 19.694466
58.795 19.401979
58.800 19.531841
58.805 19.524448
58.810 19.638039
58.815 19.703594
58.820 19.579147
58.825 18.987217
58.830 18.526953
58.835 18.948849
58.840 19.478203
58.845 19.616131
58.850 19.330305
58.855 19.117458
58.860 19.225876
58.865 19.223816
58.870 18.120466
58.875 17.701679
58.880 17.253994
58.885 17.717571
58.890 18.249752
58.895 18.555504
58.900 18.549377
58.905 18.253109
58.910 17.632881
58.915 17.931721
58.920 17.41991
58.925 17.028337
58.930 16.888729
58.935 16.968115
58.940 17.892942
58.945 18.350306
58.950 18.528807
58.955 19.510561
58.960 19.615068
58.965 19.491537
58.970 20.07147
58.975 19.62438
58.980 19.325882
58.985 19.191885
58.990 18.852264
58.995 18.859974
59.000 19.008512
59.005 19.155169
59.010 19.815584
59.015 20.07659
59.020 19.830349
59.025 19.641932
59.030 19.820431
59.035 19.631569
59.040 19.679501
59.045 19.321091
59.050 19.056738
59.055 19.011612
59.060 18.806131
59.065 18.573063
59.070 18.671104
59.075 18.733974
59.080 18.779308
59.085 18.702068
59.090 19.043354
59.095 19.220856
59.100 18.759207
59.105 18.3006
59.110 17.583277
59.115 17.431381
59.120 17.441372
59.125 17.356537
59.130 17.884859
59.135 18.52883
59.140 18.67655
59.145 19.003244
59.150 19.138994
59.155 19.506071
59.160 19.497112
59.165 18.926453
59.170 19.069992
59.175 19.145952
59.180 19.023502
59.185 18.536461
59.190 18.415899
59.195 18.510229
59.200 18.930082
59.205 18.338512
59.210 18.313759
59.215 18.098352
59.220 18.388277
59.225 18.406275
59.230 18.281963
59.235 17.969597
59.240 18.123192
59.245 18.258818
59.250 18.709259
59.255 18.728233
59.260 18.647484
59.265 18.320747
59.270 18.190248
59.275 18.401299
59.280 18.391598
59.285 18.190334
59.290 18.152542
59.295 18.544991
59.300 18.111975
59.305 18.114586
59.310 18.459471
59.315 18.774828
59.320 19.366096
59.325 19.789406
59.330 20.191673
59.335 21.179335
59.340 21.278547
59.345 20.748074
59.350 20.591209
59.355 20.561029
59.360 20.654278
59.365 20.636494
59.370 20.272112
59.375 20.740124
59.380 21.041121
59.385 21.625582
59.390 22.054956
59.395 21.647635
59.400 21.48353
59.405 21.546299
59.410 21.399208
59.415 21.47278
59.420 20.837847
59.425 20.855417
59.430 20.668865
59.435 20.494915
59.440 20.869701
59.445 21.004652
59.450 20.826214
59.455 20.587063
59.460 20.093021
59.465 20.15551
59.470 20.484262
59.475 20.307329
59.480 20.110878
59.485 19.943087
59.490 20.590395
59.495 21.000383
59.500 20.850639
59.505 21.002426
59.510 20.705887
59.515 20.448118
59.520 20.224844
59.525 19.395088
59.530 18.946236
59.535 18.940031
59.540 18.055943
59.545 18.252678
59.550 18.821493
59.555 19.23609
59.560 19.667715
59.565 19.941101
59.570 20.488489
59.575 21.090933
59.580 21.391205
59.585 21.091587
59.590 20.941349
59.595 20.961159
59.600 21.217356
59.605 20.799698
59.610 20.936375
59.615 21.259035
59.620 21.502169
59.625 21.378885
59.630 21.381781
59.635 20.777132
59.640 20.684874
59.645 20.161068
59.650 20.150366
59.655 19.82596
59.660 20.159933
59.665 20.662487
59.670 21.044811
59.675 21.258444
59.680 21.409086
59.685 21.251152
59.690 21.434248
59.695 21.327213
59.700 22.061026
59.705 22.128174
59.710 22.279928
59.715 22.276016
59.720 21.952616
59.725 22.063396
59.730 21.646336
59.735 20.337839
59.740 20.557219
59.745 19.971071
59.750 19.936102
59.755 20.08247
59.760 19.990545
59.765 20.398609
59.770 20.524797
59.775 20.860529
59.780 21.590422
59.785 21.647449
59.790 21.451931
59.795 21.279102
59.800 21.214926
59.805 21.435026
59.810 20.870335
59.815 20.258862
59.820 20.013023
59.825 20.480871
59.830 20.830418
59.835 20.594437
59.840 20.329826
59.845 20.664965
59.850 20.829603
59.855 20.609434
59.860 20.166315
59.865 20.569883
59.870 21.288589
59.875 21.564491
59.880 20.996536
59.885 20.640038
59.890 21.108257
59.895 21.704054
59.900 21.262829
59.905 20.110474
59.910 19.890501
59.915 20.184689
59.920 20.412872
59.925 20.064995
59.930 19.809141
59.935 20.341164
59.940 20.792866
59.945 20.295584
59.950 20.283073
59.955 20.432564
59.960 20.710308
59.965 20.362274
59.970 19.159779
59.975 19.024622
59.980 19.222393
59.985 19.191072
59.990 19.195623
59.995 18.690638
60.000 19.065989
60.005 19.856258
60.010 20.5886
60.015 20.959677
60.020 21.226208
60.025 21.421329
60.030 21.613211
60.035 21.41481
60.040 21.094404
60.045 20.936287
60.050 21.033854
60.055 21.094631
60.060 21.325029
60.065 21.389196
60.070 20.756817
60.075 20.532879
60.080 19.805599
60.085 19.390459
60.090 19.202366
60.095 18.639395
60.100 18.705496
60.105 19.436041
60.110 19.430231
60.115 19.582079
60.120 19.707283
60.125 18.905979
60.130 18.681282
60.135 18.75028
60.140 18.566883
60.145 18.824055
60.150 19.244823
60.155 19.08345
60.160 19.969374
60.165 20.07596
60.170 19.545795
60.175 19.490711
60.180 19.426508
60.185 19.027426
60.190 18.779545
60.195 18.181534
60.200 18.461624
60.205 18.862728
60.210 18.980738
60.215 18.653673
60.220 18.229181
60.225 18.092682
60.230 18.819183
60.235 18.64765
60.240 18.443398
60.245 18.504223
60.250 18.429028
60.255 18.983425
60.260 19.297705
60.265 18.861557
60.270 18.894503
60.275 18.460175
60.280 17.708393
60.285 17.433212
60.290 17.34124
60.295 16.751749
60.300 16.384335
60.305 16.867212
60.310 16.998323
60.315 17.677414
60.320 18.437864
60.325 18.693512
60.330 19.129898
60.335 19.414906
60.340 19.051285
60.345 19.013926
60.350 18.584785
60.355 17.943298
60.360 17.395563
60.365 16.882416
60.370 16.729103
60.375 16.77327
60.380 17.342489
60.385 17.617605
60.390 17.847883
60.395 18.388166
60.400 18.528122
60.405 18.894121
60.410 18.950819
60.415 18.736679
60.420 18.674458
60.425 18.511299
60.430 18.473917
60.435 18.930166
60.440 18.402298
60.445 18.18696
60.450 17.984961
60.455 18.053076
60.460 18.120825
60.465 18.75915
60.470 18.836575
60.475 19.179504
60.480 19.155109
60.485 19.249882
60.490 19.791103
60.495 19.902573
60.500 19.317505
60.505 19.199326
60.510 19.263973
60.515 19.40926
60.520 19.042156
60.525 18.083591
60.530 17.907282
60.535 17.14558
60.540 16.665106
60.545 16.270096
60.550 16.022846
60.555 16.482796
60.560 16.699772
60.565 16.541964
60.570 16.81148
60.575 17.061852
60.580 17.400545
60.585 17.838352
60.590 17.904678
60.595 18.109119
60.600 18.021175
60.605 18.100653
60.610 18.048464
60.615 17.855688
60.620 17.714989
60.625 17.376266
60.630 17.357298
60.635 17.164999
60.640 17.170818
60.645 17.481831
60.650 17.308533
60.655 17.548864
60.660 17.435148
60.665 16.996416
60.670 16.946486
60.675 17.198078
60.680 16.551081
60.685 16.196966
60.690 15.955113
60.695 15.81993
60.700 15.719461
60.705 16.012672
60.710 15.931323
60.715 16.608196
60.720 16.80607
60.725 16.715555
60.730 17.629438
60.735 18.27025
60.740 18.010462
60.745 17.864836
60.750 17.318747
60.755 17.537437
60.760 17.206253
60.765 17.021557
60.770 16.594728
60.775 16.486923
60.780 16.450096
60.785 16.790634
60.790 16.814638
60.795 16.71199
60.800 16.220816
60.805 16.528694
60.810 16.597374
60.815 16.458967
60.820 15.880227
60.825 16.10087
60.830 15.930149
60.835 15.964361
60.840 15.904608
60.845 15.911007
60.850 16.658697
60.855 17.303143
60.860 17.563034
60.865 18.142355
60.870 17.905981
60.875 17.570679
60.880 17.9583
60.885 17.043087
60.890 16.550116
60.895 16.063055
60.900 16.056051
60.905 16.039907
60.910 16.422495
60.915 15.85388
60.920 16.091825
60.925 16.439997
60.930 16.444168
60.935 16.31731
60.940 16.563477
60.945 15.972169
60.950 16.432129
60.955 16.588394
60.960 16.431297
60.965 16.604933
60.970 16.600922
60.975 16.735477
60.980 16.302824
60.985 15.612755
60.990 15.882155
60.995 15.900026
61.000 15.949882
61.005 15.96995
61.010 15.835468
61.015 16.311178
61.020 16.887159
61.025 16.851725
61.030 16.510679
61.035 16.936638
61.040 16.50992
61.045 16.690393
61.050 16.601664
61.055 16.775105
61.060 16.643244
61.065 16.711533
61.070 16.506565
61.075 17.093359
61.080 17.517265
61.085 17.959885
61.090 17.538866
61.095 17.123423
61.100 16.946875
61.105 16.898569
61.110 16.975555
61.115 17.1159
61.120 16.439718
61.125 15.761179
61.130 16.241089
61.135 16.239786
61.140 16.439081
61.145 16.629429
61.150 16.253296
61.155 16.851633
61.160 17.287617
61.165 17.134985
61.170 17.174118
61.175 17.286921
61.180 17.139132
61.185 17.233219
61.190 17.298223
61.195 18.129768
61.200 18.631298
61.205 18.688461
61.210 18.39489
61.215 18.224754
61.220 18.25164
61.225 18.069191
61.230 17.288132
61.235 16.740702
61.240 17.134443
61.245 17.50119
61.250 17.63546
61.255 18.29846
61.260 18.696463
61.265 19.162369
61.270 19.1199
61.275 18.740744
61.280 18.353586
61.285 18.337957
61.290 17.934862
61.295 17.445286
61.300 17.440609
61.305 17.841997
61.310 17.433107
61.315 17.221409
61.320 17.184772
61.325 16.923737
61.330 16.830574
61.335 16.516979
61.340 16.51515
61.345 16.63625
61.350 16.829947
61.355 16.817268
61.360 17.114071
61.365 17.574966
61.370 17.712584
61.375 17.774307
61.380 17.935114
61.385 17.722534
61.390 17.732687
61.395 17.225538
61.400 16.885588
61.405 16.957569
61.410 16.374367
61.415 16.20252
61.420 16.326488
61.425 16.144844
61.430 16.223846
61.435 16.051283
61.440 16.126364
61.445 16.488756
61.450 16.953856
61.455 17.213354
61.460 17.576143
61.465 18.188375
61.470 19.094683
61.475 19.310427
61.480 19.517109
61.485 19.183817
61.490 18.595442
61.495 18.309881
61.500 17.44096
61.505 16.336475
61.510 15.91044
61.515 15.622872
61.520 15.419725
61.525 15.568868
61.530 15.837736
61.535 16.381845
61.540 16.580126
61.545 16.82477
61.550 17.08629
61.555 17.45466
61.560 17.515163
61.565 17.388985
61.570 17.359753
61.575 17.575359
61.580 18.033714
61.585 18.281387
61.590 17.75676
61.595 17.20937
61.600 17.191189
61.605 16.750385
61.610 16.462276
61.615 16.303013
61.620 16.312033
61.625 16.440531
61.630 16.836296
61.635 16.831818
61.640 17.012486
61.645 17.596119
61.650 17.009844
61.655 17.197357
61.660 17.422764
61.665 17.223001
61.670 17.055574
61.675 17.469166
61.680 17.225773
61.685 17.537859
61.690 17.002733
61.695 16.923161
61.700 17.299311
61.705 17.213451
61.710 16.829992
61.715 17.091913
61.720 16.793003
61.725 17.272532
61.730 17.464777
61.735 17.171562
61.740 16.878382
61.745 16.743935
61.750 16.056301
61.755 15.87927
61.760 15.453247
61.765 15.785695
61.770 16.147322
61.775 16.940031
61.780 17.033066
61.785 17.306503
61.790 17.35157
61.795 17.427721
61.800 16.998213
61.805 16.736437
61.810 16.664488
61.815 16.679361
61.820 17.004574
61.825 17.745119
61.830 17.746807
61.835 17.947268
61.840 17.992476
61.845 17.810669
61.850 18.063919
61.855 18.086735
61.860 18.155741
61.865 18.702227
61.870 18.847467
61.875 19.334286
61.880 20.216301
61.885 20.24597
61.890 20.279243
61.895 19.588558
61.900 19.126959
61.905 18.42017
61.910 18.010241
61.915 17.412268
61.920 17.548565
61.925 18.018795
61.930 18.08757
61.935 18.004368
61.940 18.568569
61.945 18.718868
61.950 18.580786
61.955 18.244104
61.960 17.319593
61.965 17.153845
61.970 17.030193
61.975 16.984932
61.980 16.667068
61.985 16.400043
61.990 16.617245
61.995 17.031799
62.000 17.248981
62.005 17.387836
62.010 17.648228
62.015 17.912277
62.020 18.072746
62.025 17.780817
62.030 18.185265
62.035 18.183044
62.040 17.955269
62.045 17.183298
62.050 16.941048
62.055 16.582657
62.060 16.566095
62.065 16.328417
62.070 16.58548
62.075 16.822029
62.080 17.044466
62.085 16.776588
62.090 17.382315
62.095 17.290487
62.100 16.761343
62.105 16.724783
62.110 16.865477
62.115 17.208
62.120 17.60918
62.125 17.804018
62.130 18.334339
62.135 18.579889
62.140 18.37455
62.145 18.358486
62.150 17.981363
62.155 17.486666
62.160 17.066322
62.165 17.348114
62.170 17.844316
62.175 17.955761
62.180 18.221365
62.185 18.872736
62.190 18.975384
62.195 18.875355
62.200 18.41658
62.205 18.103043
62.210 18.454227
62.215 18.59107
62.220 18.133835
62.225 18.548868
62.230 18.606632
62.235 18.409676
62.240 17.82766
62.245 18.011141
62.250 18.087711
62.255 17.397491
62.260 17.324163
62.265 17.200443
62.270 17.017054
62.275 17.08231
62.280 15.824793
62.285 15.40602
62.290 15.839655
62.295 15.455562
62.300 15.885919
62.305 16.231163
62.310 16.343063
62.315 16.730873
62.320 17.294085
62.325 17.961525
62.330 18.249992
62.335 17.758968
62.340 17.858639
62.345 18.078049
62.350 17.07464
62.355 16.182362
62.360 16.076414
62.365 16.804234
62.370 17.529671
62.375 17.290514
62.380 17.248985
62.385 17.774719
62.390 18.003963
62.395 17.866991
62.400 17.536533
62.405 17.320747
62.410 18.06811
62.415 18.218956
62.420 18.290075
62.425 18.80056
62.430 18.836954
62.435 18.343081
62.440 17.755537
62.445 16.726015
62.450 16.873966
62.455 17.866959
62.460 17.591846
62.465 17.551779
62.470 17.716227
62.475 18.072392
62.480 19.149715
62.485 18.925053
62.490 18.657372
62.495 18.706427
62.500 18.273323
62.505 18.084454
62.510 17.871223
62.515 17.452066
62.520 17.656443
62.525 17.829281
62.530 18.434574
62.535 18.651979
62.540 18.831856
62.545 19.090811
62.550 19.177345
62.555 18.99719
62.560 18.048782
62.565 17.195795
62.570 17.218771
62.575 17.260118
62.580 17.057648
62.585 16.666761
62.590 16.356356
62.595 16.393795
62.600 16.579409
62.605 16.263851
62.610 16.057234
62.615 16.08914
62.620 16.748919
62.625 17.438152
62.630 18.279367
62.635 18.357347
62.640 18.631052
62.645 18.588856
62.650 18.321848
62.655 18.425188
62.660 18.5268
62.665 17.841377
62.670 17.55953
62.675 17.480059
62.680 17.573206
62.685 17.543249
62.690 17.169579
62.695 16.552181
62.700 16.621429
62.705 17.119265
62.710 17.081978
62.715 17.373087
62.720 17.651375
62.725 18.814112
62.730 19.323294
62.735 19.465313
62.740 19.166035
62.745 18.973669
62.750 18.521307
62.755 18.226282
62.760 16.746082
62.765 16.083256
62.770 15.55796
62.775 15.685873
62.780 15.789148
62.785 16.125542
62.790 16.40559
62.795 16.667238
62.800 16.709692
62.805 16.74468
62.810 16.695498
62.815 16.689226
62.820 16.548283
62.825 16.292995
62.830 16.459345
62.835 17.461292
62.840 17.867357
62.845 18.042006
62.850 18.375116
62.855 18.894115
62.860 18.744129
62.865 18.154133
62.870 17.512369
62.875 17.626263
62.880 17.081806
62.885 16.347181
62.890 15.726976
62.895 16.009375
62.900 16.767315
62.905 17.102005
62.910 16.771402
62.915 16.893795
62.920 17.758924
62.925 17.845592
62.930 17.640621
62.935 17.387836
62.940 17.908394
62.945 17.853601
62.950 17.810059
62.955 17.625124
62.960 17.936789
62.965 18.326761
62.970 18.980171
62.975 19.020235
62.980 19.33445
62.985 19.563797
62.990 19.298655
62.995 19.152124
63.000 18.933187
63.005 17.742975
63.010 17.433737
63.015 17.772541
63.020 18.317644
63.025 18.558451
63.030 19.091106
63.035 18.995123
63.040 19.193277
63.045 19.283924
63.050 18.888439
63.055 18.333733
63.060 18.209734
63.065 17.821754
63.070 17.741432
63.075 17.584953
63.080 17.114834
63.085 17.238119
63.090 17.118073
63.095 17.036289
63.100 16.965834
63.105 17.619625
63.110 18.160013
63.115 18.982647
63.120 18.993042
63.125 19.154783
63.130 19.515265
63.135 20.201843
63.140 20.46088
63.145 21.113153
63.150 20.667828
63.155 20.613426
63.160 20.870232
63.165 20.591335
63.170 20.242706
63.175 19.686602
63.180 18.396271
63.185 18.551048
63.190 18.883621
63.195 18.640289
63.200 18.943048
63.205 19.037415
63.210 19.008354
63.215 19.131025
63.220 18.345736
63.225 18.129932
63.230 18.662146
63.235 18.509117
63.240 18.421011
63.245 17.951298
63.250 17.791142
63.255 18.449976
63.260 18.772564
63.265 18.437634
63.270 18.449644
63.275 18.596643
63.280 19.095778
63.285 19.788107
63.290 19.613277
63.295 19.659016
63.300 19.606211
63.305 19.583462
63.310 19.272526
63.315 19.530209
63.320 19.321722
63.325 19.71563
63.330 19.833227
63.335 20.10985
63.340 19.873518
63.345 19.071693
63.350 18.813011
63.355 18.658363
63.360 18.261133
63.365 17.582363
63.370 16.62221
63.375 16.588961
63.380 17.438307
63.385 17.793604
63.390 18.009546
63.395 17.90625
63.400 18.286552
63.405 18.570826
63.410 19.071705
63.415 19.284859
63.420 19.166056
63.425 18.91576
63.430 19.15514
63.435 19.345917
63.440 19.500309
63.445 19.258896
63.450 19.31296
63.455 19.402983
63.460 19.163631
63.465 18.42598
63.470 17.871931
63.475 18.34733
63.480 18.884233
63.485 19.346554
63.490 18.943703
63.495 19.399748
63.500 20.058109
63.505 20.694151
63.510 20.508736
63.515 19.518789
63.520 18.909754
63.525 18.968681
63.530 18.544374
63.535 18.045208
63.540 17.548399
63.545 17.231211
63.550 17.205971
63.555 17.056202
63.560 17.641275
63.565 18.124456
63.570 18.463673
63.575 19.179144
63.580 19.749998
63.585 20.111038
63.590 20.548428
63.595 20.026047
63.600 19.810772
63.605 19.768787
63.610 19.438194
63.615 19.714823
63.620 19.946795
63.625 20.127825
63.630 20.518574
63.635 20.529713
63.640 20.278749
63.645 20.205532
63.650 19.608709
63.655 19.441542
63.660 18.750088
63.665 18.119074
63.670 18.20648
63.675 18.425737
63.680 18.487692
63.685 19.084572
63.690 19.300684
63.695 19.718927
63.700 20.176462
63.705 20.610529
63.710 20.66995
63.715 20.276188
63.720 19.500364
63.725 19.067711
63.730 18.870001
63.735 19.558666
63.740 19.664961
63.745 19.506596
63.750 20.033869
63.755 20.376123
63.760 20.408686
63.765 20.335936
63.770 20.030161
63.775 19.787489
63.780 20.263533
63.785 20.699076
63.790 20.696466
63.795 20.922716
63.800 20.866047
63.805 20.415415
63.810 20.257454
63.815 19.912752
63.820 19.737673
63.825 19.820192
63.830 20.45018
63.835 20.832584
63.840 21.41497
63.845 21.482824
63.850 21.628536
63.855 21.434072
63.860 21.295073
63.865 21.294096
63.870 20.913237
63.875 20.339233
63.880 20.236593
63.885 20.015419
63.890 19.74507
63.895 19.563652
63.900 19.390423
63.905 19.630541
63.910 19.400818
63.915 19.578011
63.920 20.063175
63.925 20.970898
63.930 21.415483
63.935 21.744452
63.940 21.916069
63.945 22.901039
63.950 23.558405
63.955 23.790655
63.960 23.521219
63.965 23.730896
63.970 24.006233
63.975 24.578817
63.980 24.117861
63.985 23.95822
63.990 23.907471
63.995 24.067999
64.000 24.118996
64.005 23.78479
64.010 24.079796
64.015 25.219109
64.020 25.763191
64.025 26.504822
64.030 25.996426
64.035 26.51433
64.040 27.166513
64.045 27.274611
64.050 26.747299
64.055 25.675051
64.060 25.18432
64.065 25.209974
64.070 24.472876
64.075 23.691204
64.080 23.599672
64.085 23.525137
64.090 23.802568
64.095 23.745028
64.100 23.81505
64.105 24.098429
64.110 24.313004
64.115 23.996052
64.120 24.130369
64.125 24.186705
64.130 24.186558
64.135 24.276203
64.140 23.993382
64.145 23.775108
64.150 23.827826
64.155 23.908365
64.160 23.982597
64.165 23.718977
64.170 23.784746
64.175 24.714457
64.180 25.614117
64.185 25.554268
64.190 25.715687
64.195 25.862089
64.200 25.403204
64.205 25.135653
64.210 23.949205
64.215 22.8463
64.220 22.463737
64.225 22.464718
64.230 22.48637
64.235 23.043154
64.240 23.174101
64.245 23.681175
64.250 23.485994
64.255 23.638405
64.260 22.770416
64.265 22.674553
64.270 22.555754
64.275 22.410786
64.280 22.019316
64.285 22.020422
64.290 22.344143
64.295 22.3442
64.300 22.375822
64.305 22.434778
64.310 22.741413
64.315 23.418982
64.320 23.414122
64.325 23.13493
64.330 23.29887
64.335 23.442308
64.340 23.107685
64.345 22.476475
64.350 22.666822
64.355 23.201874
64.360 24.058901
64.365 24.41077
64.370 24.404543
64.375 24.375624
64.380 24.866837
64.385 24.356115
64.390 24.020481
64.395 23.777138
64.400 23.926682
64.405 23.894909
64.410 24.145311
64.415 23.199667
64.420 23.586023
64.425 23.692411
64.430 23.589205
64.435 23.793449
64.440 23.967527
64.445 23.901697
64.450 24.428102
64.455 24.463116
64.460 24.326197
64.465 24.21435
64.470 23.297993
64.475 22.809603
64.480 22.795084
64.485 22.551624
64.490 22.097982
64.495 22.520063
64.500 23.049215
64.505 23.28894
64.510 23.51071
64.515 23.650885
64.520 24.053242
64.525 24.979168
64.530 24.701714
64.535 24.465631
64.540 24.586658
64.545 24.676634
64.550 24.614201
64.555 24.393944
64.560 23.353165
64.565 22.689848
64.570 23.074202
64.575 23.145479
64.580 23.077511
64.585 22.925295
64.590 22.28054
64.595 21.921951
64.600 22.132572
64.605 21.113001
64.610 20.69619
64.615 20.401285
64.620 20.504982
64.625 20.531744
64.630 21.173767
64.635 20.842331
64.640 20.665907
64.645 20.6682
64.650 21.09133
64.655 22.094788
64.660 22.133492
64.665 22.124401
64.670 22.553242
64.675 23.155132
64.680 23.223394
64.685 22.723871
64.690 21.219881
64.695 21.05361
64.700 20.963219
64.705 21.005098
64.710 21.007977
64.715 21.352604
64.720 21.984774
64.725 22.627899
64.730 23.408789
64.735 23.440939
64.740 22.824409
64.745 22.405188
64.750 22.34269
64.755 21.939592
64.760 22.403864
64.765 22.570379
64.770 22.66041
64.775 23.437309
64.780 23.555016
64.785 23.664732
64.790 23.971704
64.795 23.875397
64.800 24.060368
64.805 23.605968
64.810 22.855186
64.815 22.411215
64.820 23.024939
64.825 22.589882
64.830 21.737394
64.835 21.050341
64.840 21.344564
64.845 21.750298
64.850 21.826941
64.855 20.958782
64.860 21.289711
64.865 21.41128
64.870 21.745184
64.875 21.573042
64.880 21.838936
64.885 21.913721
64.890 22.058277
64.895 22.441158
64.900 22.977888
64.905 23.108379
64.910 23.486177
64.915 22.808624
64.920 22.63516
64.925 22.648975
64.930 22.443905
64.935 21.950989
64.940 22.39592
64.945 22.322309
64.950 22.791376
64.955 22.608162
64.960 22.745474
64.965 23.93755
64.970 24.940149
64.975 24.426645
64.980 25.234833
64.985 25.495558
64.990 26.421968
64.995 25.467403
65.000 24.398174
65.005 23.526783
65.010 23.605972
65.015 23.103504
65.020 24.488766
65.025 23.983879
65.030 23.85017
65.035 23.477753
65.040 23.610157
65.045 23.727604
65.050 24.006243
65.055 22.630583
65.060 22.795504
65.065 23.012854
65.070 23.442327
65.075 23.377125
65.080 23.169863
65.085 23.582277
65.090 24.059641
65.095 24.299133
65.100 24.597675
65.105 23.993568
65.110 24.694902
65.115 24.542683
65.120 24.017662
65.125 24.185032
65.130 24.497419
65.135 25.112953
65.140 25.641293
65.145 25.580372
65.150 25.82056
65.155 26.489136
65.160 26.352518
65.165 26.065981
65.170 26.249737
65.175 26.785967
65.180 26.463802
65.185 26.113991
65.190 25.051695
65.195 25.369904
65.200 25.532368
65.205 24.993647
65.210 24.907475
65.215 24.95332
65.220 24.482378
65.225 24.144049
65.230 24.369747
65.235 24.366587
65.240 24.418711
65.245 23.777113
65.250 23.660414
65.255 24.04916
65.260 24.281321
65.265 24.099945
65.270 23.968874
65.275 23.992758
65.280 24.864935
65.285 24.872046
65.290 24.971966
65.295 24.532393
65.300 24.357635
65.305 24.040798
65.310 24.128035
65.315 23.66732
65.320 23.108763
65.325 23.031042
65.330 23.446133
65.335 23.058975
65.340 23.262268
65.345 23.124414
65.350 23.732159
65.355 24.693575
65.360 24.70879
65.365 24.629642
65.370 24.390402
65.375 23.996025
65.380 23.477736
65.385 23.364338
65.390 23.088692
65.395 23.34482
65.400 23.996885
65.405 24.708126
65.410 25.423855
65.415 25.723507
65.420 25.477604
65.425 25.725555
65.430 25.440836
65.435 24.902761
65.440 25.479536
65.445 25.561029
65.450 25.934673
65.455 26.305859
65.460 26.795815
65.465 26.803802
65.470 26.645687
65.475 26.20356
65.480 26.110533
65.485 26.088909
65.490 25.748903
65.495 25.364655
65.500 25.44175
65.505 25.867565
65.510 25.847836
65.515 25.800011
65.520 24.991375
65.525 24.803604
65.530 25.625427
65.535 25.760683
65.540 26.360716
65.545 26.81986
65.550 26.972548
65.555 27.932453
65.560 27.819424
65.565 27.241537
65.570 27.831844
65.575 27.314941
65.580 27.442581
65.585 27.624947
65.590 28.063131
65.595 28.542809
65.600 28.640141
65.605 28.910095
65.610 29.687441
65.615 29.949505
65.620 30.214531
65.625 29.952194
65.630 29.915033
65.635 29.772131
65.640 29.026138
65.645 28.293163
65.650 27.809526
65.655 27.535437
65.660 26.892307
65.665 26.731714
65.670 26.857067
65.675 27.223606
65.680 27.861454
65.685 28.434483
65.690 28.874571
65.695 29.226469
65.700 29.834356
65.705 30.371721
65.710 30.932072
65.715 31.07732
65.720 31.451014
65.725 31.774195
65.730 31.918936
65.735 31.756687
65.740 31.934494
65.745 32.586205
65.750 32.98727
65.755 33.089336
65.760 33.172104
65.765 33.630219
65.770 34.237667
65.775 33.908142
65.780 33.108734
65.785 32.670834
65.790 32.526432
65.795 32.923786
65.800 33.120632
65.805 33.517303
65.810 33.900513
65.815 34.885857
65.820 35.048283
65.825 35.640606
65.830 35.619598
65.835 35.695381
65.840 35.244267
65.845 34.698151
65.850 33.511738
65.855 33.400444
65.860 32.952045
65.865 33.449135
65.870 33.214943
65.875 33.741714
65.880 34.449337
65.885 35.335991
65.890 35.963718
65.895 36.645779
65.900 36.658024
65.905 36.887211
65.910 36.905975
65.915 36.547783
65.920 37.011265
65.925 38.038914
65.930 39.229122
65.935 38.598713
65.940 38.560905
65.945 38.787045
65.950 39.191219
65.955 38.686916
65.960 38.628002
65.965 38.245239
65.970 39.193607
65.975 39.246544
65.980 39.345692
65.985 40.275425
65.990 40.195374
65.995 39.663277
66.000 39.106007
66.005 39.306503
66.010 39.718834
66.015 39.450188
66.020 38.779881
66.025 39.64304
66.030 40.671719
66.035 40.94355
66.040 40.830902
66.045 40.498142
66.050 40.789371
66.055 41.056698
66.060 40.9314
66.065 40.5089
66.070 40.202602
66.075 41.171993
66.080 41.751511
66.085 41.617741
66.090 41.334229
66.095 41.441261
66.100 41.392788
66.105 42.187626
66.110 41.661278
66.115 41.621964
66.120 42.249016
66.125 42.974762
66.130 42.419498
66.135 42.214905
66.140 41.448845
66.145 41.822174
66.150 41.782635
66.155 41.860195
66.160 41.643848
66.165 41.568119
66.170 41.676693
66.175 42.233906
66.180 42.086628
66.185 41.133816
66.190 40.257339
66.195 40.200825
66.200 40.33672
66.205 40.826935
66.210 40.702698
66.215 40.662949
66.220 41.284115
66.225 40.97554
66.230 40.774803
66.235 41.519882
66.240 40.720974
66.245 39.934631
66.250 39.732586
66.255 39.57703
66.260 39.498093
66.265 38.976608
66.270 37.070248
66.275 36.428661
66.280 35.959595
66.285 36.076595
66.290 36.284779
66.295 36.418308
66.300 36.638866
66.305 37.374474
66.310 38.043606
66.315 38.647923
66.320 37.786373
66.325 36.846569
66.330 36.008072
66.335 35.6749
66.340 35.360725
66.345 35.487698
66.350 35.411041
66.355 35.991497
66.360 35.742748
66.365 35.784267
66.370 36.00563
66.375 34.859764
66.380 33.535
66.385 33.03759
66.390 32.258171
66.395 32.923233
66.400 32.981438
66.405 32.951134
66.410 33.205544
66.415 33.634445
66.420 33.821865
66.425 33.477726
66.430 32.993519
66.435 32.306049
66.440 32.298645
66.445 32.162231
66.450 30.458408
66.455 29.66725
66.460 29.964211
66.465 30.639673
66.470 30.815121
66.475 30.330744
66.480 30.430458
66.485 31.599695
66.490 31.555405
66.495 30.815722
66.500 29.994429
66.505 29.427914
66.510 29.002264
66.515 27.57959
66.520 27.770512
66.525 27.710672
66.530 27.684103
66.535 28.034487
66.540 28.221901
66.545 28.131346
66.550 27.720694
66.555 26.729864
66.560 27.006296
66.565 26.850216
66.570 26.869579
66.575 26.748188
66.580 26.678921
66.585 27.725634
66.590 27.963282
66.595 28.225317
66.600 28.10157
66.605 26.919481
66.610 26.369507
66.615 26.58548
66.620 25.910156
66.625 25.580549
66.630 24.333958
66.635 23.711901
66.640 24.16008
66.645 24.600082
66.650 24.206486
66.655 24.238588
66.660 24.806335
66.665 24.58618
66.670 24.88703
66.675 24.613859
66.680 24.670275
66.685 24.216557
66.690 23.989641
66.695 23.774155
66.700 23.713749
66.705 23.7773
66.710 23.569996
66.715 23.416338
66.720 23.333485
66.725 22.562656
66.730 22.165752
66.735 22.406464
66.740 22.052526
66.745 22.615715
66.750 22.031164
66.755 22.135099
66.760 22.960361
66.765 23.13142
66.770 22.860952
66.775 22.693117
66.780 22.272194
66.785 22.617321
66.790 22.401062
66.795 22.246979
66.800 22.428408
66.805 22.783672
66.810 22.973663
66.815 23.238745
66.820 23.32143
66.825 23.655096
66.830 23.474068
66.835 23.053047
66.840 22.755556
66.845 22.720938
66.850 22.747637
66.855 22.870773
66.860 22.57386
66.865 22.196854
66.870 22.220921
66.875 21.971819
66.880 21.816338
66.885 21.804594
66.890 21.493814
66.895 21.25898
66.900 20.255474
66.905 20.205168
66.910 20.217342
66.915 20.435762
66.920 20.435696
66.925 20.256935
66.930 20.689266
66.935 21.50898
66.940 22.089067
66.945 22.903786
66.950 22.349279
66.955 22.250986
66.960 21.935534
66.965 21.883577
66.970 22.115782
66.975 21.500528
66.980 21.488197
66.985 21.801212
66.990 21.338181
66.995 21.51985
67.000 21.407907
67.005 21.211962
67.010 21.961596
67.015 21.945236
67.020 22.281429
67.025 22.437
67.030 22.903597
67.035 23.068127
67.040 22.662781
67.045 21.454229
67.050 21.060709
67.055 20.75374
67.060 21.117203
67.065 20.853413
67.070 20.433586
67.075 20.865616
67.080 20.936836
67.085 20.383677
67.090 20.169458
67.095 19.930382
67.100 19.863428
67.105 20.089394
67.110 19.743855
67.115 20.556793
67.120 20.786837
67.125 20.924969
67.130 20.678936
67.135 20.776402
67.140 21.29657
67.145 21.669693
67.150 21.448282
67.155 21.813334
67.160 22.015669
67.165 22.428812
67.170 22.455372
67.175 22.01829
67.180 21.470448
67.185 20.950781
67.190 20.183187
67.195 20.179523
67.200 19.996542
67.205 19.704592
67.210 19.392622
67.215 19.969023
67.220 20.717791
67.225 21.218672
67.230 21.174498
67.235 21.100655
67.240 21.132103
67.245 22.014246
67.250 22.182289
67.255 21.598484
67.260 20.780409
67.265 20.324413
67.270 20.885279
67.275 20.72706
67.280 19.845135
67.285 19.870419
67.290 20.599709
67.295 21.240442
67.300 21.052999
67.305 20.88711
67.310 20.96641
67.315 21.304926
67.320 20.917217
67.325 20.470936
67.330 20.470633
67.335 20.426991
67.340 19.862198
67.345 19.584095
67.350 19.524786
67.355 19.641397
67.360 19.939184
67.365 19.651903
67.370 19.771591
67.375 20.017063
67.380 19.873549
67.385 19.785366
67.390 19.44628
67.395 19.374212
67.400 19.686251
67.405 19.548868
67.410 19.835972
67.415 20.565891
67.420 20.508593
67.425 20.31469
67.430 19.834133
67.435 19.849602
67.440 20.134735
67.445 19.564999
67.450 19.289675
67.455 19.49785
67.460 19.922382
67.465 19.868389
67.470 20.10644
67.475 20.561686
67.480 20.774273
67.485 20.486191
67.490 20.883718
67.495 21.199314
67.500 21.740461
67.505 21.832642
67.510 21.640743
67.515 22.090975
67.520 22.090393
67.525 21.78503
67.530 22.033548
67.535 21.356958
67.540 20.65588
67.545 20.242096
67.550 20.275728
67.555 20.517941
67.560 20.044575
67.565 19.790644
67.570 19.874594
67.575 19.665586
67.580 19.8018
67.585 19.923052
67.590 19.781239
67.595 19.804333
67.600 19.299187
67.605 19.546968
67.610 20.089855
67.615 20.034376
67.620 19.498573
67.625 19.337873
67.630 19.490301
67.635 20.123837
67.640 19.763918
67.645 19.586456
67.650 19.467255
67.655 20.611643
67.660 20.915728
67.665 21.087704
67.670 21.706409
67.675 22.033634
67.680 21.699419
67.685 22.037199
67.690 21.601818
67.695 21.730354
67.700 21.279125
67.705 20.791601
67.710 21.067284
67.715 21.462631
67.720 21.034792
67.725 20.339697
67.730 20.66185
67.735 21.388432
67.740 21.028509
67.745 20.863972
67.750 21.152725
67.755 21.234236
67.760 21.332809
67.765 21.138889
67.770 20.763855
67.775 21.335964
67.780 20.678272
67.785 19.959848
67.790 19.866009
67.795 19.844965
67.800 19.453758
67.805 19.422123
67.810 18.931915
67.815 18.992094
67.820 19.038904
67.825 19.189503
67.830 18.992939
67.835 19.277668
67.840 19.112644
67.845 19.453632
67.850 19.732155
67.855 20.277004
67.860 20.548157
67.865 20.775526
67.870 20.928734
67.875 21.348711
67.880 22.149994
67.885 22.432583
67.890 22.503624
67.895 22.890566
67.900 22.801682
67.905 23.02014
67.910 22.532473
67.915 21.753807
67.920 21.455746
67.925 21.033779
67.930 20.54707
67.935 20.322887
67.940 20.481033
67.945 20.587223
67.950 20.389683
67.955 20.275393
67.960 20.152281
67.965 19.767796
67.970 19.315861
67.975 19.051336
67.980 18.817974
67.985 18.759205
67.990 18.329622
67.995 17.932249
68.000 18.176161
68.005 18.257473
68.010 18.181419
68.015 18.342674
68.020 18.979351
68.025 19.497259
68.030 19.634478
68.035 19.573338
68.040 19.74757
68.045 19.856102
68.050 19.611475
68.055 19.169565
68.060 19.237066
68.065 19.683321
68.070 20.244333
68.075 19.717371
68.080 19.579639
68.085 20.104418
68.090 20.146713
68.095 19.93424
68.100 19.95154
68.105 20.463505
68.110 21.037128
68.115 21.204943
68.120 20.960081
68.125 21.235443
68.130 21.052734
68.135 20.363422
68.140 18.563246
68.145 18.077082
68.150 17.931005
68.155 17.81139
68.160 18.112299
68.165 18.336897
68.170 18.549885
68.175 18.875486
68.180 18.633242
68.185 18.853245
68.190 19.393724
68.195 19.150831
68.200 19.384386
68.205 19.75844
68.210 20.255924
68.215 20.553688
68.220 20.33746
68.225 19.852701
68.230 19.836708
68.235 19.950686
68.240 20.492056
68.245 20.78887
68.250 21.191282
68.255 21.524027
68.260 22.102795
68.265 22.419996
68.270 22.231108
68.275 21.884113
68.280 22.494606
68.285 22.046452
68.290 21.761063
68.295 21.604223
68.300 21.677395
68.305 22.048143
68.310 21.891363
68.315 21.632166
68.320 21.133038
68.325 21.347784
68.330 21.325668
68.335 20.667747
68.340 20.264351
68.345 20.378883
68.350 20.778885
68.355 21.563837
68.360 21.349958
68.365 21.252951
68.370 21.32073
68.375 21.727654
68.380 21.855282
68.385 21.280426
68.390 21.458538
68.395 21.90876
68.400 21.885078
68.405 22.027769
68.410 21.614872
68.415 21.127111
68.420 21.004171
68.425 20.306435
68.430 19.910059
68.435 19.91699
68.440 19.976021
68.445 19.74564
68.450 19.426043
68.455 19.680664
68.460 20.313074
68.465 20.396261
68.470 20.425371
68.475 20.656622
68.480 20.777073
68.485 21.310846
68.490 20.556545
68.495 20.489803
68.500 20.125675
68.505 19.437551
68.510 19.830208
68.515 20.308256
68.520 20.547506
68.525 20.799408
68.530 20.678354
68.535 20.722162
68.540 20.74725
68.545 20.207943
68.550 19.881056
68.555 18.814154
68.560 18.904663
68.565 19.668922
68.570 20.075634
68.575 19.98097
68.580 19.93206
68.585 20.145321
68.590 21.044537
68.595 20.508936
68.600 19.914944
68.605 20.526125
68.610 20.738041
68.615 20.623966
68.620 21.079723
68.625 21.577063
68.630 21.994795
68.635 22.283382
68.640 22.139252
68.645 22.293051
68.650 22.711056
68.655 22.579269
68.660 22.126204
68.665 22.255791
68.670 22.100449
68.675 21.670597
68.680 21.728371
68.685 21.607014
68.690 21.369114
68.695 21.722002
68.700 21.672876
68.705 21.756269
68.710 21.680355
68.715 21.463554
68.720 21.778582
68.725 21.789665
68.730 21.60989
68.735 21.773113
68.740 21.806917
68.745 21.98765
68.750 22.449905
68.755 21.719038
68.760 21.435211
68.765 21.826101
68.770 22.096769
68.775 22.053877
68.780 22.075911
68.785 21.58003
68.790 22.028894
68.795 22.484283
68.800 21.93915
68.805 21.608572
68.810 22.28249
68.815 22.371391
68.820 22.498613
68.825 22.380093
68.830 21.712614
68.835 21.941935
68.840 22.003616
68.845 21.496704
68.850 22.124046
68.855 22.828375
68.860 23.225086
68.865 23.647835
68.870 23.738199
68.875 24.407352
68.880 24.201426
68.885 23.907345
68.890 23.988724
68.895 24.714409
68.900 25.299284
68.905 25.640516
68.910 25.641457
68.915 25.967434
68.920 25.689011
68.925 24.955978
68.930 24.322374
68.935 23.568293
68.940 22.682213
68.945 22.427214
68.950 22.586567
68.955 23.009256
68.960 23.25334
68.965 23.221544
68.970 23.667545
68.975 24.400202
68.980 24.427757
68.985 24.747501
68.990 25.210594
68.995 25.635435
69.000 26.097919
69.005 26.783903
69.010 26.992907
69.015 26.50585
69.020 26.451849
69.025 26.121777
69.030 26.014593
69.035 25.738115
69.040 25.068619
69.045 24.959831
69.050 25.730614
69.055 25.973303
69.060 26.467512
69.065 27.199739
69.070 27.858814
69.075 28.277048
69.080 29.37859
69.085 29.052008
69.090 28.98497
69.095 28.715771
69.100 28.775379
69.105 29.155899
69.110 29.454578
69.115 29.221226
69.120 29.759937
69.125 29.960388
69.130 29.928207
69.135 29.855833
69.140 29.375027
69.145 28.46254
69.150 27.458382
69.155 26.909369
69.160 26.19734
69.165 26.157326
69.170 26.247845
69.175 26.881067
69.180 28.003893
69.185 29.308144
69.190 30.058764
69.195 30.252691
69.200 30.495667
69.205 30.539669
69.210 30.544872
69.215 30.339567
69.220 29.125746
69.225 29.403917
69.230 30.695694
69.235 30.920593
69.240 31.381647
69.245 31.79405
69.250 32.155254
69.255 33.203407
69.260 32.587139
69.265 31.883038
69.270 32.111942
69.275 32.321781
69.280 31.929173
69.285 31.96538
69.290 31.505936
69.295 31.442549
69.300 31.550898
69.305 31.072462
69.310 31.079678
69.315 32.087143
69.320 31.354118
69.325 31.31522
69.330 31.531042
69.335 31.837502
69.340 31.919451
69.345 32.154739
69.350 32.762936
69.355 33.295254
69.360 33.02243
69.365 33.204494
69.370 33.353237
69.375 33.378918
69.380 33.079979
69.385 32.139561
69.390 31.913145
69.395 32.14098
69.400 31.997505
69.405 30.954947
69.410 31.036839
69.415 30.027069
69.420 30.5529
69.425 32.236298
69.430 33.211166
69.435 33.626797
69.440 34.901867
69.445 35.396702
69.450 36.43956
69.455 35.868767
69.460 35.07518
69.465 34.346424
69.470 34.119816
69.475 33.56916
69.480 33.517769
69.485 33.6045
69.490 33.697124
69.495 32.61348
69.500 32.021515
69.505 31.46771
69.510 31.548258
69.515 31.698969
69.520 30.93181
69.525 31.085724
69.530 32.150276
69.535 32.451172
69.540 33.002201
69.545 32.845776
69.550 31.631155
69.555 31.180351
69.560 30.812092
69.565 30.857643
69.570 31.426014
69.575 31.616831
69.580 31.252707
69.585 31.785265
69.590 31.579479
69.595 30.961245
69.600 30.752377
69.605 31.074213
69.610 30.577848
69.615 30.923756
69.620 30.566402
69.625 31.235823
69.630 31.334812
69.635 30.755072
69.640 29.958685
69.645 30.308992
69.650 30.078722
69.655 30.809929
69.660 31.283112
69.665 31.763062
69.670 32.081738
69.675 32.041042
69.680 31.994215
69.685 32.164711
69.690 32.076778
69.695 31.25231
69.700 30.552435
69.705 30.33534
69.710 29.847857
69.715 29.124538
69.720 28.510187
69.725 27.242466
69.730 26.916559
69.735 26.912437
69.740 27.213297
69.745 27.462103
69.750 27.730156
69.755 27.635015
69.760 28.348322
69.765 28.268864
69.770 28.119598
69.775 28.093821
69.780 28.116072
69.785 28.24202
69.790 28.175518
69.795 27.579517
69.800 28.055294
69.805 28.201284
69.810 27.710218
69.815 27.438002
69.820 27.272512
69.825 28.004372
69.830 28.454845
69.835 28.734127
69.840 28.27289
69.845 27.977758
69.850 28.061756
69.855 27.541958
69.860 26.40485
69.865 25.698503
69.870 25.018959
69.875 24.507259
69.880 24.273415
69.885 23.611568
69.890 23.327604
69.895 23.664047
69.900 23.796415
69.905 24.181423
69.910 24.381721
69.915 24.173456
69.920 24.252626
69.925 24.105072
69.930 24.060898
69.935 23.904568
69.940 23.461594
69.945 23.404703
69.950 23.232155
69.955 23.845112
69.960 24.01273
69.965 23.104271
69.970 22.757128
69.975 22.042349
69.980 21.62462
69.985 21.187469
69.990 20.481417
69.995 20.035824
70.000 20.318331
70.005 20.099819
70.010 20.380516
70.015 20.478579
70.020 20.978434
70.025 21.03195
70.030 21.220171
70.035 20.910147
70.040 20.639166
70.045 20.646534
70.050 21.096962
70.055 21.084543
70.060 21.374929
70.065 21.624279
70.070 22.127293
70.075 22.250397
70.080 21.907934
70.085 21.20772
70.090 20.790567
70.095 20.509525
70.100 20.132252
70.105 19.684484
70.110 19.95097
70.115 20.673885
70.120 21.458954
70.125 21.328054
70.130 21.786669
70.135 22.451794
70.140 22.886446
70.145 22.706665
70.150 22.06069
70.155 21.927214
70.160 21.963539
70.165 21.08153
70.170 20.689135
70.175 19.951567
70.180 19.913836
70.185 19.799381
70.190 19.742144
70.195 19.964012
70.200 19.710554
70.205 19.240616
70.210 19.349487
70.215 19.374216
70.220 19.11532
70.225 18.898571
70.230 19.173983
70.235 19.962902
70.240 20.714165
70.245 20.964668
70.250 21.626934
70.255 21.938326
70.260 21.921684
70.265 21.526743
70.270 20.963917
70.275 20.655067
70.280 20.322395
70.285 19.668402
70.290 19.4279
70.295 20.199549
70.300 20.437685
70.305 20.96768
70.310 20.80793
70.315 21.202055
70.320 21.368971
70.325 21.274712
70.330 20.864191
70.335 20.638088
70.340 20.245304
70.345 20.488621
70.350 20.310974
70.355 20.349442
70.360 20.404388
70.365 20.645079
70.370 20.162275
70.375 19.554201
70.380 18.967035
70.385 19.062117
70.390 19.450724
70.395 19.419359
70.400 19.551523
70.405 19.590384
70.410 19.720455
70.415 19.583611
70.420 19.122442
70.425 18.58276
70.430 18.035927
70.435 18.074631
70.440 19.203339
70.445 20.21084
70.450 20.636806
70.455 20.596134
70.460 20.806295
70.465 20.741274
70.470 20.924812
70.475 20.490152
70.480 20.460232
70.485 20.413719
70.490 20.269472
70.495 20.327013
70.500 20.742729
70.505 20.509287
70.510 20.444355
70.515 19.731623
70.520 19.578695
70.525 19.94182
70.530 19.990662
70.535 19.378429
70.540 19.615168
70.545 19.214264
70.550 19.388327
70.555 19.364281
70.560 19.277222
70.565 19.420002
70.570 19.366886
70.575 18.400822
70.580 18.275242
70.585 18.344009
70.590 18.520691
70.595 18.04936
70.600 17.974592
70.605 18.352974
70.610 18.85371
70.615 18.557175
70.620 18.314802
70.625 18.697098
70.630 18.799355
70.635 18.666737
70.640 18.798777
70.645 18.46673
70.650 18.601374
70.655 18.884521
70.660 18.681271
70.665 19.069061
70.670 18.619875
70.675 18.725943
70.680 19.332716
70.685 19.628489
70.690 19.856272
70.695 20.017242
70.700 20.221598
70.705 20.038111
70.710 20.073362
70.715 19.743078
70.720 19.639025
70.725 19.435863
70.730 19.798569
70.735 20.127598
70.740 20.176313
70.745 19.824228
70.750 20.306734
70.755 20.651779
70.760 20.754721
70.765 20.581377
70.770 20.572044
70.775 20.879358
70.780 20.718212
70.785 20.069014
70.790 19.868906
70.795 19.449924
70.800 18.766722
70.805 18.594799
70.810 18.513386
70.815 18.736628
70.820 19.813334
70.825 19.659679
70.830 19.923946
70.835 20.018921
70.840 19.811573
70.845 19.727276
70.850 19.57374
70.855 18.690355
70.860 19.382313
70.865 19.398746
70.870 19.742878
70.875 20.120199
70.880 19.527943
70.885 19.37726
70.890 19.743107
70.895 18.794455
70.900 18.224648
70.905 18.015623
70.910 18.447161
70.915 19.640877
70.920 19.752605
70.925 18.90132
70.930 18.625891
70.935 19.219982
70.940 19.583172
70.945 19.471539
70.950 19.220945
70.955 19.676537
70.960 20.983767
70.965 21.431759
70.970 21.036888
70.975 20.549364
70.980 19.954321
70.985 19.483833
70.990 18.934582
70.995 17.655699
71.000 17.608974
71.005 17.990738
71.010 18.247463
71.015 18.365316
71.020 18.729822
71.025 19.068953
71.030 19.225847
71.035 19.306595
71.040 18.564238
71.045 18.323124
71.050 18.519611
71.055 18.201141
71.060 18.348793
71.065 18.907196
71.070 19.19738
71.075 19.316631
71.080 19.129622
71.085 18.747494
71.090 18.454193
71.095 18.646744
71.100 18.833303
71.105 18.975313
71.110 19.401642
71.115 19.610268
71.120 20.286491
71.125 20.786592
71.130 20.114244
71.135 19.998169
71.140 20.536957
71.145 20.642527
71.150 20.478136
71.155 19.992233
71.160 19.482826
71.165 19.944445
71.170 20.253222
71.175 19.903172
71.180 19.122181
71.185 19.16363
71.190 19.055044
71.195 19.595884
71.200 19.00802
71.205 18.105087
71.210 17.853607
71.215 18.179119
71.220 18.414452
71.225 18.273726
71.230 18.060492
71.235 18.569336
71.240 19.016508
71.245 19.350142
71.250 20.055483
71.255 19.791325
71.260 19.721155
71.265 20.194267
71.270 20.137913
71.275 19.726318
71.280 19.138025
71.285 18.956463
71.290 19.413746
71.295 19.008682
71.300 18.460505
71.305 18.609785
71.310 19.119329
71.315 19.4354
71.320 19.403505
71.325 19.186741
71.330 19.426092
71.335 19.733358
71.340 19.663359
71.345 19.678675
71.350 19.302902
71.355 19.811119
71.360 20.291035
71.365 20.6479
71.370 20.28241
71.375 20.315872
71.380 20.293348
71.385 20.573175
71.390 20.573317
71.395 19.994995
71.400 19.571365
71.405 19.834373
71.410 19.460474
71.415 19.779646
71.420 19.06027
71.425 18.540516
71.430 18.870546
71.435 18.613955
71.440 18.911201
71.445 19.19676
71.450 19.059799
71.455 19.677635
71.460 19.552216
71.465 19.264122
71.470 19.858551
71.475 19.57593
71.480 18.857733
71.485 18.436962
71.490 18.477488
71.495 18.833658
71.500 19.547985
71.505 18.951067
71.510 19.196753
71.515 19.912855
71.520 20.366783
71.525 20.10968
71.530 20.183506
71.535 19.663822
71.540 19.257858
71.545 19.117746
71.550 19.143726
71.555 19.224382
71.560 19.138041
71.565 18.947969
71.570 18.936531
71.575 19.166933
71.580 19.332344
71.585 18.745884
71.590 17.985731
71.595 18.187601
71.600 18.188299
71.605 18.302616
71.610 18.196938
71.615 17.843113
71.620 17.878887
71.625 17.897539
71.630 18.211843
71.635 18.408888
71.640 18.266504
71.645 18.636225
71.650 18.591461
71.655 18.761549
71.660 19.01025
71.665 18.767122
71.670 19.489542
71.675 19.622089
71.680 19.00934
71.685 19.444485
71.690 19.976423
71.695 20.17518
71.700 20.169298
71.705 19.562084
71.710 19.708469
71.715 19.868467
71.720 19.673637
71.725 19.024193
71.730 19.044035
71.735 19.120258
71.740 19.00979
71.745 19.385115
71.750 19.905447
71.755 20.335827
71.760 20.832422
71.765 20.676249
71.770 20.753136
71.775 20.75309
71.780 20.138414
71.785 19.347019
71.790 18.914827
71.795 18.231964
71.800 17.739943
71.805 17.61685
71.810 17.485073
71.815 17.886356
71.820 18.314116
71.825 18.722094
71.830 18.840389
71.835 18.737789
71.840 18.633001
71.845 18.841293
71.850 18.49494
71.855 18.229115
71.860 18.266079
71.865 18.711561
71.870 18.565552
71.875 18.851881
71.880 18.589542
71.885 18.969616
71.890 18.881372
71.895 18.62603
71.900 18.284433
71.905 18.520456
71.910 18.255955
71.915 18.568233
71.920 18.647007
71.925 18.258558
71.930 18.16468
71.935 18.426842
71.940 18.384283
71.945 18.177177
71.950 17.74898
71.955 16.872866
71.960 17.235638
71.965 16.99192
71.970 16.730042
71.975 16.628454
71.980 17.104961
71.985 17.249132
71.990 17.666626
71.995 17.983856
72.000 18.991985
72.005 19.056063
72.010 18.566851
72.015 18.312574
72.020 19.000027
72.025 18.955132
72.030 18.185709
72.035 17.617395
72.040 18.225523
72.045 18.938786
72.050 19.05122
72.055 19.024563
72.060 18.810505
72.065 18.922871
72.070 19.222099
72.075 18.681301
72.080 18.083231
72.085 17.634096
72.090 17.66338
72.095 18.111311
72.100 18.060095
72.105 18.078882
72.110 18.561302
72.115 19.225254
72.120 19.223038
72.125 19.178038
72.130 18.842489
72.135 18.677771
72.140 18.478224
72.145 18.409979
72.150 18.098324
72.155 18.050325
72.160 18.562738
72.165 18.964479
72.170 18.666498
72.175 18.263657
72.180 18.309891
72.185 18.445019
72.190 18.083433
72.195 18.111351
72.200 18.64646
72.205 19.518175
72.210 19.966934
72.215 19.775562
72.220 20.327511
72.225 20.227272
72.230 19.523846
72.235 19.284491
72.240 18.459278
72.245 18.172476
72.250 18.099182
72.255 17.691473
72.260 18.182873
72.265 18.215685
72.270 18.156342
72.275 18.364021
72.280 18.893909
72.285 18.983871
72.290 19.522655
72.295 19.685867
72.300 19.678679
72.305 19.692482
72.310 19.728989
72.315 19.946589
72.320 19.492065
72.325 19.120682
72.330 18.811756
72.335 18.825171
72.340 19.00421
72.345 19.044601
72.350 18.980709
72.355 19.797371
72.360 19.944786
72.365 20.294971
72.370 19.895102
72.375 19.980631
72.380 20.116177
72.385 21.073849
72.390 20.282728
72.395 19.660398
72.400 19.681141
72.405 20.197241
72.410 20.066677
72.415 19.650343
72.420 18.280104
72.425 18.418911
72.430 18.509134
72.435 18.477995
72.440 18.18544
72.445 18.05625
72.450 17.583996
72.455 17.898983
72.460 17.80196
72.465 17.955866
72.470 17.882576
72.475 17.931667
72.480 18.330721
72.485 18.760529
72.490 19.045589
72.495 19.464565
72.500 19.233425
72.505 18.72724
72.510 18.604559
72.515 18.159109
72.520 18.05685
72.525 17.911488
72.530 17.71847
72.535 17.995098
72.540 18.514849
72.545 18.119064
72.550 17.659071
72.555 17.236876
72.560 16.833277
72.565 16.907003
72.570 17.03105
72.575 17.287567
72.580 18.134289
72.585 19.004387
72.590 19.633682
72.595 19.842674
72.600 19.911892
72.605 20.193678
72.610 19.687483
72.615 19.043976
72.620 18.500139
72.625 18.135321
72.630 18.231504
72.635 17.966105
72.640 17.462812
72.645 17.525402
72.650 17.55134
72.655 17.899633
72.660 17.728737
72.665 17.299692
72.670 16.970148
72.675 17.31382
72.680 17.524874
72.685 17.421204
72.690 16.815512
72.695 17.022383
72.700 17.553961
72.705 17.425949
72.710 17.45048
72.715 17.257097
72.720 17.384106
72.725 17.859955
72.730 18.148869
72.735 17.842461
72.740 17.787083
72.745 17.761196
72.750 17.972794
72.755 18.018007
72.760 17.734093
72.765 17.310219
72.770 17.198599
72.775 17.690079
72.780 17.49415
72.785 17.001476
72.790 16.253544
72.795 15.976101
72.800 15.97471
72.805 15.927328
72.810 15.523219
72.815 15.965639
72.820 16.376579
72.825 17.099611
72.830 17.279575
72.835 17.36455
72.840 17.46456
72.845 18.126221
72.850 18.016653
72.855 17.870281
72.860 17.62752
72.865 17.163258
72.870 16.889334
72.875 16.613951
72.880 15.951004
72.885 16.358339
72.890 16.583239
72.895 16.762558
72.900 17.274372
72.905 17.573784
72.910 17.328367
72.915 17.16567
72.920 17.301075
72.925 16.964115
72.930 17.080339
72.935 17.294931
72.940 17.519142
72.945 17.733828
72.950 17.343262
72.955 17.391977
72.960 17.225361
72.965 17.50506
72.970 17.075256
72.975 16.696339
72.980 17.066513
72.985 17.130329
72.990 16.779902
72.995 16.551466
73.000 15.825262
