!@!!GADDS PLOTSO FILE: Chi integration type
!@!!Title/SampleName: map-af
!@!!Comment: ?
!@!!User: Bruker Instrument Administrator
!@!!Site: University of Illinois Chicago
!@!!Frame: map-af_01_000.gfrm
!@!!Wavelengths    1.54184   1.54056   1.54439
!@!!Frame angles: 2Theta: 63.000 Omega: 50.000 Phi: 0.000 Chi: 90.000
!@!!Integration range: 2Theta: 53.000 to 73.000  Gamma: -105.000 to -75.000
!@!!Integration method: bin normalized
!@!N
!@!SS
!@!M
!@!L 0.0 0.0 0.0 0.0
!@!XDegrees
!@!YCounts
53.000 7.624177
53.005 7.172785
53.010 6.84015
53.015 6.997072
53.020 7.003055
53.025 7.117204
53.030 7.215303
53.035 7.752415
53.040 8.258517
53.045 8.57663
53.050 8.711996
53.055 8.955598
53.060 9.442817
53.065 9.02361
53.070 8.532206
53.075 8.042016
53.080 8.31048
53.085 7.986962
53.090 7.764818
53.095 7.374982
53.100 7.415372
53.105 7.7219
53.110 7.630717
53.115 7.763338
53.120 7.856473
53.125 7.945291
53.130 8.411656
53.135 8.192782
53.140 8.407267
53.145 8.571635
53.150 8.145038
53.155 8.230879
53.160 8.11932
53.165 8.208722
53.170 8.234055
53.175 8.337955
53.180 8.148932
53.185 7.804914
53.190 7.599831
53.195 7.379005
53.200 7.217778
53.205 7.452951
53.210 7.302424
53.215 7.797444
53.220 8.151235
53.225 8.57721
53.230 8.443207
53.235 8.245852
53.240 7.912502
53.245 7.53736
53.250 7.137447
53.255 7.143781
53.260 7.211267
53.265 7.126933
53.270 6.974178
53.275 7.021742
53.280 7.130369
53.285 6.928628
53.290 6.707268
53.295 6.685742
53.300 7.051845
53.305 7.439348
53.310 7.443882
53.315 7.536765
53.320 7.888318
53.325 8.164105
53.330 8.060665
53.335 7.822676
53.340 7.949343
53.345 8.059026
53.350 8.425859
53.355 8.336849
53.360 8.171198
53.365 8.507948
53.370 9.000072
53.375 9.307282
53.380 9.213001
53.385 9.011686
53.390 8.9939
53.395 8.940275
53.400 8.793859
53.405 8.483715
53.410 8.598927
53.415 8.688823
53.420 8.953518
53.425 8.472084
53.430 8.59958
53.435 8.101392
53.440 7.605039
53.445 6.872631
53.450 6.702351
53.455 7.362785
53.460 7.67305
53.465 8.121375
53.470 9.04044
53.475 9.601943
53.480 10.208724
53.485 10.332803
53.490 9.84861
53.495 9.825299
53.500 9.34685
53.505 8.893416
53.510 8.810363
53.515 8.24798
53.520 8.231521
53.525 8.530086
53.530 9.013079
53.535 9.50269
53.540 10.108084
53.545 10.62804
53.550 11.137806
53.555 10.995106
53.560 10.372578
53.565 9.785407
53.570 9.354651
53.575 8.977805
53.580 8.37303
53.585 8.091007
53.590 8.504845
53.595 9.051132
53.600 9.010479
53.605 8.576067
53.610 8.45306
53.615 8.590988
53.620 8.548357
53.625 8.317859
53.630 8.177725
53.635 8.327339
53.640 8.942164
53.645 9.332433
53.650 9.337811
53.655 8.867456
53.660 8.480804
53.665 8.501568
53.670 8.196163
53.675 7.501344
53.680 7.328576
53.685 7.38345
53.690 7.394317
53.695 7.756821
53.700 7.740769
53.705 7.884702
53.710 7.866991
53.715 8.121963
53.720 8.234778
53.725 8.424323
53.730 8.171532
53.735 8.109056
53.740 8.627625
53.745 8.74472
53.750 8.478477
53.755 8.294496
53.760 8.32338
53.765 8.342862
53.770 8.080591
53.775 7.851326
53.780 7.981492
53.785 8.142867
53.790 8.228
53.795 8.524611
53.800 9.051784
53.805 9.400341
53.810 9.446175
53.815 9.737524
53.820 9.90785
53.825 9.847325
53.830 9.403529
53.835 9.14815
53.840 9.281746
53.845 9.136804
53.850 8.702251
53.855 8.924292
53.860 9.386949
53.865 9.872601
53.870 9.756474
53.875 10.050443
53.880 10.125173
53.885 9.854
53.890 9.469519
53.895 9.032684
53.900 9.036284
53.905 8.713088
53.910 7.932061
53.915 8.135426
53.920 8.609226
53.925 8.773012
53.930 8.780806
53.935 8.604155
53.940 9.099049
53.945 9.69616
53.950 10.121504
53.955 10.326196
53.960 9.836278
53.965 9.721542
53.970 10.038907
53.975 10.047721
53.980 9.596731
53.985 9.078469
53.990 8.991244
53.995 9.149543
54.000 8.859676
54.005 8.453536
54.010 8.649317
54.015 8.521472
54.020 8.495029
54.025 8.354843
54.030 8.988371
54.035 9.133788
54.040 9.344957
54.045 9.384164
54.050 9.475131
54.055 9.520547
54.060 9.563865
54.065 9.415617
54.070 9.270111
54.075 9.010634
54.080 9.417462
54.085 9.539768
54.090 9.069325
54.095 8.554605
54.100 8.570328
54.105 9.109023
54.110 8.990468
54.115 8.829025
54.120 8.953931
54.125 9.518131
54.130 10.177589
54.135 10.269629
54.140 10.395919
54.145 10.493001
54.150 10.396101
54.155 11.130778
54.160 11.755669
54.165 11.776565
54.170 11.44846
54.175 11.019792
54.180 10.763192
54.185 10.390979
54.190 10.094271
54.195 10.039865
54.200 9.979611
54.205 10.067304
54.210 10.326739
54.215 10.592361
54.220 10.347009
54.225 9.651461
54.230 9.241826
54.235 9.113965
54.240 9.108712
54.245 8.753414
54.250 8.450331
54.255 8.956723
54.260 9.322601
54.265 9.22561
54.270 9.386932
54.275 9.157354
54.280 9.553383
54.285 9.933946
54.290 9.647048
54.295 9.700459
54.300 9.805185
54.305 9.966727
54.310 10.341104
54.315 9.925567
54.320 10.170304
54.325 10.673875
54.330 10.936705
54.335 11.215983
54.340 11.461055
54.345 11.341113
54.350 11.12398
54.355 10.437584
54.360 10.220222
54.365 9.962434
54.370 9.777339
54.375 9.651021
54.380 9.976146
54.385 10.186534
54.390 9.82674
54.395 9.629011
54.400 9.723933
54.405 9.338498
54.410 9.213788
54.415 8.911737
54.420 9.102823
54.425 9.606069
54.430 9.664401
54.435 9.519996
54.440 10.368913
54.445 10.576101
54.450 10.89094
54.455 11.325635
54.460 11.121388
54.465 10.950674
54.470 11.177354
54.475 10.586825
54.480 10.533138
54.485 10.292988
54.490 9.91328
54.495 9.962556
54.500 9.937392
54.505 9.760011
54.510 9.452166
54.515 9.502847
54.520 9.680528
54.525 9.845835
54.530 9.723166
54.535 10.21586
54.540 10.380094
54.545 10.510305
54.550 10.878636
54.555 10.849189
54.560 11.054026
54.565 11.375973
54.570 11.240373
54.575 11.384677
54.580 11.933549
54.585 12.355152
54.590 12.297655
54.595 11.972534
54.600 11.810781
54.605 11.704842
54.610 11.597633
54.615 10.913342
54.620 10.798359
54.625 10.83299
54.630 10.59258
54.635 10.468985
54.640 10.073598
54.645 10.075572
54.650 9.915198
54.655 9.465279
54.660 9.599944
54.665 9.62523
54.670 9.697956
54.675 10.183123
54.680 9.877103
54.685 9.957329
54.690 10.204319
54.695 10.634873
54.700 11.277111
54.705 11.212593
54.710 11.476727
54.715 11.797292
54.720 11.976926
54.725 11.870066
54.730 11.766531
54.735 11.354895
54.740 11.389205
54.745 10.930099
54.750 10.504736
54.755 10.023384
54.760 9.885321
54.765 9.42911
54.770 9.919312
54.775 10.026717
54.780 9.888842
54.785 10.284218
54.790 10.083497
54.795 10.164301
54.800 10.273412
54.805 9.919905
54.810 10.084227
54.815 10.641181
54.820 11.298795
54.825 11.736797
54.830 11.663113
54.835 11.551351
54.840 11.642395
54.845 11.793016
54.850 11.498816
54.855 11.353004
54.860 10.983976
54.865 10.729831
54.870 11.064203
54.875 11.182368
54.880 11.440326
54.885 11.015903
54.890 10.452359
54.895 11.087554
54.900 11.655036
54.905 11.523557
54.910 11.330082
54.915 11.168861
54.920 11.490282
54.925 11.640787
54.930 11.108136
54.935 11.220026
54.940 10.991578
54.945 10.906996
54.950 10.60569
54.955 10.932657
54.960 11.224134
54.965 10.956573
54.970 10.702912
54.975 10.906075
54.980 11.149798
54.985 11.659194
54.990 11.705413
54.995 11.607583
55.000 11.768437
55.005 12.010035
55.010 12.168122
55.015 11.890161
55.020 11.353289
55.025 11.064963
55.030 11.104255
55.035 11.031445
55.040 11.02598
55.045 10.919325
55.050 10.866217
55.055 10.973063
55.060 11.354098
55.065 11.732988
55.070 12.223559
55.075 12.035711
55.080 12.205216
55.085 11.739554
55.090 11.65772
55.095 12.032717
55.100 12.004233
55.105 11.711931
55.110 11.835537
55.115 11.934193
55.120 12.33442
55.125 12.200057
55.130 11.696013
55.135 11.739419
55.140 11.804311
55.145 11.650457
55.150 11.655236
55.155 11.731573
55.160 11.4944
55.165 11.359662
55.170 10.796743
55.175 10.841368
55.180 11.234251
55.185 11.481599
55.190 11.917222
55.195 11.887906
55.200 11.882922
55.205 11.846543
55.210 11.431348
55.215 10.964084
55.220 10.68618
55.225 10.848388
55.230 10.851743
55.235 10.990636
55.240 11.135693
55.245 11.26305
55.250 11.416539
55.255 10.943036
55.260 10.559053
55.265 11.046796
55.270 11.447433
55.275 11.860016
55.280 11.569599
55.285 11.741977
55.290 12.243475
55.295 12.100554
55.300 11.600962
55.305 10.831306
55.310 10.670275
55.315 10.811399
55.320 11.040299
55.325 11.306364
55.330 11.66606
55.335 11.481244
55.340 12.023161
55.345 12.053152
55.350 11.554117
55.355 11.827239
55.360 11.922015
55.365 12.285929
55.370 12.767794
55.375 12.458549
55.380 12.618273
55.385 12.854182
55.390 12.627034
55.395 12.512228
55.400 11.829979
55.405 11.876788
55.410 12.221402
55.415 12.219605
55.420 11.958292
55.425 11.549693
55.430 11.801847
55.435 11.7796
55.440 10.939717
55.445 10.947404
55.450 11.183482
55.455 11.186524
55.460 11.076877
55.465 11.032294
55.470 11.494984
55.475 11.550113
55.480 11.073579
55.485 11.178876
55.490 11.445296
55.495 11.641678
55.500 11.735959
55.505 11.705486
55.510 12.307874
55.515 12.266625
55.520 12.247952
55.525 12.180497
55.530 12.055387
55.535 12.370777
55.540 12.192119
55.545 11.697715
55.550 11.87914
55.555 11.855814
55.560 12.069558
55.565 11.720735
55.570 11.291366
55.575 11.677982
55.580 11.630215
55.585 11.686277
55.590 11.644203
55.595 11.612203
55.600 11.563013
55.605 11.573612
55.610 11.999594
55.615 12.42767
55.620 12.259917
55.625 12.510286
55.630 12.840504
55.635 12.886099
55.640 12.640859
55.645 12.407481
55.650 12.260372
55.655 12.062787
55.660 12.025491
55.665 11.885053
55.670 11.76029
55.675 11.495587
55.680 11.267862
55.685 11.536774
55.690 11.770413
55.695 11.638581
55.700 11.263014
55.705 11.75258
55.710 11.791035
55.715 12.218323
55.720 12.543875
55.725 12.697107
55.730 12.93983
55.735 13.304299
55.740 13.500429
55.745 13.411601
55.750 12.829585
55.755 12.078676
55.760 11.506679
55.765 10.920813
55.770 10.27105
55.775 10.279685
55.780 10.68749
55.785 10.889307
55.790 10.770264
55.795 10.677592
55.800 11.217971
55.805 11.856154
55.810 11.771168
55.815 11.804889
55.820 12.418274
55.825 13.096991
55.830 13.263597
55.835 13.051629
55.840 13.293927
55.845 13.223915
55.850 12.747136
55.855 12.330085
55.860 12.720078
55.865 12.457793
55.870 12.29346
55.875 12.536602
55.880 12.764692
55.885 13.454856
55.890 13.635417
55.895 13.695705
55.900 13.852493
55.905 13.548945
55.910 13.035434
55.915 12.297812
55.920 12.162333
55.925 11.758446
55.930 12.031807
55.935 12.728642
55.940 12.752515
55.945 13.025579
55.950 13.628472
55.955 13.559833
55.960 13.50598
55.965 13.198599
55.970 13.151008
55.975 13.251545
55.980 13.115818
55.985 13.238686
55.990 13.207806
55.995 13.324854
56.000 13.089108
56.005 12.905976
56.010 13.036143
56.015 13.251787
56.020 13.332388
56.025 13.562379
56.030 13.968803
56.035 14.032304
56.040 13.867001
56.045 13.945301
56.050 13.291097
56.055 12.674772
56.060 11.623976
56.065 11.3429
56.070 11.26893
56.075 11.158734
56.080 11.042994
56.085 11.197124
56.090 11.52696
56.095 12.24698
56.100 12.096857
56.105 12.020931
56.110 12.104962
56.115 12.064546
56.120 12.305262
56.125 12.45431
56.130 12.103341
56.135 12.209719
56.140 12.217992
56.145 12.157995
56.150 11.671198
56.155 11.787928
56.160 11.486321
56.165 11.557462
56.170 11.643576
56.175 11.891994
56.180 11.636514
56.185 12.474676
56.190 12.699866
56.195 13.068903
56.200 13.250262
56.205 13.162425
56.210 13.285225
56.215 13.856449
56.220 13.436536
56.225 13.173156
56.230 13.389415
56.235 13.272425
56.240 13.541766
56.245 13.985199
56.250 13.618732
56.255 13.665664
56.260 13.126275
56.265 12.397083
56.270 12.029036
56.275 12.01953
56.280 11.53894
56.285 11.711756
56.290 11.115193
56.295 11.769608
56.300 12.081045
56.305 12.279295
56.310 12.51522
56.315 13.309661
56.320 13.654109
56.325 14.442142
56.330 14.390681
56.335 14.142884
56.340 14.104688
56.345 13.770757
56.350 13.449231
56.355 13.414763
56.360 13.359581
56.365 13.181062
56.370 13.339731
56.375 13.755057
56.380 13.861835
56.385 13.729734
56.390 13.280425
56.395 12.958666
56.400 12.883897
56.405 12.927862
56.410 12.312561
56.415 11.949425
56.420 11.984841
56.425 12.030646
56.430 12.328081
56.435 12.435401
56.440 12.506037
56.445 12.867222
56.450 12.550536
56.455 12.812699
56.460 13.190737
56.465 12.94519
56.470 13.434602
56.475 13.11377
56.480 13.111461
56.485 13.764379
56.490 13.813268
56.495 13.236341
56.500 12.965014
56.505 12.533167
56.510 12.691449
56.515 12.611474
56.520 12.057508
56.525 11.900264
56.530 12.582619
56.535 12.932532
56.540 13.223861
56.545 12.906309
56.550 12.476557
56.555 12.980292
56.560 13.29263
56.565 13.334577
56.570 13.756601
56.575 13.544823
56.580 13.556833
56.585 13.511384
56.590 13.258849
56.595 12.867447
56.600 12.619747
56.605 12.041388
56.610 12.448334
56.615 12.766556
56.620 12.962146
56.625 13.339383
56.630 13.800017
56.635 13.952866
56.640 13.49305
56.645 13.268932
56.650 13.191833
56.655 12.93514
56.660 12.803455
56.665 12.154435
56.670 12.288452
56.675 13.029992
56.680 12.946642
56.685 13.444871
56.690 13.866166
56.695 13.888074
56.700 14.284849
56.705 14.265193
56.710 14.219106
56.715 13.946812
56.720 13.445834
56.725 12.682353
56.730 12.798712
56.735 12.787231
56.740 13.488113
56.745 13.804628
56.750 14.003629
56.755 14.261615
56.760 14.693316
56.765 14.383277
56.770 14.303978
56.775 13.770172
56.780 13.637609
56.785 13.940052
56.790 13.485065
56.795 13.114985
56.800 12.972806
56.805 12.636642
56.810 12.553101
56.815 12.164975
56.820 11.833457
56.825 12.299763
56.830 12.492546
56.835 12.808185
56.840 12.685733
56.845 12.161366
56.850 12.635695
56.855 13.27157
56.860 13.361393
56.865 13.729781
56.870 14.276127
56.875 14.929222
56.880 15.336605
56.885 15.433519
56.890 15.23892
56.895 15.075899
56.900 15.056631
56.905 14.637257
56.910 14.601045
56.915 14.528058
56.920 14.137289
56.925 14.099741
56.930 14.035417
56.935 14.12254
56.940 14.223657
56.945 13.583895
56.950 13.563754
56.955 13.758924
56.960 13.7149
56.965 13.457218
56.970 13.407553
56.975 13.639005
56.980 14.043601
56.985 14.2481
56.990 14.224968
56.995 14.557629
57.000 14.693999
57.005 14.582943
57.010 14.754607
57.015 14.50499
57.020 13.870332
57.025 13.182816
57.030 13.103579
57.035 13.394627
57.040 12.802361
57.045 12.754322
57.050 12.945248
57.055 13.091642
57.060 13.647594
57.065 13.553417
57.070 12.861872
57.075 13.149732
57.080 13.454446
57.085 13.476242
57.090 13.893785
57.095 13.837218
57.100 13.872164
57.105 14.306416
57.110 13.923018
57.115 13.473475
57.120 13.887752
57.125 13.818585
57.130 13.92957
57.135 14.013424
57.140 14.301415
57.145 14.400667
57.150 14.230029
57.155 13.847295
57.160 14.37536
57.165 14.685643
57.170 14.590549
57.175 14.429679
57.180 14.656488
57.185 14.512003
57.190 14.498055
57.195 13.777428
57.200 13.593743
57.205 13.433186
57.210 13.362767
57.215 13.185912
57.220 13.242407
57.225 12.959042
57.230 12.966876
57.235 13.127915
57.240 13.309704
57.245 12.867784
57.250 12.922192
57.255 13.077592
57.260 13.588174
57.265 13.614871
57.270 13.358973
57.275 13.276714
57.280 13.569808
57.285 13.284945
57.290 13.248729
57.295 13.387568
57.300 13.973543
57.305 14.115731
57.310 14.030103
57.315 14.50714
57.320 14.966068
57.325 15.324681
57.330 15.304784
57.335 15.138845
57.340 15.165375
57.345 15.598316
57.350 15.474277
57.355 15.307176
57.360 15.234352
57.365 15.139765
57.370 15.210198
57.375 15.467275
57.380 15.435294
57.385 15.733556
57.390 16.167982
57.395 15.628983
57.400 15.187333
57.405 14.633487
57.410 14.549581
57.415 13.96874
57.420 14.015129
57.425 14.089304
57.430 15.066242
57.435 15.906623
57.440 16.027882
57.445 16.089401
57.450 16.560154
57.455 15.914499
57.460 16.133701
57.465 16.002949
57.470 15.25962
57.475 14.977529
57.480 14.652991
57.485 14.457779
57.490 14.580118
57.495 14.408845
57.500 14.38331
57.505 14.822396
57.510 15.227667
57.515 15.794071
57.520 15.609657
57.525 15.09584
57.530 14.196052
57.535 13.756026
57.540 13.535225
57.545 13.438727
57.550 12.933908
57.555 13.248153
57.560 13.858308
57.565 13.904687
57.570 13.649789
57.575 14.047013
57.580 14.00061
57.585 14.096514
57.590 14.104461
57.595 14.562647
57.600 15.389341
57.605 16.117582
57.610 15.751118
57.615 15.72878
57.620 16.001135
57.625 16.442287
57.630 15.780705
57.635 15.218069
57.640 14.834151
57.645 15.04039
57.650 15.329557
57.655 15.050972
57.660 14.934958
57.665 15.393435
57.670 15.626352
57.675 15.998978
57.680 16.22266
57.685 16.530285
57.690 16.794985
57.695 16.529791
57.700 15.734795
57.705 15.807058
57.710 16.022755
57.715 16.007643
57.720 16.493773
57.725 16.171736
57.730 17.294743
57.735 18.225176
57.740 17.826397
57.745 17.691347
57.750 17.36801
57.755 16.937023
57.760 17.060034
57.765 15.838552
57.770 15.401446
57.775 15.12761
57.780 14.858644
57.785 14.785906
57.790 14.883763
57.795 14.259591
57.800 14.033278
57.805 14.14551
57.810 14.575748
57.815 14.842017
57.820 15.085811
57.825 15.011125
57.830 15.805866
57.835 16.16367
57.840 15.74812
57.845 15.685312
57.850 15.168712
57.855 15.081357
57.860 15.209122
57.865 15.033147
57.870 15.454592
57.875 15.694508
57.880 15.860846
57.885 15.9088
57.890 15.281928
57.895 15.260928
57.900 15.799163
57.905 15.733429
57.910 16.322485
57.915 16.406687
57.920 16.633408
57.925 16.735182
57.930 16.26837
57.935 15.640083
57.940 15.621571
57.945 15.386668
57.950 15.264986
57.955 15.370438
57.960 15.15798
57.965 16.051456
57.970 16.270956
57.975 15.98842
57.980 16.04347
57.985 15.93533
57.990 15.620028
57.995 16.228592
58.000 15.485219
58.005 15.191229
58.010 15.719893
58.015 16.132114
58.020 16.416773
58.025 16.499794
58.030 16.669287
58.035 17.354271
58.040 17.843019
58.045 17.553299
58.050 17.497732
58.055 17.984655
58.060 18.036955
58.065 17.872694
58.070 17.92528
58.075 17.723074
58.080 18.104519
58.085 18.686884
58.090 18.628593
58.095 18.764101
58.100 18.384331
58.105 17.921801
58.110 18.099243
58.115 17.598497
58.120 17.011126
58.125 16.859093
58.130 16.824266
58.135 16.867289
58.140 16.890825
58.145 16.679058
58.150 16.58864
58.155 16.316864
58.160 16.251955
58.165 16.417337
58.170 17.016479
58.175 17.560432
58.180 17.490084
58.185 17.579708
58.190 17.902262
58.195 17.918789
58.200 17.676306
58.205 17.325001
58.210 16.456238
58.215 16.378172
58.220 16.486202
58.225 16.714437
58.230 16.658842
58.235 17.079287
58.240 17.538944
58.245 18.570496
58.250 19.312805
58.255 19.662382
58.260 19.36339
58.265 20.035275
58.270 19.94788
58.275 20.123564
58.280 20.021046
58.285 19.33699
58.290 18.908339
58.295 19.222895
58.300 19.503201
58.305 19.949793
58.310 20.37273
58.315 20.921438
58.320 21.664772
58.325 22.278435
58.330 21.799597
58.335 21.476519
58.340 21.423082
58.345 21.311483
58.350 21.240376
58.355 21.498573
58.360 22.271868
58.365 22.92309
58.370 23.193527
58.375 23.402658
58.380 23.386007
58.385 23.421539
58.390 23.532341
58.395 23.513624
58.400 24.078985
58.405 24.142607
58.410 24.350712
58.415 24.984123
58.420 25.972641
58.425 26.262524
58.430 26.380831
58.435 26.239786
58.440 26.001888
58.445 26.210636
58.450 26.353689
58.455 26.367401
58.460 26.808931
58.465 26.546947
58.470 26.997019
58.475 27.333851
58.480 27.519087
58.485 27.838614
58.490 28.912907
58.495 29.463865
58.500 30.021225
58.505 30.592682
58.510 30.20289
58.515 30.458948
58.520 30.689821
58.525 30.11034
58.530 30.116583
58.535 30.035267
58.540 30.392862
58.545 30.798464
58.550 30.453434
58.555 29.439072
58.560 28.094629
58.565 27.986084
58.570 28.539032
58.575 28.478306
58.580 28.707241
58.585 28.794363
58.590 29.14179
58.595 30.044418
58.600 30.049942
58.605 29.507135
58.610 28.940247
58.615 29.278036
58.620 29.518538
58.625 30.164814
58.630 30.150352
58.635 29.667257
58.640 30.29586
58.645 30.57699
58.650 29.545181
58.655 29.207989
58.660 28.732822
58.665 28.505571
58.670 28.079311
58.675 27.225355
58.680 27.408508
58.685 27.592758
58.690 28.492474
58.695 29.359037
58.700 29.590351
58.705 29.795279
58.710 29.154736
58.715 28.681299
58.720 28.73424
58.725 27.760237
58.730 27.059368
58.735 27.016985
58.740 26.925381
58.745 27.578691
58.750 27.737368
58.755 28.129282
58.760 28.198019
58.765 27.842714
58.770 27.667368
58.775 28.344973
58.780 28.184875
58.785 27.906559
58.790 27.610727
58.795 27.176266
58.800 26.110943
58.805 25.040701
58.810 24.372717
58.815 23.290646
58.820 23.311968
58.825 23.348833
58.830 23.132881
58.835 23.429077
58.840 23.082031
58.845 22.750599
58.850 22.805044
58.855 21.852345
58.860 21.614826
58.865 21.957161
58.870 22.182446
58.875 23.045422
58.880 22.272251
58.885 21.97098
58.890 21.680285
58.895 21.256414
58.900 21.429712
58.905 20.569044
58.910 20.61725
58.915 20.822458
58.920 20.240273
58.925 20.140415
58.930 19.754776
58.935 19.442312
58.940 19.809269
58.945 19.251186
58.950 19.45575
58.955 20.141012
58.960 19.950876
58.965 20.213846
58.970 19.809158
58.975 19.567823
58.980 19.283806
58.985 18.700735
58.990 18.587282
58.995 18.457394
59.000 18.30405
59.005 18.112814
59.010 18.63233
59.015 19.307562
59.020 20.147129
59.025 20.032398
59.030 20.510696
59.035 20.788651
59.040 20.834814
59.045 20.401096
59.050 20.39739
59.055 19.934835
59.060 19.86735
59.065 19.567184
59.070 18.784172
59.075 18.201233
59.080 17.802588
59.085 17.328751
59.090 17.370569
59.095 17.346552
59.100 17.289696
59.105 17.273373
59.110 17.486418
59.115 17.353485
59.120 17.226892
59.125 16.900496
59.130 17.023197
59.135 17.302292
59.140 17.697508
59.145 17.430162
59.150 17.314795
59.155 17.698887
59.160 17.678427
59.165 17.321079
59.170 16.948263
59.175 17.276758
59.180 17.923838
59.185 17.411474
59.190 17.077595
59.195 17.160379
59.200 17.159193
59.205 16.632553
59.210 15.913201
59.215 15.485237
59.220 15.88756
59.225 15.625001
59.230 15.772711
59.235 15.737993
59.240 16.186197
59.245 16.509144
59.250 16.716957
59.255 17.111965
59.260 17.531157
59.265 17.141809
59.270 17.174614
59.275 17.109465
59.280 16.575075
59.285 15.974069
59.290 15.507526
59.295 15.351569
59.300 15.537693
59.305 15.08424
59.310 14.942143
59.315 15.59297
59.320 15.883283
59.325 15.483566
59.330 16.140776
59.335 16.122259
59.340 16.347626
59.345 16.06608
59.350 15.452885
59.355 15.718119
59.360 16.113882
59.365 15.930023
59.370 16.402878
59.375 16.502447
59.380 16.888399
59.385 17.243902
59.390 17.603203
59.395 17.255054
59.400 17.090967
59.405 16.588861
59.410 16.527155
59.415 16.052187
59.420 15.455442
59.425 14.948175
59.430 15.052316
59.435 14.805306
59.440 14.725911
59.445 14.85859
59.450 14.884972
59.455 15.33569
59.460 15.378833
59.465 15.259793
59.470 15.355773
59.475 15.604085
59.480 15.623535
59.485 15.954337
59.490 16.03266
59.495 16.097412
59.500 16.065647
59.505 16.212862
59.510 16.229975
59.515 16.998777
59.520 17.606108
59.525 17.6931
59.530 17.419418
59.535 17.65901
59.540 17.402565
59.545 17.29468
59.550 16.688185
59.555 16.86475
59.560 16.597944
59.565 16.783937
59.570 15.965921
59.575 15.852488
59.580 15.624145
59.585 15.354763
59.590 14.807329
59.595 14.750362
59.600 14.800484
59.605 15.565811
59.610 16.004295
59.615 15.805684
59.620 15.739217
59.625 15.430339
59.630 15.338739
59.635 15.62453
59.640 15.581735
59.645 15.35
59.650 15.210952
59.655 15.55458
59.660 16.09746
59.665 16.02573
59.670 15.692667
59.675 15.820871
59.680 15.768829
59.685 15.967152
59.690 15.757548
59.695 16.09988
59.700 17.123569
59.705 16.848722
59.710 16.426823
59.715 16.920458
59.720 17.053082
59.725 17.149822
59.730 16.669476
59.735 16.27059
59.740 16.972713
59.745 16.85074
59.750 16.099323
59.755 15.993314
59.760 15.980751
59.765 15.956598
59.770 15.849386
59.775 15.741478
59.780 16.417759
59.785 16.631227
59.790 16.757376
59.795 16.839445
59.800 16.812315
59.805 16.089581
59.810 15.554266
59.815 15.627023
59.820 15.869869
59.825 15.752393
59.830 15.358108
59.835 14.686124
59.840 14.931254
59.845 15.131728
59.850 14.912998
59.855 14.378427
59.860 14.402762
59.865 15.018678
59.870 15.712741
59.875 15.848532
59.880 15.914792
59.885 15.936334
59.890 16.679729
59.895 16.808638
59.900 16.553923
59.905 16.321104
59.910 16.353004
59.915 16.473513
59.920 16.413715
59.925 16.427269
59.930 16.221687
59.935 16.29664
59.940 16.635675
59.945 16.447136
59.950 16.517286
59.955 16.791601
59.960 16.411163
59.965 16.54121
59.970 16.588242
59.975 16.649202
59.980 16.736727
59.985 16.553106
59.990 16.61569
59.995 16.642986
60.000 16.623659
60.005 16.743332
60.010 16.3762
60.015 16.252588
60.020 15.894565
60.025 15.650929
60.030 15.636933
60.035 15.253264
60.040 15.186817
60.045 15.401782
60.050 15.691839
60.055 15.922717
60.060 15.759188
60.065 15.8975
60.070 16.168747
60.075 16.274481
60.080 16.196056
60.085 16.395039
60.090 16.362041
60.095 16.139618
60.100 15.568862
60.105 15.204734
60.110 15.178517
60.115 15.837833
60.120 16.040789
60.125 15.707024
60.130 15.937386
60.135 16.125324
60.140 16.073448
60.145 16.017046
60.150 15.461485
60.155 14.822004
60.160 15.25945
60.165 15.719586
60.170 15.910992
60.175 16.226913
60.180 15.974308
60.185 15.380507
60.190 14.802307
60.195 14.754744
60.200 14.517145
60.205 14.664927
60.210 14.939983
60.215 15.211247
60.220 15.779021
60.225 16.102695
60.230 16.222271
60.235 16.763113
60.240 16.285587
60.245 15.760271
60.250 15.719478
60.255 15.997237
60.260 16.524426
60.265 15.955846
60.270 15.519361
60.275 15.491445
60.280 15.715351
60.285 15.393873
60.290 14.984139
60.295 14.302275
60.300 14.059755
60.305 13.873278
60.310 14.05578
60.315 14.398613
60.320 14.743596
60.325 15.305319
60.330 15.882377
60.335 16.197954
60.340 16.826672
60.345 16.904758
60.350 16.247585
60.355 16.124081
60.360 15.645507
60.365 15.683496
60.370 15.392783
60.375 14.668676
60.380 14.858891
60.385 15.3481
60.390 15.133821
60.395 15.148969
60.400 15.081923
60.405 15.579136
60.410 16.115463
60.415 15.273071
60.420 14.968058
60.425 15.748612
60.430 15.668686
60.435 15.520931
60.440 15.313163
60.445 15.231114
60.450 15.943995
60.455 16.198986
60.460 15.960532
60.465 15.849377
60.470 16.407764
60.475 16.617626
60.480 16.426756
60.485 15.952479
60.490 15.163863
60.495 15.19505
60.500 15.2155
60.505 15.857589
60.510 16.370565
60.515 16.834099
60.520 16.619267
60.525 16.856344
60.530 16.731073
60.535 17.025782
60.540 16.307327
60.545 15.66298
60.550 15.281874
60.555 15.577818
60.560 15.947314
60.565 15.857583
60.570 15.587656
60.575 15.254529
60.580 15.320136
60.585 15.585083
60.590 15.725919
60.595 15.568799
60.600 15.866185
60.605 15.418147
60.610 15.340532
60.615 15.536926
60.620 15.63709
60.625 15.78966
60.630 15.759668
60.635 15.940447
60.640 16.768064
60.645 17.664824
60.650 17.252256
60.655 17.608469
60.660 17.774429
60.665 17.791471
60.670 17.20796
60.675 17.023067
60.680 16.193077
60.685 16.321718
60.690 16.260927
60.695 15.84456
60.700 15.634225
60.705 15.933114
60.710 15.711453
60.715 15.908549
60.720 16.082788
60.725 15.719516
60.730 15.953383
60.735 16.203884
60.740 16.078691
60.745 15.705934
60.750 15.335789
60.755 14.945564
60.760 15.178741
60.765 15.441475
60.770 14.739107
60.775 14.759857
60.780 15.194667
60.785 15.824813
60.790 16.554344
60.795 17.181347
60.800 17.225502
60.805 17.833282
60.810 18.667839
60.815 18.329399
60.820 17.202312
60.825 16.695066
60.830 16.041569
60.835 15.996465
60.840 15.607418
60.845 14.372878
60.850 14.645008
60.855 15.287548
60.860 15.212615
60.865 15.36799
60.870 15.530325
60.875 15.745821
60.880 16.033701
60.885 15.459533
60.890 15.064071
60.895 14.785284
60.900 14.141852
60.905 13.955321
60.910 13.970616
60.915 14.768691
60.920 15.21606
60.925 15.593831
60.930 15.725147
60.935 16.207088
60.940 16.07732
60.945 15.735935
60.950 14.951203
60.955 15.07821
60.960 15.276261
60.965 15.592383
60.970 15.607625
60.975 15.77602
60.980 16.105362
60.985 15.811625
60.990 15.233591
60.995 15.458261
61.000 15.522881
61.005 15.26911
61.010 15.033081
61.015 15.059201
61.020 15.091303
61.025 15.586846
61.030 15.173752
61.035 15.163456
61.040 15.137821
61.045 15.398866
61.050 15.808181
61.055 15.964207
61.060 16.144728
61.065 15.950596
61.070 15.497921
61.075 15.406877
61.080 15.117327
61.085 14.65586
61.090 14.628841
61.095 14.469688
61.100 14.898787
61.105 15.764328
61.110 16.391127
61.115 16.793825
61.120 17.293665
61.125 17.629776
61.130 17.49963
61.135 17.689438
61.140 17.154188
61.145 17.0158
61.150 16.530352
61.155 16.189005
61.160 16.155735
61.165 16.144098
61.170 16.076849
61.175 16.239496
61.180 16.199024
61.185 16.248184
61.190 16.116297
61.195 17.078947
61.200 17.387444
61.205 17.310549
61.210 17.442575
61.215 17.294779
61.220 17.634434
61.225 18.122061
61.230 17.463024
61.235 16.909927
61.240 16.413832
61.245 15.937094
61.250 16.126766
61.255 16.38493
61.260 16.019011
61.265 15.874868
61.270 16.154089
61.275 16.268862
61.280 16.445158
61.285 16.139721
61.290 15.669914
61.295 15.732448
61.300 15.719031
61.305 16.039902
61.310 16.345938
61.315 16.23641
61.320 16.9552
61.325 17.673088
61.330 17.571907
61.335 17.535046
61.340 17.781719
61.345 17.48691
61.350 17.21829
61.355 16.742563
61.360 16.404432
61.365 16.489141
61.370 16.338062
61.375 15.630314
61.380 15.946491
61.385 16.288143
61.390 16.844723
61.395 17.38266
61.400 17.483736
61.405 17.398975
61.410 17.504995
61.415 17.885363
61.420 18.138494
61.425 17.723475
61.430 17.139835
61.435 16.905262
61.440 16.764875
61.445 16.778149
61.450 16.40514
61.455 16.580948
61.460 16.243715
61.465 15.672588
61.470 15.406798
61.475 15.611983
61.480 15.904879
61.485 15.704622
61.490 15.393371
61.495 15.203037
61.500 15.416367
61.505 15.898505
61.510 16.032932
61.515 15.741562
61.520 16.20303
61.525 16.642565
61.530 17.358896
61.535 17.487556
61.540 17.368729
61.545 16.862089
61.550 17.226633
61.555 16.86455
61.560 16.332357
61.565 16.08956
61.570 16.584805
61.575 16.826416
61.580 16.602102
61.585 16.211082
61.590 16.678886
61.595 16.717815
61.600 16.34807
61.605 16.036055
61.610 15.659101
61.615 16.041004
61.620 16.16926
61.625 15.793438
61.630 15.751752
61.635 16.111347
61.640 15.935709
61.645 16.063217
61.650 16.530462
61.655 16.010759
61.660 15.95436
61.665 16.393551
61.670 16.299709
61.675 16.419674
61.680 16.356848
61.685 15.737628
61.690 15.678386
61.695 15.549907
61.700 15.059809
61.705 14.7391
61.710 14.946618
61.715 14.576413
61.720 14.740409
61.725 15.113363
61.730 14.865191
61.735 15.022194
61.740 15.077906
61.745 14.463212
61.750 14.853256
61.755 15.112192
61.760 14.95717
61.765 15.227193
61.770 15.062235
61.775 15.436166
61.780 16.197752
61.785 16.547934
61.790 16.252125
61.795 16.773434
61.800 17.038294
61.805 17.115685
61.810 17.156019
61.815 17.192539
61.820 17.169643
61.825 16.837498
61.830 16.64039
61.835 16.72644
61.840 17.024557
61.845 16.541876
61.850 16.251459
61.855 16.165798
61.860 16.851639
61.865 16.956827
61.870 16.709427
61.875 16.965712
61.880 17.69318
61.885 17.405022
61.890 17.568092
61.895 16.864412
61.900 16.899525
61.905 16.727579
61.910 16.030886
61.915 15.31817
61.920 15.182602
61.925 15.048026
61.930 15.608715
61.935 15.523093
61.940 15.433454
61.945 15.312078
61.950 15.459306
61.955 15.897225
61.960 16.174778
61.965 16.204754
61.970 16.306318
61.975 16.933153
61.980 16.978615
61.985 17.128637
61.990 16.992992
61.995 16.868589
62.000 16.434092
62.005 16.090239
62.010 15.514156
62.015 15.623435
62.020 15.710726
62.025 15.729592
62.030 15.674138
62.035 16.251314
62.040 16.477972
62.045 16.239578
62.050 16.324726
62.055 16.243401
62.060 16.172546
62.065 15.943888
62.070 15.621263
62.075 15.698994
62.080 16.170897
62.085 15.878481
62.090 16.048416
62.095 16.484655
62.100 16.854715
62.105 17.227995
62.110 17.282213
62.115 17.502108
62.120 17.852654
62.125 17.960993
62.130 18.105991
62.135 18.195623
62.140 17.495529
62.145 17.625608
62.150 17.566088
62.155 17.835289
62.160 17.891432
62.165 17.39447
62.170 16.86945
62.175 17.084269
62.180 17.170748
62.185 17.236017
62.190 16.550371
62.195 16.036345
62.200 16.143532
62.205 16.323317
62.210 16.72366
62.215 16.692442
62.220 16.70191
62.225 16.869732
62.230 16.939119
62.235 16.72802
62.240 16.401503
62.245 16.196756
62.250 15.940016
62.255 15.403269
62.260 15.565562
62.265 15.97625
62.270 16.378517
62.275 16.557671
62.280 15.986802
62.285 15.767672
62.290 16.313923
62.295 15.778498
62.300 15.406191
62.305 15.13764
62.310 15.334181
62.315 15.544593
62.320 15.683965
62.325 15.41303
62.330 15.803987
62.335 15.634238
62.340 15.588177
62.345 16.061562
62.350 16.380079
62.355 16.133507
62.360 16.118282
62.365 16.016146
62.370 16.127901
62.375 15.99474
62.380 15.364955
62.385 15.499618
62.390 16.34787
62.395 16.402893
62.400 16.879396
62.405 17.298681
62.410 17.240282
62.415 17.399277
62.420 17.619843
62.425 17.654322
62.430 17.908421
62.435 17.645046
62.440 16.970896
62.445 18.043385
62.450 18.69504
62.455 18.578222
62.460 18.190659
62.465 18.27198
62.470 18.566057
62.475 18.723972
62.480 17.71806
62.485 17.185947
62.490 16.983845
62.495 16.548571
62.500 16.299505
62.505 15.926718
62.510 16.017912
62.515 15.980327
62.520 15.340851
62.525 14.887222
62.530 14.989413
62.535 14.863131
62.540 14.468612
62.545 14.259471
62.550 15.119124
62.555 15.882111
62.560 16.149313
62.565 15.951571
62.570 16.12431
62.575 16.627777
62.580 16.892969
62.585 16.263405
62.590 15.774537
62.595 15.978034
62.600 16.209099
62.605 15.843174
62.610 15.847013
62.615 15.708259
62.620 16.084249
62.625 16.381443
62.630 16.49239
62.635 17.142017
62.640 17.587608
62.645 17.134514
62.650 17.033903
62.655 16.746355
62.660 16.56856
62.665 16.283356
62.670 15.551118
62.675 15.648027
62.680 16.540199
62.685 16.589973
62.690 16.880219
62.695 17.061211
62.700 17.205709
62.705 17.101255
62.710 16.92988
62.715 16.873425
62.720 17.00971
62.725 16.665558
62.730 16.806583
62.735 17.075071
62.740 17.218063
62.745 17.078697
62.750 16.852011
62.755 16.960815
62.760 17.207397
62.765 17.586027
62.770 17.489431
62.775 17.303896
62.780 17.322353
62.785 17.487438
62.790 17.873285
62.795 18.048731
62.800 17.83783
62.805 18.191868
62.810 18.81595
62.815 18.940229
62.820 19.067692
62.825 19.093216
62.830 19.257721
62.835 19.501877
62.840 19.148397
62.845 18.540636
62.850 18.655003
62.855 18.552305
62.860 18.216576
62.865 17.574923
62.870 17.009708
62.875 16.714373
62.880 16.917286
62.885 16.174526
62.890 15.666919
62.895 15.413405
62.900 15.592186
62.905 16.197849
62.910 16.853956
62.915 16.727299
62.920 17.306959
62.925 17.199163
62.930 16.716986
62.935 16.250059
62.940 15.954504
62.945 15.250097
62.950 15.601786
62.955 16.08786
62.960 16.351171
62.965 17.034235
62.970 17.780422
62.975 17.636236
62.980 17.817831
62.985 17.425415
62.990 17.114794
62.995 17.210339
63.000 17.316336
63.005 16.734318
63.010 16.292971
63.015 16.605339
63.020 16.409056
63.025 15.79815
63.030 15.535686
63.035 15.863146
63.040 16.287157
63.045 17.151276
63.050 17.434071
63.055 18.2717
63.060 18.782801
63.065 19.010008
63.070 18.84313
63.075 18.768175
63.080 18.221426
63.085 18.432236
63.090 18.388136
63.095 18.132166
63.100 18.106024
63.105 18.156202
63.110 18.230667
63.115 18.548178
63.120 17.881428
63.125 17.965361
63.130 18.413458
63.135 18.68185
63.140 18.229197
63.145 17.879477
63.150 17.547621
63.155 17.616459
63.160 17.369558
63.165 17.185778
63.170 16.459368
63.175 16.431791
63.180 16.71888
63.185 16.875591
63.190 16.864029
63.195 16.644238
63.200 16.854456
63.205 17.169722
63.210 17.210873
63.215 17.292435
63.220 17.311337
63.225 17.584114
63.230 17.887249
63.235 18.019754
63.240 18.483414
63.245 18.644724
63.250 18.200464
63.255 18.047871
63.260 17.571012
63.265 17.271095
63.270 16.433807
63.275 16.13974
63.280 16.075457
63.285 16.597692
63.290 16.814705
63.295 17.164967
63.300 17.453205
63.305 18.055994
63.310 18.229765
63.315 18.57225
63.320 18.836548
63.325 18.788689
63.330 18.418005
63.335 17.916874
63.340 17.469645
63.345 17.237358
63.350 16.789703
63.355 16.504627
63.360 16.28886
63.365 16.264666
63.370 16.560345
63.375 17.384861
63.380 17.752577
63.385 17.896437
63.390 17.953697
63.395 18.28187
63.400 18.434275
63.405 17.849134
63.410 16.892284
63.415 16.770559
63.420 16.874594
63.425 17.074549
63.430 17.082943
63.435 16.802868
63.440 16.774515
63.445 16.618883
63.450 16.935398
63.455 16.861986
63.460 16.835089
63.465 16.453308
63.470 16.447819
63.475 17.037748
63.480 17.56251
63.485 17.299494
63.490 16.617796
63.495 16.863802
63.500 17.776873
63.505 18.645174
63.510 19.045441
63.515 19.164343
63.520 19.523308
63.525 20.149382
63.530 19.794636
63.535 19.257229
63.540 18.366505
63.545 17.988935
63.550 17.353897
63.555 16.905382
63.560 16.767929
63.565 16.928175
63.570 16.454191
63.575 16.723591
63.580 16.783276
63.585 17.304865
63.590 18.023479
63.595 18.230427
63.600 18.508253
63.605 19.049593
63.610 19.104691
63.615 19.40065
63.620 19.747808
63.625 19.780359
63.630 19.533821
63.635 19.317987
63.640 19.691401
63.645 20.049788
63.650 20.223871
63.655 19.750027
63.660 19.392694
63.665 19.808798
63.670 20.127705
63.675 20.058397
63.680 19.848846
63.685 20.207865
63.690 20.749329
63.695 20.631739
63.700 20.753387
63.705 21.102308
63.710 20.839561
63.715 20.410339
63.720 19.91655
63.725 19.887365
63.730 20.05072
63.735 19.93339
63.740 19.458975
63.745 19.930248
63.750 20.27729
63.755 19.781776
63.760 19.542332
63.765 19.048155
63.770 18.765675
63.775 18.652603
63.780 18.646751
63.785 18.838631
63.790 18.859426
63.795 19.045774
63.800 20.118608
63.805 19.729914
63.810 19.854271
63.815 20.34269
63.820 20.449226
63.825 21.161673
63.830 21.317661
63.835 21.396395
63.840 22.142981
63.845 22.186646
63.850 21.973261
63.855 21.627216
63.860 20.961105
63.865 20.356342
63.870 19.905964
63.875 20.52515
63.880 20.673307
63.885 20.96217
63.890 21.448715
63.895 21.975216
63.900 22.294468
63.905 22.597645
63.910 22.66226
63.915 23.154388
63.920 22.781652
63.925 22.918446
63.930 23.354374
63.935 23.666912
63.940 24.563738
63.945 25.449495
63.950 26.057732
63.955 27.063408
63.960 27.450932
63.965 27.845917
63.970 28.054892
63.975 27.728046
63.980 27.36557
63.985 27.598278
63.990 27.940054
63.995 28.202448
64.000 28.408611
64.005 28.747519
64.010 28.842428
64.015 29.056841
64.020 29.280865
64.025 29.270329
64.030 28.982882
64.035 29.160398
64.040 29.172785
64.045 29.716408
64.050 29.8834
64.055 29.490423
64.060 29.772358
64.065 30.627428
64.070 30.9524
64.075 31.140661
64.080 31.391216
64.085 31.556559
64.090 31.635015
64.095 31.40362
64.100 30.819111
64.105 30.623079
64.110 30.928213
64.115 31.700014
64.120 33.015682
64.125 34.29636
64.130 35.161575
64.135 35.750771
64.140 36.382732
64.145 36.275043
64.150 35.322182
64.155 34.479805
64.160 33.972485
64.165 34.407909
64.170 34.737972
64.175 34.429474
64.180 34.391525
64.185 34.631401
64.190 35.035347
64.195 35.24836
64.200 35.452621
64.205 35.583126
64.210 36.262894
64.215 37.073967
64.220 37.585945
64.225 38.145298
64.230 38.080601
64.235 37.498245
64.240 37.14098
64.245 36.595692
64.250 35.740952
64.255 36.158672
64.260 36.435738
64.265 35.919445
64.270 35.538601
64.275 35.375385
64.280 36.079563
64.285 36.477535
64.290 35.616459
64.295 34.724865
64.300 35.137897
64.305 35.105545
64.310 35.173119
64.315 34.670956
64.320 34.026585
64.325 34.110638
64.330 33.803139
64.335 33.294334
64.340 33.436592
64.345 33.245171
64.350 33.382187
64.355 33.674419
64.360 33.499203
64.365 34.501007
64.370 35.259792
64.375 35.592537
64.380 36.124634
64.385 36.1469
64.390 35.731419
64.395 35.148216
64.400 33.953472
64.405 32.768261
64.410 32.191311
64.415 31.427818
64.420 30.763584
64.425 30.365599
64.430 29.805367
64.435 29.762444
64.440 30.427906
64.445 30.101553
64.450 30.200686
64.455 30.321796
64.460 30.582693
64.465 30.782764
64.470 30.53124
64.475 31.172174
64.480 31.428383
64.485 31.155931
64.490 31.266155
64.495 31.564131
64.500 30.976046
64.505 30.044064
64.510 27.980345
64.515 27.929089
64.520 27.160229
64.525 26.79936
64.530 25.958549
64.535 25.725449
64.540 25.962278
64.545 26.325283
64.550 25.993172
64.555 26.336479
64.560 26.520823
64.565 26.673815
64.570 27.296883
64.575 27.923147
64.580 27.533043
64.585 27.344828
64.590 26.859777
64.595 25.983286
64.600 25.50176
64.605 24.540648
64.610 23.547075
64.615 23.646643
64.620 23.689604
64.625 23.698967
64.630 23.885334
64.635 24.55859
64.640 24.694147
64.645 25.107559
64.650 25.06175
64.655 25.037991
64.660 24.844156
64.665 24.811953
64.670 24.41098
64.675 24.233278
64.680 23.445824
64.685 22.899858
64.690 22.464355
64.695 22.357195
64.700 22.27845
64.705 22.048401
64.710 21.917969
64.715 22.856163
64.720 22.865349
64.725 22.948797
64.730 23.439491
64.735 23.131428
64.740 22.932491
64.745 22.51387
64.750 22.734013
64.755 23.270319
64.760 23.058432
64.765 22.34034
64.770 22.401865
64.775 22.488478
64.780 22.916658
64.785 22.380129
64.790 22.457697
64.795 22.183268
64.800 22.63129
64.805 23.466797
64.810 23.59869
64.815 23.107773
64.820 22.971201
64.825 22.40078
64.830 23.067036
64.835 23.003239
64.840 22.22489
64.845 22.13484
64.850 22.347639
64.855 22.264996
64.860 22.486511
64.865 21.901697
64.870 21.618301
64.875 21.26597
64.880 20.856558
64.885 20.920296
64.890 21.47263
64.895 21.437355
64.900 21.176687
64.905 21.161348
64.910 22.000891
64.915 22.118288
64.920 21.96089
64.925 21.207155
64.930 21.231613
64.935 21.632036
64.940 21.955322
64.945 22.012096
64.950 21.900898
64.955 21.880848
64.960 22.139273
64.965 22.482704
64.970 22.603455
64.975 22.495205
64.980 22.092772
64.985 22.695408
64.990 22.676691
64.995 22.291428
65.000 21.504923
65.005 20.962158
65.010 20.739952
65.015 20.256121
65.020 19.992884
65.025 20.063799
65.030 20.26948
65.035 21.156494
65.040 21.130642
65.045 21.150038
65.050 21.137642
65.055 21.122297
65.060 21.228563
65.065 21.243406
65.070 21.17024
65.075 21.479607
65.080 21.385277
65.085 21.589811
65.090 21.744707
65.095 22.195415
65.100 22.038942
65.105 21.672916
65.110 21.672625
65.115 21.946596
65.120 21.967957
65.125 21.873783
65.130 21.860008
65.135 21.295467
65.140 21.371323
65.145 21.238373
65.150 21.372742
65.155 21.652378
65.160 21.504805
65.165 20.76688
65.170 21.142872
65.175 21.108622
65.180 20.979431
65.185 20.697144
65.190 20.07016
65.195 19.912409
65.200 20.647539
65.205 20.310789
65.210 20.562462
65.215 20.906416
65.220 20.635235
65.225 21.472603
65.230 21.412149
65.235 20.628908
65.240 20.911453
65.245 20.600119
65.250 20.759325
65.255 20.602169
65.260 19.999403
65.265 19.574448
65.270 20.120033
65.275 21.085833
65.280 21.037498
65.285 21.052685
65.290 21.100382
65.295 21.096695
65.300 21.912703
65.305 21.655083
65.310 20.947916
65.315 20.499121
65.320 20.349926
65.325 20.888567
65.330 20.97537
65.335 20.350044
65.340 20.420528
65.345 20.431423
65.350 20.819048
65.355 20.958014
65.360 20.943886
65.365 21.733286
65.370 22.215387
65.375 22.853886
65.380 22.719995
65.385 22.36154
65.390 21.941248
65.395 21.945803
65.400 21.525564
65.405 21.634871
65.410 21.380453
65.415 21.637888
65.420 22.123995
65.425 22.264975
65.430 22.314419
65.435 22.666351
65.440 23.216587
65.445 23.503859
65.450 23.604639
65.455 23.651585
65.460 24.0418
65.465 24.309874
65.470 24.098368
65.475 23.43716
65.480 23.005632
65.485 22.798676
65.490 23.039804
65.495 22.775139
65.500 22.049982
65.505 21.766806
65.510 22.667894
65.515 23.628204
65.520 24.375254
65.525 24.439602
65.530 25.109745
65.535 25.943029
65.540 27.148415
65.545 26.932171
65.550 26.987886
65.555 27.34314
65.560 27.487444
65.565 27.207573
65.570 27.146582
65.575 26.993196
65.580 27.959316
65.585 28.524857
65.590 28.830297
65.595 29.455902
65.600 30.323639
65.605 31.386967
65.610 31.247982
65.615 31.216923
65.620 31.431608
65.625 30.798182
65.630 30.827435
65.635 30.690149
65.640 30.136438
65.645 30.980232
65.650 31.081646
65.655 31.467159
65.660 32.354321
65.665 32.499252
65.670 32.282898
65.675 32.826004
65.680 32.531132
65.685 32.480278
65.690 32.107567
65.695 31.660816
65.700 31.669636
65.705 32.221687
65.710 32.043056
65.715 31.915756
65.720 31.748844
65.725 31.535408
65.730 31.622726
65.735 31.985519
65.740 31.747288
65.745 31.983109
65.750 33.084595
65.755 34.113731
65.760 35.142258
65.765 36.064362
65.770 36.494232
65.775 36.52314
65.780 36.336769
65.785 35.776531
65.790 35.184502
65.795 34.365547
65.800 33.884392
65.805 33.672688
65.810 33.655319
65.815 33.925976
65.820 34.58963
65.825 34.346581
65.830 35.203815
65.835 35.414394
65.840 35.205902
65.845 35.425247
65.850 35.98016
65.855 36.377365
65.860 36.300457
65.865 35.905262
65.870 35.80825
65.875 35.85461
65.880 36.053154
65.885 36.293182
65.890 36.105309
65.895 36.699593
65.900 36.956913
65.905 37.050896
65.910 37.55191
65.915 37.185413
65.920 36.03194
65.925 36.660511
65.930 37.434837
65.935 38.305241
65.940 38.8927
65.945 39.048332
65.950 39.027756
65.955 40.063499
65.960 40.155895
65.965 39.986774
65.970 40.714882
65.975 40.709225
65.980 40.470848
65.985 40.719067
65.990 39.407078
65.995 38.330482
66.000 37.657009
66.005 35.669331
66.010 35.146095
66.015 35.456669
66.020 35.33506
66.025 35.902264
66.030 36.049145
66.035 36.531086
66.040 37.625828
66.045 38.053509
66.050 38.40382
66.055 37.782799
66.060 37.521461
66.065 38.04295
66.070 38.222408
66.075 38.460495
66.080 38.560726
66.085 38.402573
66.090 38.71254
66.095 39.345531
66.100 39.426689
66.105 38.470509
66.110 37.751366
66.115 37.355202
66.120 36.991184
66.125 37.203346
66.130 36.083035
66.135 34.482197
66.140 34.174496
66.145 33.83559
66.150 33.292419
66.155 32.677299
66.160 32.365173
66.165 32.712471
66.170 33.856304
66.175 34.459465
66.180 34.09185
66.185 33.478718
66.190 33.437813
66.195 33.130787
66.200 33.016647
66.205 31.761103
66.210 31.366085
66.215 31.672735
66.220 32.76236
66.225 32.89983
66.230 32.978104
66.235 32.595669
66.240 32.846355
66.245 32.640156
66.250 32.636734
66.255 31.853127
66.260 31.431717
66.265 31.65995
66.270 32.242138
66.275 31.980663
66.280 31.623457
66.285 31.869799
66.290 31.857178
66.295 31.71949
66.300 30.677103
66.305 30.314812
66.310 30.249912
66.315 29.834078
66.320 29.26466
66.325 29.407932
66.330 29.419027
66.335 29.70792
66.340 28.833214
66.345 28.336905
66.350 27.856215
66.355 27.31529
66.360 27.233879
66.365 27.141254
66.370 26.849043
66.375 27.444674
66.380 27.541958
66.385 27.775309
66.390 27.84376
66.395 27.244211
66.400 26.988527
66.405 26.544876
66.410 26.237425
66.415 25.96187
66.420 25.794535
66.425 25.99157
66.430 26.249262
66.435 26.589336
66.440 27.211452
66.445 26.406258
66.450 26.260723
66.455 25.80311
66.460 25.535864
66.465 25.292482
66.470 25.293776
66.475 24.821392
66.480 24.884396
66.485 24.730633
66.490 24.60103
66.495 23.910667
66.500 23.728605
66.505 23.66361
66.510 23.492178
66.515 23.15164
66.520 23.110126
66.525 23.306393
66.530 23.703936
66.535 23.236902
66.540 22.400434
66.545 22.373226
66.550 22.484646
66.555 22.727661
66.560 22.967579
66.565 23.223522
66.570 23.314692
66.575 23.316404
66.580 22.793146
66.585 22.711933
66.590 22.333956
66.595 21.922194
66.600 21.410027
66.605 21.403334
66.610 21.61202
66.615 21.410957
66.620 21.277187
66.625 21.709484
66.630 20.912531
66.635 20.589352
66.640 20.563236
66.645 20.56181
66.650 20.428471
66.655 19.262005
66.660 17.979927
66.665 18.271439
66.670 18.333033
66.675 17.607668
66.680 17.147144
66.685 17.648594
66.690 18.158234
66.695 18.164158
66.700 17.825739
66.705 18.241505
66.710 19.045742
66.715 19.184633
66.720 19.522461
66.725 20.06846
66.730 20.444712
66.735 20.267756
66.740 19.740307
66.745 19.518137
66.750 19.543327
66.755 19.134405
66.760 19.151409
66.765 19.477789
66.770 20.238373
66.775 20.333416
66.780 19.957432
66.785 19.79356
66.790 19.532207
66.795 19.693218
66.800 19.40127
66.805 19.194347
66.810 19.200182
66.815 19.002001
66.820 18.739189
66.825 19.243282
66.830 19.258018
66.835 18.910997
66.840 18.880236
66.845 18.806948
66.850 19.291496
66.855 19.149357
66.860 19.032482
66.865 18.669409
66.870 18.586479
66.875 18.141531
66.880 18.069378
66.885 18.120893
66.890 18.179871
66.895 18.091686
66.900 17.819183
66.905 17.896305
66.910 17.703562
66.915 17.767269
66.920 17.330633
66.925 17.19606
66.930 16.605087
66.935 16.684614
66.940 17.027754
66.945 17.724661
66.950 18.230259
66.955 18.725517
66.960 18.86722
66.965 19.247904
66.970 19.403345
66.975 19.49741
66.980 19.048697
66.985 19.357906
66.990 20.085417
66.995 20.105188
67.000 19.520958
67.005 19.465696
67.010 19.313467
67.015 19.856359
67.020 19.564907
67.025 19.052849
67.030 19.574162
67.035 20.248043
67.040 19.995794
67.045 19.559408
67.050 19.111471
67.055 18.756557
67.060 18.830509
67.065 18.80777
67.070 18.866508
67.075 19.542166
67.080 19.739429
67.085 19.376583
67.090 19.295923
67.095 18.937468
67.100 18.707331
67.105 18.503624
67.110 17.69289
67.115 17.762796
67.120 17.849705
67.125 17.596359
67.130 17.477243
67.135 17.591536
67.140 17.630032
67.145 18.064604
67.150 18.109053
67.155 17.820127
67.160 17.721865
67.165 17.750134
67.170 17.792566
67.175 17.334328
67.180 17.37512
67.185 18.021536
67.190 18.783506
67.195 19.181082
67.200 18.747335
67.205 18.821327
67.210 19.134186
67.215 19.063774
67.220 19.110092
67.225 19.054947
67.230 19.405581
67.235 19.204756
67.240 19.766275
67.245 20.271553
67.250 19.967552
67.255 19.597216
67.260 19.252483
67.265 19.022396
67.270 19.185959
67.275 18.423487
67.280 17.597614
67.285 17.376438
67.290 17.024954
67.295 16.52742
67.300 16.904821
67.305 17.161278
67.310 17.314112
67.315 18.122189
67.320 18.673759
67.325 18.576471
67.330 18.81872
67.335 18.643337
67.340 18.154165
67.345 18.170965
67.350 18.034643
67.355 17.737753
67.360 18.083284
67.365 17.980473
67.370 17.681036
67.375 18.413975
67.380 18.285492
67.385 17.881479
67.390 17.918633
67.395 17.757643
67.400 18.141747
67.405 18.310184
67.410 18.143839
67.415 18.285877
67.420 18.196447
67.425 17.993464
67.430 18.182463
67.435 17.944754
67.440 17.914745
67.445 18.102554
67.450 18.274521
67.455 18.318565
67.460 17.715467
67.465 17.709229
67.470 17.459747
67.475 17.29373
67.480 17.50363
67.485 18.297247
67.490 18.9063
67.495 19.714258
67.500 19.868763
67.505 19.95117
67.510 20.024086
67.515 19.462534
67.520 18.855293
67.525 18.346685
67.530 17.978666
67.535 17.933172
67.540 18.166767
67.545 18.030523
67.550 17.973265
67.555 18.346968
67.560 18.650562
67.565 18.79903
67.570 18.831392
67.575 18.662699
67.580 18.800255
67.585 19.424284
67.590 19.595325
67.595 19.629866
67.600 19.292873
67.605 19.377396
67.610 19.720755
67.615 19.027412
67.620 18.556149
67.625 18.129364
67.630 18.087986
67.635 18.734777
67.640 18.526146
67.645 18.385166
67.650 19.162743
67.655 19.548283
67.660 20.115946
67.665 20.472988
67.670 20.784899
67.675 20.844673
67.680 20.781462
67.685 20.284771
67.690 19.523987
67.695 19.16711
67.700 19.247541
67.705 19.107298
67.710 19.709221
67.715 20.078972
67.720 20.153984
67.725 19.409569
67.730 19.249495
67.735 19.123854
67.740 18.436575
67.745 18.641085
67.750 18.388954
67.755 18.298935
67.760 18.736174
67.765 18.654926
67.770 18.279093
67.775 18.307526
67.780 18.3445
67.785 18.399477
67.790 18.938589
67.795 18.428726
67.800 18.481199
67.805 18.340092
67.810 17.68111
67.815 16.871046
67.820 16.537468
67.825 16.413685
67.830 17.173397
67.835 17.159063
67.840 17.176607
67.845 17.341257
67.850 17.616032
67.855 17.8305
67.860 17.703575
67.865 17.293011
67.870 17.518267
67.875 17.944025
67.880 18.188942
67.885 18.334785
67.890 18.607492
67.895 18.571213
67.900 18.211107
67.905 18.049051
67.910 18.034897
67.915 18.27158
67.920 18.454321
67.925 18.371323
67.930 18.840204
67.935 19.055441
67.940 19.082363
67.945 18.754341
67.950 18.706436
67.955 18.085966
67.960 17.512268
67.965 17.434185
67.970 17.940371
67.975 17.869095
67.980 17.896694
67.985 18.005112
67.990 18.666494
67.995 19.168348
68.000 18.832575
68.005 18.43013
68.010 18.369431
68.015 18.227758
68.020 18.195663
68.025 17.980179
68.030 17.818247
68.035 18.358559
68.040 19.077358
68.045 19.022861
68.050 19.297928
68.055 19.151819
68.060 19.448351
68.065 19.684902
68.070 19.443493
68.075 19.319347
68.080 19.410097
68.085 19.288351
68.090 19.63615
68.095 20.636988
68.100 20.815638
68.105 20.651724
68.110 20.61068
68.115 20.945005
68.120 21.394991
68.125 20.761009
68.130 19.942606
68.135 19.88048
68.140 19.848362
68.145 20.078413
68.150 20.194344
68.155 20.10499
68.160 19.954502
68.165 19.771748
68.170 19.954176
68.175 19.699404
68.180 19.639725
68.185 19.649279
68.190 19.926764
68.195 20.19038
68.200 19.981253
68.205 19.60191
68.210 19.495361
68.215 19.247469
68.220 19.086985
68.225 18.7824
68.230 18.674124
68.235 19.471066
68.240 19.917238
68.245 19.987219
68.250 20.53134
68.255 20.392929
68.260 20.728609
68.265 20.961758
68.270 20.700468
68.275 20.823046
68.280 21.405554
68.285 22.13751
68.290 22.597017
68.295 21.495256
68.300 20.91889
68.305 20.562353
68.310 20.350983
68.315 19.161705
68.320 17.737799
68.325 17.092764
68.330 18.006397
68.335 18.071835
68.340 17.527536
68.345 17.547314
68.350 17.883987
68.355 18.157864
68.360 18.309202
68.365 18.288586
68.370 18.859528
68.375 19.396168
68.380 19.356447
68.385 20.020864
68.390 19.965294
68.395 19.946493
68.400 19.700123
68.405 19.541042
68.410 19.566889
68.415 19.953798
68.420 19.704103
68.425 20.141207
68.430 19.899435
68.435 19.898685
68.440 19.748941
68.445 19.814508
68.450 19.886303
68.455 20.115112
68.460 19.793827
68.465 20.28714
68.470 20.453403
68.475 20.250843
68.480 19.937145
68.485 20.528709
68.490 21.025383
68.495 21.378391
68.500 20.846697
68.505 20.919189
68.510 20.887802
68.515 20.786961
68.520 19.693623
68.525 19.401567
68.530 19.822147
68.535 20.026899
68.540 19.800894
68.545 19.798782
68.550 19.885252
68.555 19.903666
68.560 19.897457
68.565 19.281237
68.570 19.132504
68.575 19.213551
68.580 19.151268
68.585 18.800619
68.590 19.373476
68.595 19.75898
68.600 20.282751
68.605 20.816263
68.610 21.143503
68.615 21.466846
68.620 21.685692
68.625 21.170988
68.630 21.121622
68.635 21.312458
68.640 21.13916
68.645 21.616102
68.650 22.125671
68.655 23.042864
68.660 23.080629
68.665 23.05072
68.670 22.968693
68.675 22.625071
68.680 22.259867
68.685 22.366409
68.690 22.39584
68.695 22.430252
68.700 22.788828
68.705 23.300142
68.710 23.408981
68.715 23.253628
68.720 22.930014
68.725 22.592798
68.730 22.485651
68.735 22.088959
68.740 22.895264
68.745 23.045269
68.750 23.259054
68.755 22.755798
68.760 22.623941
68.765 22.973076
68.770 23.241163
68.775 22.755365
68.780 23.202013
68.785 23.208626
68.790 24.412323
68.795 25.388535
68.800 25.789347
68.805 26.346989
68.810 26.653938
68.815 26.514198
68.820 26.919369
68.825 26.507454
68.830 26.841194
68.835 27.377449
68.840 27.508318
68.845 27.802626
68.850 28.756126
68.855 28.961559
68.860 29.596832
68.865 29.120991
68.870 29.183817
68.875 29.628124
68.880 29.793816
68.885 29.137817
68.890 28.871349
68.895 28.364079
68.900 29.170195
68.905 29.169065
68.910 29.150511
68.915 29.25407
68.920 29.610804
68.925 29.8972
68.930 30.183035
68.935 30.401527
68.940 30.167837
68.945 29.90564
68.950 29.69636
68.955 30.157106
68.960 30.545031
68.965 30.952869
68.970 30.4249
68.975 30.618345
68.980 31.345715
68.985 32.078522
68.990 32.839924
68.995 32.667698
69.000 32.974144
69.005 32.943016
69.010 32.699219
69.015 33.022743
69.020 33.002949
69.025 32.958767
69.030 32.861595
69.035 32.143753
69.040 32.538654
69.045 32.672581
69.050 32.501202
69.055 32.216068
69.060 31.579298
69.065 32.144638
69.070 32.610558
69.075 32.440228
69.080 32.023628
69.085 31.684332
69.090 32.367851
69.095 32.483482
69.100 32.004093
69.105 33.631618
69.110 34.375202
69.115 35.046867
69.120 35.279804
69.125 34.528065
69.130 34.54097
69.135 34.870899
69.140 34.535393
69.145 35.103493
69.150 34.107483
69.155 34.362194
69.160 34.646976
69.165 35.009014
69.170 34.272377
69.175 33.356194
69.180 33.332111
69.185 34.617889
69.190 34.927586
69.195 35.145397
69.200 35.215763
69.205 34.471565
69.210 34.8176
69.215 35.158592
69.220 34.751221
69.225 33.753323
69.230 33.167027
69.235 33.327984
69.240 33.378056
69.245 32.370884
69.250 31.742208
69.255 31.880304
69.260 32.605297
69.265 32.500065
69.270 32.44698
69.275 33.10458
69.280 32.973606
69.285 33.420063
69.290 33.972561
69.295 33.5835
69.300 33.480965
69.305 33.489349
69.310 33.764347
69.315 33.893948
69.320 32.367386
69.325 31.905884
69.330 31.498926
69.335 31.811108
69.340 32.358337
69.345 32.307659
69.350 32.292984
69.355 32.61937
69.360 32.154369
69.365 33.006924
69.370 33.203823
69.375 32.664173
69.380 32.140553
69.385 31.946692
69.390 31.842613
69.395 32.1073
69.400 31.819683
69.405 30.845688
69.410 30.905794
69.415 30.720568
69.420 29.75561
69.425 29.695745
69.430 29.536793
69.435 29.328213
69.440 29.670553
69.445 29.902487
69.450 30.253027
69.455 30.754431
69.460 30.824619
69.465 30.329931
69.470 30.144217
69.475 30.296799
69.480 29.824234
69.485 29.414251
69.490 28.885384
69.495 29.080822
69.500 28.795031
69.505 28.701073
69.510 28.447102
69.515 28.633514
69.520 27.745642
69.525 27.470499
69.530 27.171577
69.535 27.492222
69.540 27.054827
69.545 26.620897
69.550 26.200134
69.555 26.220451
69.560 25.589825
69.565 25.530462
69.570 25.657658
69.575 25.105085
69.580 24.797003
69.585 24.736572
69.590 25.590578
69.595 25.958849
69.600 25.012424
69.605 24.944143
69.610 24.86544
69.615 25.314493
69.620 25.294071
69.625 24.827827
69.630 24.256063
69.635 24.465424
69.640 24.437525
69.645 24.540318
69.650 23.985682
69.655 24.096928
69.660 23.976835
69.665 24.165134
69.670 24.45751
69.675 24.291279
69.680 24.23794
69.685 23.508924
69.690 22.933691
69.695 23.099863
69.700 23.088142
69.705 22.800091
69.710 22.440939
69.715 22.473467
69.720 22.12043
69.725 21.821716
69.730 21.724436
69.735 21.515539
69.740 20.98221
69.745 21.434837
69.750 21.367035
69.755 22.249487
69.760 22.076313
69.765 21.663599
69.770 21.62833
69.775 21.589613
69.780 20.787771
69.785 20.625456
69.790 20.266794
69.795 20.051172
69.800 20.47529
69.805 20.079313
69.810 20.353025
69.815 21.410967
69.820 21.724602
69.825 22.078192
69.830 22.543537
69.835 22.632626
69.840 23.006002
69.845 23.129366
69.850 22.916248
69.855 22.394655
69.860 21.58778
69.865 21.536528
69.870 21.561289
69.875 21.404236
69.880 21.078211
69.885 20.460691
69.890 20.437998
69.895 20.480225
69.900 20.752792
69.905 20.963163
69.910 20.767895
69.915 20.035566
69.920 20.256437
69.925 19.896156
69.930 19.224749
69.935 18.297134
69.940 18.281891
69.945 18.267563
69.950 18.949129
69.955 19.771185
69.960 20.33349
69.965 20.146687
69.970 20.067896
69.975 19.851192
69.980 19.986387
69.985 19.768745
69.990 19.287483
69.995 19.176756
70.000 18.962976
70.005 18.565607
70.010 18.684965
70.015 19.235132
70.020 19.411489
70.025 19.88695
70.030 19.64422
70.035 20.16823
70.040 20.186546
70.045 20.110731
70.050 19.731081
70.055 19.12611
70.060 18.784275
70.065 19.124273
70.070 19.003477
70.075 19.313601
70.080 18.730871
70.085 17.984434
70.090 17.862223
70.095 17.823025
70.100 17.798971
70.105 17.566557
70.110 17.847748
70.115 18.464596
70.120 18.840073
70.125 19.103441
70.130 19.271765
70.135 19.616812
70.140 19.597773
70.145 19.340794
70.150 19.653696
70.155 19.994431
70.160 19.752802
70.165 19.389069
70.170 19.423708
70.175 20.120735
70.180 19.765682
70.185 18.999887
70.190 18.78764
70.195 18.858694
70.200 19.073547
70.205 18.850189
70.210 18.46139
70.215 18.945103
70.220 19.237923
70.225 18.871067
70.230 19.222404
70.235 19.267372
70.240 19.007635
70.245 19.024166
70.250 18.708948
70.255 18.240011
70.260 18.530046
70.265 18.358955
70.270 17.54866
70.275 17.525074
70.280 17.57272
70.285 17.644949
70.290 17.837395
70.295 17.772459
70.300 18.051264
70.305 18.657759
70.310 19.16996
70.315 19.115932
70.320 19.478821
70.325 19.588503
70.330 19.014023
70.335 18.952812
70.340 18.783453
70.345 18.396723
70.350 17.552616
70.355 16.881987
70.360 16.920372
70.365 17.437382
70.370 17.081596
70.375 16.687296
70.380 16.4422
70.385 17.395124
70.390 17.717142
70.395 18.229868
70.400 18.255077
70.405 18.288118
70.410 18.976662
70.415 18.945919
70.420 18.804588
70.425 18.270041
70.430 17.967876
70.435 17.999945
70.440 18.111065
70.445 17.296894
70.450 17.035755
70.455 16.596699
70.460 16.612652
70.465 16.762365
70.470 16.892179
70.475 16.957819
70.480 17.352179
70.485 17.872534
70.490 18.12388
70.495 18.290094
70.500 18.168474
70.505 17.862644
70.510 17.809883
70.515 17.706961
70.520 17.476164
70.525 17.449682
70.530 18.029936
70.535 17.859753
70.540 17.76228
70.545 18.029942
70.550 18.473864
70.555 18.876898
70.560 18.761845
70.565 17.934967
70.570 18.145144
70.575 18.426031
70.580 18.579735
70.585 18.151234
70.590 18.146076
70.595 18.555838
70.600 18.815863
70.605 19.231621
70.610 19.53813
70.615 19.401999
70.620 19.275051
70.625 19.245697
70.630 18.521784
70.635 19.086571
70.640 18.201721
70.645 17.742744
70.650 17.802706
70.655 18.12413
70.660 18.656925
70.665 18.993361
70.670 18.938391
70.675 19.338089
70.680 19.210796
70.685 19.136934
70.690 19.075451
70.695 18.763605
70.700 18.183544
70.705 17.792492
70.710 17.956244
70.715 18.162909
70.720 18.727343
70.725 19.168638
70.730 18.822641
70.735 18.595261
70.740 18.438587
70.745 18.252256
70.750 18.217016
70.755 17.939459
70.760 17.618694
70.765 17.56216
70.770 17.954952
70.775 18.223881
70.780 18.096373
70.785 17.469193
70.790 16.827002
70.795 16.594408
70.800 16.510977
70.805 16.824865
70.810 17.541504
70.815 17.898979
70.820 18.79952
70.825 18.718496
70.830 19.446167
70.835 20.164433
70.840 19.977869
70.845 19.379417
70.850 19.773872
70.855 19.639061
70.860 19.477409
70.865 18.868355
70.870 18.184772
70.875 18.193609
70.880 17.553709
70.885 16.508276
70.890 15.790569
70.895 15.746439
70.900 16.035681
70.905 16.29991
70.910 16.250811
70.915 16.831635
70.920 17.329336
70.925 17.293671
70.930 17.375414
70.935 17.176073
70.940 16.770985
70.945 16.954899
70.950 16.881071
70.955 17.525312
70.960 17.862896
70.965 17.599197
70.970 17.946917
70.975 17.794048
70.980 17.147476
70.985 16.907227
70.990 16.866955
70.995 16.322515
71.000 16.281881
71.005 16.405045
71.010 16.884441
71.015 17.353052
71.020 17.274019
71.025 17.159981
71.030 17.614389
71.035 17.922161
71.040 17.828041
71.045 17.587233
71.050 17.248667
71.055 17.404495
71.060 18.037033
71.065 18.192844
71.070 18.115643
71.075 17.996063
71.080 18.451067
71.085 18.514259
71.090 18.629837
71.095 18.621637
71.100 18.827963
71.105 18.786236
71.110 18.478628
71.115 18.416101
71.120 18.599922
71.125 18.189175
71.130 17.983469
71.135 17.978346
71.140 18.28248
71.145 18.47777
71.150 18.624979
71.155 18.746639
71.160 18.963997
71.165 19.140179
71.170 19.261164
71.175 18.855482
71.180 18.091253
71.185 17.573128
71.190 17.316906
71.195 17.529608
71.200 17.446901
71.205 17.265455
71.210 17.570631
71.215 18.091831
71.220 18.345963
71.225 18.359932
71.230 17.882206
71.235 17.716373
71.240 17.071533
71.245 17.022457
71.250 17.034981
71.255 16.859247
71.260 17.054405
71.265 16.973343
71.270 16.882399
71.275 17.373062
71.280 17.252562
71.285 17.228497
71.290 17.731144
71.295 18.152483
71.300 18.067368
71.305 18.69898
71.310 18.818218
71.315 19.346827
71.320 18.723429
71.325 18.398008
71.330 18.234577
71.335 18.566084
71.340 18.049549
71.345 18.198587
71.350 18.094603
71.355 18.32958
71.360 18.442348
71.365 17.739624
71.370 18.058405
71.375 18.705906
71.380 18.525404
71.385 18.459776
71.390 18.45962
71.395 18.443333
71.400 18.981344
71.405 18.982643
71.410 18.251301
71.415 18.160397
71.420 17.691757
71.425 17.829927
71.430 17.779846
71.435 17.47068
71.440 17.549204
71.445 17.557575
71.450 17.805777
71.455 18.064919
71.460 17.699417
71.465 17.474649
71.470 17.394825
71.475 17.656898
71.480 18.119461
71.485 18.206396
71.490 18.464643
71.495 18.935743
71.500 18.808968
71.505 18.698885
71.510 18.707605
71.515 18.130833
71.520 17.842379
71.525 17.069353
71.530 16.861628
71.535 16.81802
71.540 16.669817
71.545 16.199274
71.550 16.250065
71.555 16.539328
71.560 16.605877
71.565 16.799122
71.570 17.07921
71.575 17.528267
71.580 18.191343
71.585 18.698254
71.590 19.107313
71.595 19.486719
71.600 19.668718
71.605 19.644939
71.610 19.692223
71.615 19.592766
71.620 20.014799
71.625 19.905586
71.630 19.891455
71.635 19.684917
71.640 19.727076
71.645 19.358812
71.650 18.577415
71.655 18.282864
71.660 18.159189
71.665 17.764412
71.670 17.715981
71.675 17.868065
71.680 18.087059
71.685 18.444124
71.690 18.297989
71.695 18.267851
71.700 18.060606
71.705 17.7036
71.710 17.762655
71.715 17.621553
71.720 17.745811
71.725 17.437092
71.730 17.82016
71.735 18.027563
71.740 18.19803
71.745 18.333755
71.750 18.474207
71.755 18.640764
71.760 18.830454
71.765 18.421968
71.770 18.716068
71.775 18.303751
71.780 17.941128
71.785 17.698954
71.790 17.420746
71.795 17.934195
71.800 18.465004
71.805 18.676123
71.810 18.365114
71.815 18.304155
71.820 18.84569
71.825 18.837648
71.830 18.305702
71.835 17.581903
71.840 17.595249
71.845 17.9842
71.850 17.82641
71.855 17.797722
71.860 17.857248
71.865 17.954102
71.870 17.928043
71.875 18.269091
71.880 17.743423
71.885 17.560904
71.890 16.833464
71.895 16.901022
71.900 16.705984
71.905 16.578857
71.910 16.363176
71.915 16.765955
71.920 16.795719
71.925 17.279104
71.930 17.305061
71.935 17.675821
71.940 18.045465
71.945 18.404449
71.950 18.655262
71.955 18.214216
71.960 17.681509
71.965 18.024622
71.970 18.051531
71.975 17.642807
71.980 17.724049
71.985 18.215935
71.990 18.972422
71.995 19.113338
72.000 19.123877
72.005 19.949291
72.010 19.808617
72.015 19.463078
72.020 18.682762
72.025 18.525023
72.030 18.720512
72.035 18.235956
72.040 17.331902
72.045 17.192713
72.050 17.546072
72.055 17.751909
72.060 17.868587
72.065 17.57971
72.070 17.204184
72.075 17.186724
72.080 17.681417
72.085 17.654205
72.090 17.835844
72.095 17.581165
72.100 17.771318
72.105 18.426069
72.110 18.32649
72.115 18.105968
72.120 18.341064
72.125 17.86569
72.130 17.578516
72.135 17.775631
72.140 17.427586
72.145 17.786573
72.150 17.634985
72.155 17.172358
72.160 16.952284
72.165 16.882544
72.170 16.699015
72.175 17.220592
72.180 17.036016
72.185 17.001783
72.190 17.377544
72.195 17.742075
72.200 18.448959
72.205 18.077393
72.210 17.70141
72.215 17.384836
72.220 16.926208
72.225 16.866678
72.230 17.075565
72.235 17.29977
72.240 17.286701
72.245 17.393219
72.250 17.103395
72.255 17.419891
72.260 17.15634
72.265 16.914425
72.270 17.477272
72.275 17.947088
72.280 18.299963
72.285 18.133665
72.290 18.095238
72.295 18.027142
72.300 17.494234
72.305 16.871445
72.310 16.768736
72.315 16.593222
72.320 17.018225
72.325 16.769135
72.330 17.199148
72.335 17.552692
72.340 17.570469
72.345 17.462929
72.350 18.190456
72.355 18.498529
72.360 18.762032
72.365 19.122572
72.370 19.097692
72.375 18.813133
72.380 18.677628
72.385 17.856266
72.390 17.279602
72.395 16.861862
72.400 15.89602
72.405 16.384058
72.410 16.68862
72.415 16.528624
72.420 16.725424
72.425 17.017834
72.430 17.289848
72.435 17.226175
72.440 16.437981
72.445 16.641228
72.450 17.042648
72.455 17.558815
72.460 17.342049
72.465 17.700451
72.470 18.362751
72.475 18.588766
72.480 18.517189
72.485 18.210529
72.490 18.075863
72.495 17.871897
72.500 17.583511
72.505 17.270037
72.510 17.144896
72.515 17.215845
72.520 16.888411
72.525 16.61904
72.530 16.578537
72.535 16.373533
72.540 16.484325
72.545 16.387682
72.550 16.55917
72.555 17.334198
72.560 17.790285
72.565 17.35396
72.570 17.644081
72.575 17.623466
72.580 18.009968
72.585 18.362307
72.590 18.331427
72.595 18.175121
72.600 18.086655
72.605 17.506052
72.610 17.537146
72.615 16.734169
72.620 16.330549
72.625 16.215164
72.630 16.457018
72.635 17.201174
72.640 17.33136
72.645 17.398584
72.650 17.830465
72.655 17.642466
72.660 17.751389
72.665 17.943899
72.670 17.968918
72.675 17.610943
72.680 17.08473
72.685 16.491344
72.690 16.05899
72.695 16.197443
72.700 16.21188
72.705 16.075876
72.710 16.239027
72.715 16.174889
72.720 16.276554
72.725 16.177174
72.730 16.178892
72.735 15.980853
72.740 15.687836
72.745 15.911875
72.750 16.277302
72.755 16.392498
72.760 16.40201
72.765 15.727574
72.770 16.008724
72.775 16.705729
72.780 16.598646
72.785 16.361803
72.790 16.120674
72.795 16.321665
72.800 16.918175
72.805 17.103523
72.810 16.715521
72.815 16.587776
72.820 16.773577
72.825 17.198366
72.830 16.685961
72.835 16.0958
72.840 15.844499
72.845 15.707101
72.850 15.90741
72.855 15.526487
72.860 15.780005
72.865 15.401225
72.870 15.925787
72.875 16.228443
72.880 16.434196
72.885 16.467352
72.890 16.410049
72.895 16.350719
72.900 15.915151
72.905 15.416635
72.910 16.05024
72.915 16.631199
72.920 17.270746
72.925 17.108997
72.930 17.476421
72.935 17.735901
72.940 17.472849
72.945 16.614128
72.950 15.933393
72.955 16.163191
72.960 16.036367
72.965 16.60684
72.970 16.305674
72.975 16.088945
72.980 16.211937
72.985 16.498205
72.990 16.607727
72.995 16.949802
73.000 16.586777
