!@!!GADDS PLOTSO FILE: Chi integration type
!@!!Title/SampleName: map-69
!@!!Comment: ?
!@!!User: Bruker Instrument Administrator
!@!!Site: University of Illinois Chicago
!@!!Frame: map-69_01_000.gfrm
!@!!Wavelengths    1.54184   1.54056   1.54439
!@!!Frame angles: 2Theta: 63.000 Omega: 50.000 Phi: 0.000 Chi: 90.000
!@!!Integration range: 2Theta: 53.000 to 73.000  Gamma: -105.000 to -75.000
!@!!Integration method: bin normalized
!@!N
!@!SS
!@!M
!@!L 0.0 0.0 0.0 0.0
!@!XDegrees
!@!YCounts
53.000 7.975286
53.005 8.705745
53.010 9.335835
53.015 9.840904
53.020 9.719631
53.025 9.465442
53.030 9.274891
53.035 9.472727
53.040 9.14097
53.045 8.62084
53.050 8.734049
53.055 8.860465
53.060 9.006206
53.065 9.147267
53.070 9.056718
53.075 8.800961
53.080 8.791419
53.085 8.293036
53.090 8.16569
53.095 8.579676
53.100 8.569677
53.105 8.797436
53.110 9.160401
53.115 9.30823
53.120 9.821552
53.125 9.954563
53.130 9.634504
53.135 9.533538
53.140 9.570126
53.145 9.392954
53.150 9.755299
53.155 9.744063
53.160 9.543489
53.165 9.348486
53.170 9.234123
53.175 8.980418
53.180 8.849147
53.185 9.115962
53.190 8.863051
53.195 9.294414
53.200 9.584045
53.205 9.935591
53.210 9.73359
53.215 9.544764
53.220 9.087301
53.225 9.322153
53.230 9.460946
53.235 8.862776
53.240 8.48444
53.245 8.668588
53.250 8.716067
53.255 8.661289
53.260 8.1151
53.265 7.645997
53.270 7.523899
53.275 7.836906
53.280 7.760171
53.285 7.762524
53.290 7.373462
53.295 7.526233
53.300 8.076497
53.305 8.555089
53.310 8.669498
53.315 8.168551
53.320 8.36744
53.325 8.707728
53.330 8.749474
53.335 8.839535
53.340 8.646758
53.345 8.78056
53.350 8.776421
53.355 8.396975
53.360 8.435987
53.365 8.802713
53.370 8.847556
53.375 8.480009
53.380 8.392747
53.385 8.679488
53.390 9.665009
53.395 9.941894
53.400 9.512291
53.405 9.897154
53.410 10.487585
53.415 10.915369
53.420 11.128169
53.425 10.735342
53.430 10.93463
53.435 10.827148
53.440 10.640494
53.445 10.550562
53.450 10.250526
53.455 9.550467
53.460 9.302599
53.465 9.40254
53.470 9.259505
53.475 9.363076
53.480 8.627103
53.485 9.36186
53.490 9.814154
53.495 9.639496
53.500 9.648368
53.505 9.73051
53.510 9.646933
53.515 9.793043
53.520 9.49353
53.525 9.314257
53.530 9.359828
53.535 8.850549
53.540 8.649022
53.545 9.055782
53.550 9.075758
53.555 8.887527
53.560 8.71497
53.565 8.641923
53.570 9.119628
53.575 9.028559
53.580 8.84203
53.585 9.058038
53.590 8.962916
53.595 8.930231
53.600 8.68515
53.605 8.637581
53.610 8.84956
53.615 8.453572
53.620 8.578606
53.625 9.179209
53.630 9.285213
53.635 9.492515
53.640 9.393134
53.645 9.524455
53.650 9.648712
53.655 9.520159
53.660 9.784623
53.665 10.098989
53.670 10.070872
53.675 10.152714
53.680 10.106302
53.685 10.427062
53.690 10.528332
53.695 10.342092
53.700 10.321178
53.705 10.39182
53.710 9.941936
53.715 9.678728
53.720 9.530818
53.725 9.494235
53.730 9.489695
53.735 9.660945
53.740 10.15103
53.745 11.024036
53.750 11.763341
53.755 12.066341
53.760 11.943337
53.765 11.306174
53.770 11.227706
53.775 11.073578
53.780 10.290573
53.785 9.529477
53.790 9.202513
53.795 9.484278
53.800 9.904079
53.805 9.860342
53.810 9.410626
53.815 9.759606
53.820 10.094967
53.825 10.462529
53.830 10.641188
53.835 10.344694
53.840 10.201574
53.845 10.531075
53.850 10.400913
53.855 9.998336
53.860 9.706048
53.865 9.164838
53.870 9.135718
53.875 9.274383
53.880 9.214361
53.885 9.355753
53.890 9.145112
53.895 9.1786
53.900 9.293955
53.905 9.437493
53.910 9.495698
53.915 9.452933
53.920 9.714592
53.925 10.436749
53.930 10.630795
53.935 10.491314
53.940 10.605719
53.945 10.944001
53.950 10.773767
53.955 10.285984
53.960 9.488631
53.965 9.470394
53.970 9.484865
53.975 9.327162
53.980 9.489033
53.985 9.579239
53.990 10.21751
53.995 10.940517
54.000 10.668953
54.005 10.583976
54.010 10.745405
54.015 10.798178
54.020 10.571389
54.025 9.994382
54.030 9.555247
54.035 10.047104
54.040 10.166711
54.045 9.533957
54.050 9.443419
54.055 9.739304
54.060 9.49624
54.065 9.849868
54.070 9.782541
54.075 9.409136
54.080 9.82846
54.085 9.40123
54.090 9.695686
54.095 9.702597
54.100 9.507437
54.105 9.785953
54.110 10.188055
54.115 9.974657
54.120 10.112373
54.125 10.009913
54.130 10.71041
54.135 10.983224
54.140 10.754978
54.145 10.268918
54.150 10.047431
54.155 10.04973
54.160 9.75579
54.165 9.504764
54.170 8.985224
54.175 9.326805
54.180 10.132044
54.185 10.436007
54.190 10.186774
54.195 10.263906
54.200 9.968231
54.205 10.234516
54.210 10.162961
54.215 10.021395
54.220 10.602463
54.225 11.063335
54.230 11.136708
54.235 11.507318
54.240 11.25353
54.245 10.99886
54.250 10.526396
54.255 9.956638
54.260 9.619232
54.265 9.466842
54.270 9.305937
54.275 9.363618
54.280 9.807987
54.285 9.832221
54.290 9.767981
54.295 9.404281
54.300 9.491488
54.305 9.622377
54.310 9.682239
54.315 9.954847
54.320 10.097342
54.325 10.509436
54.330 10.895859
54.335 10.802468
54.340 10.502271
54.345 10.19
54.350 10.02959
54.355 10.169262
54.360 10.088596
54.365 9.947251
54.370 10.148203
54.375 10.709463
54.380 10.777506
54.385 10.831677
54.390 10.161975
54.395 9.951669
54.400 9.794947
54.405 9.309999
54.410 8.86953
54.415 8.760879
54.420 8.885623
54.425 9.357067
54.430 9.595428
54.435 9.696126
54.440 9.840122
54.445 9.492649
54.450 9.236674
54.455 8.911346
54.460 9.021148
54.465 8.978228
54.470 9.305805
54.475 9.26336
54.480 9.466284
54.485 9.465875
54.490 9.767052
54.495 9.587791
54.500 9.295042
54.505 9.345003
54.510 9.591922
54.515 9.900692
54.520 9.927698
54.525 9.998078
54.530 10.342121
54.535 10.459554
54.540 10.278152
54.545 10.350492
54.550 10.272831
54.555 9.962791
54.560 9.989777
54.565 9.896766
54.570 9.899908
54.575 9.74422
54.580 9.66244
54.585 9.980708
54.590 10.186893
54.595 9.967734
54.600 10.140777
54.605 10.551396
54.610 10.50328
54.615 10.599159
54.620 10.747722
54.625 10.726557
54.630 11.036923
54.635 10.963979
54.640 10.548931
54.645 11.142096
54.650 11.372024
54.655 11.536489
54.660 11.606043
54.665 11.264101
54.670 11.372276
54.675 11.495286
54.680 10.833752
54.685 10.444035
54.690 10.260094
54.695 10.295579
54.700 10.464925
54.705 10.332403
54.710 10.263352
54.715 10.67959
54.720 10.724411
54.725 10.500098
54.730 10.886061
54.735 10.670366
54.740 10.487453
54.745 10.358166
54.750 9.893406
54.755 9.729403
54.760 9.655264
54.765 9.737102
54.770 10.196891
54.775 10.697471
54.780 11.083472
54.785 11.027131
54.790 11.161898
54.795 11.317309
54.800 11.181222
54.805 10.969853
54.810 10.230008
54.815 10.328089
54.820 10.700315
54.825 10.657339
54.830 10.616367
54.835 10.636385
54.840 10.785623
54.845 11.477547
54.850 11.5122
54.855 11.670547
54.860 12.129369
54.865 12.064291
54.870 11.881295
54.875 12.01767
54.880 11.8217
54.885 11.370923
54.890 11.284323
54.895 11.176145
54.900 11.139181
54.905 11.052114
54.910 10.937942
54.915 10.771836
54.920 10.924071
54.925 10.642772
54.930 10.48552
54.935 10.580656
54.940 10.512683
54.945 10.452271
54.950 10.418462
54.955 10.363633
54.960 10.230314
54.965 10.125632
54.970 10.113594
54.975 10.560378
54.980 10.796094
54.985 10.537706
54.990 10.3695
54.995 10.559187
55.000 10.581193
55.005 10.484052
55.010 10.16519
55.015 10.441302
55.020 10.981854
55.025 11.231787
55.030 11.372712
55.035 11.027099
55.040 10.858008
55.045 10.68758
55.050 10.480417
55.055 10.734762
55.060 11.249243
55.065 11.107375
55.070 11.628142
55.075 11.960799
55.080 12.149357
55.085 12.075909
55.090 11.256613
55.095 10.826699
55.100 10.955765
55.105 10.866118
55.110 10.672598
55.115 10.986114
55.120 11.240508
55.125 11.434354
55.130 11.141936
55.135 10.801384
55.140 11.188703
55.145 11.800872
55.150 11.643407
55.155 11.558397
55.160 11.454221
55.165 11.532735
55.170 11.612353
55.175 11.2757
55.180 10.628089
55.185 11.107927
55.190 11.305088
55.195 11.46261
55.200 11.757922
55.205 11.612738
55.210 11.877652
55.215 12.050172
55.220 12.076568
55.225 12.454318
55.230 12.280869
55.235 11.882487
55.240 11.113603
55.245 10.612781
55.250 10.111978
55.255 9.520081
55.260 8.901419
55.265 9.08709
55.270 9.479182
55.275 9.931442
55.280 9.853411
55.285 10.112785
55.290 9.788188
55.295 10.047295
55.300 10.177801
55.305 10.313049
55.310 10.06146
55.315 10.776095
55.320 10.98213
55.325 11.585354
55.330 11.574154
55.335 11.642758
55.340 11.524317
55.345 11.905719
55.350 11.538197
55.355 11.827573
55.360 11.659513
55.365 11.564529
55.370 11.35712
55.375 10.891129
55.380 10.489417
55.385 10.413648
55.390 10.362484
55.395 10.409271
55.400 10.438375
55.405 11.109126
55.410 11.6482
55.415 11.652694
55.420 11.516703
55.425 11.334414
55.430 11.229874
55.435 11.30456
55.440 11.391164
55.445 11.498319
55.450 11.42562
55.455 11.352962
55.460 11.095985
55.465 11.114281
55.470 10.999116
55.475 10.372777
55.480 10.346964
55.485 10.33781
55.490 10.356996
55.495 10.902703
55.500 11.161614
55.505 11.345725
55.510 11.871768
55.515 11.412359
55.520 11.135663
55.525 11.397028
55.530 11.585889
55.535 11.706635
55.540 11.82567
55.545 11.792752
55.550 12.167274
55.555 12.736088
55.560 12.697845
55.565 12.314414
55.570 11.960293
55.575 11.691143
55.580 11.57127
55.585 11.468544
55.590 11.716032
55.595 11.212762
55.600 11.18661
55.605 11.470209
55.610 11.652094
55.615 11.983717
55.620 12.20355
55.625 12.020392
55.630 12.6817
55.635 12.930708
55.640 12.685624
55.645 12.588313
55.650 11.780772
55.655 11.464478
55.660 11.22315
55.665 10.198616
55.670 9.494876
55.675 9.300609
55.680 9.138679
55.685 9.803948
55.690 10.171618
55.695 10.780433
55.700 11.410383
55.705 11.924997
55.710 11.811506
55.715 12.211677
55.720 12.079213
55.725 11.441847
55.730 10.965461
55.735 10.561778
55.740 10.141439
55.745 10.28476
55.750 10.368118
55.755 9.986139
55.760 9.930292
55.765 10.102442
55.770 10.989211
55.775 11.696262
55.780 12.183617
55.785 12.113892
55.790 12.6199
55.795 12.59095
55.800 12.1403
55.805 11.034904
55.810 10.351056
55.815 10.277763
55.820 10.296
55.825 10.580751
55.830 10.783455
55.835 10.781032
55.840 11.073545
55.845 11.454226
55.850 11.370148
55.855 11.263298
55.860 10.533587
55.865 10.623399
55.870 11.492272
55.875 11.777878
55.880 11.520625
55.885 11.31485
55.890 11.325788
55.895 11.764389
55.900 11.678952
55.905 11.473204
55.910 12.25528
55.915 12.37774
55.920 12.680063
55.925 13.042797
55.930 13.47451
55.935 13.726947
55.940 13.587909
55.945 13.071988
55.950 13.201632
55.955 12.938509
55.960 12.576943
55.965 11.967431
55.970 11.907462
55.975 11.755626
55.980 11.826574
55.985 11.654865
55.990 11.582144
55.995 11.876474
56.000 12.147349
56.005 12.48355
56.010 12.923087
56.015 12.840986
56.020 12.715774
56.025 12.969977
56.030 12.688568
56.035 12.71938
56.040 12.546652
56.045 12.574085
56.050 12.968438
56.055 13.458828
56.060 13.475682
56.065 13.262601
56.070 12.755189
56.075 12.986326
56.080 13.048443
56.085 12.528375
56.090 11.942645
56.095 11.898664
56.100 12.132384
56.105 12.209265
56.110 11.577463
56.115 11.327042
56.120 11.606362
56.125 11.48085
56.130 11.29662
56.135 11.414745
56.140 11.700222
56.145 11.851299
56.150 11.71894
56.155 11.672373
56.160 12.211551
56.165 12.724781
56.170 12.366293
56.175 11.935887
56.180 11.325873
56.185 11.282485
56.190 11.288775
56.195 10.465811
56.200 10.361081
56.205 10.95327
56.210 11.480676
56.215 12.270154
56.220 12.582454
56.225 13.068365
56.230 13.879331
56.235 14.405505
56.240 14.436211
56.245 14.367807
56.250 13.504705
56.255 13.146065
56.260 12.648925
56.265 12.066401
56.270 11.669006
56.275 11.637396
56.280 11.424006
56.285 12.13029
56.290 12.58009
56.295 12.914026
56.300 13.156497
56.305 12.803161
56.310 12.813916
56.315 12.31365
56.320 11.677258
56.325 11.478104
56.330 10.964937
56.335 11.276472
56.340 11.463971
56.345 11.620811
56.350 11.692167
56.355 11.682657
56.360 12.058595
56.365 12.452446
56.370 12.249598
56.375 12.502578
56.380 12.825523
56.385 13.372267
56.390 13.425913
56.395 13.362363
56.400 12.836184
56.405 12.413009
56.410 11.95681
56.415 11.547535
56.420 11.811581
56.425 12.244808
56.430 12.296303
56.435 12.928501
56.440 13.117656
56.445 13.569515
56.450 13.758545
56.455 13.409326
56.460 13.096242
56.465 12.769992
56.470 12.676687
56.475 12.772015
56.480 12.455249
56.485 12.555944
56.490 12.141806
56.495 12.018589
56.500 11.896583
56.505 11.694703
56.510 11.212609
56.515 11.168134
56.520 11.561855
56.525 12.461257
56.530 12.86275
56.535 12.868431
56.540 13.046078
56.545 13.497676
56.550 13.436871
56.555 13.301291
56.560 12.983091
56.565 12.516185
56.570 12.603601
56.575 12.352253
56.580 12.591826
56.585 12.717182
56.590 12.886587
56.595 13.384488
56.600 13.671262
56.605 13.871827
56.610 14.163125
56.615 14.088736
56.620 14.016921
56.625 14.126566
56.630 13.337065
56.635 13.174604
56.640 13.234499
56.645 12.960207
56.650 12.731065
56.655 12.259764
56.660 11.792655
56.665 12.452448
56.670 12.803124
56.675 13.013336
56.680 13.027284
56.685 12.960866
56.690 13.488354
56.695 13.828292
56.700 13.858747
56.705 13.838519
56.710 13.998262
56.715 13.681789
56.720 14.003417
56.725 13.80368
56.730 13.582546
56.735 12.881466
56.740 12.481266
56.745 12.461287
56.750 13.00145
56.755 13.124283
56.760 13.471774
56.765 14.126388
56.770 14.962742
56.775 15.072458
56.780 14.635219
56.785 14.188491
56.790 13.82294
56.795 13.948356
56.800 13.305398
56.805 12.927233
56.810 13.112117
56.815 13.308142
56.820 13.32052
56.825 13.601207
56.830 12.999975
56.835 13.046115
56.840 13.212802
56.845 12.828244
56.850 12.723935
56.855 12.535555
56.860 12.292895
56.865 12.405828
56.870 12.338949
56.875 11.923988
56.880 12.024844
56.885 12.163238
56.890 12.366469
56.895 12.534791
56.900 12.741242
56.905 13.085715
56.910 13.185152
56.915 13.364099
56.920 13.056152
56.925 12.813683
56.930 12.408048
56.935 12.327488
56.940 12.323295
56.945 12.189422
56.950 12.101171
56.955 12.15804
56.960 12.727518
56.965 12.559386
56.970 12.489512
56.975 12.481997
56.980 13.23442
56.985 13.650826
56.990 13.714729
56.995 13.288894
57.000 13.900458
57.005 13.561706
57.010 13.180566
57.015 12.591218
57.020 12.447402
57.025 12.623796
57.030 12.420053
57.035 12.039933
57.040 12.174824
57.045 12.458676
57.050 13.250572
57.055 13.77222
57.060 14.013682
57.065 14.344954
57.070 14.039779
57.075 13.772912
57.080 13.538623
57.085 13.072047
57.090 12.972463
57.095 12.621315
57.100 12.3889
57.105 12.857988
57.110 13.417185
57.115 13.415617
57.120 12.969372
57.125 12.705056
57.130 13.02149
57.135 13.778699
57.140 13.904788
57.145 13.410865
57.150 13.512707
57.155 13.579726
57.160 13.694547
57.165 13.701799
57.170 13.277439
57.175 13.137381
57.180 13.08098
57.185 12.835752
57.190 12.917555
57.195 13.116648
57.200 13.483456
57.205 13.380595
57.210 12.89514
57.215 13.119749
57.220 13.006599
57.225 12.704649
57.230 12.014091
57.235 11.542455
57.240 11.687117
57.245 11.872285
57.250 11.705201
57.255 12.032831
57.260 12.342366
57.265 12.477297
57.270 12.494082
57.275 12.414298
57.280 12.917136
57.285 13.543146
57.290 13.55928
57.295 13.649966
57.300 13.763397
57.305 13.8529
57.310 13.765675
57.315 13.598017
57.320 13.181004
57.325 13.047385
57.330 13.140293
57.335 13.693867
57.340 14.29308
57.345 14.861779
57.350 14.77799
57.355 14.864599
57.360 15.123582
57.365 14.850607
57.370 14.239924
57.375 14.034212
57.380 14.247344
57.385 14.246404
57.390 14.176473
57.395 14.001328
57.400 14.534767
57.405 14.624882
57.410 14.094063
57.415 13.636051
57.420 13.696406
57.425 13.753432
57.430 13.721543
57.435 13.600471
57.440 13.553256
57.445 13.674585
57.450 14.011281
57.455 14.120699
57.460 14.40289
57.465 14.286817
57.470 14.069923
57.475 14.116466
57.480 13.983921
57.485 13.709367
57.490 13.356908
57.495 13.291665
57.500 13.559514
57.505 13.350716
57.510 13.094851
57.515 12.532157
57.520 12.100642
57.525 11.895348
57.530 11.533118
57.535 11.53517
57.540 11.637381
57.545 11.940724
57.550 13.252704
57.555 14.13061
57.560 14.209037
57.565 14.340239
57.570 14.473581
57.575 14.497624
57.580 14.302042
57.585 13.626039
57.590 13.696279
57.595 14.18071
57.600 14.434162
57.605 14.254056
57.610 14.693386
57.615 14.755277
57.620 14.877809
57.625 14.642386
57.630 14.216918
57.635 13.965746
57.640 13.882607
57.645 13.801857
57.650 14.106565
57.655 14.178216
57.660 14.537318
57.665 14.24304
57.670 13.926117
57.675 14.170249
57.680 13.938789
57.685 14.147258
57.690 14.569493
57.695 14.740077
57.700 15.855727
57.705 16.488598
57.710 16.440844
57.715 16.292162
57.720 16.210709
57.725 16.063496
57.730 16.076153
57.735 15.500488
57.740 15.663054
57.745 15.675577
57.750 16.078484
57.755 15.952514
57.760 16.118589
57.765 15.816175
57.770 15.587952
57.775 14.877866
57.780 14.581992
57.785 14.851936
57.790 14.375813
57.795 14.132055
57.800 14.56077
57.805 14.975427
57.810 15.074596
57.815 14.992934
57.820 14.385555
57.825 14.290329
57.830 14.262111
57.835 13.946239
57.840 13.553571
57.845 13.568089
57.850 13.40733
57.855 13.550767
57.860 13.543525
57.865 13.362652
57.870 13.778316
57.875 14.382381
57.880 14.247004
57.885 14.736163
57.890 14.907761
57.895 14.884552
57.900 15.089868
57.905 15.454007
57.910 15.60792
57.915 16.359068
57.920 16.944126
57.925 16.502174
57.930 16.293997
57.935 16.339029
57.940 16.067247
57.945 15.927845
57.950 15.331445
57.955 14.577025
57.960 15.1055
57.965 15.166095
57.970 14.919069
57.975 15.042657
57.980 14.908584
57.985 15.38643
57.990 15.710804
57.995 15.984481
58.000 16.549059
58.005 16.741646
58.010 16.192755
58.015 16.047804
58.020 16.15284
58.025 16.421005
58.030 16.627604
58.035 15.94076
58.040 15.89915
58.045 16.219427
58.050 15.795228
58.055 15.552265
58.060 15.10088
58.065 15.291726
58.070 15.988417
58.075 15.576747
58.080 15.461812
58.085 15.642155
58.090 15.478065
58.095 15.371994
58.100 15.284217
58.105 15.316206
58.110 15.51684
58.115 15.824164
58.120 16.07238
58.125 16.435965
58.130 16.409937
58.135 16.053347
58.140 16.290056
58.145 16.39176
58.150 16.625254
58.155 16.595371
58.160 16.085781
58.165 16.033689
58.170 16.042936
58.175 15.269995
58.180 15.215082
58.185 14.746572
58.190 14.626122
58.195 14.651889
58.200 14.852297
58.205 15.148366
58.210 15.981949
58.215 16.001978
58.220 16.120712
58.225 16.592722
58.230 16.605709
58.235 16.143127
58.240 15.921882
58.245 15.251218
58.250 15.439445
58.255 15.624522
58.260 15.747124
58.265 16.465244
58.270 17.475508
58.275 17.660219
58.280 18.110422
58.285 18.444324
58.290 19.042105
58.295 18.840788
58.300 19.531128
58.305 19.615551
58.310 19.998766
58.315 20.184811
58.320 19.669081
58.325 19.526745
58.330 19.48274
58.335 19.254217
58.340 19.014627
58.345 19.145969
58.350 19.325661
58.355 19.748957
58.360 19.864813
58.365 20.211849
58.370 20.368471
58.375 20.724232
58.380 20.203325
58.385 20.4916
58.390 21.458511
58.395 21.575966
58.400 21.896051
58.405 22.430099
58.410 22.839703
58.415 22.917532
58.420 23.251156
58.425 23.305265
58.430 23.011152
58.435 22.498707
58.440 22.134384
58.445 22.565565
58.450 23.732496
58.455 23.645325
58.460 24.139359
58.465 25.144699
58.470 25.872078
58.475 26.072369
58.480 26.421286
58.485 26.478451
58.490 27.405441
58.495 27.992126
58.500 28.869371
58.505 29.292707
58.510 29.788599
58.515 30.219357
58.520 30.884956
58.525 30.769669
58.530 30.645519
58.535 30.039261
58.540 30.134016
58.545 29.933752
58.550 30.103527
58.555 30.478741
58.560 30.969969
58.565 31.418262
58.570 32.688198
58.575 33.24366
58.580 33.822456
58.585 34.28532
58.590 34.520603
58.595 34.490387
58.600 34.184662
58.605 34.336132
58.610 34.114941
58.615 33.031647
58.620 32.843483
58.625 32.984715
58.630 33.940205
58.635 34.093906
58.640 33.970894
58.645 34.74548
58.650 35.857059
58.655 36.547264
58.660 36.787258
58.665 36.389858
58.670 36.545856
58.675 36.497387
58.680 36.527458
58.685 36.531158
58.690 36.206112
58.695 36.736908
58.700 36.789719
58.705 36.383137
58.710 36.174568
58.715 35.782001
58.720 35.735092
58.725 35.650078
58.730 34.458542
58.735 34.254196
58.740 34.325871
58.745 34.304848
58.750 34.213497
58.755 34.032536
58.760 33.48468
58.765 33.399052
58.770 32.752258
58.775 32.078442
58.780 31.669174
58.785 30.473244
58.790 30.219357
58.795 29.454235
58.800 29.279472
58.805 29.508869
58.810 29.744675
58.815 29.585384
58.820 29.644222
58.825 29.267323
58.830 29.984844
58.835 28.919535
58.840 28.212511
58.845 27.867659
58.850 27.188147
58.855 26.869225
58.860 26.031076
58.865 24.651354
58.870 24.121504
58.875 23.866344
58.880 23.079754
58.885 22.974257
58.890 23.160233
58.895 23.069176
58.900 22.326258
58.905 22.584345
58.910 22.221952
58.915 22.360443
58.920 21.725338
58.925 21.135809
58.930 20.908871
58.935 21.010204
58.940 19.73554
58.945 19.209978
58.950 18.755011
58.955 18.613564
58.960 18.504433
58.965 19.263952
58.970 20.058481
58.975 21.125753
58.980 21.276438
58.985 21.167002
58.990 20.938387
58.995 21.033386
59.000 20.164091
59.005 19.601685
59.010 19.290865
59.015 18.841541
59.020 18.75009
59.025 18.631514
59.030 18.70525
59.035 18.742161
59.040 18.930904
59.045 18.656975
59.050 18.619823
59.055 18.529593
59.060 18.356028
59.065 17.670891
59.070 17.361502
59.075 16.097815
59.080 15.865188
59.085 15.924235
59.090 15.611248
59.095 15.574072
59.100 15.415306
59.105 15.649205
59.110 16.039116
59.115 15.940967
59.120 15.716724
59.125 15.797401
59.130 15.813987
59.135 15.904198
59.140 16.00836
59.145 16.279205
59.150 16.403805
59.155 16.202993
59.160 16.056795
59.165 16.1495
59.170 16.266573
59.175 15.878033
59.180 14.899754
59.185 14.75693
59.190 15.044775
59.195 15.140368
59.200 14.816872
59.205 14.602647
59.210 14.895407
59.215 15.263508
59.220 14.889513
59.225 14.742669
59.230 14.822335
59.235 15.210197
59.240 15.383116
59.245 14.934036
59.250 15.330005
59.255 15.886386
59.260 16.250305
59.265 16.532248
59.270 16.452408
59.275 16.336679
59.280 16.393854
59.285 15.512522
59.290 14.947803
59.295 15.026093
59.300 14.732991
59.305 14.991672
59.310 14.804372
59.315 14.632592
59.320 14.905293
59.325 14.836816
59.330 14.438244
59.335 14.308244
59.340 14.435164
59.345 14.934587
59.350 15.022693
59.355 15.442757
59.360 15.577225
59.365 15.759051
59.370 15.876592
59.375 15.367487
59.380 14.883674
59.385 15.084375
59.390 15.204256
59.395 15.198719
59.400 14.908705
59.405 14.67328
59.410 14.777945
59.415 15.165386
59.420 14.930432
59.425 14.854375
59.430 15.331208
59.435 15.914283
59.440 16.299297
59.445 16.571348
59.450 16.602777
59.455 16.744255
59.460 16.69692
59.465 16.70237
59.470 16.412991
59.475 16.031727
59.480 15.462642
59.485 15.523561
59.490 15.406476
59.495 15.119682
59.500 14.243237
59.505 13.72535
59.510 13.805857
59.515 13.892655
59.520 13.375804
59.525 13.382344
59.530 13.5397
59.535 14.33828
59.540 14.69477
59.545 14.843857
59.550 15.336025
59.555 15.775778
59.560 15.526506
59.565 15.718248
59.570 15.765503
59.575 16.123857
59.580 15.946976
59.585 15.437776
59.590 15.602317
59.595 15.875886
59.600 15.661481
59.605 15.097795
59.610 14.910991
59.615 15.514304
59.620 15.668465
59.625 15.250774
59.630 15.021888
59.635 14.685316
59.640 14.595915
59.645 14.609036
59.650 14.806795
59.655 14.778834
59.660 14.874597
59.665 14.635808
59.670 15.207666
59.675 15.215924
59.680 14.882979
59.685 14.503755
59.690 15.373583
59.695 15.54698
59.700 16.530478
59.705 16.318468
59.710 16.340874
59.715 16.296274
59.720 15.693518
59.725 15.177953
59.730 14.779086
59.735 14.600142
59.740 14.986432
59.745 14.846195
59.750 14.777481
59.755 15.319302
59.760 15.801785
59.765 16.714647
59.770 15.647743
59.775 14.822737
59.780 14.80787
59.785 15.258769
59.790 14.894264
59.795 14.057381
59.800 13.296363
59.805 13.347727
59.810 13.883722
59.815 13.929197
59.820 13.827775
59.825 13.88166
59.830 14.297232
59.835 14.651216
59.840 15.020454
59.845 15.540812
59.850 15.68282
59.855 15.675636
59.860 15.553679
59.865 15.763196
59.870 15.911374
59.875 15.327678
59.880 15.347844
59.885 15.327093
59.890 14.945358
59.895 14.835653
59.900 14.506667
59.905 14.547916
59.910 14.977466
59.915 14.430184
59.920 14.877121
59.925 15.524416
59.930 15.206593
59.935 15.257895
59.940 15.043005
59.945 15.075842
59.950 15.312943
59.955 15.013796
59.960 14.912066
59.965 15.396008
59.970 15.466637
59.975 15.201021
59.980 15.247934
59.985 15.28055
59.990 15.24733
59.995 14.846008
60.000 14.390726
60.005 14.351863
60.010 14.116512
60.015 13.750151
60.020 13.128885
60.025 12.843427
60.030 13.183549
60.035 13.283973
60.040 13.984794
60.045 14.641994
60.050 15.173281
60.055 15.764864
60.060 16.330549
60.065 16.264444
60.070 16.082581
60.075 15.188612
60.080 14.66372
60.085 14.2918
60.090 14.077917
60.095 13.755233
60.100 14.622069
60.105 15.013265
60.110 15.762249
60.115 16.980282
60.120 17.233662
60.125 17.02199
60.130 16.902319
60.135 16.30805
60.140 16.641344
60.145 16.326353
60.150 15.974939
60.155 16.453762
60.160 16.625271
60.165 16.791477
60.170 16.457134
60.175 16.173288
60.180 16.203171
60.185 15.861631
60.190 15.369546
60.195 15.289758
60.200 14.646171
60.205 14.874604
60.210 15.021972
60.215 14.88316
60.220 14.43639
60.225 14.640747
60.230 14.901074
60.235 15.107843
60.240 14.950013
60.245 14.718688
60.250 14.761796
60.255 14.888378
60.260 14.879515
60.265 14.688184
60.270 14.661148
60.275 14.611609
60.280 14.519674
60.285 14.877375
60.290 14.826025
60.295 14.991072
60.300 14.7572
60.305 14.779219
60.310 14.970616
60.315 15.031687
60.320 14.638495
60.325 14.045299
60.330 13.911419
60.335 14.260503
60.340 14.572309
60.345 14.547714
60.350 14.443312
60.355 14.485253
60.360 14.958142
60.365 15.065307
60.370 14.811824
60.375 14.914641
60.380 15.131722
60.385 15.038244
60.390 15.286873
60.395 15.795411
60.400 15.971008
60.405 16.231201
60.410 15.905787
60.415 15.885039
60.420 16.094801
60.425 16.173141
60.430 15.892178
60.435 15.708125
60.440 15.985833
60.445 16.327108
60.450 16.145727
60.455 16.063093
60.460 15.843328
60.465 15.428014
60.470 15.240205
60.475 15.210772
60.480 15.319894
60.485 15.03406
60.490 15.083005
60.495 15.140513
60.500 15.419928
60.505 16.174164
60.510 16.35047
60.515 15.951483
60.520 15.875856
60.525 15.844549
60.530 16.150387
60.535 16.493759
60.540 15.673624
60.545 15.141908
60.550 15.212064
60.555 15.382847
60.560 15.345526
60.565 15.286937
60.570 15.206388
60.575 15.540159
60.580 15.659791
60.585 15.597841
60.590 15.892078
60.595 15.958913
60.600 15.580062
60.605 15.405308
60.610 15.222505
60.615 15.603472
60.620 15.649767
60.625 15.665563
60.630 15.521465
60.635 15.864494
60.640 16.481682
60.645 17.013855
60.650 16.444525
60.655 16.539911
60.660 16.384302
60.665 16.338541
60.670 15.937597
60.675 14.905722
60.680 14.902946
60.685 14.958265
60.690 14.897789
60.695 15.478465
60.700 15.685371
60.705 16.044296
60.710 16.176008
60.715 15.89974
60.720 15.844558
60.725 15.527185
60.730 15.026557
60.735 14.926454
60.740 14.754458
60.745 14.762813
60.750 14.766274
60.755 15.009566
60.760 15.409907
60.765 16.260159
60.770 16.177889
60.775 15.95685
60.780 15.744437
60.785 16.239191
60.790 16.184675
60.795 15.447783
60.800 14.71816
60.805 14.932544
60.810 15.603515
60.815 15.72421
60.820 15.416099
60.825 15.610169
60.830 16.444742
60.835 16.326033
60.840 15.696185
60.845 15.32294
60.850 15.570841
60.855 15.810402
60.860 15.52422
60.865 15.084465
60.870 15.282072
60.875 15.652768
60.880 15.49363
60.885 15.20416
60.890 14.384257
60.895 14.343433
60.900 14.518667
60.905 14.928196
60.910 14.686901
60.915 14.905474
60.920 15.080812
60.925 15.106215
60.930 15.088842
60.935 14.524669
60.940 14.686147
60.945 14.825736
60.950 14.576229
60.955 14.695542
60.960 14.897133
60.965 14.785343
60.970 14.732489
60.975 14.178266
60.980 14.501985
60.985 14.369568
60.990 14.774877
60.995 15.319269
61.000 15.624024
61.005 16.009411
61.010 16.408466
61.015 16.146412
61.020 15.336863
61.025 14.905111
61.030 14.853869
61.035 14.898519
61.040 14.903648
61.045 14.18894
61.050 14.109219
61.055 14.814317
61.060 14.46729
61.065 14.242802
61.070 14.26259
61.075 13.841784
61.080 14.444092
61.085 14.457533
61.090 14.359695
61.095 14.488846
61.100 14.626059
61.105 14.380362
61.110 14.894397
61.115 15.166819
61.120 15.079767
61.125 15.1867
61.130 15.770159
61.135 15.945696
61.140 16.259958
61.145 16.036253
61.150 15.636261
61.155 15.54672
61.160 14.993284
61.165 14.140989
61.170 14.1457
61.175 14.538077
61.180 15.038693
61.185 15.479307
61.190 16.116394
61.195 17.131506
61.200 17.359612
61.205 17.610519
61.210 17.397606
61.215 16.96353
61.220 16.732319
61.225 16.461245
61.230 16.508434
61.235 16.47295
61.240 15.864165
61.245 15.396385
61.250 15.407067
61.255 15.65842
61.260 15.718672
61.265 15.246715
61.270 15.002697
61.275 14.927491
61.280 15.100069
61.285 15.066463
61.290 14.680316
61.295 14.609046
61.300 14.526645
61.305 14.74466
61.310 14.725691
61.315 14.387605
61.320 14.186745
61.325 14.604688
61.330 14.798644
61.335 14.990039
61.340 14.856675
61.345 15.004247
61.350 15.383526
61.355 15.319037
61.360 15.333287
61.365 15.196579
61.370 14.896438
61.375 15.294744
61.380 15.63598
61.385 16.157276
61.390 16.759829
61.395 16.648003
61.400 17.164497
61.405 18.129477
61.410 18.179113
61.415 17.526766
61.420 17.141285
61.425 16.691425
61.430 16.430651
61.435 16.496834
61.440 16.21036
61.445 16.236458
61.450 17.053389
61.455 17.291182
61.460 18.035418
61.465 18.512342
61.470 17.439493
61.475 17.176672
61.480 16.479576
61.485 15.96553
61.490 16.151642
61.495 15.384397
61.500 15.171926
61.505 15.95889
61.510 16.706064
61.515 17.0231
61.520 16.545958
61.525 16.256493
61.530 16.151997
61.535 16.005579
61.540 16.264656
61.545 16.336338
61.550 16.536173
61.555 16.811312
61.560 17.222073
61.565 17.987713
61.570 18.243513
61.575 17.778555
61.580 17.775229
61.585 17.818348
61.590 17.572689
61.595 16.608126
61.600 16.081758
61.605 15.891809
61.610 16.049658
61.615 15.810691
61.620 16.120522
61.625 16.475389
61.630 16.643576
61.635 17.013151
61.640 16.809244
61.645 16.45191
61.650 15.513388
61.655 14.753159
61.660 14.692481
61.665 14.556883
61.670 14.349926
61.675 15.033504
61.680 15.801622
61.685 16.310616
61.690 16.878368
61.695 16.699076
61.700 16.610413
61.705 17.071795
61.710 16.210703
61.715 15.667651
61.720 15.661494
61.725 15.292284
61.730 15.350486
61.735 15.199622
61.740 15.316851
61.745 15.719414
61.750 15.882871
61.755 16.014811
61.760 16.344534
61.765 16.51762
61.770 16.704683
61.775 15.993864
61.780 15.855062
61.785 15.543871
61.790 15.302104
61.795 15.302372
61.800 15.593265
61.805 15.486904
61.810 15.757215
61.815 15.995362
61.820 15.837697
61.825 15.730819
61.830 15.508348
61.835 15.053325
61.840 15.185152
61.845 15.127621
61.850 15.232444
61.855 15.768076
61.860 16.012106
61.865 16.266308
61.870 17.036798
61.875 17.162653
61.880 16.994387
61.885 16.702328
61.890 16.429472
61.895 16.2493
61.900 16.366077
61.905 15.934711
61.910 15.97465
61.915 16.090244
61.920 15.836899
61.925 15.926875
61.930 15.766594
61.935 15.284296
61.940 15.299087
61.945 15.324406
61.950 15.534092
61.955 15.974004
61.960 16.563469
61.965 16.676115
61.970 16.99061
61.975 16.762577
61.980 16.01169
61.985 15.89505
61.990 15.56736
61.995 14.415491
62.000 14.532257
62.005 14.303267
62.010 14.885929
62.015 15.275855
62.020 15.274152
62.025 15.534599
62.030 16.170643
62.035 15.931858
62.040 16.048788
62.045 15.766518
62.050 15.724899
62.055 15.662997
62.060 15.409304
62.065 15.312346
62.070 15.922609
62.075 15.849959
62.080 15.985507
62.085 16.238529
62.090 16.102558
62.095 16.146887
62.100 16.09186
62.105 16.143599
62.110 16.24209
62.115 16.249945
62.120 15.78828
62.125 15.765913
62.130 16.568583
62.135 16.566071
62.140 16.324829
62.145 16.263
62.150 15.836659
62.155 15.885632
62.160 16.081295
62.165 16.097555
62.170 16.76807
62.175 16.772116
62.180 17.221432
62.185 17.683388
62.190 17.509264
62.195 17.652189
62.200 17.107788
62.205 16.952385
62.210 16.583345
62.215 15.999911
62.220 15.850929
62.225 15.927266
62.230 15.446962
62.235 15.40729
62.240 14.916911
62.245 15.655348
62.250 15.465432
62.255 15.129702
62.260 15.625922
62.265 15.207704
62.270 14.857719
62.275 14.839424
62.280 14.46463
62.285 15.026911
62.290 15.785829
62.295 15.892117
62.300 16.415726
62.305 16.655422
62.310 16.253599
62.315 16.332163
62.320 16.585176
62.325 16.525755
62.330 16.230516
62.335 16.104967
62.340 15.988711
62.345 16.102163
62.350 15.431401
62.355 14.745298
62.360 14.605609
62.365 15.088923
62.370 15.39104
62.375 15.62941
62.380 15.431076
62.385 15.461214
62.390 15.266827
62.395 14.770121
62.400 14.393948
62.405 14.316303
62.410 14.642177
62.415 15.352946
62.420 16.418663
62.425 17.433804
62.430 17.444458
62.435 16.911425
62.440 16.404486
62.445 15.948468
62.450 15.612324
62.455 15.044464
62.460 14.767051
62.465 15.564809
62.470 16.235371
62.475 16.512121
62.480 16.698385
62.485 17.006271
62.490 17.489424
62.495 17.320118
62.500 17.202911
62.505 17.031801
62.510 17.016205
62.515 17.149197
62.520 17.091528
62.525 16.764378
62.530 16.601433
62.535 16.322445
62.540 16.55752
62.545 16.676907
62.550 16.602165
62.555 15.990379
62.560 15.451368
62.565 15.324139
62.570 15.260534
62.575 15.383254
62.580 15.427531
62.585 15.817558
62.590 16.133648
62.595 16.854839
62.600 17.056953
62.605 16.892374
62.610 16.410311
62.615 16.231325
62.620 16.128464
62.625 16.470013
62.630 16.428316
62.635 16.521587
62.640 16.876545
62.645 17.079634
62.650 17.247892
62.655 17.217802
62.660 16.549637
62.665 16.283579
62.670 16.276554
62.675 16.284513
62.680 16.758564
62.685 16.604891
62.690 16.452223
62.695 16.702637
62.700 16.738373
62.705 16.662413
62.710 16.151726
62.715 15.913303
62.720 15.727818
62.725 15.815688
62.730 15.888275
62.735 15.851682
62.740 16.142221
62.745 16.435896
62.750 16.590626
62.755 17.105146
62.760 17.182663
62.765 16.940845
62.770 17.149349
62.775 17.016548
62.780 16.645313
62.785 16.412252
62.790 16.004534
62.795 16.005634
62.800 16.053101
62.805 16.188257
62.810 16.435934
62.815 16.909397
62.820 16.707853
62.825 16.516781
62.830 16.740755
62.835 16.633665
62.840 16.363041
62.845 16.012293
62.850 16.164658
62.855 16.496439
62.860 16.465128
62.865 16.135229
62.870 16.129377
62.875 16.119999
62.880 16.37372
62.885 15.908372
62.890 16.120169
62.895 16.547421
62.900 16.977951
62.905 17.171453
62.910 17.286732
62.915 16.879025
62.920 16.321054
62.925 15.983613
62.930 15.882586
62.935 15.506171
62.940 15.245154
62.945 15.09681
62.950 15.506275
62.955 16.431833
62.960 16.715467
62.965 16.483879
62.970 16.800072
62.975 17.583693
62.980 18.093266
62.985 18.503889
62.990 18.087858
62.995 17.952856
63.000 18.834814
63.005 18.74946
63.010 18.080162
63.015 17.735968
63.020 17.579403
63.025 17.852486
63.030 17.915129
63.035 18.068392
63.040 17.887417
63.045 18.216822
63.050 18.030254
63.055 17.691103
63.060 17.501263
63.065 16.763506
63.070 15.664566
63.075 15.966013
63.080 15.703531
63.085 15.570423
63.090 15.647913
63.095 16.033888
63.100 16.868319
63.105 17.241524
63.110 16.638161
63.115 16.983267
63.120 17.053751
63.125 17.659504
63.130 17.083635
63.135 16.582859
63.140 16.724766
63.145 17.494089
63.150 17.355627
63.155 17.239195
63.160 16.276134
63.165 16.819401
63.170 16.965952
63.175 16.834352
63.180 17.129519
63.185 16.784824
63.190 17.094143
63.195 17.695656
63.200 17.773806
63.205 17.981668
63.210 17.709177
63.215 17.24394
63.220 17.577539
63.225 17.794228
63.230 17.871891
63.235 17.611216
63.240 17.647627
63.245 17.627869
63.250 17.715151
63.255 17.739973
63.260 17.525778
63.265 16.86058
63.270 16.381052
63.275 16.279552
63.280 16.040676
63.285 15.605972
63.290 15.451375
63.295 15.780307
63.300 16.359924
63.305 16.723875
63.310 16.72291
63.315 17.401722
63.320 18.168104
63.325 18.375807
63.330 17.778599
63.335 17.016165
63.340 16.355461
63.345 16.287851
63.350 16.366985
63.355 15.923384
63.360 16.071453
63.365 16.410736
63.370 17.021233
63.375 17.3111
63.380 17.153145
63.385 17.035063
63.390 16.711914
63.395 16.626209
63.400 17.038149
63.405 16.962906
63.410 17.487648
63.415 17.562275
63.420 17.59482
63.425 18.015694
63.430 18.114098
63.435 17.492147
63.440 17.282934
63.445 17.130404
63.450 17.149584
63.455 17.33033
63.460 17.29274
63.465 17.571381
63.470 18.295095
63.475 18.410191
63.480 18.171967
63.485 17.838236
63.490 17.602356
63.495 17.34363
63.500 17.470224
63.505 17.500093
63.510 18.045277
63.515 18.37108
63.520 18.771439
63.525 18.76848
63.530 18.959162
63.535 18.724941
63.540 18.394384
63.545 17.744537
63.550 17.836948
63.555 17.746536
63.560 17.6394
63.565 17.695135
63.570 17.154902
63.575 16.97254
63.580 17.224848
63.585 17.092916
63.590 17.193766
63.595 17.047007
63.600 16.703892
63.605 16.690727
63.610 16.574446
63.615 16.665947
63.620 16.783592
63.625 16.267965
63.630 16.356768
63.635 16.988142
63.640 17.336422
63.645 17.714045
63.650 17.40214
63.655 17.25172
63.660 18.177296
63.665 18.271715
63.670 17.507515
63.675 17.992067
63.680 18.216324
63.685 18.181723
63.690 18.291117
63.695 17.619987
63.700 17.121023
63.705 17.594742
63.710 16.979362
63.715 17.302589
63.720 17.775312
63.725 18.461811
63.730 19.127481
63.735 19.482815
63.740 19.619574
63.745 19.981512
63.750 19.137991
63.755 18.814985
63.760 18.161434
63.765 18.241068
63.770 18.073681
63.775 17.970114
63.780 18.201616
63.785 18.84927
63.790 18.899225
63.795 19.105755
63.800 18.959488
63.805 19.042587
63.810 18.920223
63.815 18.963255
63.820 18.777977
63.825 18.982342
63.830 18.366087
63.835 18.458721
63.840 18.422359
63.845 17.939451
63.850 17.380911
63.855 16.786999
63.860 16.968206
63.865 17.193966
63.870 16.674683
63.875 16.352528
63.880 16.544973
63.885 17.063389
63.890 17.554684
63.895 17.466623
63.900 17.633354
63.905 18.03784
63.910 18.279848
63.915 18.368221
63.920 18.006731
63.925 17.76033
63.930 17.526937
63.935 17.822628
63.940 18.307932
63.945 18.641504
63.950 18.972822
63.955 18.786907
63.960 18.932007
63.965 19.4571
63.970 19.182629
63.975 19.24275
63.980 19.7855
63.985 20.144285
63.990 20.837118
63.995 21.382189
64.000 21.654688
64.005 22.499905
64.010 22.693895
64.015 22.422962
64.020 22.381363
64.025 22.730146
64.030 22.879827
64.035 22.914726
64.040 22.78581
64.045 22.716112
64.050 23.015718
64.055 22.886969
64.060 22.782969
64.065 22.978657
64.070 23.27346
64.075 23.177309
64.080 23.210604
64.085 23.957687
64.090 25.07716
64.095 25.89872
64.100 26.160545
64.105 26.037231
64.110 26.520533
64.115 27.230062
64.120 27.193758
64.125 27.461308
64.130 26.823767
64.135 26.942102
64.140 27.34413
64.145 27.595102
64.150 27.875895
64.155 27.961327
64.160 28.131365
64.165 28.752918
64.170 29.037842
64.175 29.469961
64.180 30.121849
64.185 30.37524
64.190 31.362541
64.195 30.959673
64.200 31.326097
64.205 31.622763
64.210 32.143269
64.215 32.140476
64.220 32.637672
64.225 33.366528
64.230 35.132038
64.235 36.042488
64.240 36.789883
64.245 36.874161
64.250 37.716236
64.255 38.959942
64.260 39.006721
64.265 38.806011
64.270 39.130367
64.275 39.781212
64.280 40.406189
64.285 40.278027
64.290 41.014759
64.295 41.97995
64.300 42.948452
64.305 43.315468
64.310 43.29892
64.315 43.371593
64.320 43.942669
64.325 44.369709
64.330 44.225067
64.335 44.297901
64.340 44.576275
64.345 45.272549
64.350 46.022362
64.355 46.593563
64.360 46.613331
64.365 46.680859
64.370 47.882313
64.375 48.809566
64.380 49.405907
64.385 49.589233
64.390 49.760128
64.395 51.430378
64.400 52.313877
64.405 51.462399
64.410 51.739586
64.415 51.273911
64.420 50.689644
64.425 50.800293
64.430 50.044487
64.435 50.134628
64.440 49.955177
64.445 49.772717
64.450 49.46484
64.455 49.338711
64.460 48.781559
64.465 48.120975
64.470 47.564648
64.475 46.88995
64.480 45.652367
64.485 45.968666
64.490 46.242897
64.495 45.572681
64.500 44.574142
64.505 43.321297
64.510 43.346626
64.515 42.668098
64.520 41.664608
64.525 40.297825
64.530 40.081688
64.535 40.118275
64.540 40.130924
64.545 39.953091
64.550 40.414909
64.555 40.124031
64.560 39.578362
64.565 38.925217
64.570 38.310246
64.575 37.75634
64.580 37.243137
64.585 36.694298
64.590 36.478081
64.595 37.010525
64.600 36.47477
64.605 35.384499
64.610 34.707474
64.615 34.368519
64.620 34.331882
64.625 34.206055
64.630 33.735401
64.635 33.703072
64.640 33.429237
64.645 33.008678
64.650 31.732105
64.655 30.793409
64.660 30.093901
64.665 29.955547
64.670 29.635141
64.675 29.693748
64.680 29.391325
64.685 29.541142
64.690 29.721804
64.695 29.641331
64.700 29.05608
64.705 28.543856
64.710 28.113022
64.715 27.907759
64.720 27.193897
64.725 26.094482
64.730 25.562206
64.735 25.711197
64.740 25.603292
64.745 24.650225
64.750 24.429317
64.755 24.490692
64.760 25.042896
64.765 24.409315
64.770 23.702126
64.775 23.069605
64.780 22.661537
64.785 22.520889
64.790 22.405886
64.795 22.001129
64.800 22.245737
64.805 22.640938
64.810 22.781832
64.815 22.722462
64.820 22.706976
64.825 22.784809
64.830 22.550869
64.835 22.488552
64.840 21.811661
64.845 22.570608
64.850 22.933439
64.855 22.55736
64.860 22.181398
64.865 22.464695
64.870 22.663857
64.875 23.088469
64.880 22.887886
64.885 22.892136
64.890 23.704514
64.895 24.581415
64.900 24.751465
64.905 24.58473
64.910 24.48201
64.915 23.645464
64.920 23.076509
64.925 22.247295
64.930 21.971094
64.935 21.796108
64.940 21.759806
64.945 22.087364
64.950 22.962875
64.955 23.853746
64.960 24.428238
64.965 24.211731
64.970 24.280956
64.975 24.390631
64.980 24.593443
64.985 25.0641
64.990 24.991325
64.995 24.635221
65.000 25.012138
65.005 25.474934
65.010 26.212751
65.015 26.160479
65.020 27.129242
65.025 27.584681
65.030 28.244877
65.035 28.811869
65.040 29.580385
65.045 29.891079
65.050 30.715784
65.055 30.268347
65.060 29.792614
65.065 29.615549
65.070 29.988518
65.075 30.040529
65.080 29.763573
65.085 29.15926
65.090 29.103401
65.095 29.943768
65.100 30.296478
65.105 30.466124
65.110 30.302111
65.115 29.91362
65.120 30.113134
65.125 30.053738
65.130 30.268129
65.135 29.885048
65.140 29.192644
65.145 29.105513
65.150 29.829279
65.155 30.500811
65.160 31.006271
65.165 31.484968
65.170 32.020409
65.175 32.474598
65.180 33.275471
65.185 34.143848
65.190 34.566151
65.195 35.349464
65.200 35.464622
65.205 35.384304
65.210 36.162685
65.215 36.138645
65.220 35.183529
65.225 35.027084
65.230 34.909054
65.235 34.987
65.240 35.575928
65.245 35.183903
65.250 35.658077
65.255 35.805557
65.260 36.126507
65.265 37.082638
65.270 37.773724
65.275 37.788158
65.280 37.515518
65.285 37.172989
65.290 37.355259
65.295 37.26252
65.300 36.262894
65.305 35.733135
65.310 35.395836
65.315 35.8414
65.320 36.619507
65.325 36.898567
65.330 36.845516
65.335 37.273132
65.340 37.741135
65.345 37.981682
65.350 38.132584
65.355 37.667843
65.360 37.837406
65.365 37.64999
65.370 37.467308
65.375 37.897778
65.380 38.783932
65.385 39.102596
65.390 39.222149
65.395 38.402611
65.400 37.780632
65.405 37.240902
65.410 37.801899
65.415 38.139538
65.420 37.570545
65.425 38.113979
65.430 38.793835
65.435 39.975906
65.440 40.739021
65.445 40.281971
65.450 40.061295
65.455 39.867542
65.460 39.287895
65.465 39.321133
65.470 38.911949
65.475 38.649551
65.480 38.257523
65.485 38.035622
65.490 38.53688
65.495 38.787949
65.500 38.746731
65.505 38.746735
65.510 39.977203
65.515 40.367542
65.520 40.33461
65.525 40.187035
65.530 41.044941
65.535 41.096909
65.540 40.916435
65.545 39.313576
65.550 39.080048
65.555 39.449959
65.560 38.848251
65.565 38.081669
65.570 38.360973
65.575 38.75824
65.580 39.98632
65.585 40.558556
65.590 40.014706
65.595 39.409077
65.600 39.508488
65.605 39.326633
65.610 38.770336
65.615 37.81599
65.620 36.343758
65.625 36.783607
65.630 37.013401
65.635 36.458309
65.640 36.767349
65.645 36.938049
65.650 36.453514
65.655 36.431301
65.660 36.313778
65.665 36.875706
65.670 37.39436
65.675 37.522495
65.680 37.930935
65.685 38.422138
65.690 38.736134
65.695 38.056744
65.700 37.366844
65.705 36.184933
65.710 35.271267
65.715 33.885674
65.720 33.130344
65.725 32.926411
65.730 32.902042
65.735 32.57988
65.740 32.887344
65.745 33.244198
65.750 33.398041
65.755 33.337727
65.760 33.665508
65.765 33.42659
65.770 33.381306
65.775 32.498539
65.780 32.093929
65.785 32.704308
65.790 32.579479
65.795 31.941008
65.800 31.372938
65.805 31.167225
65.810 31.189558
65.815 30.904831
65.820 29.98377
65.825 29.423819
65.830 29.260035
65.835 29.796335
65.840 29.902752
65.845 29.446213
65.850 29.495319
65.855 28.789522
65.860 28.698223
65.865 28.481565
65.870 27.537338
65.875 26.98847
65.880 27.200647
65.885 27.537214
65.890 28.468204
65.895 28.042763
65.900 27.497894
65.905 27.587029
65.910 27.443419
65.915 26.878857
65.920 25.950676
65.925 24.883614
65.930 24.716013
65.935 24.875166
65.940 24.775785
65.945 24.768353
65.950 24.943762
65.955 24.269388
65.960 23.978445
65.965 24.160276
65.970 24.47444
65.975 24.565292
65.980 24.053736
65.985 24.432798
65.990 24.382874
65.995 24.125719
66.000 24.436934
66.005 23.867373
66.010 24.075768
66.015 24.561363
66.020 23.896849
66.025 23.844715
66.030 23.826494
66.035 23.392977
66.040 23.777937
66.045 23.680317
66.050 23.324938
66.055 23.669479
66.060 23.893904
66.065 23.227016
66.070 22.171087
66.075 21.107906
66.080 20.978525
66.085 20.961166
66.090 20.524897
66.095 20.630877
66.100 20.775211
66.105 20.935541
66.110 20.659784
66.115 20.145596
66.120 19.889942
66.125 19.78302
66.130 19.186005
66.135 19.118082
66.140 19.032501
66.145 19.297565
66.150 18.928186
66.155 19.117712
66.160 19.100842
66.165 19.07692
66.170 18.806927
66.175 18.437473
66.180 18.292263
66.185 18.93815
66.190 18.836136
66.195 18.64728
66.200 18.718973
66.205 19.000158
66.210 19.478977
66.215 19.433361
66.220 18.910603
66.225 18.349165
66.230 18.613882
66.235 18.393335
66.240 18.408104
66.245 18.07036
66.250 18.114895
66.255 18.386694
66.260 18.952177
66.265 18.904863
66.270 18.9951
66.275 19.111223
66.280 19.197266
66.285 18.94252
66.290 18.752928
66.295 18.173513
66.300 18.021864
66.305 17.855179
66.310 17.552515
66.315 17.764441
66.320 17.978731
66.325 18.156836
66.330 18.244682
66.335 18.203749
66.340 18.869715
66.345 19.216944
66.350 19.078403
66.355 19.222107
66.360 19.462299
66.365 19.31988
66.370 19.285038
66.375 18.850712
66.380 18.738932
66.385 18.718084
66.390 18.412149
66.395 18.523506
66.400 18.983002
66.405 19.48406
66.410 19.639175
66.415 19.402365
66.420 19.549488
66.425 19.382027
66.430 19.011385
66.435 18.896328
66.440 18.205137
66.445 18.07481
66.450 17.988005
66.455 17.610121
66.460 17.85767
66.465 17.709822
66.470 18.201241
66.475 18.58621
66.480 18.881166
66.485 19.388218
66.490 19.667862
66.495 19.861332
66.500 19.886415
66.505 19.119766
66.510 18.559597
66.515 18.100134
66.520 17.964966
66.525 18.2363
66.530 17.882908
66.535 18.307285
66.540 19.04563
66.545 19.595118
66.550 19.849241
66.555 20.084763
66.560 19.914597
66.565 20.450485
66.570 20.569
66.575 20.218102
66.580 19.581938
66.585 19.364357
66.590 19.108238
66.595 18.930004
66.600 18.515177
66.605 18.610643
66.610 18.66531
66.615 18.974665
66.620 19.09771
66.625 18.671993
66.630 18.379614
66.635 17.844582
66.640 17.315018
66.645 17.015944
66.650 16.820225
66.655 17.211802
66.660 17.622517
66.665 17.869993
66.670 18.084976
66.675 17.990894
66.680 18.131479
66.685 18.438404
66.690 17.965176
66.695 17.705612
66.700 17.7829
66.705 17.736227
66.710 17.882643
66.715 17.774191
66.720 17.480145
66.725 17.922005
66.730 18.127035
66.735 18.173824
66.740 18.486298
66.745 18.19521
66.750 18.281178
66.755 18.644262
66.760 18.890938
66.765 18.727644
66.770 18.677896
66.775 18.601709
66.780 19.085632
66.785 19.043564
66.790 19.449377
66.795 18.67959
66.800 18.375925
66.805 18.322477
66.810 18.434517
66.815 18.061361
66.820 18.132748
66.825 17.863228
66.830 18.39336
66.835 18.761156
66.840 18.408596
66.845 18.311552
66.850 18.524637
66.855 18.140882
66.860 17.753798
66.865 17.686443
66.870 17.614042
66.875 17.691998
66.880 17.394032
66.885 17.31016
66.890 17.827154
66.895 18.79941
66.900 18.89477
66.905 19.479408
66.910 19.924667
66.915 20.293257
66.920 19.836845
66.925 19.224155
66.930 18.280634
66.935 18.15254
66.940 17.854364
66.945 17.438259
66.950 16.925436
66.955 16.827269
66.960 17.406374
66.965 17.377514
66.970 17.403788
66.975 17.073013
66.980 16.867186
66.985 17.45072
66.990 17.864143
66.995 17.207779
67.000 17.279144
67.005 17.63592
67.010 18.239058
67.015 18.749115
67.020 18.681665
67.025 18.744377
67.030 18.94149
67.035 18.544001
67.040 17.747211
67.045 17.013313
67.050 16.564789
67.055 16.936165
67.060 16.564699
67.065 16.319582
67.070 16.585621
67.075 17.309736
67.080 18.017689
67.085 18.402498
67.090 18.172453
67.095 18.451738
67.100 18.676846
67.105 18.267189
67.110 18.182802
67.115 17.766575
67.120 17.900515
67.125 17.512943
67.130 17.808369
67.135 18.124834
67.140 18.485365
67.145 19.141474
67.150 19.103827
67.155 19.431206
67.160 19.550692
67.165 19.282595
67.170 18.932959
67.175 18.316471
67.180 17.673328
67.185 18.042187
67.190 17.562168
67.195 17.518286
67.200 17.571575
67.205 17.987558
67.210 18.103748
67.215 17.66547
67.220 17.208258
67.225 17.384228
67.230 17.261711
67.235 17.148954
67.240 16.473326
67.245 16.128643
67.250 16.817766
67.255 17.287838
67.260 17.292549
67.265 17.440557
67.270 17.54372
67.275 18.920353
67.280 18.745903
67.285 17.957102
67.290 17.730381
67.295 17.834345
67.300 17.619783
67.305 16.94878
67.310 15.939758
67.315 16.213152
67.320 16.458075
67.325 16.473057
67.330 16.632389
67.335 17.219301
67.340 17.653126
67.345 18.09746
67.350 18.067841
67.355 18.015177
67.360 18.16798
67.365 18.06008
67.370 17.583017
67.375 17.673306
67.380 18.408648
67.385 18.205648
67.390 17.947792
67.395 17.912117
67.400 17.821371
67.405 18.157259
67.410 18.256218
67.415 17.959583
67.420 18.730154
67.425 19.198589
67.430 18.9545
67.435 18.618792
67.440 18.887283
67.445 19.080128
67.450 19.048758
67.455 18.432676
67.460 18.03038
67.465 17.949472
67.470 18.021652
67.475 17.62846
67.480 17.567663
67.485 18.245253
67.490 18.661604
67.495 18.547714
67.500 18.885828
67.505 19.170286
67.510 19.246477
67.515 18.80471
67.520 18.342587
67.525 18.518127
67.530 19.283094
67.535 19.315548
67.540 18.765013
67.545 18.43721
67.550 17.795053
67.555 17.767033
67.560 17.601959
67.565 17.578316
67.570 17.783165
67.575 17.751341
67.580 17.807783
67.585 18.464989
67.590 18.270147
67.595 17.865494
67.600 17.508209
67.605 17.830368
67.610 18.739492
67.615 19.383339
67.620 19.575172
67.625 19.516907
67.630 19.725163
67.635 19.799055
67.640 19.409678
67.645 18.957478
67.650 18.812159
67.655 18.614189
67.660 18.555223
67.665 18.612585
67.670 18.413935
67.675 18.449823
67.680 18.184893
67.685 17.967794
67.690 18.199997
67.695 18.207952
67.700 18.437071
67.705 18.118946
67.710 17.452875
67.715 17.302074
67.720 16.951521
67.725 16.115652
67.730 15.718658
67.735 15.594493
67.740 16.012426
67.745 16.763374
67.750 17.205967
67.755 17.27409
67.760 18.061733
67.765 18.682554
67.770 18.531466
67.775 18.498615
67.780 18.247835
67.785 18.083059
67.790 18.401569
67.795 18.088371
67.800 18.069633
67.805 17.834703
67.810 18.505016
67.815 18.184189
67.820 17.556528
67.825 17.130838
67.830 17.405497
67.835 17.748379
67.840 17.684978
67.845 17.166006
67.850 17.411253
67.855 17.756025
67.860 17.757061
67.865 17.20542
67.870 16.891575
67.875 17.468845
67.880 17.570992
67.885 17.880766
67.890 18.074064
67.895 18.384544
67.900 19.147158
67.905 18.69146
67.910 18.059784
67.915 17.924896
67.920 17.821871
67.925 17.697292
67.930 17.507572
67.935 17.020771
67.940 17.874662
67.945 17.996992
67.950 18.012686
67.955 18.256765
67.960 18.692648
67.965 18.810463
67.970 18.764811
67.975 18.191736
67.980 18.491953
67.985 19.249361
67.990 19.140945
67.995 19.340286
68.000 19.758722
68.005 19.934956
68.010 20.205627
68.015 19.642933
68.020 19.003504
68.025 19.186769
68.030 18.786354
68.035 18.970213
68.040 19.59366
68.045 20.333994
68.050 21.151449
68.055 20.989225
68.060 20.474304
68.065 20.171143
68.070 19.402925
68.075 18.835238
68.080 18.389254
68.085 18.309765
68.090 19.132309
68.095 19.816904
68.100 20.4286
68.105 20.793276
68.110 20.185911
68.115 19.797478
68.120 19.773602
68.125 19.125271
68.130 19.039967
68.135 18.824509
68.140 19.122669
68.145 19.903828
68.150 20.729006
68.155 20.484049
68.160 20.86046
68.165 20.59931
68.170 20.531065
68.175 20.352139
68.180 19.70101
68.185 19.562725
68.190 19.752087
68.195 19.983774
68.200 20.358747
68.205 20.078869
68.210 19.952864
68.215 20.234694
68.220 20.174124
68.225 20.312321
68.230 20.201048
68.235 20.238188
68.240 20.885233
68.245 21.357777
68.250 21.21323
68.255 21.064217
68.260 20.769491
68.265 21.414165
68.270 21.337152
68.275 20.524574
68.280 20.462679
68.285 21.046928
68.290 21.452463
68.295 21.701397
68.300 21.832916
68.305 22.214014
68.310 22.598627
68.315 22.855852
68.320 22.917852
68.325 22.838087
68.330 22.80477
68.335 23.267628
68.340 24.098469
68.345 24.702007
68.350 25.195866
68.355 25.075712
68.360 25.586193
68.365 25.644684
68.370 25.390284
68.375 25.23842
68.380 25.450941
68.385 25.612888
68.390 25.852304
68.395 25.632835
68.400 25.589994
68.405 25.645788
68.410 25.811924
68.415 25.820345
68.420 26.234272
68.425 26.561901
68.430 27.096006
68.435 27.451107
68.440 27.815834
68.445 28.188383
68.450 29.04158
68.455 29.625246
68.460 30.229057
68.465 30.319639
68.470 30.176701
68.475 29.610994
68.480 29.473366
68.485 29.79413
68.490 29.734791
68.495 29.442636
68.500 29.682655
68.505 30.009474
68.510 30.37421
68.515 30.321615
68.520 30.068359
68.525 30.668909
68.530 30.786407
68.535 30.859064
68.540 31.357157
68.545 31.598021
68.550 31.555298
68.555 30.897676
68.560 31.179884
68.565 32.086571
68.570 33.152828
68.575 33.415329
68.580 34.242977
68.585 35.252693
68.590 36.616898
68.595 36.522182
68.600 36.238152
68.605 36.126038
68.610 36.273487
68.615 35.940437
68.620 36.107594
68.625 36.298088
68.630 35.566761
68.635 35.094875
68.640 35.175663
68.645 34.26516
68.650 34.237576
68.655 33.101543
68.660 32.275448
68.665 33.017296
68.670 33.435966
68.675 33.606461
68.680 33.925526
68.685 34.242722
68.690 35.267548
68.695 35.498653
68.700 35.343845
68.705 35.457821
68.710 35.314701
68.715 35.327755
68.720 34.315025
68.725 34.412151
68.730 34.629791
68.735 34.963055
68.740 35.533752
68.745 35.03019
68.750 35.152409
68.755 35.251457
68.760 35.156994
68.765 34.963005
68.770 34.442413
68.775 33.919941
68.780 33.752361
68.785 34.014683
68.790 34.490788
68.795 34.33493
68.800 34.623749
68.805 34.87458
68.810 34.451092
68.815 34.916325
68.820 34.811741
68.825 34.359386
68.830 34.696671
68.835 34.918091
68.840 34.81324
68.845 34.782345
68.850 34.616703
68.855 34.10656
68.860 34.754807
68.865 34.680267
68.870 34.231949
68.875 33.399647
68.880 33.252487
68.885 33.601768
68.890 33.775532
68.895 33.197018
68.900 32.368694
68.905 32.543327
68.910 33.087864
68.915 33.026649
68.920 32.722012
68.925 32.772568
68.930 33.451752
68.935 33.657742
68.940 33.408669
68.945 33.730606
68.950 33.374252
68.955 33.290989
68.960 33.444466
68.965 33.041203
68.970 33.058743
68.975 33.174503
68.980 33.287941
68.985 33.442123
68.990 32.775017
68.995 32.082047
69.000 32.341541
69.005 32.001896
69.010 31.338999
69.015 30.670809
69.020 30.662491
69.025 30.534992
69.030 30.045366
69.035 28.65062
69.040 27.731556
69.045 27.165382
69.050 27.394272
69.055 27.68811
69.060 27.744097
69.065 27.650217
69.070 28.29851
69.075 28.861704
69.080 28.963648
69.085 27.929886
69.090 27.006998
69.095 27.049145
69.100 27.228855
69.105 26.821115
69.110 26.84621
69.115 26.603331
69.120 26.742296
69.125 26.217747
69.130 25.93623
69.135 25.698526
69.140 24.866995
69.145 23.972193
69.150 23.459166
69.155 23.728176
69.160 24.351423
69.165 23.951139
69.170 24.356064
69.175 24.842607
69.180 24.549648
69.185 24.298044
69.190 23.949518
69.195 23.780525
69.200 23.777334
69.205 22.738802
69.210 22.098614
69.215 22.363407
69.220 22.127222
69.225 22.264561
69.230 21.992113
69.235 21.984734
69.240 22.532682
69.245 22.877728
69.250 22.828995
69.255 23.286261
69.260 23.421261
69.265 22.70664
69.270 22.32588
69.275 21.9853
69.280 21.407259
69.285 21.596424
69.290 21.234642
69.295 21.31595
69.300 21.753307
69.305 21.49765
69.310 21.424501
69.315 21.582176
69.320 21.198931
69.325 20.995455
69.330 20.507839
69.335 20.358805
69.340 20.337511
69.345 20.119797
69.350 19.295288
69.355 18.656174
69.360 18.617971
69.365 18.470896
69.370 17.910261
69.375 17.801716
69.380 17.101166
69.385 17.166285
69.390 17.182072
69.395 17.038433
69.400 17.502579
69.405 17.241728
69.410 17.510977
69.415 17.870083
69.420 18.683292
69.425 19.574268
69.430 19.98974
69.435 20.211172
69.440 20.85622
69.445 20.563961
69.450 21.043606
69.455 20.253965
69.460 19.550205
69.465 19.218931
69.470 19.047291
69.475 19.378731
69.480 20.33457
69.485 19.8568
69.490 20.008398
69.495 20.14023
69.500 19.880594
69.505 19.334974
69.510 18.458479
69.515 17.621029
69.520 17.687807
69.525 18.157862
69.530 18.18675
69.535 18.208672
69.540 18.611107
69.545 19.087437
69.550 19.630678
69.555 19.469156
69.560 18.967743
69.565 19.245359
69.570 19.495752
69.575 19.88863
69.580 19.239101
69.585 19.309668
69.590 19.303623
69.595 19.382524
69.600 19.228394
69.605 19.150097
69.610 18.935314
69.615 19.418726
69.620 19.376528
69.625 19.554539
69.630 19.734509
69.635 19.696896
69.640 19.15876
69.645 19.582302
69.650 19.912546
69.655 19.741156
69.660 19.522036
69.665 19.211105
69.670 19.194147
69.675 19.477751
69.680 19.213726
69.685 18.840559
69.690 18.649736
69.695 18.815033
69.700 18.841789
69.705 19.093483
69.710 18.752703
69.715 18.477438
69.720 18.476608
69.725 18.472866
69.730 18.150814
69.735 17.575169
69.740 17.511288
69.745 17.452381
69.750 17.021202
69.755 17.1215
69.760 16.934061
69.765 17.025585
69.770 17.668985
69.775 18.110138
69.780 18.52113
69.785 19.024454
69.790 19.324791
69.795 19.740307
69.800 20.401026
69.805 20.036797
69.810 19.442099
69.815 19.257936
69.820 18.552261
69.825 18.273861
69.830 18.363651
69.835 18.407797
69.840 18.550236
69.845 18.627733
69.850 18.551092
69.855 19.256083
69.860 18.944088
69.865 18.480824
69.870 17.759172
69.875 17.587059
69.880 17.90324
69.885 18.270536
69.890 17.994568
69.895 17.520838
69.900 17.301048
69.905 17.811762
69.910 17.998594
69.915 17.746428
69.920 17.215477
69.925 17.419802
69.930 17.740944
69.935 17.99288
69.940 17.946901
69.945 17.823088
69.950 18.319204
69.955 18.487682
69.960 18.636024
69.965 18.17959
69.970 18.14353
69.975 17.567284
69.980 17.212151
69.985 16.438032
69.990 16.484602
69.995 16.608027
70.000 17.165518
70.005 16.838642
70.010 17.320612
70.015 17.848255
70.020 18.219765
70.025 17.917025
70.030 17.375698
70.035 17.518608
70.040 17.665041
70.045 17.437899
70.050 16.515284
70.055 16.689524
70.060 16.964085
70.065 16.790148
70.070 16.8088
70.075 16.889856
70.080 17.267649
70.085 17.686132
70.090 17.663786
70.095 17.669123
70.100 17.76745
70.105 17.462265
70.110 17.833576
70.115 17.954695
70.120 18.296322
70.125 18.83532
70.130 19.308229
70.135 19.378267
70.140 19.577692
70.145 19.159727
70.150 18.641027
70.155 18.430269
70.160 17.86758
70.165 17.347937
70.170 18.189228
70.175 17.57163
70.180 17.595074
70.185 17.305368
70.190 16.874653
70.195 16.716238
70.200 17.351316
70.205 17.062386
70.210 17.481213
70.215 17.065195
70.220 17.770891
70.225 18.100487
70.230 18.190817
70.235 18.036974
70.240 17.945061
70.245 18.543234
70.250 19.164766
70.255 19.584904
70.260 19.998369
70.265 20.034134
70.270 19.876316
70.275 20.356369
70.280 19.971743
70.285 19.821278
70.290 18.892263
70.295 18.582811
70.300 18.44771
70.305 18.114017
70.310 17.740683
70.315 18.014496
70.320 17.855869
70.325 18.100718
70.330 17.897234
70.335 17.787954
70.340 18.316109
70.345 18.299311
70.350 18.570168
70.355 18.660055
70.360 19.210377
70.365 19.461155
70.370 19.618433
70.375 19.04908
70.380 19.299477
70.385 18.897646
70.390 19.023338
70.395 18.589056
70.400 18.531099
70.405 18.345921
70.410 17.934052
70.415 17.508125
70.420 17.501648
70.425 17.076973
70.430 16.890591
70.435 16.90831
70.440 16.932384
70.445 17.692936
70.450 17.861977
70.455 17.970097
70.460 17.996811
70.465 18.127449
70.470 18.575527
70.475 18.469757
70.480 17.478142
70.485 17.388922
70.490 17.151957
70.495 17.399412
70.500 17.350674
70.505 16.843035
70.510 17.490652
70.515 18.13612
70.520 18.604767
70.525 18.416107
70.530 18.576027
70.535 18.734909
70.540 19.162886
70.545 18.717125
70.550 17.925051
70.555 17.953779
70.560 18.349699
70.565 18.479858
70.570 18.404081
70.575 17.950773
70.580 18.771275
70.585 19.421324
70.590 19.130247
70.595 18.697111
70.600 18.183235
70.605 17.722628
70.610 18.094824
70.615 17.567076
70.620 17.442678
70.625 17.973782
70.630 18.034199
70.635 18.454306
70.640 18.320446
70.645 17.47208
70.650 17.137112
70.655 17.182512
70.660 17.284052
70.665 17.06703
70.670 17.126419
70.675 17.284575
70.680 17.125416
70.685 17.464924
70.690 17.598053
70.695 17.750784
70.700 17.862062
70.705 17.467657
70.710 17.789658
70.715 18.670961
70.720 18.534933
70.725 18.11001
70.730 17.508684
70.735 17.611712
70.740 18.068531
70.745 18.028925
70.750 17.998768
70.755 17.816664
70.760 17.779848
70.765 17.65691
70.770 17.749079
70.775 17.720207
70.780 17.676617
70.785 16.718752
70.790 16.979429
70.795 17.333761
70.800 17.716717
70.805 17.328608
70.810 16.941923
70.815 17.141867
70.820 17.678122
70.825 17.856773
70.830 17.1451
70.835 16.542217
70.840 16.275805
70.845 16.216145
70.850 16.02993
70.855 16.116922
70.860 16.071054
70.865 16.665642
70.870 17.206436
70.875 17.568861
70.880 17.55344
70.885 17.328465
70.890 17.022184
70.895 17.469418
70.900 17.499615
70.905 17.495522
70.910 17.435869
70.915 17.655676
70.920 17.755747
70.925 17.93709
70.930 18.150789
70.935 17.998413
70.940 18.130692
70.945 18.396505
70.950 18.005827
70.955 18.361845
70.960 18.039791
70.965 17.417204
70.970 17.408655
70.975 17.248102
70.980 17.024796
70.985 17.154148
70.990 16.900753
70.995 16.88101
71.000 17.21677
71.005 17.517414
71.010 17.671728
71.015 17.564054
71.020 18.017893
71.025 17.994669
71.030 17.887884
71.035 17.632942
71.040 17.6569
71.045 18.117088
71.050 17.551126
71.055 17.656599
71.060 17.963577
71.065 18.177193
71.070 18.547396
71.075 18.013227
71.080 17.999905
71.085 18.599934
71.090 17.674576
71.095 17.63567
71.100 17.17243
71.105 16.814749
71.110 17.037796
71.115 17.172867
71.120 17.138075
71.125 17.731977
71.130 18.43771
71.135 18.619507
71.140 18.619354
71.145 19.105379
71.150 19.094244
71.155 19.012959
71.160 18.789793
71.165 18.089453
71.170 18.218946
71.175 18.287155
71.180 17.919056
71.185 18.177685
71.190 18.291645
71.195 17.68387
71.200 17.718384
71.205 17.654774
71.210 17.919275
71.215 17.946609
71.220 17.809465
71.225 18.095932
71.230 18.784229
71.235 18.829542
71.240 18.476028
71.245 18.142124
71.250 18.109274
71.255 18.662268
71.260 18.472197
71.265 18.066637
71.270 18.428522
71.275 18.612762
71.280 18.530821
71.285 18.565325
71.290 18.158384
71.295 18.990465
71.300 19.45944
71.305 19.06185
71.310 18.949171
71.315 19.13871
71.320 18.97275
71.325 18.528103
71.330 18.209114
71.335 18.665039
71.340 19.051212
71.345 19.208967
71.350 18.972544
71.355 18.921431
71.360 18.995506
71.365 18.034315
71.370 17.156981
71.375 17.18252
71.380 17.052736
71.385 16.543533
71.390 16.186014
71.395 15.77462
71.400 15.972229
71.405 16.014248
71.410 16.120167
71.415 16.080791
71.420 16.703386
71.425 17.22636
71.430 17.496174
71.435 17.581501
71.440 17.62748
71.445 17.648544
71.450 17.618217
71.455 17.136566
71.460 16.710747
71.465 16.616488
71.470 16.009588
71.475 15.537431
71.480 15.498349
71.485 15.362391
71.490 15.488269
71.495 15.954967
71.500 15.976711
71.505 17.01086
71.510 17.298788
71.515 17.538378
71.520 17.844917
71.525 18.037621
71.530 17.982819
71.535 17.958746
71.540 17.929678
71.545 17.764029
71.550 17.569027
71.555 17.866451
71.560 17.714853
71.565 18.2264
71.570 17.768518
71.575 17.088854
71.580 17.374191
71.585 17.520823
71.590 17.570719
71.595 17.254251
71.600 16.901304
71.605 17.814337
71.610 17.955576
71.615 17.553967
71.620 17.31216
71.625 17.307295
71.630 17.794937
71.635 17.847157
71.640 17.233349
71.645 16.811279
71.650 16.489889
71.655 16.669359
71.660 16.76886
71.665 17.073315
71.670 17.405066
71.675 18.33387
71.680 18.940704
71.685 18.935616
71.690 18.796625
71.695 18.958019
71.700 18.683668
71.705 18.609135
71.710 18.236202
71.715 18.30669
71.720 18.676672
71.725 18.562374
71.730 17.787485
71.735 17.261431
71.740 16.914871
71.745 16.791473
71.750 16.949736
71.755 17.112597
71.760 17.559185
71.765 17.879766
71.770 18.560169
71.775 19.432951
71.780 20.26523
71.785 20.672501
71.790 20.566097
71.795 20.281956
71.800 19.672169
71.805 19.515358
71.810 18.514835
71.815 17.784775
71.820 17.221546
71.825 16.682077
71.830 16.419748
71.835 16.938208
71.840 16.800364
71.845 17.572214
71.850 17.673464
71.855 17.365681
71.860 17.987387
71.865 18.26602
71.870 18.103367
71.875 18.561617
71.880 18.495169
71.885 18.473028
71.890 18.1103
71.895 18.048534
71.900 18.330448
71.905 17.99958
71.910 17.446524
71.915 17.338625
71.920 17.334938
71.925 17.993782
71.930 17.9231
71.935 18.184391
71.940 18.446737
71.945 18.071474
71.950 17.737104
71.955 17.224293
71.960 16.420444
71.965 16.178606
71.970 15.764023
71.975 15.979888
71.980 16.535683
71.985 17.364534
71.990 18.266562
71.995 18.261044
72.000 17.897175
72.005 17.858324
72.010 17.332483
72.015 17.247253
72.020 17.121834
72.025 17.121538
72.030 17.592728
72.035 17.684422
72.040 17.399841
72.045 17.247587
72.050 16.958052
72.055 16.857246
72.060 17.217611
72.065 17.589506
72.070 18.203295
72.075 18.590921
72.080 18.413652
72.085 18.244404
72.090 17.413168
72.095 16.539991
72.100 16.345554
72.105 16.21291
72.110 16.2139
72.115 16.7924
72.120 17.854385
72.125 18.662195
72.130 18.995575
72.135 18.617054
72.140 18.458902
72.145 18.540552
72.150 17.809822
72.155 17.554674
72.160 17.292086
72.165 17.463114
72.170 17.383991
72.175 17.478266
72.180 17.171101
72.185 16.558226
72.190 16.414539
72.195 16.774761
72.200 16.919292
72.205 17.093815
72.210 16.974949
72.215 17.35347
72.220 17.690996
72.225 17.225779
72.230 16.527088
72.235 16.387564
72.240 16.793808
72.245 16.787659
72.250 16.152849
72.255 15.68924
72.260 15.984594
72.265 16.01214
72.270 15.852102
72.275 15.854676
72.280 16.01948
72.285 16.807522
72.290 17.273664
72.295 17.266474
72.300 17.80163
72.305 17.972191
72.310 17.492998
72.315 17.651203
72.320 16.877815
72.325 17.28867
72.330 17.60239
72.335 17.694466
72.340 17.668129
72.345 18.015854
72.350 18.432947
72.355 18.577049
72.360 18.068989
72.365 18.133465
72.370 18.135464
72.375 18.270744
72.380 18.20648
72.385 17.832476
72.390 17.860685
72.395 18.092699
72.400 17.767723
72.405 17.816858
72.410 18.09936
72.415 17.801466
72.420 17.642258
72.425 17.332531
72.430 16.543056
72.435 16.146652
72.440 15.755322
72.445 15.677834
72.450 15.992047
72.455 16.145794
72.460 16.449526
72.465 16.906107
72.470 17.199299
72.475 17.378765
72.480 17.712599
72.485 18.12402
72.490 18.199753
72.495 18.113638
72.500 17.979559
72.505 17.95822
72.510 17.842457
72.515 17.865017
72.520 18.517048
72.525 18.406233
72.530 18.528982
72.535 18.626873
72.540 18.348831
72.545 18.213186
72.550 18.080442
72.555 18.034571
72.560 18.220421
72.565 18.330086
72.570 18.277004
72.575 18.220139
72.580 17.86517
72.585 17.034777
72.590 16.69425
72.595 16.357231
72.600 16.313868
72.605 16.707247
72.610 16.599028
72.615 17.086376
72.620 17.518562
72.625 17.925272
72.630 18.655251
72.635 18.354414
72.640 17.894131
72.645 17.708508
72.650 16.976191
72.655 17.438351
72.660 16.584982
72.665 16.844519
72.670 16.539934
72.675 16.825138
72.680 16.738625
72.685 16.424114
72.690 15.801133
72.695 15.458144
72.700 15.306585
72.705 15.876823
72.710 16.158064
72.715 16.791578
72.720 17.29669
72.725 17.180405
72.730 17.149557
72.735 16.592939
72.740 15.804904
72.745 15.482068
72.750 15.504454
72.755 15.595264
72.760 15.702856
72.765 15.635981
72.770 16.006777
72.775 16.345354
72.780 16.090996
72.785 15.870126
72.790 15.853319
72.795 16.288754
72.800 16.845221
72.805 17.359592
72.810 17.450682
72.815 17.647039
72.820 17.929834
72.825 17.898932
72.830 17.991438
72.835 17.9676
72.840 17.231897
72.845 17.215841
72.850 17.100842
72.855 16.641718
72.860 16.406881
72.865 15.810866
72.870 15.808746
72.875 15.9106
72.880 15.741468
72.885 15.7507
72.890 15.698992
72.895 15.72291
72.900 15.584718
72.905 15.231603
72.910 15.500322
72.915 15.022552
72.920 14.917268
72.925 15.158718
72.930 15.327346
72.935 15.789072
72.940 15.878433
72.945 16.272594
72.950 16.845924
72.955 17.092875
72.960 16.958086
72.965 16.384808
72.970 16.521631
72.975 16.363073
72.980 15.776171
72.985 15.747257
72.990 15.996809
72.995 15.835314
73.000 15.96779
