!@!!GADDS PLOTSO FILE: Chi integration type
!@!!Title/SampleName: map-14f
!@!!Comment: ?
!@!!User: Bruker Instrument Administrator
!@!!Site: University of Illinois Chicago
!@!!Frame: map-14f_01_000.gfrm
!@!!Wavelengths    1.54184   1.54056   1.54439
!@!!Frame angles: 2Theta: 63.000 Omega: 50.000 Phi: 0.000 Chi: 90.000
!@!!Integration range: 2Theta: 53.000 to 73.000  Gamma: -105.000 to -75.000
!@!!Integration method: bin normalized
!@!N
!@!SS
!@!M
!@!L 0.0 0.0 0.0 0.0
!@!XDegrees
!@!YCounts
53.000 10.12234
53.005 10.114872
53.010 9.703566
53.015 9.270454
53.020 9.449096
53.025 9.747131
53.030 10.408237
53.035 10.864223
53.040 10.764552
53.045 11.050032
53.050 10.858446
53.055 10.295587
53.060 9.940117
53.065 9.108948
53.070 8.683453
53.075 8.701192
53.080 8.48469
53.085 8.11768
53.090 7.683633
53.095 7.64111
53.100 7.842402
53.105 8.204711
53.110 8.589089
53.115 9.292445
53.120 9.843898
53.125 9.914316
53.130 10.281086
53.135 10.390168
53.140 10.281863
53.145 9.77214
53.150 9.523215
53.155 9.712167
53.160 9.763687
53.165 9.483599
53.170 9.172971
53.175 9.049546
53.180 9.191524
53.185 9.036223
53.190 9.121768
53.195 9.28635
53.200 9.178618
53.205 9.43073
53.210 9.261217
53.215 9.299338
53.220 9.287786
53.225 9.064922
53.230 8.96733
53.235 8.942275
53.240 9.130778
53.245 9.088574
53.250 8.877093
53.255 8.871848
53.260 8.856041
53.265 9.089619
53.270 9.192695
53.275 9.164982
53.280 9.407256
53.285 9.211448
53.290 9.105875
53.295 9.015294
53.300 8.80595
53.305 8.809311
53.310 8.893272
53.315 8.625556
53.320 8.644217
53.325 8.586705
53.330 8.592303
53.335 9.008181
53.340 8.979078
53.345 8.977509
53.350 9.379245
53.355 9.337856
53.360 9.078856
53.365 9.037271
53.370 8.803136
53.375 8.979142
53.380 9.206712
53.385 9.63808
53.390 9.826509
53.395 9.957292
53.400 10.234802
53.405 10.001641
53.410 10.035385
53.415 9.926603
53.420 9.549435
53.425 9.47069
53.430 9.375117
53.435 9.26279
53.440 9.495671
53.445 9.014894
53.450 9.165902
53.455 9.369338
53.460 9.659707
53.465 9.70663
53.470 9.716158
53.475 9.840709
53.480 10.356101
53.485 10.038217
53.490 9.5453
53.495 9.716259
53.500 9.790522
53.505 9.955679
53.510 9.707444
53.515 9.496489
53.520 9.797369
53.525 10.408906
53.530 10.314716
53.535 9.810315
53.540 9.406832
53.545 9.336388
53.550 8.951375
53.555 8.855439
53.560 8.451638
53.565 8.769624
53.570 8.638905
53.575 8.912389
53.580 9.01565
53.585 9.308743
53.590 9.657792
53.595 9.773099
53.600 9.739121
53.605 10.075368
53.610 10.047875
53.615 10.355362
53.620 10.035457
53.625 9.728223
53.630 9.603507
53.635 9.541127
53.640 9.519522
53.645 9.735641
53.650 9.981014
53.655 10.26997
53.660 10.561378
53.665 10.503386
53.670 10.159341
53.675 10.003109
53.680 9.743416
53.685 9.210772
53.690 9.189569
53.695 8.97467
53.700 9.321011
53.705 10.006968
53.710 10.119166
53.715 10.220998
53.720 10.402556
53.725 10.393173
53.730 10.842361
53.735 10.862139
53.740 10.82494
53.745 10.550127
53.750 10.392063
53.755 10.116583
53.760 10.136053
53.765 10.360632
53.770 10.495586
53.775 10.5009
53.780 10.617577
53.785 10.690292
53.790 10.733802
53.795 9.979959
53.800 9.165254
53.805 8.880227
53.810 8.838985
53.815 8.809922
53.820 8.77977
53.825 8.729001
53.830 9.217326
53.835 9.057557
53.840 9.019409
53.845 8.911939
53.850 8.887089
53.855 9.187305
53.860 10.050378
53.865 10.130373
53.870 9.946446
53.875 9.688355
53.880 9.87544
53.885 9.654892
53.890 9.403399
53.895 8.770066
53.900 8.78714
53.905 9.110855
53.910 9.541472
53.915 9.312358
53.920 9.12378
53.925 8.825729
53.930 9.207225
53.935 9.138593
53.940 8.638486
53.945 8.593636
53.950 8.90375
53.955 9.287197
53.960 9.21152
53.965 8.905892
53.970 9.231392
53.975 9.462729
53.980 9.353791
53.985 9.125007
53.990 9.477884
53.995 9.628336
54.000 9.50495
54.005 9.312053
54.010 9.43611
54.015 9.694593
54.020 9.635316
54.025 8.977403
54.030 8.888954
54.035 8.798471
54.040 8.867777
54.045 8.571892
54.050 8.245289
54.055 8.327673
54.060 8.545263
54.065 8.564444
54.070 8.83757
54.075 8.8306
54.080 9.141844
54.085 9.354061
54.090 9.534412
54.095 9.339911
54.100 9.442801
54.105 9.566491
54.110 9.633355
54.115 9.46542
54.120 9.3493
54.125 9.393432
54.130 9.779168
54.135 9.886577
54.140 9.474509
54.145 9.440151
54.150 9.781723
54.155 10.279922
54.160 10.582371
54.165 10.35229
54.170 10.525326
54.175 10.598002
54.180 10.521061
54.185 9.88956
54.190 9.484011
54.195 9.341267
54.200 8.892355
54.205 8.87946
54.210 8.721972
54.215 8.765118
54.220 9.121057
54.225 9.251945
54.230 9.747282
54.235 10.336327
54.240 9.983006
54.245 10.530605
54.250 10.623162
54.255 10.390801
54.260 10.120905
54.265 10.035463
54.270 9.872787
54.275 9.870135
54.280 9.862058
54.285 10.076266
54.290 10.710885
54.295 10.490604
54.300 10.208939
54.305 10.254862
54.310 10.496713
54.315 10.373847
54.320 10.103676
54.325 9.735175
54.330 9.79048
54.335 9.711297
54.340 9.773943
54.345 9.409455
54.350 9.46894
54.355 9.446601
54.360 9.304593
54.365 9.53796
54.370 9.83682
54.375 9.281708
54.380 9.22662
54.385 9.054502
54.390 9.504664
54.395 9.8312
54.400 9.48431
54.405 9.672798
54.410 10.51016
54.415 10.649539
54.420 10.37721
54.425 9.764256
54.430 9.510124
54.435 9.816101
54.440 9.586495
54.445 9.244102
54.450 9.699176
54.455 9.695212
54.460 9.82889
54.465 9.854832
54.470 9.528293
54.475 9.67888
54.480 9.703551
54.485 9.353832
54.490 9.252483
54.495 9.126874
54.500 9.081953
54.505 8.871914
54.510 8.510216
54.515 8.703916
54.520 8.633425
54.525 8.913661
54.530 8.84391
54.535 8.674556
54.540 8.87485
54.545 8.952452
54.550 9.101382
54.555 9.500572
54.560 9.58839
54.565 9.799719
54.570 10.201545
54.575 10.353404
54.580 10.201237
54.585 9.901563
54.590 9.825607
54.595 9.842434
54.600 9.671783
54.605 9.753062
54.610 9.652649
54.615 9.551025
54.620 9.311988
54.625 8.906318
54.630 8.877465
54.635 8.893261
54.640 8.639244
54.645 8.655015
54.650 8.884035
54.655 9.824927
54.660 10.306896
54.665 10.328243
54.670 10.149539
54.675 10.469485
54.680 10.479875
54.685 10.397029
54.690 10.245068
54.695 10.136832
54.700 10.073458
54.705 10.143966
54.710 9.630576
54.715 10.149172
54.720 10.4379
54.725 10.0267
54.730 10.421908
54.735 10.87764
54.740 11.12076
54.745 11.516488
54.750 11.537599
54.755 11.422598
54.760 11.461495
54.765 11.388603
54.770 11.306152
54.775 11.211614
54.780 11.23848
54.785 10.713837
54.790 10.642946
54.795 10.27277
54.800 10.173174
54.805 10.316453
54.810 10.115693
54.815 10.012834
54.820 10.52262
54.825 10.283607
54.830 10.295151
54.835 10.033731
54.840 9.945004
54.845 10.149389
54.850 9.954214
54.855 9.635833
54.860 9.627439
54.865 10.131483
54.870 9.76696
54.875 9.899595
54.880 10.198331
54.885 10.299366
54.890 10.3745
54.895 10.746792
54.900 10.414027
54.905 10.77142
54.910 10.435369
54.915 10.380108
54.920 10.335229
54.925 10.226999
54.930 10.104422
54.935 10.444221
54.940 10.318462
54.945 10.120307
54.950 10.197274
54.955 10.327333
54.960 10.375166
54.965 10.363622
54.970 10.164474
54.975 10.128741
54.980 10.164004
54.985 9.766323
54.990 9.500627
54.995 9.296988
55.000 9.179841
55.005 9.147085
55.010 9.287225
55.015 9.542668
55.020 9.953659
55.025 10.594599
55.030 10.383675
55.035 11.065443
55.040 11.108633
55.045 10.99676
55.050 10.876731
55.055 10.543607
55.060 9.949588
55.065 10.013069
55.070 9.773824
55.075 9.863091
55.080 9.7156
55.085 9.212852
55.090 9.249429
55.095 9.383971
55.100 9.497195
55.105 9.199938
55.110 9.642405
55.115 10.368728
55.120 10.629374
55.125 11.043329
55.130 11.577123
55.135 11.335028
55.140 11.035034
55.145 10.528203
55.150 10.390937
55.155 10.410539
55.160 10.154241
55.165 9.978127
55.170 10.327675
55.175 10.641719
55.180 10.826399
55.185 10.264224
55.190 10.147787
55.195 10.361267
55.200 10.370875
55.205 10.205085
55.210 10.210188
55.215 10.295646
55.220 10.599411
55.225 10.427112
55.230 9.789442
55.235 9.505299
55.240 9.442308
55.245 9.475734
55.250 9.444086
55.255 10.024128
55.260 10.252863
55.265 10.529081
55.270 10.710552
55.275 10.753848
55.280 10.411218
55.285 10.642015
55.290 10.107656
55.295 9.999187
55.300 9.754196
55.305 9.713876
55.310 9.974633
55.315 10.144829
55.320 9.725191
55.325 9.481676
55.330 9.58587
55.335 10.249831
55.340 10.461263
55.345 10.262681
55.350 10.180892
55.355 10.876306
55.360 11.654421
55.365 11.198891
55.370 10.805697
55.375 11.030643
55.380 11.309971
55.385 11.210956
55.390 11.169433
55.395 11.628079
55.400 11.72509
55.405 11.319953
55.410 10.672845
55.415 10.292798
55.420 10.902209
55.425 10.385613
55.430 10.157454
55.435 10.258141
55.440 10.475669
55.445 11.025157
55.450 11.134677
55.455 10.539137
55.460 10.451992
55.465 10.508148
55.470 10.197263
55.475 9.953585
55.480 9.420596
55.485 9.349903
55.490 9.434577
55.495 9.655688
55.500 9.735359
55.505 10.230243
55.510 10.94263
55.515 11.359973
55.520 11.330242
55.525 10.97892
55.530 10.760972
55.535 10.434341
55.540 9.94388
55.545 8.98801
55.550 8.727278
55.555 8.900108
55.560 8.781216
55.565 8.653026
55.570 8.752675
55.575 9.048136
55.580 9.538115
55.585 9.736342
55.590 9.538683
55.595 9.629763
55.600 9.612162
55.605 9.78699
55.610 9.824791
55.615 9.913805
55.620 9.747346
55.625 10.097231
55.630 10.274666
55.635 10.49263
55.640 10.56875
55.645 10.492394
55.650 9.928833
55.655 9.751923
55.660 9.638578
55.665 9.501661
55.670 9.378128
55.675 9.490013
55.680 10.100643
55.685 10.8709
55.690 11.085552
55.695 11.164293
55.700 11.391422
55.705 11.152773
55.710 10.496378
55.715 9.884932
55.720 9.634715
55.725 9.772587
55.730 9.605519
55.735 9.502355
55.740 9.185348
55.745 9.377305
55.750 9.650696
55.755 9.700902
55.760 9.347881
55.765 9.359586
55.770 9.472198
55.775 10.385894
55.780 10.569627
55.785 10.439959
55.790 10.327475
55.795 10.676033
55.800 10.404787
55.805 10.312671
55.810 10.109507
55.815 10.320875
55.820 10.701844
55.825 11.109583
55.830 11.369457
55.835 11.682379
55.840 11.855761
55.845 11.926172
55.850 12.26497
55.855 12.256228
55.860 11.463495
55.865 11.023104
55.870 11.107435
55.875 11.099694
55.880 10.954309
55.885 10.534485
55.890 10.677817
55.895 11.142823
55.900 11.477539
55.905 11.164283
55.910 10.879323
55.915 10.873384
55.920 10.631089
55.925 10.369752
55.930 10.009604
55.935 10.073546
55.940 10.241312
55.945 10.459864
55.950 10.646019
55.955 10.937182
55.960 11.28628
55.965 11.357696
55.970 11.500066
55.975 11.826425
55.980 11.366973
55.985 10.873907
55.990 10.395376
55.995 10.226693
56.000 10.535079
56.005 10.029658
56.010 9.928367
56.015 10.511465
56.020 10.924412
56.025 10.727295
56.030 10.520476
56.035 10.968917
56.040 11.394729
56.045 10.800215
56.050 10.188418
56.055 10.564351
56.060 10.940623
56.065 11.068743
56.070 10.864002
56.075 10.729076
56.080 11.14175
56.085 11.338405
56.090 10.900946
56.095 11.236691
56.100 11.112157
56.105 10.891126
56.110 11.005711
56.115 11.38281
56.120 11.380569
56.125 11.552609
56.130 11.383759
56.135 11.194206
56.140 11.370724
56.145 11.15335
56.150 10.828397
56.155 11.122592
56.160 10.673329
56.165 10.360597
56.170 10.465537
56.175 10.384645
56.180 10.430095
56.185 10.585237
56.190 10.603316
56.195 10.874204
56.200 10.988736
56.205 10.722165
56.210 11.00995
56.215 10.982596
56.220 10.663577
56.225 10.829678
56.230 11.055197
56.235 11.21382
56.240 11.201854
56.245 10.642278
56.250 10.654204
56.255 10.150058
56.260 9.620997
56.265 9.570525
56.270 9.489401
56.275 9.721493
56.280 9.799569
56.285 9.827517
56.290 10.373583
56.295 10.845165
56.300 11.035234
56.305 11.362523
56.310 11.542345
56.315 11.772775
56.320 11.745385
56.325 11.50513
56.330 11.204353
56.335 11.001541
56.340 10.954725
56.345 10.461729
56.350 10.506394
56.355 10.590407
56.360 10.817275
56.365 10.834735
56.370 10.723147
56.375 10.27734
56.380 10.086806
56.385 10.166656
56.390 10.096251
56.395 10.206963
56.400 10.615729
56.405 10.726892
56.410 11.473332
56.415 12.109608
56.420 11.970734
56.425 12.20092
56.430 11.843165
56.435 11.551105
56.440 11.933682
56.445 11.742577
56.450 11.376987
56.455 11.697538
56.460 12.044134
56.465 12.440346
56.470 12.05173
56.475 12.06532
56.480 12.192416
56.485 12.427062
56.490 12.967801
56.495 13.001657
56.500 13.085883
56.505 13.077392
56.510 12.697156
56.515 12.369742
56.520 12.401073
56.525 11.931812
56.530 11.75534
56.535 11.62859
56.540 12.149208
56.545 12.472267
56.550 12.070251
56.555 11.903071
56.560 11.755489
56.565 11.900986
56.570 12.252974
56.575 11.79283
56.580 11.576013
56.585 12.245581
56.590 12.196004
56.595 11.801691
56.600 11.966857
56.605 11.877672
56.610 12.23842
56.615 12.368768
56.620 11.806037
56.625 12.092167
56.630 12.430916
56.635 11.731619
56.640 11.388988
56.645 11.016049
56.650 11.417527
56.655 12.072787
56.660 11.534742
56.665 11.257805
56.670 11.658958
56.675 11.691236
56.680 11.250266
56.685 10.814641
56.690 10.556079
56.695 11.019093
56.700 11.043527
56.705 10.533242
56.710 10.805522
56.715 10.98208
56.720 10.908743
56.725 10.645622
56.730 10.234728
56.735 10.366934
56.740 10.906953
56.745 10.760522
56.750 11.413707
56.755 11.578622
56.760 11.762218
56.765 12.032323
56.770 11.921783
56.775 11.730691
56.780 11.820588
56.785 11.575848
56.790 11.661852
56.795 11.27572
56.800 11.737474
56.805 12.106058
56.810 11.927514
56.815 11.503004
56.820 11.121278
56.825 11.089366
56.830 11.501313
56.835 10.938582
56.840 10.462622
56.845 10.690618
56.850 10.604244
56.855 10.252012
56.860 10.252381
56.865 10.281072
56.870 10.638225
56.875 10.562649
56.880 10.735575
56.885 10.960466
56.890 11.327971
56.895 10.815304
56.900 10.200541
56.905 10.245831
56.910 10.890657
56.915 10.874968
56.920 10.827899
56.925 10.971008
56.930 10.98966
56.935 10.909294
56.940 10.893698
56.945 10.676949
56.950 10.591038
56.955 10.478521
56.960 10.315542
56.965 10.700007
56.970 10.688669
56.975 10.404186
56.980 9.946327
56.985 10.076916
56.990 10.149578
56.995 10.010889
57.000 9.887314
57.005 10.165881
57.010 10.159693
57.015 10.346207
57.020 10.72879
57.025 10.773184
57.030 10.928576
57.035 10.9586
57.040 10.657013
57.045 10.556404
57.050 10.673761
57.055 10.349435
57.060 10.753545
57.065 10.689996
57.070 10.735962
57.075 11.034371
57.080 11.748046
57.085 12.033576
57.090 12.421545
57.095 12.454365
57.100 12.748527
57.105 13.063304
57.110 12.704196
57.115 12.181367
57.120 12.115503
57.125 11.336537
57.130 11.04736
57.135 11.284699
57.140 11.250384
57.145 11.659528
57.150 11.32783
57.155 11.080049
57.160 11.242404
57.165 11.168434
57.170 10.784341
57.175 10.552985
57.180 10.234858
57.185 10.039827
57.190 9.876331
57.195 9.961954
57.200 10.235034
57.205 10.653872
57.210 10.679463
57.215 11.046317
57.220 11.044907
57.225 11.178466
57.230 11.347709
57.235 11.09485
57.240 10.550166
57.245 10.882965
57.250 10.654074
57.255 11.066238
57.260 11.160711
57.265 11.137815
57.270 11.312682
57.275 11.674067
57.280 11.716726
57.285 12.029264
57.290 11.785349
57.295 11.67767
57.300 11.412769
57.305 11.115188
57.310 11.426605
57.315 11.873865
57.320 12.3124
57.325 12.774889
57.330 12.625225
57.335 12.93044
57.340 13.096813
57.345 12.911938
57.350 12.360258
57.355 11.95551
57.360 11.969592
57.365 12.221464
57.370 12.205128
57.375 12.07956
57.380 11.789351
57.385 11.868705
57.390 12.187284
57.395 12.392745
57.400 12.743338
57.405 12.848314
57.410 12.612712
57.415 12.696989
57.420 12.323368
57.425 11.831575
57.430 10.933269
57.435 10.509212
57.440 10.026119
57.445 10.360575
57.450 10.549294
57.455 10.589872
57.460 10.464864
57.465 11.15132
57.470 11.431943
57.475 12.02078
57.480 11.845504
57.485 10.952161
57.490 10.921368
57.495 11.261477
57.500 11.32379
57.505 11.425205
57.510 11.153588
57.515 11.474871
57.520 12.12766
57.525 12.321304
57.530 12.255791
57.535 12.169496
57.540 11.775146
57.545 11.551521
57.550 11.491189
57.555 11.358324
57.560 11.301348
57.565 11.085938
57.570 10.831371
57.575 11.076871
57.580 11.408763
57.585 11.523562
57.590 11.772881
57.595 11.713774
57.600 11.733466
57.605 12.116538
57.610 12.244243
57.615 12.111672
57.620 12.420987
57.625 12.794941
57.630 12.76645
57.635 12.77779
57.640 12.236436
57.645 11.941951
57.650 11.691133
57.655 11.522127
57.660 11.663047
57.665 11.823025
57.670 11.639748
57.675 11.896031
57.680 11.836972
57.685 12.006014
57.690 11.454629
57.695 11.195331
57.700 11.441601
57.705 12.169146
57.710 12.378427
57.715 12.178164
57.720 12.157358
57.725 12.533587
57.730 12.456484
57.735 11.843338
57.740 10.874507
57.745 11.078204
57.750 11.782121
57.755 12.067204
57.760 11.624499
57.765 11.464855
57.770 11.987213
57.775 12.163116
57.780 11.923929
57.785 11.74736
57.790 11.367146
57.795 11.557628
57.800 11.221524
57.805 11.227521
57.810 11.427899
57.815 11.515065
57.820 11.314736
57.825 11.585447
57.830 11.917443
57.835 12.416843
57.840 12.653947
57.845 12.423904
57.850 12.526646
57.855 12.711745
57.860 12.64924
57.865 12.559415
57.870 12.170339
57.875 12.079021
57.880 12.333982
57.885 12.059004
57.890 11.873761
57.895 11.523963
57.900 11.574854
57.905 11.300306
57.910 11.093991
57.915 11.123368
57.920 11.288033
57.925 11.160007
57.930 11.402782
57.935 11.286588
57.940 11.372355
57.945 11.146018
57.950 10.746511
57.955 10.661786
57.960 10.727931
57.965 10.702953
57.970 10.837173
57.975 11.286968
57.980 11.406109
57.985 11.447216
57.990 11.341906
57.995 11.597075
58.000 11.450264
58.005 11.413932
58.010 11.872452
58.015 12.41726
58.020 12.700929
58.025 12.829003
58.030 12.804221
58.035 13.105231
58.040 13.294887
58.045 12.660216
58.050 12.239842
58.055 12.04642
58.060 11.966952
58.065 12.252757
58.070 12.068268
58.075 11.276114
58.080 11.746257
58.085 12.638491
58.090 13.110851
58.095 12.939996
58.100 12.326732
58.105 12.318707
58.110 12.474622
58.115 12.110862
58.120 11.886859
58.125 11.732383
58.130 11.471604
58.135 11.676963
58.140 11.721577
58.145 11.97664
58.150 11.94188
58.155 11.330904
58.160 11.581806
58.165 12.204831
58.170 12.420242
58.175 12.678939
58.180 12.860299
58.185 12.877186
58.190 13.173903
58.195 12.772053
58.200 12.23511
58.205 11.687203
58.210 11.359153
58.215 11.292978
58.220 11.427736
58.225 11.592389
58.230 11.583898
58.235 12.038922
58.240 12.675409
58.245 12.625816
58.250 12.669218
58.255 12.544431
58.260 12.521651
58.265 12.66564
58.270 12.416915
58.275 12.802071
58.280 12.923469
58.285 12.907593
58.290 12.534868
58.295 12.329822
58.300 12.433146
58.305 12.287664
58.310 11.350567
58.315 11.403384
58.320 10.744373
58.325 11.008875
58.330 11.159364
58.335 11.394136
58.340 11.391654
58.345 11.738301
58.350 12.103085
58.355 12.791222
58.360 12.786792
58.365 12.603786
58.370 12.512065
58.375 12.415439
58.380 12.471961
58.385 12.125227
58.390 11.732265
58.395 12.086053
58.400 12.366817
58.405 12.602508
58.410 12.699272
58.415 12.354853
58.420 12.581612
58.425 12.211696
58.430 11.770906
58.435 11.712742
58.440 11.430322
58.445 11.479941
58.450 11.882811
58.455 11.929036
58.460 12.471012
58.465 12.544593
58.470 12.638716
58.475 12.874096
58.480 13.157989
58.485 13.170293
58.490 13.43642
58.495 13.660361
58.500 14.180135
58.505 14.387995
58.510 14.388088
58.515 14.242484
58.520 14.251176
58.525 14.713944
58.530 15.01003
58.535 14.333209
58.540 13.961164
58.545 14.058601
58.550 13.981647
58.555 13.994061
58.560 13.583986
58.565 13.024417
58.570 13.269774
58.575 13.583252
58.580 13.476223
58.585 13.417232
58.590 13.425335
58.595 13.389411
58.600 13.768367
58.605 14.069153
58.610 14.001827
58.615 13.772972
58.620 13.77961
58.625 14.276935
58.630 14.192233
58.635 14.013831
58.640 13.786816
58.645 13.76616
58.650 14.062706
58.655 14.003294
58.660 12.99707
58.665 12.807791
58.670 13.079763
58.675 13.026339
58.680 13.426338
58.685 13.413925
58.690 13.385506
58.695 14.045533
58.700 14.471236
58.705 14.364259
58.710 14.699265
58.715 14.611481
58.720 14.95438
58.725 14.914799
58.730 14.25687
58.735 13.541354
58.740 13.695742
58.745 13.425253
58.750 13.319706
58.755 13.089084
58.760 13.268661
58.765 14.318138
58.770 14.675793
58.775 14.484888
58.780 14.428293
58.785 14.237956
58.790 14.292947
58.795 14.558781
58.800 14.310896
58.805 14.436161
58.810 14.325226
58.815 14.163715
58.820 13.847558
58.825 14.018258
58.830 13.476886
58.835 13.481688
58.840 13.418585
58.845 13.327986
58.850 13.476988
58.855 13.709873
58.860 13.316789
58.865 12.771177
58.870 11.840423
58.875 11.605666
58.880 11.186183
58.885 11.187065
58.890 10.954618
58.895 11.065832
58.900 11.259486
58.905 11.194175
58.910 11.410497
58.915 11.813002
58.920 11.446226
58.925 11.660364
58.930 12.084371
58.935 12.391847
58.940 12.663455
58.945 12.392194
58.950 12.081131
58.955 12.45454
58.960 12.137475
58.965 11.892817
58.970 11.909637
58.975 11.958675
58.980 12.185099
58.985 11.718023
58.990 11.72857
58.995 11.942083
59.000 12.022779
59.005 12.636323
59.010 12.663936
59.015 12.952011
59.020 13.285891
59.025 13.404757
59.030 13.58704
59.035 13.153134
59.040 12.674428
59.045 12.800299
59.050 12.638704
59.055 12.617063
59.060 12.573654
59.065 12.484704
59.070 12.694691
59.075 12.600089
59.080 12.685701
59.085 12.610991
59.090 12.774574
59.095 12.409942
59.100 12.522964
59.105 12.761793
59.110 12.9793
59.115 12.651588
59.120 12.873683
59.125 12.632215
59.130 12.722889
59.135 12.61514
59.140 12.185629
59.145 11.67581
59.150 11.932835
59.155 11.851221
59.160 12.227463
59.165 12.172466
59.170 11.896156
59.175 11.979727
59.180 12.283886
59.185 12.249918
59.190 12.423166
59.195 12.240601
59.200 12.623537
59.205 12.810143
59.210 12.736265
59.215 12.666534
59.220 12.599972
59.225 12.42719
59.230 12.425666
59.235 11.772376
59.240 11.964426
59.245 12.43635
59.250 12.406363
59.255 12.845091
59.260 13.237117
59.265 13.558508
59.270 13.70373
59.275 13.305827
59.280 12.708152
59.285 12.459097
59.290 11.689982
59.295 11.057341
59.300 10.734015
59.305 10.735115
59.310 10.704229
59.315 10.729735
59.320 11.159221
59.325 10.971983
59.330 11.50595
59.335 11.60465
59.340 11.512472
59.345 11.408324
59.350 11.107462
59.355 10.537026
59.360 10.972256
59.365 10.543221
59.370 10.889907
59.375 11.323086
59.380 11.421612
59.385 11.772216
59.390 12.17524
59.395 12.244275
59.400 12.562983
59.405 12.504885
59.410 12.865139
59.415 13.448604
59.420 13.876741
59.425 13.591422
59.430 13.924421
59.435 13.829413
59.440 13.65856
59.445 13.317529
59.450 13.028435
59.455 12.762986
59.460 13.106425
59.465 13.136129
59.470 13.785767
59.475 13.706765
59.480 13.590948
59.485 13.413939
59.490 13.679161
59.495 13.366662
59.500 12.939228
59.505 12.45451
59.510 12.946178
59.515 13.102419
59.520 12.961809
59.525 12.59192
59.530 12.461305
59.535 12.457014
59.540 12.530385
59.545 12.062246
59.550 11.70661
59.555 11.807224
59.560 12.533678
59.565 13.341738
59.570 13.269001
59.575 13.308444
59.580 13.311694
59.585 13.433619
59.590 13.694674
59.595 13.4722
59.600 12.940467
59.605 12.608899
59.610 12.524617
59.615 12.706599
59.620 12.720133
59.625 12.763933
59.630 12.724683
59.635 12.753616
59.640 12.993494
59.645 12.966513
59.650 12.859694
59.655 12.827032
59.660 12.586872
59.665 12.119191
59.670 12.492021
59.675 12.559561
59.680 12.50239
59.685 13.022113
59.690 13.620794
59.695 13.853978
59.700 14.568225
59.705 14.98228
59.710 14.871377
59.715 15.102969
59.720 14.599827
59.725 14.408478
59.730 14.395834
59.735 14.267817
59.740 14.113401
59.745 14.695962
59.750 14.761806
59.755 14.79714
59.760 14.614938
59.765 14.426986
59.770 14.395193
59.775 14.876024
59.780 15.08027
59.785 15.606794
59.790 16.405676
59.795 16.53961
59.800 16.931314
59.805 16.558104
59.810 16.474634
59.815 15.975237
59.820 15.943843
59.825 15.301349
59.830 15.386442
59.835 15.217179
59.840 15.210222
59.845 14.932464
59.850 14.607886
59.855 14.503895
59.860 15.053404
59.865 15.295345
59.870 15.000151
59.875 15.164782
59.880 14.961464
59.885 15.19922
59.890 15.09617
59.895 14.78021
59.900 14.736625
59.905 15.348649
59.910 15.182455
59.915 15.225463
59.920 14.950175
59.925 15.129354
59.930 14.639105
59.935 14.641458
59.940 13.973145
59.945 13.289285
59.950 13.218177
59.955 13.737655
59.960 13.742451
59.965 13.578211
59.970 13.720201
59.975 14.236296
59.980 14.295857
59.985 14.224528
59.990 13.332373
59.995 12.592212
60.000 12.727677
60.005 12.377496
60.010 12.497248
60.015 13.391979
60.020 13.037821
60.025 13.315184
60.030 13.741278
60.035 14.050312
60.040 13.800201
60.045 13.60859
60.050 12.958154
60.055 13.405039
60.060 13.88099
60.065 14.243826
60.070 13.744079
60.075 13.617726
60.080 13.533703
60.085 13.956645
60.090 13.925813
60.095 13.723795
60.100 13.514032
60.105 13.918447
60.110 14.209093
60.115 14.156812
60.120 14.024422
60.125 13.710108
60.130 13.350348
60.135 13.316813
60.140 13.403907
60.145 12.89069
60.150 12.678946
60.155 12.769584
60.160 12.809636
60.165 13.164259
60.170 13.329453
60.175 13.703936
60.180 13.936687
60.185 14.262314
60.190 14.088899
60.195 13.849679
60.200 13.570158
60.205 13.660503
60.210 12.97359
60.215 13.438102
60.220 13.377801
60.225 13.492724
60.230 13.656705
60.235 13.703421
60.240 13.324255
60.245 13.790638
60.250 13.979918
60.255 14.364684
60.260 14.199876
60.265 14.053653
60.270 13.919404
60.275 13.540337
60.280 13.428929
60.285 12.823416
60.290 12.119438
60.295 12.054759
60.300 12.298373
60.305 12.371961
60.310 12.51597
60.315 11.825693
60.320 11.49423
60.325 11.665969
60.330 12.07349
60.335 12.148334
60.340 12.019502
60.345 12.122416
60.350 12.694637
60.355 12.94615
60.360 12.932098
60.365 12.462316
60.370 12.497376
60.375 13.098984
60.380 12.866955
60.385 12.354406
60.390 12.420381
60.395 12.715498
60.400 13.16188
60.405 12.695525
60.410 12.404075
60.415 12.803614
60.420 13.202619
60.425 13.373766
60.430 13.124137
60.435 12.238971
60.440 12.24041
60.445 12.391393
60.450 12.347676
60.455 12.346474
60.460 12.203618
60.465 12.059021
60.470 12.535346
60.475 12.764559
60.480 12.46535
60.485 12.398237
60.490 12.044175
60.495 11.568205
60.500 11.747207
60.505 11.797717
60.510 11.86046
60.515 11.82107
60.520 11.547414
60.525 11.60131
60.530 12.242845
60.535 12.274994
60.540 11.937907
60.545 11.730442
60.550 11.715412
60.555 12.031567
60.560 12.145445
60.565 11.90396
60.570 11.712207
60.575 11.976096
60.580 12.432142
60.585 12.454741
60.590 12.515388
60.595 12.915496
60.600 13.233554
60.605 13.172073
60.610 12.729335
60.615 12.911719
60.620 13.184868
60.625 13.099746
60.630 12.680249
60.635 12.205195
60.640 12.176965
60.645 12.668229
60.650 12.195203
60.655 11.498074
60.660 11.525969
60.665 11.486603
60.670 11.786303
60.675 11.695202
60.680 11.574936
60.685 11.683921
60.690 11.841788
60.695 12.448065
60.700 12.680692
60.705 12.7947
60.710 13.206547
60.715 12.974464
60.720 12.885447
60.725 12.822002
60.730 12.087596
60.735 12.229434
60.740 12.395355
60.745 12.147678
60.750 12.183913
60.755 12.13732
60.760 12.453515
60.765 12.302342
60.770 12.215235
60.775 12.106291
60.780 11.915417
60.785 11.736721
60.790 11.641303
60.795 11.35767
60.800 11.406484
60.805 11.096221
60.810 10.797035
60.815 11.05629
60.820 11.763338
60.825 12.06277
60.830 12.41698
60.835 12.621298
60.840 12.837418
60.845 13.124153
60.850 13.430231
60.855 13.326357
60.860 13.270716
60.865 12.948564
60.870 13.076726
60.875 13.165396
60.880 12.698627
60.885 11.874227
60.890 11.084116
60.895 11.029534
60.900 11.045224
60.905 10.910681
60.910 10.682055
60.915 10.793198
60.920 10.827152
60.925 11.089721
60.930 11.091317
60.935 10.902291
60.940 10.802272
60.945 11.385111
60.950 11.307421
60.955 11.225163
60.960 11.274971
60.965 11.161797
60.970 11.133548
60.975 10.763743
60.980 10.27712
60.985 10.675462
60.990 10.866875
60.995 10.609771
61.000 10.988723
61.005 11.065206
61.010 11.305328
61.015 11.690158
61.020 12.079967
61.025 12.108062
61.030 11.98738
61.035 12.021256
61.040 12.358896
61.045 12.318897
61.050 11.658823
61.055 11.042027
61.060 11.44819
61.065 12.159731
61.070 12.487564
61.075 12.346413
61.080 12.424852
61.085 12.326744
61.090 12.2349
61.095 12.106285
61.100 11.957872
61.105 11.19453
61.110 11.338657
61.115 11.51145
61.120 12.157774
61.125 12.388422
61.130 12.020219
61.135 11.434826
61.140 11.687509
61.145 11.507845
61.150 11.309413
61.155 11.137449
61.160 11.143751
61.165 11.422036
61.170 11.895867
61.175 11.834476
61.180 12.307472
61.185 12.401346
61.190 12.341137
61.195 12.617435
61.200 12.704311
61.205 12.440296
61.210 12.421643
61.215 12.082435
61.220 12.257591
61.225 12.526334
61.230 12.503592
61.235 12.566967
61.240 12.624323
61.245 12.996427
61.250 12.975158
61.255 12.819742
61.260 12.477924
61.265 12.267878
61.270 12.055309
61.275 12.142441
61.280 11.855161
61.285 12.0452
61.290 12.115895
61.295 12.401296
61.300 12.422558
61.305 12.620349
61.310 12.61452
61.315 12.622861
61.320 12.412428
61.325 12.29819
61.330 12.271312
61.335 12.621797
61.340 12.482503
61.345 12.304605
61.350 12.20113
61.355 12.344335
61.360 12.454456
61.365 12.407415
61.370 12.114331
61.375 12.115097
61.380 12.175666
61.385 12.146818
61.390 11.854095
61.395 11.300815
61.400 11.055793
61.405 11.472132
61.410 11.594501
61.415 11.777708
61.420 11.8224
61.425 12.239307
61.430 12.869954
61.435 12.900079
61.440 12.511497
61.445 12.501271
61.450 12.142116
61.455 11.903198
61.460 11.483964
61.465 11.405906
61.470 11.318851
61.475 10.767125
61.480 10.446719
61.485 10.785125
61.490 11.330614
61.495 11.916855
61.500 12.109946
61.505 11.99451
61.510 12.270005
61.515 12.686625
61.520 12.418289
61.525 11.849364
61.530 11.271931
61.535 11.177263
61.540 11.713132
61.545 11.603273
61.550 11.108047
61.555 11.327365
61.560 11.26989
61.565 11.483119
61.570 11.606031
61.575 11.698573
61.580 11.891935
61.585 11.7932
61.590 11.807157
61.595 12.146548
61.600 12.221168
61.605 11.877043
61.610 11.707654
61.615 11.873494
61.620 12.190134
61.625 12.248712
61.630 12.326142
61.635 12.616316
61.640 12.999087
61.645 12.660791
61.650 12.448194
61.655 11.950084
61.660 12.076297
61.665 12.146947
61.670 11.580239
61.675 11.299712
61.680 11.812671
61.685 12.296788
61.690 12.838242
61.695 12.639984
61.700 12.506739
61.705 12.965981
61.710 13.18002
61.715 12.82835
61.720 12.113953
61.725 11.695927
61.730 11.585349
61.735 11.760306
61.740 11.032741
61.745 11.006481
61.750 11.210466
61.755 11.566291
61.760 11.603765
61.765 11.34696
61.770 10.925346
61.775 11.106958
61.780 11.233197
61.785 11.549431
61.790 11.817964
61.795 12.167968
61.800 12.466484
61.805 12.430272
61.810 12.673586
61.815 12.40985
61.820 11.884439
61.825 11.767908
61.830 11.762163
61.835 11.485662
61.840 11.642962
61.845 11.685562
61.850 11.75972
61.855 12.288446
61.860 12.136806
61.865 12.506921
61.870 13.109177
61.875 13.108788
61.880 13.803145
61.885 14.224696
61.890 14.477221
61.895 14.878841
61.900 14.526489
61.905 14.263925
61.910 13.934798
61.915 13.223737
61.920 12.551982
61.925 12.384961
61.930 12.155218
61.935 12.145038
61.940 11.933646
61.945 11.813147
61.950 11.916656
61.955 12.249592
61.960 11.762237
61.965 11.744204
61.970 11.433074
61.975 12.018756
61.980 12.356772
61.985 12.341718
61.990 12.278196
61.995 11.908141
62.000 11.569318
62.005 11.755721
62.010 11.549603
62.015 11.314533
62.020 11.240787
62.025 11.495899
62.030 12.233936
62.035 12.600123
62.040 12.68323
62.045 12.321921
62.050 12.396239
62.055 11.823242
62.060 11.752485
62.065 11.636487
62.070 11.803483
62.075 11.854553
62.080 12.397773
62.085 12.72096
62.090 13.260475
62.095 13.125727
62.100 12.772375
62.105 12.269489
62.110 11.99073
62.115 11.716842
62.120 11.519513
62.125 11.377022
62.130 11.507696
62.135 11.725497
62.140 12.576758
62.145 12.714144
62.150 12.6387
62.155 12.918881
62.160 13.279122
62.165 13.719417
62.170 13.545702
62.175 12.757886
62.180 12.662657
62.185 12.351762
62.190 11.788246
62.195 11.129465
62.200 10.531436
62.205 10.78761
62.210 11.19461
62.215 11.116782
62.220 11.568656
62.225 11.755229
62.230 11.714858
62.235 12.217428
62.240 12.370007
62.245 12.742846
62.250 12.93732
62.255 13.322043
62.260 13.563596
62.265 13.748729
62.270 13.440113
62.275 13.264595
62.280 13.082165
62.285 13.069006
62.290 12.566607
62.295 12.474788
62.300 12.521976
62.305 12.414305
62.310 12.207558
62.315 12.0916
62.320 11.95009
62.325 11.877502
62.330 11.958661
62.335 11.580748
62.340 11.187122
62.345 10.786922
62.350 10.689864
62.355 10.645958
62.360 10.695107
62.365 10.845635
62.370 11.134109
62.375 11.665583
62.380 12.060889
62.385 12.156875
62.390 12.366774
62.395 12.595591
62.400 12.28565
62.405 12.289934
62.410 12.657888
62.415 12.679425
62.420 12.848832
62.425 12.755855
62.430 12.594466
62.435 12.546453
62.440 12.512369
62.445 12.409803
62.450 12.761705
62.455 12.938473
62.460 13.072943
62.465 13.261929
62.470 13.380717
62.475 12.994109
62.480 13.060897
62.485 12.790639
62.490 12.795599
62.495 12.74575
62.500 12.624372
62.505 12.957873
62.510 13.109632
62.515 12.230911
62.520 11.725236
62.525 11.797506
62.530 12.017491
62.535 12.091725
62.540 11.748124
62.545 11.955059
62.550 13.124149
62.555 13.339682
62.560 12.856813
62.565 12.45532
62.570 12.167395
62.575 12.702694
62.580 12.728992
62.585 12.343957
62.590 12.837482
62.595 13.048719
62.600 13.091474
62.605 13.134722
62.610 12.88392
62.615 12.457971
62.620 12.573463
62.625 12.401484
62.630 12.418338
62.635 12.547319
62.640 12.860565
62.645 13.327051
62.650 13.809114
62.655 14.057565
62.660 14.29244
62.665 14.424419
62.670 14.43004
62.675 14.205837
62.680 13.872328
62.685 13.815645
62.690 13.513175
62.695 13.289718
62.700 12.978187
62.705 13.373218
62.710 13.548955
62.715 13.166644
62.720 13.020763
62.725 12.607785
62.730 12.818414
62.735 13.054589
62.740 13.016502
62.745 13.424014
62.750 13.61801
62.755 13.610262
62.760 14.245838
62.765 13.912219
62.770 13.314538
62.775 12.830756
62.780 12.926447
62.785 13.335397
62.790 12.917974
62.795 12.328674
62.800 12.715105
62.805 13.363498
62.810 13.287829
62.815 12.511565
62.820 12.090707
62.825 12.344474
62.830 12.518472
62.835 12.257999
62.840 12.647114
62.845 12.831296
62.850 13.253817
62.855 13.807181
62.860 14.347636
62.865 14.761332
62.870 14.674625
62.875 13.718758
62.880 12.977426
62.885 12.714221
62.890 11.988395
62.895 11.631997
62.900 11.787929
62.905 12.2018
62.910 12.629204
62.915 13.091616
62.920 12.978001
62.925 13.008948
62.930 12.627116
62.935 12.23271
62.940 12.72668
62.945 12.611106
62.950 12.08362
62.955 11.937938
62.960 11.944711
62.965 11.894136
62.970 12.045195
62.975 11.169714
62.980 11.372754
62.985 11.756284
62.990 12.352365
62.995 12.800159
63.000 12.645768
63.005 12.057195
63.010 12.533265
63.015 12.424657
63.020 12.64677
63.025 12.644114
63.030 12.500179
63.035 12.816422
63.040 12.848664
63.045 12.785554
63.050 13.147718
63.055 13.443298
63.060 13.006233
63.065 12.869748
63.070 12.913934
63.075 12.656604
63.080 12.092757
63.085 12.0754
63.090 11.923353
63.095 11.828999
63.100 11.617284
63.105 11.78968
63.110 12.458639
63.115 12.875504
63.120 12.795322
63.125 12.935128
63.130 13.382376
63.135 13.452946
63.140 13.225595
63.145 12.927163
63.150 12.858759
63.155 13.322137
63.160 13.538993
63.165 13.091028
63.170 13.278749
63.175 13.14354
63.180 13.122906
63.185 12.79912
63.190 12.272141
63.195 11.46838
63.200 11.794598
63.205 11.693341
63.210 11.645852
63.215 11.306375
63.220 11.232588
63.225 11.221328
63.230 11.239285
63.235 11.000666
63.240 11.185485
63.245 11.015875
63.250 11.351035
63.255 11.497284
63.260 11.515112
63.265 11.731147
63.270 11.535663
63.275 11.694947
63.280 12.138674
63.285 12.224776
63.290 12.096083
63.295 11.979442
63.300 12.244517
63.305 12.906327
63.310 13.388186
63.315 13.51656
63.320 13.382137
63.325 13.382868
63.330 13.402045
63.335 13.484702
63.340 13.166808
63.345 12.890738
63.350 13.653125
63.355 13.970005
63.360 14.197906
63.365 14.420885
63.370 14.300249
63.375 14.415799
63.380 13.964266
63.385 12.940329
63.390 12.983327
63.395 13.563536
63.400 13.473063
63.405 13.264624
63.410 13.131417
63.415 13.004377
63.420 13.07863
63.425 12.886298
63.430 12.746592
63.435 12.893096
63.440 13.528542
63.445 13.996466
63.450 14.219216
63.455 14.22501
63.460 14.114627
63.465 14.015181
63.470 13.810873
63.475 13.528396
63.480 13.167705
63.485 13.005292
63.490 13.210188
63.495 13.248158
63.500 13.019011
63.505 12.633196
63.510 12.098301
63.515 12.173432
63.520 12.459581
63.525 12.54062
63.530 12.508984
63.535 12.625651
63.540 12.97354
63.545 13.444332
63.550 13.309813
63.555 13.149951
63.560 12.937466
63.565 12.503305
63.570 12.138431
63.575 12.230209
63.580 12.344564
63.585 12.614843
63.590 12.508875
63.595 12.187839
63.600 12.385535
63.605 12.334616
63.610 12.282823
63.615 11.832201
63.620 11.731993
63.625 11.879984
63.630 12.278529
63.635 12.889455
63.640 13.18452
63.645 12.988183
63.650 12.898829
63.655 13.013463
63.660 13.247475
63.665 13.198121
63.670 12.999777
63.675 13.664266
63.680 14.301448
63.685 14.421675
63.690 14.597538
63.695 14.562585
63.700 14.806746
63.705 15.073505
63.710 14.706614
63.715 14.383266
63.720 14.683875
63.725 14.46432
63.730 14.442267
63.735 14.388922
63.740 13.618011
63.745 13.257609
63.750 13.35393
63.755 13.137712
63.760 13.26532
63.765 13.101892
63.770 12.669799
63.775 12.905617
63.780 13.368636
63.785 13.424098
63.790 13.365327
63.795 12.923284
63.800 13.332555
63.805 13.573056
63.810 13.465389
63.815 13.332354
63.820 13.471421
63.825 13.43424
63.830 13.169002
63.835 13.261376
63.840 13.275133
63.845 13.137615
63.850 13.172756
63.855 12.989807
63.860 13.267572
63.865 13.912599
63.870 13.57272
63.875 13.626015
63.880 14.148851
63.885 13.55188
63.890 13.556342
63.895 13.538527
63.900 13.056263
63.905 12.749447
63.910 12.813396
63.915 12.3296
63.920 12.679646
63.925 12.643219
63.930 12.980069
63.935 13.296336
63.940 13.697884
63.945 13.700694
63.950 13.963742
63.955 14.054624
63.960 14.082794
63.965 13.783811
63.970 13.697852
63.975 13.981106
63.980 14.338204
63.985 14.273579
63.990 14.188117
63.995 14.403554
64.000 14.25817
64.005 14.650564
64.010 14.48935
64.015 14.177212
64.020 14.41884
64.025 14.283128
64.030 14.202557
64.035 14.707561
64.040 14.424212
64.045 15.029575
64.050 15.53269
64.055 14.862397
64.060 14.655069
64.065 14.508142
64.070 14.180043
64.075 14.321622
64.080 13.56334
64.085 13.065034
64.090 14.073204
64.095 14.038548
64.100 13.955816
64.105 14.018278
64.110 13.95683
64.115 13.921229
64.120 14.110582
64.125 14.164806
64.130 14.227735
64.135 14.062972
64.140 13.571219
64.145 13.431328
64.150 13.805923
64.155 13.506867
64.160 12.772029
64.165 12.540249
64.170 12.728769
64.175 13.225057
64.180 13.015278
64.185 12.206922
64.190 12.498153
64.195 12.48205
64.200 12.740424
64.205 12.792422
64.210 13.023876
64.215 13.35046
64.220 13.714808
64.225 13.399354
64.230 13.701955
64.235 13.869045
64.240 14.066991
64.245 14.163189
64.250 13.96116
64.255 14.548179
64.260 15.15332
64.265 15.22041
64.270 15.876891
64.275 15.520602
64.280 15.299653
64.285 15.255482
64.290 14.650006
64.295 13.882386
64.300 13.475506
64.305 13.081418
64.310 13.018488
64.315 12.771235
64.320 13.204284
64.325 13.232623
64.330 13.330781
64.335 13.123419
64.340 12.60212
64.345 12.84744
64.350 12.517306
64.355 12.063798
64.360 11.801856
64.365 12.068176
64.370 12.263763
64.375 12.439442
64.380 12.432309
64.385 12.44997
64.390 12.201237
64.395 12.868303
64.400 13.662033
64.405 14.168591
64.410 14.945942
64.415 15.26734
64.420 15.583631
64.425 15.947106
64.430 15.272017
64.435 14.708909
64.440 14.850213
64.445 14.444404
64.450 14.287117
64.455 14.134651
64.460 14.07577
64.465 14.608511
64.470 14.648078
64.475 14.523039
64.480 14.526328
64.485 14.730921
64.490 15.018961
64.495 15.129308
64.500 15.539797
64.505 15.616532
64.510 14.937629
64.515 14.39563
64.520 14.577441
64.525 14.536774
64.530 14.226873
64.535 13.797881
64.540 13.361921
64.545 13.829876
64.550 14.215134
64.555 13.768433
64.560 13.586158
64.565 14.072976
64.570 13.733921
64.575 14.226797
64.580 14.701466
64.585 14.873451
64.590 15.432522
64.595 15.353391
64.600 15.065901
64.605 15.225014
64.610 14.709948
64.615 14.279523
64.620 14.094941
64.625 13.880591
64.630 13.927378
64.635 13.990363
64.640 14.287258
64.645 14.563226
64.650 14.660683
64.655 14.482777
64.660 14.18707
64.665 14.361925
64.670 14.44161
64.675 14.347433
64.680 14.568803
64.685 14.409976
64.690 14.286468
64.695 14.451591
64.700 14.4236
64.705 14.013873
64.710 14.449545
64.715 14.729129
64.720 14.851873
64.725 14.891051
64.730 15.081474
64.735 15.587169
64.740 15.880882
64.745 15.750883
64.750 14.680771
64.755 14.663264
64.760 15.020801
64.765 15.118283
64.770 14.615426
64.775 14.166804
64.780 13.904723
64.785 14.845486
64.790 15.263313
64.795 15.790194
64.800 15.699621
64.805 15.79703
64.810 16.303812
64.815 16.703711
64.820 16.507986
64.825 16.351011
64.830 16.132113
64.835 16.32942
64.840 16.308971
64.845 15.943577
64.850 16.078445
64.855 16.382095
64.860 16.432501
64.865 16.611456
64.870 16.934591
64.875 16.97438
64.880 17.15815
64.885 17.343903
64.890 17.18886
64.895 17.057589
64.900 17.351061
64.905 17.57852
64.910 18.00452
64.915 18.198797
64.920 17.659235
64.925 17.866776
64.930 18.49934
64.935 18.230249
64.940 18.408281
64.945 18.243004
64.950 18.429176
64.955 19.007048
64.960 18.930098
64.965 18.532513
64.970 18.680618
64.975 18.974981
64.980 19.415556
64.985 19.708267
64.990 20.205803
64.995 20.210062
65.000 20.586464
65.005 20.554998
65.010 20.886332
65.015 20.957602
65.020 21.578676
65.025 21.7253
65.030 21.893803
65.035 21.50823
65.040 21.443996
65.045 21.436214
65.050 21.083529
65.055 21.097853
65.060 21.248104
65.065 21.518873
65.070 22.069883
65.075 22.022905
65.080 21.908476
65.085 22.62067
65.090 21.945488
65.095 21.517315
65.100 20.971203
65.105 20.665897
65.110 20.738785
65.115 20.560719
65.120 20.517738
65.125 20.837601
65.130 21.255985
65.135 21.639849
65.140 21.677217
65.145 21.108158
65.150 21.110956
65.155 20.85709
65.160 20.346985
65.165 19.691883
65.170 19.580906
65.175 19.658707
65.180 19.842634
65.185 19.277737
65.190 18.871325
65.195 18.60714
65.200 19.02227
65.205 18.769598
65.210 18.923439
65.215 19.200747
65.220 19.507591
65.225 19.856691
65.230 20.500147
65.235 20.815563
65.240 20.944134
65.245 20.557383
65.250 20.544712
65.255 20.214705
65.260 19.94083
65.265 18.896364
65.270 18.459538
65.275 18.55155
65.280 18.212273
65.285 17.879934
65.290 17.837765
65.295 17.792778
65.300 18.315393
65.305 18.286034
65.310 17.659962
65.315 17.142776
65.320 16.565281
65.325 16.231581
65.330 16.032866
65.335 15.657438
65.340 15.373796
65.345 15.702438
65.350 15.710289
65.355 16.347195
65.360 16.707666
65.365 16.825775
65.370 17.098242
65.375 16.793747
65.380 16.570808
65.385 17.059416
65.390 16.762638
65.395 16.414808
65.400 16.042627
65.405 15.914173
65.410 16.286413
65.415 16.638504
65.420 16.227186
65.425 15.982149
65.430 16.291319
65.435 16.550924
65.440 16.049339
65.445 15.805392
65.450 15.896737
65.455 16.165758
65.460 16.47217
65.465 16.451809
65.470 16.439577
65.475 16.700193
65.480 16.928694
65.485 16.853247
65.490 16.749796
65.495 16.791721
65.500 16.858694
65.505 16.669701
65.510 16.685349
65.515 16.385523
65.520 15.897113
65.525 15.642519
65.530 15.148065
65.535 15.055389
65.540 15.377372
65.545 15.789347
65.550 15.995275
65.555 16.841595
65.560 17.322401
65.565 17.74617
65.570 17.71476
65.575 17.718327
65.580 17.740845
65.585 17.294319
65.590 17.126656
65.595 17.197935
65.600 17.234196
65.605 17.257805
65.610 17.234093
65.615 17.231049
65.620 17.525118
65.625 17.268805
65.630 17.09108
65.635 17.390709
65.640 17.861277
65.645 17.852568
65.650 18.199537
65.655 17.951643
65.660 17.649059
65.665 17.383562
65.670 16.87182
65.675 16.681406
65.680 16.740799
65.685 16.467134
65.690 16.954094
65.695 17.171204
65.700 17.7337
65.705 17.9154
65.710 17.83386
65.715 17.719013
65.720 18.251652
65.725 18.178957
65.730 18.573927
65.735 18.734072
65.740 18.770632
65.745 18.328897
65.750 17.983154
65.755 17.460182
65.760 16.785664
65.765 16.662786
65.770 16.584864
65.775 16.816246
65.780 17.252762
65.785 17.273071
65.790 17.904343
65.795 18.265804
65.800 18.259144
65.805 18.246334
65.810 18.091158
65.815 18.347214
65.820 18.709127
65.825 18.557024
65.830 18.883234
65.835 18.888773
65.840 18.996967
65.845 19.270786
65.850 19.068716
65.855 18.947487
65.860 18.739138
65.865 18.858337
65.870 18.328098
65.875 18.48502
65.880 18.318062
65.885 18.593327
65.890 18.580313
65.895 18.636765
65.900 18.906492
65.905 18.982183
65.910 19.10478
65.915 19.400763
65.920 19.278048
65.925 19.632229
65.930 19.874317
65.935 20.018389
65.940 20.402363
65.945 19.861481
65.950 19.926092
65.955 20.074245
65.960 20.073523
65.965 19.975319
65.970 20.141155
65.975 20.145012
65.980 20.557871
65.985 20.746363
65.990 20.971794
65.995 20.706078
66.000 20.716314
66.005 20.11042
66.010 20.104965
66.015 19.556507
66.020 18.839983
66.025 18.845226
66.030 19.141232
66.035 19.032024
66.040 19.06431
66.045 19.223757
66.050 19.745239
66.055 19.747921
66.060 19.630877
66.065 19.485916
66.070 19.575665
66.075 19.75098
66.080 20.10877
66.085 20.248308
66.090 20.608
66.095 20.500423
66.100 19.957239
66.105 19.795271
66.110 19.852516
66.115 19.617733
66.120 20.010376
66.125 19.882978
66.130 20.109627
66.135 21.121622
66.140 22.244524
66.145 22.336647
66.150 22.22122
66.155 22.397049
66.160 22.964212
66.165 23.35248
66.170 23.025421
66.175 22.576727
66.180 22.655277
66.185 22.585876
66.190 22.266623
66.195 22.061266
66.200 22.11809
66.205 21.939606
66.210 21.636915
66.215 21.700302
66.220 21.307007
66.225 21.515066
66.230 21.204735
66.235 21.06267
66.240 21.180948
66.245 21.766737
66.250 22.325724
66.255 22.839626
66.260 22.172626
66.265 21.830545
66.270 21.817003
66.275 21.606266
66.280 21.000256
66.285 20.287962
66.290 20.180746
66.295 20.268436
66.300 20.507851
66.305 20.471294
66.310 20.40295
66.315 20.357422
66.320 20.531685
66.325 20.208887
66.330 20.343515
66.335 20.074726
66.340 19.904264
66.345 20.699629
66.350 20.820564
66.355 21.071873
66.360 21.60512
66.365 21.699749
66.370 21.789679
66.375 21.627373
66.380 20.745167
66.385 20.151966
66.390 18.933714
66.395 18.028067
66.400 17.740622
66.405 17.557415
66.410 17.55748
66.415 17.325172
66.420 17.235283
66.425 17.473661
66.430 17.618053
66.435 17.871695
66.440 18.176157
66.445 18.112425
66.450 18.140032
66.455 18.431881
66.460 18.922678
66.465 18.985567
66.470 18.797724
66.475 18.708576
66.480 18.99313
66.485 19.253788
66.490 18.708134
66.495 18.146732
66.500 18.025005
66.505 18.299578
66.510 17.679403
66.515 17.026485
66.520 16.670637
66.525 16.963766
66.530 17.156931
66.535 16.653988
66.540 16.086937
66.545 15.899457
66.550 16.343287
66.555 16.332876
66.560 16.076157
66.565 16.16293
66.570 16.38603
66.575 16.662552
66.580 16.73288
66.585 15.984331
66.590 15.51269
66.595 15.622196
66.600 15.43791
66.605 15.093287
66.610 14.694433
66.615 14.633138
66.620 14.704446
66.625 14.870799
66.630 14.889442
66.635 14.608741
66.640 14.739834
66.645 14.988067
66.650 14.713618
66.655 14.576636
66.660 14.174765
66.665 14.035896
66.670 14.513242
66.675 14.411552
66.680 14.384249
66.685 14.009977
66.690 13.734647
66.695 14.432371
66.700 14.36204
66.705 14.449187
66.710 14.369699
66.715 14.476607
66.720 14.7286
66.725 15.134651
66.730 15.012832
66.735 14.82437
66.740 14.470732
66.745 14.071042
66.750 13.500457
66.755 13.350965
66.760 13.446651
66.765 13.200101
66.770 13.172253
66.775 12.970138
66.780 13.31927
66.785 13.601486
66.790 14.035792
66.795 13.383335
66.800 13.084666
66.805 13.33661
66.810 13.621421
66.815 13.875252
66.820 13.836954
66.825 13.544731
66.830 13.74364
66.835 14.2038
66.840 14.164226
66.845 13.997849
66.850 13.739018
66.855 14.165885
66.860 14.572803
66.865 14.218952
66.870 14.170382
66.875 14.413253
66.880 14.308539
66.885 14.523737
66.890 13.833536
66.895 13.474242
66.900 13.658072
66.905 13.814545
66.910 13.539238
66.915 13.626056
66.920 13.391068
66.925 13.56219
66.930 13.889192
66.935 14.114054
66.940 13.846255
66.945 13.959608
66.950 13.886928
66.955 14.048671
66.960 14.217065
66.965 14.357059
66.970 13.797811
66.975 13.601127
66.980 13.501586
66.985 13.321161
66.990 12.803674
66.995 12.751842
67.000 12.943138
67.005 13.404534
67.010 13.294477
67.015 13.697484
67.020 13.810016
67.025 14.23192
67.030 14.153795
67.035 13.762368
67.040 13.734379
67.045 13.731975
67.050 13.378669
67.055 13.229732
67.060 13.220058
67.065 13.184055
67.070 13.225389
67.075 13.427407
67.080 13.420465
67.085 13.755857
67.090 14.036912
67.095 13.979043
67.100 13.756629
67.105 13.449453
67.110 13.555405
67.115 13.820531
67.120 14.041472
67.125 13.838123
67.130 13.831216
67.135 13.748579
67.140 14.516399
67.145 14.621542
67.150 14.887321
67.155 14.510354
67.160 14.202733
67.165 14.052056
67.170 14.193596
67.175 13.760043
67.180 13.967781
67.185 13.834051
67.190 14.172282
67.195 14.382904
67.200 14.804451
67.205 14.992029
67.210 14.586782
67.215 14.259312
67.220 14.167768
67.225 14.51524
67.230 14.636312
67.235 14.652588
67.240 14.366368
67.245 14.203742
67.250 13.993917
67.255 14.263867
67.260 14.091607
67.265 13.9482
67.270 14.072961
67.275 14.629744
67.280 14.876223
67.285 15.08156
67.290 14.679492
67.295 14.646493
67.300 14.587581
67.305 14.05448
67.310 13.644046
67.315 13.315059
67.320 13.004623
67.325 13.29156
67.330 13.403671
67.335 13.582117
67.340 14.035418
67.345 14.198193
67.350 14.196857
67.355 13.987594
67.360 13.675404
67.365 14.075936
67.370 14.062807
67.375 14.165448
67.380 14.468811
67.385 14.474874
67.390 15.235133
67.395 15.357705
67.400 15.053349
67.405 14.873481
67.410 14.684628
67.415 14.496749
67.420 14.235321
67.425 13.380777
67.430 13.049338
67.435 12.674507
67.440 12.895002
67.445 12.857759
67.450 13.098068
67.455 13.474827
67.460 13.382852
67.465 13.43205
67.470 13.793573
67.475 13.392854
67.480 13.294763
67.485 13.273726
67.490 13.225553
67.495 13.607747
67.500 13.388943
67.505 13.209249
67.510 13.063721
67.515 13.072403
67.520 12.858314
67.525 12.777555
67.530 12.604246
67.535 13.098552
67.540 13.288446
67.545 13.620935
67.550 13.970245
67.555 14.069033
67.560 14.150308
67.565 13.856957
67.570 13.391414
67.575 13.138289
67.580 13.260884
67.585 12.998277
67.590 13.083692
67.595 13.213941
67.600 13.865764
67.605 14.014662
67.610 14.279172
67.615 14.757349
67.620 15.200268
67.625 15.747547
67.630 16.103239
67.635 16.073681
67.640 16.104862
67.645 16.003851
67.650 15.265975
67.655 14.661493
67.660 14.163689
67.665 14.150047
67.670 14.143238
67.675 13.951911
67.680 14.131475
67.685 14.348857
67.690 14.716405
67.695 14.942065
67.700 14.878105
67.705 14.483867
67.710 14.077414
67.715 13.727945
67.720 13.848159
67.725 12.992632
67.730 12.617756
67.735 12.200507
67.740 12.715809
67.745 13.472026
67.750 13.529756
67.755 13.31171
67.760 13.531982
67.765 13.780108
67.770 13.770072
67.775 14.132804
67.780 13.87241
67.785 13.742938
67.790 13.897151
67.795 14.353646
67.800 14.715779
67.805 14.799664
67.810 14.149785
67.815 14.133588
67.820 14.177742
67.825 14.038114
67.830 13.482992
67.835 12.815323
67.840 12.69115
67.845 12.736698
67.850 12.616838
67.855 12.734622
67.860 12.904103
67.865 13.164379
67.870 12.843206
67.875 12.781253
67.880 13.23082
67.885 13.291833
67.890 13.400342
67.895 13.595572
67.900 14.122241
67.905 14.513722
67.910 14.97868
67.915 14.984044
67.920 15.128328
67.925 15.178116
67.930 15.699542
67.935 16.264563
67.940 16.264959
67.945 15.990402
67.950 15.807536
67.955 15.545061
67.960 15.330251
67.965 14.394062
67.970 13.343069
67.975 13.040535
67.980 13.085621
67.985 13.326433
67.990 13.872934
67.995 14.030574
68.000 13.815979
68.005 14.013351
68.010 14.245537
68.015 13.589499
68.020 13.154946
68.025 13.316816
68.030 13.245117
68.035 13.963627
68.040 14.116832
68.045 14.337674
68.050 14.447605
68.055 14.157736
68.060 13.474615
68.065 13.308789
68.070 13.207735
68.075 13.289669
68.080 13.133243
68.085 13.429234
68.090 13.806689
68.095 13.799195
68.100 13.867216
68.105 13.766781
68.110 14.047012
68.115 14.401692
68.120 14.356116
68.125 14.425011
68.130 14.219369
68.135 14.206462
68.140 14.325077
68.145 14.389359
68.150 14.246675
68.155 14.302139
68.160 14.580156
68.165 15.00051
68.170 15.083343
68.175 14.424038
68.180 13.936262
68.185 14.18136
68.190 13.71861
68.195 13.032182
68.200 12.999176
68.205 12.933208
68.210 12.887308
68.215 12.623695
68.220 12.606795
68.225 13.090943
68.230 12.962777
68.235 12.521118
68.240 12.486023
68.245 12.73951
68.250 12.501899
68.255 12.445726
68.260 12.577211
68.265 12.882812
68.270 13.102906
68.275 13.111608
68.280 13.495444
68.285 13.828515
68.290 13.630056
68.295 13.287735
68.300 13.225264
68.305 13.016243
68.310 12.733526
68.315 12.200167
68.320 12.364038
68.325 12.052393
68.330 11.756018
68.335 11.724819
68.340 11.699855
68.345 11.926246
68.350 11.996613
68.355 11.575972
68.360 11.463361
68.365 11.698066
68.370 11.774763
68.375 11.880062
68.380 12.065395
68.385 12.078029
68.390 12.05973
68.395 12.214316
68.400 12.413791
68.405 12.559054
68.410 12.737947
68.415 12.861465
68.420 13.070036
68.425 12.891862
68.430 13.024202
68.435 13.019375
68.440 13.243485
68.445 13.026267
68.450 12.999311
68.455 13.06857
68.460 13.529506
68.465 13.380778
68.470 13.145858
68.475 13.33776
68.480 13.896598
68.485 13.293317
68.490 13.078713
68.495 12.967447
68.500 13.024271
68.505 12.935481
68.510 12.514201
68.515 12.397161
68.520 12.847609
68.525 12.977111
68.530 13.322038
68.535 13.358648
68.540 13.661773
68.545 13.745275
68.550 13.944511
68.555 14.209526
68.560 14.218138
68.565 14.355688
68.570 14.573597
68.575 14.564956
68.580 14.275924
68.585 14.528327
68.590 14.326778
68.595 14.437044
68.600 14.078329
68.605 14.109426
68.610 14.451772
68.615 14.25599
68.620 13.783669
68.625 13.486801
68.630 13.19499
68.635 13.448284
68.640 13.260012
68.645 13.113807
68.650 13.548398
68.655 13.790926
68.660 13.987565
68.665 13.515574
68.670 12.909521
68.675 12.721169
68.680 12.168812
68.685 12.087225
68.690 12.140417
68.695 12.27071
68.700 12.779899
68.705 12.909313
68.710 13.018939
68.715 13.462793
68.720 13.616622
68.725 13.90715
68.730 14.088599
68.735 14.577973
68.740 14.49784
68.745 14.333143
68.750 13.763048
68.755 13.543572
68.760 13.282001
68.765 13.100532
68.770 13.22923
68.775 13.765087
68.780 13.746252
68.785 13.683762
68.790 13.800555
68.795 13.526785
68.800 14.304908
68.805 13.906207
68.810 14.24928
68.815 14.046779
68.820 14.563153
68.825 14.612147
68.830 15.159126
68.835 14.746924
68.840 14.927469
68.845 14.626387
68.850 14.953543
68.855 14.715512
68.860 14.313281
68.865 13.949369
68.870 13.799164
68.875 13.723788
68.880 14.096471
68.885 14.184388
68.890 13.87769
68.895 14.124477
68.900 14.38891
68.905 14.319747
68.910 14.138068
68.915 14.230608
68.920 14.416112
68.925 14.50463
68.930 14.40119
68.935 14.340175
68.940 14.127817
68.945 13.952657
68.950 13.951768
68.955 14.534129
68.960 14.66083
68.965 14.665712
68.970 14.435498
68.975 14.986899
68.980 14.986082
68.985 14.599776
68.990 14.215796
68.995 14.613765
69.000 14.852625
69.005 15.380853
69.010 15.251708
69.015 15.486138
69.020 15.370282
69.025 15.130878
69.030 14.659396
69.035 14.272856
69.040 14.16556
69.045 14.194892
69.050 14.357943
69.055 14.266777
69.060 14.478177
69.065 14.695162
69.070 15.012815
69.075 15.157674
69.080 15.233814
69.085 14.647185
69.090 14.786263
69.095 14.992347
69.100 15.301564
69.105 15.085155
69.110 15.088676
69.115 15.654159
69.120 16.312653
69.125 16.761974
69.130 17.043144
69.135 16.997013
69.140 17.026276
69.145 17.053427
69.150 16.862827
69.155 16.919151
69.160 16.192593
69.165 16.067137
69.170 15.819418
69.175 16.236492
69.180 16.22312
69.185 16.503962
69.190 17.186216
69.195 17.56904
69.200 17.598452
69.205 18.332994
69.210 18.382267
69.215 19.039528
69.220 18.650312
69.225 18.348154
69.230 18.442635
69.235 18.116713
69.240 18.193306
69.245 17.679329
69.250 17.430094
69.255 17.145653
69.260 16.84203
69.265 16.364122
69.270 16.638945
69.275 16.458263
69.280 16.65383
69.285 16.442936
69.290 16.525991
69.295 16.817894
69.300 17.129892
69.305 17.616911
69.310 18.030361
69.315 17.803398
69.320 18.334967
69.325 18.160286
69.330 18.267099
69.335 17.931309
69.340 17.260801
69.345 17.355022
69.350 18.333014
69.355 18.580288
69.360 19.091166
69.365 18.683086
69.370 18.985596
69.375 19.211283
69.380 18.879982
69.385 18.273609
69.390 17.950493
69.395 18.138824
69.400 18.523344
69.405 18.351732
69.410 18.128033
69.415 18.453947
69.420 18.234154
69.425 18.350679
69.430 18.23196
69.435 18.557652
69.440 18.58437
69.445 18.815819
69.450 18.942059
69.455 18.813366
69.460 18.885065
69.465 18.34341
69.470 18.315392
69.475 18.323982
69.480 18.105721
69.485 17.585604
69.490 18.036329
69.495 17.85363
69.500 17.912624
69.505 18.16548
69.510 17.958612
69.515 17.826189
69.520 17.991003
69.525 17.833117
69.530 17.874598
69.535 18.305061
69.540 18.454498
69.545 19.240198
69.550 18.9744
69.555 18.080051
69.560 18.579237
69.565 18.561922
69.570 18.281582
69.575 17.961401
69.580 17.39226
69.585 17.989857
69.590 18.589262
69.595 18.418486
69.600 18.629606
69.605 18.414068
69.610 18.111778
69.615 18.357855
69.620 18.157345
69.625 17.765066
69.630 17.55722
69.635 17.760624
69.640 17.81456
69.645 17.359776
69.650 17.072458
69.655 16.953842
69.660 16.788836
69.665 16.478123
69.670 16.619205
69.675 17.201223
69.680 17.677855
69.685 17.933388
69.690 18.492456
69.695 18.90785
69.700 18.977142
69.705 18.701338
69.710 18.331236
69.715 17.754442
69.720 17.461349
69.725 16.65612
69.730 16.740244
69.735 16.666637
69.740 16.045349
69.745 15.873006
69.750 16.66197
69.755 16.580235
69.760 16.794716
69.765 16.864687
69.770 16.874281
69.775 17.391493
69.780 17.537031
69.785 17.615976
69.790 17.457052
69.795 17.358404
69.800 17.069895
69.805 16.574131
69.810 16.328671
69.815 15.591026
69.820 14.808214
69.825 14.994317
69.830 14.672475
69.835 14.610332
69.840 14.386616
69.845 14.94138
69.850 15.498798
69.855 15.719696
69.860 15.229345
69.865 15.753102
69.870 16.419775
69.875 16.859474
69.880 16.786114
69.885 16.628723
69.890 16.237131
69.895 15.96075
69.900 15.68813
69.905 15.093517
69.910 14.558189
69.915 13.970283
69.920 14.416937
69.925 14.473526
69.930 14.95289
69.935 14.32528
69.940 14.45229
69.945 14.700113
69.950 15.135059
69.955 14.921639
69.960 14.635934
69.965 14.149001
69.970 14.335835
69.975 14.257555
69.980 14.302189
69.985 14.070313
69.990 14.766181
69.995 15.589305
70.000 16.247944
70.005 16.141388
70.010 15.672379
70.015 15.380663
70.020 14.770971
70.025 14.341302
70.030 14.064222
70.035 13.804036
70.040 13.666842
70.045 13.677366
70.050 13.465282
70.055 14.011266
70.060 13.428258
70.065 13.18608
70.070 13.360279
70.075 13.683997
70.080 13.897209
70.085 13.977691
70.090 13.884851
70.095 14.329387
70.100 14.090725
70.105 13.915761
70.110 13.861593
70.115 13.533566
70.120 13.211284
70.125 13.14968
70.130 13.17313
70.135 13.227102
70.140 13.221782
70.145 13.300281
70.150 13.701777
70.155 13.901148
70.160 13.786851
70.165 14.054798
70.170 14.054964
70.175 14.357481
70.180 14.205558
70.185 14.15751
70.190 14.265265
70.195 13.943703
70.200 13.523462
70.205 13.490411
70.210 13.699972
70.215 13.743272
70.220 14.174751
70.225 13.896913
70.230 13.92364
70.235 13.930931
70.240 13.535135
70.245 13.422897
70.250 13.385399
70.255 12.924829
70.260 13.611471
70.265 13.795853
70.270 13.906482
70.275 14.01753
70.280 13.951013
70.285 14.087568
70.290 14.287987
70.295 14.113195
70.300 14.159858
70.305 14.019932
70.310 13.7815
70.315 13.806557
70.320 13.984266
70.325 13.637419
70.330 13.413053
70.335 13.58205
70.340 14.021083
70.345 14.293038
70.350 13.763699
70.355 13.45121
70.360 13.930252
70.365 13.593447
70.370 13.250438
70.375 13.364033
70.380 13.760218
70.385 13.816236
70.390 13.517033
70.395 13.381021
70.400 14.168758
70.405 13.955098
70.410 13.845765
70.415 13.587052
70.420 13.825625
70.425 13.716494
70.430 13.48985
70.435 13.129553
70.440 13.589596
70.445 13.22061
70.450 13.107683
70.455 13.215446
70.460 13.973073
70.465 14.3998
70.470 14.559088
70.475 14.742405
70.480 14.992663
70.485 15.114358
70.490 15.271406
70.495 15.507444
70.500 15.203677
70.505 14.939432
70.510 15.073668
70.515 15.052568
70.520 14.518998
70.525 13.618231
70.530 13.493015
70.535 13.266179
70.540 13.014083
70.545 12.748841
70.550 12.774463
70.555 13.530932
70.560 14.258758
70.565 14.263733
70.570 14.37861
70.575 14.550089
70.580 14.444321
70.585 14.504295
70.590 13.973495
70.595 13.251976
70.600 12.713629
70.605 12.827977
70.610 12.948954
70.615 12.908055
70.620 13.316715
70.625 13.409691
70.630 13.451588
70.635 13.393065
70.640 13.834368
70.645 13.524656
70.650 13.458349
70.655 13.551353
70.660 13.303775
70.665 13.512852
70.670 13.312967
70.675 12.820326
70.680 12.983193
70.685 13.43338
70.690 13.142276
70.695 13.849891
70.700 14.079284
70.705 14.494146
70.710 14.682356
70.715 14.013295
70.720 13.45034
70.725 13.216358
70.730 12.849599
70.735 12.655544
70.740 12.399817
70.745 12.194575
70.750 12.698873
70.755 12.605741
70.760 13.278371
70.765 13.443312
70.770 13.688395
70.775 13.876303
70.780 14.158806
70.785 14.071624
70.790 14.473742
70.795 13.964438
70.800 13.663073
70.805 13.105109
70.810 12.779459
70.815 12.541021
70.820 12.614679
70.825 11.799679
70.830 11.343086
70.835 11.636331
70.840 11.963511
70.845 12.055633
70.850 12.025451
70.855 11.843387
70.860 12.036984
70.865 12.050309
70.870 12.098676
70.875 12.121899
70.880 12.392243
70.885 13.068987
70.890 13.786167
70.895 14.298275
70.900 14.299957
70.905 14.226442
70.910 14.29924
70.915 14.084787
70.920 13.495182
70.925 12.456861
70.930 12.150654
70.935 12.293267
70.940 12.207842
70.945 12.094613
70.950 12.049429
70.955 12.33107
70.960 12.851321
70.965 12.767376
70.970 12.694981
70.975 12.901621
70.980 13.375185
70.985 13.460407
70.990 13.032507
70.995 12.334448
71.000 12.151905
71.005 12.223118
71.010 11.965844
71.015 11.634299
71.020 11.393604
71.025 11.684546
71.030 12.086344
71.035 12.194724
71.040 12.05547
71.045 12.046681
71.050 11.801673
71.055 11.879854
71.060 12.168742
71.065 12.428296
71.070 12.692801
71.075 12.327398
71.080 12.34979
71.085 12.565002
71.090 12.562284
71.095 12.431267
71.100 12.30875
71.105 12.315003
71.110 12.698243
71.115 12.791933
71.120 12.72364
71.125 12.959559
71.130 12.748824
71.135 12.856499
71.140 12.964087
71.145 13.121263
71.150 13.020232
71.155 13.379631
71.160 13.507998
71.165 13.674259
71.170 13.691091
71.175 13.419083
71.180 13.093476
71.185 13.070157
71.190 12.607366
71.195 12.411379
71.200 12.610349
71.205 12.838945
71.210 13.36262
71.215 13.617434
71.220 13.45051
71.225 13.377801
71.230 13.335837
71.235 13.357013
71.240 12.686531
71.245 12.35622
71.250 12.446115
71.255 12.457498
71.260 12.545446
71.265 12.447914
71.270 12.345717
71.275 12.476023
71.280 12.391459
71.285 12.197295
71.290 12.108479
71.295 11.97795
71.300 11.828597
71.305 11.865533
71.310 12.103573
71.315 12.584953
71.320 12.829301
71.325 12.639501
71.330 13.008375
71.335 13.035176
71.340 13.52522
71.345 13.020065
71.350 12.415318
71.355 12.59871
71.360 12.728459
71.365 13.118724
71.370 13.014892
71.375 12.900775
71.380 13.024893
71.385 13.108646
71.390 12.820647
71.395 12.44344
71.400 12.21154
71.405 11.928954
71.410 12.217969
71.415 12.40846
71.420 12.482642
71.425 12.257899
71.430 12.204523
71.435 12.183971
71.440 12.172399
71.445 12.299911
71.450 12.49533
71.455 12.696982
71.460 12.965017
71.465 12.974055
71.470 13.255181
71.475 13.227798
71.480 12.737973
71.485 12.721621
71.490 13.023678
71.495 13.395646
71.500 13.159222
71.505 12.819269
71.510 12.78342
71.515 12.816929
71.520 13.084298
71.525 13.502557
71.530 13.499679
71.535 13.660208
71.540 13.74907
71.545 14.045912
71.550 13.936398
71.555 13.416441
71.560 13.442611
71.565 13.576454
71.570 13.57112
71.575 13.051473
71.580 12.461138
71.585 12.102843
71.590 11.532333
71.595 11.182436
71.600 10.680517
71.605 10.991362
71.610 11.225779
71.615 11.695535
71.620 11.804268
71.625 12.160751
71.630 12.356874
71.635 12.737155
71.640 12.760158
71.645 12.808734
71.650 13.301973
71.655 13.165709
71.660 12.858912
71.665 12.58412
71.670 12.781244
71.675 12.971202
71.680 12.763796
71.685 12.732327
71.690 13.17606
71.695 13.211665
71.700 13.274181
71.705 13.004313
71.710 13.375771
71.715 13.077752
71.720 12.690814
71.725 12.401835
71.730 12.253984
71.735 12.155097
71.740 11.715177
71.745 10.975344
71.750 10.909072
71.755 10.698634
71.760 11.019496
71.765 11.119752
71.770 11.221293
71.775 11.363715
71.780 11.553603
71.785 11.927842
71.790 11.83914
71.795 11.853786
71.800 11.760399
71.805 11.629152
71.810 12.01088
71.815 12.45471
71.820 12.571422
71.825 12.351605
71.830 12.267281
71.835 12.271111
71.840 12.216201
71.845 12.161121
71.850 12.061089
71.855 12.214931
71.860 12.702551
71.865 13.168034
71.870 13.107479
71.875 13.799946
71.880 14.073229
71.885 14.188812
71.890 13.750731
71.895 13.003161
71.900 12.885415
71.905 12.887753
71.910 12.28474
71.915 11.947675
71.920 11.824131
71.925 11.900461
71.930 12.268069
71.935 11.832491
71.940 12.098289
71.945 11.965545
71.950 12.129992
71.955 12.499737
71.960 12.813321
71.965 12.649455
71.970 12.789165
71.975 12.819574
71.980 13.1802
71.985 13.30834
71.990 13.42883
71.995 13.410607
72.000 13.024008
72.005 12.838815
72.010 12.439607
72.015 11.958455
72.020 11.474092
72.025 11.105914
72.030 11.412507
72.035 11.911729
72.040 12.048964
72.045 12.235323
72.050 12.573641
72.055 13.040103
72.060 13.186875
72.065 13.081861
72.070 12.928817
72.075 12.842177
72.080 12.486352
72.085 12.236903
72.090 11.643787
72.095 11.730306
72.100 11.717945
72.105 11.922126
72.110 11.91371
72.115 12.207237
72.120 12.066358
72.125 12.35175
72.130 12.341457
72.135 12.489907
72.140 12.565098
72.145 12.622673
72.150 12.220483
72.155 12.508647
72.160 12.375357
72.165 12.23091
72.170 12.105897
72.175 11.947851
72.180 11.275963
72.185 10.780572
72.190 10.540852
72.195 10.594976
72.200 11.158852
72.205 11.437551
72.210 11.764335
72.215 12.396984
72.220 12.945288
72.225 13.08908
72.230 12.541862
72.235 11.991153
72.240 12.312901
72.245 12.619143
72.250 12.324541
72.255 12.07888
72.260 11.855434
72.265 11.943245
72.270 12.071073
72.275 11.945707
72.280 11.623968
72.285 12.142089
72.290 12.235022
72.295 12.650488
72.300 13.021332
72.305 12.872168
72.310 12.513785
72.315 12.495637
72.320 12.216301
72.325 12.382336
72.330 12.286222
72.335 12.166442
72.340 12.684799
72.345 12.704947
72.350 12.751372
72.355 12.810012
72.360 12.482318
72.365 12.630725
72.370 12.417094
72.375 12.183973
72.380 12.537422
72.385 13.288135
72.390 13.519336
72.395 13.327976
72.400 12.836386
72.405 12.721899
72.410 12.680368
72.415 12.578247
72.420 11.968825
72.425 12.129869
72.430 12.557466
72.435 13.010969
72.440 13.358244
72.445 13.01345
72.450 12.406552
72.455 12.391991
72.460 12.391045
72.465 12.382117
72.470 11.719857
72.475 11.255097
72.480 11.349491
72.485 11.898805
72.490 11.892656
72.495 11.901661
72.500 12.058436
72.505 12.669104
72.510 13.240611
72.515 13.480626
72.520 13.282093
72.525 13.468601
72.530 13.40808
72.535 13.298786
72.540 12.766073
72.545 12.223971
72.550 12.268896
72.555 12.004908
72.560 11.822259
72.565 11.879721
72.570 11.882797
72.575 11.553908
72.580 11.321547
72.585 11.306316
72.590 11.326174
72.595 11.006698
72.600 10.829512
72.605 11.185714
72.610 11.700538
72.615 11.699492
72.620 11.553247
72.625 11.58029
72.630 11.330992
72.635 11.303536
72.640 11.608653
72.645 11.794611
72.650 11.55044
72.655 11.219217
72.660 11.378842
72.665 11.713874
72.670 12.180904
72.675 11.816205
72.680 11.748055
72.685 11.860269
72.690 12.153098
72.695 12.874664
72.700 12.606239
72.705 12.698087
72.710 12.97823
72.715 13.108758
72.720 13.490078
72.725 13.34427
72.730 13.033932
72.735 12.822793
72.740 12.461547
72.745 12.300673
72.750 12.183069
72.755 11.772747
72.760 11.669909
72.765 11.861384
72.770 11.474351
72.775 11.547161
72.780 11.534476
72.785 11.790657
72.790 12.26505
72.795 12.426367
72.800 12.825219
72.805 13.002537
72.810 12.541542
72.815 12.59718
72.820 12.220362
72.825 12.283474
72.830 11.868683
72.835 11.930841
72.840 12.430818
72.845 13.026178
72.850 13.149178
72.855 13.290636
72.860 12.611118
72.865 12.327925
72.870 12.079827
72.875 12.221523
72.880 11.774265
72.885 11.257154
72.890 10.942853
72.895 11.508499
72.900 11.100944
72.905 10.87751
72.910 10.629146
72.915 10.954016
72.920 11.841834
72.925 11.65465
72.930 11.871001
72.935 11.942341
72.940 12.048167
72.945 12.168406
72.950 11.838185
72.955 11.76787
72.960 11.855014
72.965 11.41869
72.970 11.17209
72.975 10.85355
72.980 10.909257
72.985 10.541663
72.990 10.321968
72.995 10.22939
73.000 10.176784
