!@!!GADDS PLOTSO FILE: Chi integration type
!@!!Title/SampleName: map-17b
!@!!Comment: ?
!@!!User: Bruker Instrument Administrator
!@!!Site: University of Illinois Chicago
!@!!Frame: map-17b_01_000.gfrm
!@!!Wavelengths    1.54184   1.54056   1.54439
!@!!Frame angles: 2Theta: 63.000 Omega: 50.000 Phi: 0.000 Chi: 90.000
!@!!Integration range: 2Theta: 53.000 to 73.000  Gamma: -105.000 to -75.000
!@!!Integration method: bin normalized
!@!N
!@!SS
!@!M
!@!L 0.0 0.0 0.0 0.0
!@!XDegrees
!@!YCounts
53.000 8.991464
53.005 9.090243
53.010 8.86985
53.015 8.473018
53.020 8.155776
53.025 7.884044
53.030 7.972699
53.035 7.920475
53.040 7.80458
53.045 7.775639
53.050 7.895323
53.055 7.980637
53.060 7.955656
53.065 7.850852
53.070 7.770768
53.075 7.872247
53.080 8.076686
53.085 8.13025
53.090 8.207843
53.095 8.30124
53.100 8.319233
53.105 8.192962
53.110 8.301237
53.115 8.235168
53.120 7.843451
53.125 7.590616
53.130 7.718906
53.135 7.754818
53.140 7.85137
53.145 7.679576
53.150 7.963202
53.155 8.228739
53.160 8.160589
53.165 8.046519
53.170 8.041758
53.175 7.805387
53.180 7.586427
53.185 7.478661
53.190 7.662216
53.195 7.847074
53.200 7.827881
53.205 7.630551
53.210 7.802724
53.215 7.698556
53.220 7.721343
53.225 7.876825
53.230 7.69497
53.235 8.041018
53.240 8.203303
53.245 8.131629
53.250 8.015126
53.255 7.959861
53.260 7.612937
53.265 7.636472
53.270 7.362391
53.275 7.431347
53.280 7.506785
53.285 8.029151
53.290 7.944561
53.295 7.721852
53.300 8.046155
53.305 7.856185
53.310 7.779057
53.315 7.681669
53.320 7.292668
53.325 7.367709
53.330 7.224406
53.335 7.217684
53.340 7.655971
53.345 7.847869
53.350 8.631258
53.355 8.746453
53.360 8.977347
53.365 9.127707
53.370 8.949564
53.375 8.446515
53.380 8.136965
53.385 7.935679
53.390 8.329889
53.395 8.302394
53.400 8.327146
53.405 8.84803
53.410 9.039256
53.415 9.096027
53.420 8.658392
53.425 8.511703
53.430 8.725405
53.435 8.725225
53.440 8.425798
53.445 8.2372
53.450 7.847946
53.455 7.585515
53.460 7.788628
53.465 7.793727
53.470 7.739469
53.475 8.003625
53.480 8.201188
53.485 8.746873
53.490 9.175047
53.495 8.898764
53.500 9.25724
53.505 8.913401
53.510 8.525383
53.515 8.373762
53.520 7.949577
53.525 8.080497
53.530 8.076745
53.535 8.146532
53.540 8.479438
53.545 8.384414
53.550 8.539608
53.555 8.861349
53.560 8.873205
53.565 8.585498
53.570 8.170412
53.575 8.256819
53.580 8.719437
53.585 8.769759
53.590 8.342062
53.595 8.267009
53.600 8.530162
53.605 8.633109
53.610 8.98515
53.615 8.860376
53.620 8.589872
53.625 9.073478
53.630 9.105374
53.635 9.089123
53.640 8.767123
53.645 8.193516
53.650 8.492279
53.655 8.423974
53.660 7.940291
53.665 7.640728
53.670 7.955822
53.675 7.923621
53.680 7.725395
53.685 7.398734
53.690 7.417982
53.695 7.775958
53.700 7.963314
53.705 7.830738
53.710 8.20179
53.715 8.582667
53.720 8.811856
53.725 9.138103
53.730 8.832833
53.735 8.971693
53.740 8.99008
53.745 8.97942
53.750 8.77806
53.755 8.408278
53.760 8.491412
53.765 8.840664
53.770 8.80578
53.775 8.750208
53.780 8.593282
53.785 8.447059
53.790 8.216187
53.795 7.914149
53.800 7.998372
53.805 7.911956
53.810 7.853425
53.815 8.17844
53.820 8.451262
53.825 8.826697
53.830 8.590132
53.835 8.492301
53.840 8.752212
53.845 9.21899
53.850 9.271868
53.855 9.229932
53.860 9.19437
53.865 9.299607
53.870 9.02789
53.875 9.066315
53.880 8.553233
53.885 8.651834
53.890 9.277422
53.895 9.604317
53.900 9.52104
53.905 9.580931
53.910 9.599762
53.915 9.892062
53.920 9.519359
53.925 8.873796
53.930 8.632193
53.935 8.420237
53.940 8.202838
53.945 7.973269
53.950 7.748488
53.955 8.041434
53.960 8.269975
53.965 8.302732
53.970 8.470842
53.975 8.512791
53.980 8.503316
53.985 8.332664
53.990 7.85022
53.995 7.61732
54.000 7.476291
54.005 7.444432
54.010 7.729602
54.015 7.940084
54.020 7.883724
54.025 7.989203
54.030 7.799897
54.035 8.485868
54.040 8.819488
54.045 8.726658
54.050 8.845643
54.055 9.201011
54.060 9.942126
54.065 10.489799
54.070 10.328737
54.075 10.352894
54.080 10.388766
54.085 10.501919
54.090 10.60606
54.095 9.873199
54.100 9.349681
54.105 9.146129
54.110 9.016307
54.115 8.920155
54.120 8.52073
54.125 8.653156
54.130 9.462692
54.135 9.452832
54.140 9.503981
54.145 9.695368
54.150 9.836735
54.155 9.719893
54.160 9.473592
54.165 9.068256
54.170 9.335299
54.175 9.22087
54.180 9.144165
54.185 9.088653
54.190 9.199388
54.195 9.328109
54.200 9.050698
54.205 8.775394
54.210 8.346432
54.215 7.933805
54.220 7.597806
54.225 7.487793
54.230 7.616776
54.235 8.421203
54.240 8.595998
54.245 8.673683
54.250 9.29993
54.255 9.367821
54.260 9.251307
54.265 8.843013
54.270 8.201631
54.275 8.491217
54.280 8.327842
54.285 7.952135
54.290 8.091444
54.295 8.013251
54.300 8.252486
54.305 8.626134
54.310 8.815995
54.315 9.050954
54.320 9.177299
54.325 9.276048
54.330 9.295287
54.335 9.014781
54.340 8.908517
54.345 9.374543
54.350 9.746716
54.355 10.085419
54.360 10.023537
54.365 10.424098
54.370 10.174174
54.375 9.889879
54.380 9.116502
54.385 8.733562
54.390 8.130442
54.395 8.272766
54.400 8.13171
54.405 8.199721
54.410 8.284324
54.415 8.525762
54.420 8.61107
54.425 9.119672
54.430 8.850993
54.435 9.142274
54.440 9.275561
54.445 9.320059
54.450 9.552457
54.455 9.566047
54.460 9.234246
54.465 9.235525
54.470 8.686749
54.475 8.698488
54.480 8.831615
54.485 8.975295
54.490 9.05738
54.495 9.076432
54.500 9.462049
54.505 10.282965
54.510 10.181737
54.515 9.842438
54.520 9.82568
54.525 9.98868
54.530 9.914891
54.535 9.700243
54.540 8.812221
54.545 9.067193
54.550 9.158328
54.555 9.273404
54.560 9.643091
54.565 9.70378
54.570 10.157442
54.575 10.172456
54.580 9.890738
54.585 9.826653
54.590 9.341417
54.595 8.89003
54.600 8.812444
54.605 8.821086
54.610 9.361742
54.615 9.488102
54.620 9.626164
54.625 9.849806
54.630 9.963837
54.635 9.769572
54.640 9.911282
54.645 10.030029
54.650 9.973987
54.655 9.948058
54.660 10.271723
54.665 10.573759
54.670 10.572407
54.675 10.04725
54.680 9.337898
54.685 9.621943
54.690 9.734067
54.695 9.181563
54.700 8.698324
54.705 8.726247
54.710 9.113696
54.715 9.393855
54.720 8.709716
54.725 8.796689
54.730 9.384574
54.735 9.91923
54.740 10.053075
54.745 10.021635
54.750 10.187724
54.755 10.237471
54.760 10.054059
54.765 9.85003
54.770 9.674327
54.775 9.658709
54.780 9.729964
54.785 9.553022
54.790 9.629546
54.795 9.344323
54.800 8.712468
54.805 8.56803
54.810 8.323746
54.815 8.612279
54.820 9.477956
54.825 9.842565
54.830 10.185572
54.835 10.730764
54.840 10.719368
54.845 10.442592
54.850 10.069931
54.855 9.182283
54.860 8.95875
54.865 9.11216
54.870 8.998499
54.875 9.213254
54.880 9.535568
54.885 9.773044
54.890 9.904142
54.895 9.639261
54.900 9.43602
54.905 9.362328
54.910 9.21457
54.915 9.269542
54.920 9.097297
54.925 9.142142
54.930 9.145373
54.935 9.217686
54.940 9.713778
54.945 9.946198
54.950 10.010647
54.955 10.355755
54.960 10.684618
54.965 10.431071
54.970 10.346145
54.975 9.836992
54.980 9.915739
54.985 9.627463
54.990 9.651397
54.995 9.977763
55.000 10.340786
55.005 10.104517
55.010 10.145804
55.015 10.399729
55.020 11.133463
55.025 11.199852
55.030 11.103846
55.035 11.122281
55.040 11.345331
55.045 11.32673
55.050 10.838316
55.055 9.921627
55.060 9.313498
55.065 8.71147
55.070 8.278477
55.075 8.465426
55.080 8.341683
55.085 8.458962
55.090 8.57189
55.095 8.691656
55.100 9.100657
55.105 9.64428
55.110 9.67583
55.115 9.745289
55.120 9.854969
55.125 9.796606
55.130 9.953547
55.135 9.743999
55.140 9.294733
55.145 9.24645
55.150 9.261525
55.155 9.463029
55.160 9.944617
55.165 10.0002
55.170 10.287383
55.175 10.453198
55.180 10.460995
55.185 10.177114
55.190 9.702003
55.195 8.969447
55.200 9.088319
55.205 9.052984
55.210 9.193207
55.215 9.322619
55.220 9.329618
55.225 9.414931
55.230 9.552894
55.235 9.503157
55.240 9.299514
55.245 9.152637
55.250 9.282273
55.255 9.334153
55.260 9.586753
55.265 9.447354
55.270 9.636458
55.275 9.953392
55.280 9.931604
55.285 9.903234
55.290 10.152244
55.295 9.887788
55.300 10.066612
55.305 9.787276
55.310 9.711962
55.315 9.880612
55.320 9.777609
55.325 9.964068
55.330 10.138061
55.335 10.244917
55.340 10.446402
55.345 10.414645
55.350 9.982922
55.355 9.988962
55.360 9.877484
55.365 9.838666
55.370 9.929991
55.375 9.845733
55.380 9.899191
55.385 10.186005
55.390 9.913893
55.395 9.587677
55.400 9.565066
55.405 9.077025
55.410 8.861904
55.415 8.665175
55.420 9.059999
55.425 9.277839
55.430 9.71057
55.435 10.131272
55.440 10.816749
55.445 10.968564
55.450 10.928802
55.455 10.632912
55.460 10.758997
55.465 10.615834
55.470 10.62982
55.475 10.116116
55.480 10.373987
55.485 10.147373
55.490 10.512952
55.495 10.567412
55.500 10.399921
55.505 10.10366
55.510 10.349921
55.515 10.095431
55.520 10.596928
55.525 10.7258
55.530 11.011213
55.535 11.029766
55.540 11.067695
55.545 10.642698
55.550 11.024364
55.555 10.440606
55.560 9.864355
55.565 9.782866
55.570 9.955964
55.575 10.357623
55.580 10.726295
55.585 10.880755
55.590 11.402884
55.595 11.540206
55.600 11.749861
55.605 11.687142
55.610 11.302152
55.615 11.218768
55.620 11.064337
55.625 10.646847
55.630 10.228039
55.635 9.997355
55.640 10.128898
55.645 10.064249
55.650 10.048853
55.655 10.032693
55.660 10.548777
55.665 10.746397
55.670 10.574684
55.675 10.80871
55.680 11.136971
55.685 11.253574
55.690 11.121454
55.695 10.846122
55.700 10.645832
55.705 10.510592
55.710 9.685966
55.715 9.359342
55.720 8.909777
55.725 8.404027
55.730 8.478895
55.735 8.974771
55.740 9.165238
55.745 9.729887
55.750 10.291763
55.755 10.724032
55.760 11.207464
55.765 11.204387
55.770 11.494143
55.775 11.008319
55.780 10.616186
55.785 10.358901
55.790 10.029852
55.795 9.502182
55.800 9.014232
55.805 8.476287
55.810 8.41092
55.815 8.538868
55.820 8.655306
55.825 8.686838
55.830 9.164229
55.835 9.19013
55.840 9.087137
55.845 9.320647
55.850 9.469339
55.855 9.557733
55.860 10.097977
55.865 10.36378
55.870 10.883385
55.875 11.149342
55.880 11.203478
55.885 10.812221
55.890 10.144177
55.895 10.200267
55.900 10.044332
55.905 10.020053
55.910 9.802216
55.915 9.752208
55.920 9.994816
55.925 10.140897
55.930 9.647933
55.935 9.860029
55.940 9.99453
55.945 10.557081
55.950 10.705159
55.955 10.76666
55.960 10.918872
55.965 10.760953
55.970 10.873433
55.975 10.801378
55.980 10.659866
55.985 10.663972
55.990 10.799072
55.995 10.787197
56.000 10.812631
56.005 10.199334
56.010 9.864407
56.015 9.669915
56.020 9.575423
56.025 9.54814
56.030 9.382542
56.035 9.851519
56.040 10.203181
56.045 10.373454
56.050 10.346726
56.055 10.458694
56.060 10.280659
56.065 10.479278
56.070 10.129345
56.075 10.151614
56.080 9.82094
56.085 9.601637
56.090 9.154379
56.095 9.473284
56.100 9.691441
56.105 9.696901
56.110 9.543175
56.115 9.593081
56.120 9.624572
56.125 9.911114
56.130 9.867222
56.135 9.610332
56.140 9.977795
56.145 10.059026
56.150 9.970122
56.155 10.266853
56.160 10.135069
56.165 9.689607
56.170 9.269917
56.175 8.914362
56.180 9.048863
56.185 9.185363
56.190 9.145002
56.195 9.035606
56.200 9.075304
56.205 9.234293
56.210 9.252548
56.215 9.188863
56.220 9.52303
56.225 9.45762
56.230 9.600118
56.235 9.79738
56.240 9.86325
56.245 10.212386
56.250 10.273522
56.255 9.822659
56.260 9.717227
56.265 9.691545
56.270 9.869304
56.275 9.827028
56.280 9.586576
56.285 9.883263
56.290 10.441943
56.295 10.289962
56.300 10.376901
56.305 10.271873
56.310 10.46646
56.315 10.418563
56.320 10.273171
56.325 10.09223
56.330 10.215432
56.335 10.44154
56.340 10.576226
56.345 10.288631
56.350 10.207022
56.355 9.809402
56.360 9.653227
56.365 9.430451
56.370 9.231615
56.375 9.466882
56.380 9.674031
56.385 9.724942
56.390 9.788732
56.395 9.663793
56.400 10.330363
56.405 10.330955
56.410 9.897665
56.415 9.724435
56.420 10.246903
56.425 10.678967
56.430 11.311836
56.435 10.796661
56.440 10.60315
56.445 10.89412
56.450 11.127876
56.455 11.191561
56.460 10.992666
56.465 10.555861
56.470 10.612597
56.475 10.802374
56.480 11.253843
56.485 11.252923
56.490 10.863692
56.495 10.477425
56.500 10.50193
56.505 10.511313
56.510 10.525312
56.515 10.023846
56.520 10.124076
56.525 10.54108
56.530 10.835541
56.535 11.014816
56.540 11.282711
56.545 11.085165
56.550 10.990296
56.555 10.475977
56.560 9.929978
56.565 10.037266
56.570 10.128755
56.575 10.068511
56.580 10.349299
56.585 10.376665
56.590 11.106703
56.595 11.952243
56.600 12.222747
56.605 12.097368
56.610 12.004938
56.615 11.557703
56.620 11.905331
56.625 11.703215
56.630 11.328273
56.635 11.573948
56.640 11.758463
56.645 11.603774
56.650 11.921478
56.655 12.075418
56.660 12.481037
56.665 12.460505
56.670 12.251997
56.675 12.276855
56.680 12.646582
56.685 12.788825
56.690 12.450799
56.695 12.185205
56.700 12.293736
56.705 12.149852
56.710 12.286411
56.715 12.254527
56.720 12.090931
56.725 11.932378
56.730 11.804316
56.735 11.834632
56.740 12.106285
56.745 11.852905
56.750 11.576671
56.755 11.687454
56.760 12.021428
56.765 11.391423
56.770 11.416363
56.775 11.384176
56.780 11.561873
56.785 11.656497
56.790 11.437925
56.795 11.446812
56.800 11.428885
56.805 11.037824
56.810 11.12979
56.815 10.944139
56.820 10.801341
56.825 10.583817
56.830 10.466283
56.835 10.6939
56.840 10.983697
56.845 11.238735
56.850 11.425065
56.855 11.530608
56.860 11.664263
56.865 11.997085
56.870 12.407415
56.875 12.450383
56.880 12.088412
56.885 11.686554
56.890 11.440486
56.895 11.23173
56.900 11.112214
56.905 10.397489
56.910 9.818686
56.915 9.779498
56.920 10.374282
56.925 11.16309
56.930 11.391113
56.935 11.095124
56.940 11.587397
56.945 11.866246
56.950 11.646029
56.955 11.72062
56.960 11.703961
56.965 11.810929
56.970 12.072072
56.975 12.211814
56.980 12.064014
56.985 11.894159
56.990 11.667648
56.995 11.203241
57.000 11.229522
57.005 11.038445
57.010 10.911627
57.015 11.414221
57.020 12.09503
57.025 11.905261
57.030 11.961484
57.035 11.922102
57.040 11.562308
57.045 11.422489
57.050 11.445069
57.055 11.476865
57.060 11.54493
57.065 11.635407
57.070 11.721562
57.075 12.076116
57.080 12.374648
57.085 12.106894
57.090 11.684403
57.095 11.707202
57.100 11.623349
57.105 11.553775
57.110 11.287415
57.115 10.997296
57.120 10.694422
57.125 10.483541
57.130 10.313333
57.135 10.04144
57.140 10.144603
57.145 10.022
57.150 9.820961
57.155 10.052175
57.160 10.077003
57.165 10.229101
57.170 10.547411
57.175 10.581538
57.180 10.81231
57.185 11.204403
57.190 12.231049
57.195 12.627391
57.200 12.660901
57.205 12.554513
57.210 12.498968
57.215 12.246351
57.220 11.711212
57.225 10.91848
57.230 10.657773
57.235 10.652384
57.240 10.769692
57.245 10.79485
57.250 11.124934
57.255 11.243585
57.260 11.522993
57.265 11.668299
57.270 11.913988
57.275 11.880116
57.280 12.205227
57.285 12.310123
57.290 12.656531
57.295 12.603404
57.300 12.793828
57.305 13.192371
57.310 12.962996
57.315 13.775104
57.320 14.122669
57.325 13.852194
57.330 13.521136
57.335 12.83234
57.340 12.633212
57.345 12.648258
57.350 11.774135
57.355 11.364534
57.360 11.491769
57.365 11.946458
57.370 11.86004
57.375 11.947763
57.380 12.117165
57.385 12.115911
57.390 12.677617
57.395 12.668818
57.400 12.135541
57.405 12.177547
57.410 12.194486
57.415 12.02168
57.420 12.330906
57.425 11.718856
57.430 11.71634
57.435 12.193567
57.440 12.545471
57.445 12.157247
57.450 11.939405
57.455 11.459634
57.460 11.528361
57.465 11.713089
57.470 12.010468
57.475 12.110703
57.480 12.621197
57.485 13.134696
57.490 13.864356
57.495 14.182763
57.500 13.679383
57.505 13.183599
57.510 13.168057
57.515 13.153522
57.520 12.720898
57.525 11.788478
57.530 11.199667
57.535 11.66796
57.540 12.060345
57.545 11.936144
57.550 11.754529
57.555 11.73489
57.560 12.436418
57.565 13.004405
57.570 12.509808
57.575 12.278101
57.580 11.900156
57.585 11.665837
57.590 11.805481
57.595 11.90536
57.600 11.878072
57.605 12.20543
57.610 12.871581
57.615 13.367126
57.620 13.503268
57.625 13.704375
57.630 13.329963
57.635 13.138062
57.640 12.898088
57.645 12.258526
57.650 12.166728
57.655 12.170232
57.660 11.647294
57.665 11.449986
57.670 11.393822
57.675 11.334525
57.680 11.217277
57.685 11.198873
57.690 11.121261
57.695 11.580925
57.700 11.782948
57.705 11.761844
57.710 11.778726
57.715 12.221532
57.720 12.022822
57.725 11.998622
57.730 11.610662
57.735 11.492508
57.740 11.32883
57.745 11.272497
57.750 11.124655
57.755 11.65415
57.760 11.971151
57.765 12.215501
57.770 12.602233
57.775 13.058834
57.780 13.349987
57.785 13.790795
57.790 13.797926
57.795 13.455046
57.800 13.074217
57.805 12.960215
57.810 12.715874
57.815 12.465829
57.820 12.375866
57.825 12.691602
57.830 12.803338
57.835 12.799846
57.840 12.722083
57.845 12.497056
57.850 12.213881
57.855 11.613567
57.860 11.478522
57.865 11.593023
57.870 11.593304
57.875 12.035916
57.880 12.504018
57.885 12.604835
57.890 12.334602
57.895 12.294146
57.900 12.232824
57.905 12.06974
57.910 11.617229
57.915 12.230968
57.920 12.445473
57.925 12.506471
57.930 12.160794
57.935 12.313826
57.940 12.553096
57.945 12.463582
57.950 12.01736
57.955 11.818405
57.960 12.087799
57.965 12.469494
57.970 12.5302
57.975 12.80226
57.980 12.739557
57.985 12.325144
57.990 12.408748
57.995 12.227938
58.000 11.879883
58.005 11.340693
58.010 11.647697
58.015 11.536634
58.020 11.258652
58.025 11.378027
58.030 11.821827
58.035 12.317921
58.040 12.979123
58.045 12.56534
58.050 12.577031
58.055 13.241792
58.060 13.492969
58.065 12.92834
58.070 12.274757
58.075 12.111696
58.080 12.182122
58.085 12.749806
58.090 12.655086
58.095 12.325924
58.100 12.684157
58.105 12.840128
58.110 12.53869
58.115 12.695597
58.120 12.712235
58.125 12.938935
58.130 12.9527
58.135 13.202839
58.140 13.896678
58.145 14.361841
58.150 14.708231
58.155 14.447136
58.160 14.059153
58.165 14.145411
58.170 13.631081
58.175 13.461655
58.180 13.162127
58.185 12.599192
58.190 13.015676
58.195 13.149622
58.200 13.383058
58.205 13.861693
58.210 14.365474
58.215 14.645175
58.220 14.791663
58.225 14.980006
58.230 14.858839
58.235 14.39314
58.240 13.880261
58.245 13.847425
58.250 14.025684
58.255 13.97201
58.260 13.990367
58.265 14.075656
58.270 14.41921
58.275 14.500942
58.280 13.941027
58.285 13.909964
58.290 14.2492
58.295 13.942628
58.300 14.517064
58.305 14.832428
58.310 15.308301
58.315 15.580217
58.320 15.779173
58.325 16.061193
58.330 16.873417
58.335 17.134008
58.340 17.18001
58.345 17.408745
58.350 17.034409
58.355 16.805141
58.360 16.355093
58.365 16.1635
58.370 15.705575
58.375 15.428216
58.380 15.623218
58.385 16.326635
58.390 16.891239
58.395 17.281775
58.400 17.20178
58.405 17.046276
58.410 17.313271
58.415 17.613255
58.420 17.691795
58.425 17.630575
58.430 17.866322
58.435 18.451368
58.440 19.263172
58.445 19.219711
58.450 18.737677
58.455 18.231777
58.460 18.126087
58.465 17.478186
58.470 17.172337
58.475 17.48068
58.480 17.704666
58.485 18.047295
58.490 19.631052
58.495 20.474302
58.500 20.746403
58.505 21.058094
58.510 20.904581
58.515 21.226103
58.520 21.541592
58.525 20.973873
58.530 21.550966
58.535 22.539021
58.540 22.464123
58.545 22.141916
58.550 21.579718
58.555 21.444817
58.560 22.231745
58.565 21.756308
58.570 21.456282
58.575 21.667425
58.580 22.155493
58.585 22.876675
58.590 23.156996
58.595 22.508034
58.600 22.549105
58.605 22.305534
58.610 21.643717
58.615 21.126524
58.620 20.463108
58.625 20.44091
58.630 20.205776
58.635 20.180044
58.640 20.190903
58.645 20.841129
58.650 21.058445
58.655 21.436523
58.660 21.336802
58.665 21.122543
58.670 21.052528
58.675 21.347652
58.680 21.357857
58.685 21.073874
58.690 21.415361
58.695 22.07386
58.700 21.87645
58.705 21.488935
58.710 21.100647
58.715 20.734911
58.720 21.593119
58.725 21.286898
58.730 20.68803
58.735 20.686132
58.740 20.531399
58.745 20.696753
58.750 20.837511
58.755 20.131868
58.760 19.490583
58.765 19.139017
58.770 19.242655
58.775 19.001623
58.780 18.589314
58.785 18.32864
58.790 18.31423
58.795 18.348387
58.800 17.868572
58.805 17.65147
58.810 17.442207
58.815 17.133932
58.820 17.251091
58.825 17.205801
58.830 16.79331
58.835 16.683512
58.840 16.31319
58.845 16.600998
58.850 16.79096
58.855 16.410427
58.860 15.857626
58.865 15.667902
58.870 15.525615
58.875 15.235756
58.880 14.859452
58.885 14.416285
58.890 14.516806
58.895 14.519491
58.900 14.463096
58.905 14.760823
58.910 15.378055
58.915 15.388817
58.920 15.230452
58.925 14.760518
58.930 14.534024
58.935 14.448659
58.940 14.143522
58.945 13.762214
58.950 13.812332
58.955 14.637281
58.960 15.237768
58.965 15.597128
58.970 16.104788
58.975 16.318676
58.980 16.478703
58.985 16.414732
58.990 15.506121
58.995 15.459768
59.000 15.541605
59.005 15.157494
59.010 14.695842
59.015 14.312076
59.020 14.408493
59.025 14.476795
59.030 14.017696
59.035 14.254132
59.040 14.386912
59.045 14.829329
59.050 15.247533
59.055 14.701175
59.060 14.857919
59.065 15.245242
59.070 14.856173
59.075 14.463141
59.080 14.329288
59.085 14.237446
59.090 14.295039
59.095 14.32241
59.100 14.532499
59.105 14.853632
59.110 14.801699
59.115 14.487832
59.120 14.555385
59.125 14.916269
59.130 14.59341
59.135 14.121754
59.140 13.621672
59.145 14.00277
59.150 13.843944
59.155 13.346646
59.160 12.713594
59.165 12.773101
59.170 13.097733
59.175 13.696937
59.180 13.472234
59.185 13.193848
59.190 13.236656
59.195 13.048564
59.200 12.576336
59.205 12.116702
59.210 12.118558
59.215 12.39325
59.220 12.760875
59.225 13.127009
59.230 14.424747
59.235 15.117919
59.240 15.354143
59.245 15.310421
59.250 15.342829
59.255 15.061139
59.260 14.635064
59.265 13.863523
59.270 13.374671
59.275 12.979706
59.280 12.628016
59.285 12.652172
59.290 13.07457
59.295 13.073321
59.300 13.086839
59.305 13.292295
59.310 13.325086
59.315 12.771356
59.320 12.578727
59.325 12.043028
59.330 12.038976
59.335 11.917492
59.340 11.608059
59.345 11.874512
59.350 12.132879
59.355 12.258758
59.360 13.199635
59.365 13.432136
59.370 13.363898
59.375 13.654081
59.380 13.469231
59.385 13.391981
59.390 13.427076
59.395 12.834617
59.400 13.111549
59.405 13.08709
59.410 12.839087
59.415 13.089696
59.420 13.361773
59.425 13.296232
59.430 13.447962
59.435 13.152837
59.440 13.023001
59.445 12.812692
59.450 12.382002
59.455 12.582892
59.460 12.302078
59.465 11.757195
59.470 12.042341
59.475 12.840111
59.480 12.991209
59.485 13.004006
59.490 13.139882
59.495 13.321675
59.500 13.565008
59.505 13.301545
59.510 13.119336
59.515 13.509146
59.520 13.735753
59.525 13.499579
59.530 13.432541
59.535 13.360149
59.540 13.5563
59.545 13.466811
59.550 13.587618
59.555 13.970994
59.560 13.640818
59.565 13.015386
59.570 13.173625
59.575 12.864521
59.580 12.202971
59.585 11.647372
59.590 11.246993
59.595 11.313445
59.600 11.761735
59.605 11.406872
59.610 11.294735
59.615 11.997831
59.620 12.492787
59.625 12.485568
59.630 13.035297
59.635 12.887776
59.640 13.196028
59.645 14.016504
59.650 14.267236
59.655 14.205339
59.660 14.337974
59.665 14.27993
59.670 14.390963
59.675 13.881982
59.680 13.554099
59.685 13.153075
59.690 12.802587
59.695 12.678213
59.700 12.591753
59.705 12.752898
59.710 12.905777
59.715 12.53033
59.720 12.841884
59.725 13.34854
59.730 13.695869
59.735 14.098193
59.740 14.057157
59.745 13.838273
59.750 14.061864
59.755 13.945836
59.760 13.285689
59.765 13.217707
59.770 12.830988
59.775 13.255363
59.780 13.604576
59.785 13.101875
59.790 12.92278
59.795 13.156993
59.800 12.823288
59.805 12.842547
59.810 12.58097
59.815 12.870787
59.820 12.939914
59.825 12.587502
59.830 12.880496
59.835 13.160535
59.840 13.098558
59.845 13.204246
59.850 13.025275
59.855 13.024804
59.860 12.966921
59.865 12.358095
59.870 11.994874
59.875 12.058537
59.880 11.485083
59.885 11.461545
59.890 12.221076
59.895 12.663736
59.900 13.163932
59.905 13.553079
59.910 13.892839
59.915 14.287757
59.920 14.328137
59.925 13.905703
59.930 14.053586
59.935 13.894906
59.940 13.464899
59.945 13.226449
59.950 13.273112
59.955 13.126197
59.960 12.867675
59.965 12.429027
59.970 12.365034
59.975 12.248685
59.980 12.339443
59.985 12.647885
59.990 12.242819
59.995 11.853203
60.000 11.709182
60.005 11.934698
60.010 12.124595
60.015 11.963158
60.020 11.660577
60.025 11.840774
60.030 12.244093
60.035 12.443993
60.040 12.514251
60.045 12.665904
60.050 12.845914
60.055 12.856143
60.060 13.189831
60.065 13.784408
60.070 13.669624
60.075 13.146866
60.080 12.602261
60.085 12.272193
60.090 12.24625
60.095 11.995498
60.100 11.575814
60.105 11.607155
60.110 11.532423
60.115 11.852194
60.120 12.027055
60.125 12.117497
60.130 11.752795
60.135 11.394248
60.140 11.260018
60.145 11.44297
60.150 10.768363
60.155 10.292025
60.160 10.137804
60.165 10.395555
60.170 10.541944
60.175 10.709946
60.180 11.274583
60.185 11.622928
60.190 11.82183
60.195 12.000187
60.200 12.139273
60.205 12.523107
60.210 12.794623
60.215 12.81041
60.220 13.037062
60.225 12.94141
60.230 12.894474
60.235 12.75389
60.240 12.625866
60.245 12.50756
60.250 11.987806
60.255 12.002007
60.260 11.586927
60.265 11.66552
60.270 12.06817
60.275 12.002971
60.280 11.806123
60.285 12.012389
60.290 11.812372
60.295 12.336493
60.300 12.250714
60.305 11.865826
60.310 11.842419
60.315 11.53903
60.320 11.45994
60.325 11.647249
60.330 11.666184
60.335 11.25022
60.340 11.018199
60.345 11.324329
60.350 12.159858
60.355 12.598195
60.360 12.573119
60.365 12.964456
60.370 13.671243
60.375 13.926328
60.380 13.970233
60.385 13.585872
60.390 13.707695
60.395 13.81909
60.400 13.907533
60.405 13.715769
60.410 13.732191
60.415 13.607018
60.420 13.299443
60.425 13.082453
60.430 12.923425
60.435 12.570174
60.440 12.601427
60.445 12.49719
60.450 12.299173
60.455 12.605319
60.460 12.610425
60.465 12.701219
60.470 12.659363
60.475 12.902376
60.480 13.060626
60.485 13.049487
60.490 12.6762
60.495 12.910607
60.500 12.883213
60.505 13.155432
60.510 12.729746
60.515 12.380301
60.520 12.610706
60.525 12.481759
60.530 12.468629
60.535 12.572302
60.540 12.425133
60.545 12.390559
60.550 12.627232
60.555 12.415548
60.560 12.795939
60.565 12.515948
60.570 12.426492
60.575 12.390426
60.580 12.507158
60.585 12.629835
60.590 12.456773
60.595 12.234698
60.600 12.587726
60.605 12.427504
60.610 12.524891
60.615 12.733706
60.620 12.700008
60.625 12.814749
60.630 12.905349
60.635 12.829729
60.640 12.886855
60.645 13.138863
60.650 12.905622
60.655 12.871427
60.660 12.591247
60.665 12.752435
60.670 12.864197
60.675 13.290648
60.680 12.915943
60.685 12.163471
60.690 12.431069
60.695 12.585839
60.700 12.13108
60.705 11.567791
60.710 11.310184
60.715 11.681202
60.720 12.053358
60.725 11.738115
60.730 12.02838
60.735 12.111413
60.740 11.954959
60.745 11.424556
60.750 11.16802
60.755 11.233963
60.760 11.422817
60.765 11.78079
60.770 11.963164
60.775 12.445704
60.780 12.980035
60.785 12.813031
60.790 12.893623
60.795 12.279951
60.800 11.72838
60.805 11.899182
60.810 12.151567
60.815 12.098697
60.820 12.493959
60.825 12.648973
60.830 12.918784
60.835 12.757422
60.840 12.506652
60.845 12.034953
60.850 12.211928
60.855 12.078506
60.860 12.340455
60.865 12.685433
60.870 12.987258
60.875 13.321905
60.880 13.648919
60.885 13.399009
60.890 13.448662
60.895 12.991323
60.900 12.796407
60.905 13.096581
60.910 12.777913
60.915 12.595038
60.920 11.852517
60.925 11.824119
60.930 12.031762
60.935 11.808088
60.940 11.213365
60.945 11.089714
60.950 11.35867
60.955 12.202164
60.960 12.299805
60.965 12.329886
60.970 12.377961
60.975 12.576901
60.980 12.849581
60.985 12.61963
60.990 12.391502
60.995 12.202473
61.000 11.762917
61.005 11.634069
61.010 11.64372
61.015 11.308337
61.020 11.552956
61.025 11.948141
61.030 12.169819
61.035 12.531106
61.040 12.817944
61.045 12.930266
61.050 13.459279
61.055 13.278256
61.060 13.153158
61.065 13.047072
61.070 12.898705
61.075 12.569653
61.080 12.205556
61.085 11.984957
61.090 11.672772
61.095 11.772088
61.100 12.513602
61.105 12.793969
61.110 12.962976
61.115 13.371783
61.120 13.492107
61.125 13.806925
61.130 13.382309
61.135 12.906787
61.140 12.720048
61.145 13.121849
61.150 12.770905
61.155 12.561663
61.160 12.704371
61.165 12.610138
61.170 12.4754
61.175 12.785439
61.180 12.719244
61.185 12.869022
61.190 12.762049
61.195 12.759171
61.200 12.88246
61.205 13.406883
61.210 13.697412
61.215 14.141754
61.220 14.617272
61.225 15.166967
61.230 15.069409
61.235 14.509786
61.240 14.237623
61.245 13.802137
61.250 13.890485
61.255 13.825924
61.260 13.465158
61.265 13.6752
61.270 13.882556
61.275 13.804488
61.280 14.091544
61.285 13.550528
61.290 13.929712
61.295 14.194966
61.300 14.059554
61.305 14.190144
61.310 14.672931
61.315 14.537163
61.320 13.914212
61.325 13.122602
61.330 13.099866
61.335 13.524274
61.340 13.563246
61.345 12.99263
61.350 13.129653
61.355 13.501152
61.360 13.85823
61.365 13.604135
61.370 13.34921
61.375 13.229977
61.380 13.028649
61.385 13.060081
61.390 13.315616
61.395 13.222854
61.400 12.979479
61.405 12.638573
61.410 12.248187
61.415 12.20393
61.420 12.112571
61.425 12.209992
61.430 12.290274
61.435 12.435761
61.440 12.5328
61.445 12.381002
61.450 12.559167
61.455 12.287385
61.460 12.070863
61.465 12.32969
61.470 12.298804
61.475 12.798778
61.480 13.395967
61.485 13.28556
61.490 13.333076
61.495 13.56405
61.500 13.121701
61.505 13.09521
61.510 13.075119
61.515 13.381578
61.520 13.760014
61.525 13.724138
61.530 13.678875
61.535 14.135739
61.540 13.998106
61.545 14.246277
61.550 14.032073
61.555 13.964822
61.560 14.148136
61.565 13.758064
61.570 13.693177
61.575 13.955934
61.580 13.383037
61.585 13.203573
61.590 13.094521
61.595 13.060907
61.600 12.982664
61.605 13.179036
61.610 13.657918
61.615 13.572841
61.620 13.489347
61.625 13.256702
61.630 13.170436
61.635 12.989768
61.640 12.554774
61.645 11.946167
61.650 11.449727
61.655 11.568835
61.660 11.880184
61.665 12.285521
61.670 12.94151
61.675 12.891837
61.680 13.270077
61.685 13.668833
61.690 13.852754
61.695 14.073618
61.700 13.754677
61.705 13.482772
61.710 13.242845
61.715 13.220129
61.720 13.60139
61.725 13.152229
61.730 12.47166
61.735 12.235852
61.740 12.319625
61.745 12.503566
61.750 12.519071
61.755 12.24514
61.760 12.331285
61.765 12.550572
61.770 12.698678
61.775 12.874191
61.780 12.929046
61.785 12.449783
61.790 12.381985
61.795 12.950294
61.800 13.438077
61.805 13.140391
61.810 12.866413
61.815 13.285932
61.820 13.962207
61.825 14.014953
61.830 13.152966
61.835 13.082921
61.840 13.470167
61.845 13.312006
61.850 13.164059
61.855 12.708428
61.860 13.51486
61.865 14.415171
61.870 14.792668
61.875 15.001099
61.880 15.191251
61.885 15.503947
61.890 16.048946
61.895 15.235141
61.900 14.718151
61.905 14.880122
61.910 15.116214
61.915 15.317097
61.920 14.901935
61.925 14.24873
61.930 14.365539
61.935 14.86223
61.940 14.533042
61.945 14.331901
61.950 13.780951
61.955 13.308875
61.960 13.834748
61.965 13.609454
61.970 13.121664
61.975 12.804536
61.980 12.739922
61.985 12.919132
61.990 13.020425
61.995 12.982732
62.000 13.311712
62.005 13.627435
62.010 13.241145
62.015 12.787368
62.020 12.799268
62.025 12.981331
62.030 12.726645
62.035 13.049798
62.040 12.876523
62.045 13.483101
62.050 13.832108
62.055 14.316689
62.060 14.868252
62.065 14.586473
62.070 14.1876
62.075 14.149487
62.080 14.038657
62.085 13.94489
62.090 13.744619
62.095 13.696606
62.100 13.961916
62.105 13.635348
62.110 13.546287
62.115 14.030739
62.120 14.396898
62.125 14.549429
62.130 14.312909
62.135 14.11655
62.140 14.565286
62.145 14.489892
62.150 13.954215
62.155 13.870572
62.160 13.334754
62.165 13.336664
62.170 13.315446
62.175 13.210573
62.180 13.528579
62.185 13.620654
62.190 13.375264
62.195 13.515964
62.200 13.881577
62.205 14.308077
62.210 14.467787
62.215 14.076316
62.220 14.200398
62.225 14.453939
62.230 14.649122
62.235 14.285263
62.240 13.855858
62.245 13.292438
62.250 13.149808
62.255 12.971755
62.260 12.537166
62.265 12.345769
62.270 12.23099
62.275 12.493965
62.280 12.164827
62.285 12.008837
62.290 12.008589
62.295 12.427888
62.300 12.202824
62.305 12.099812
62.310 11.78078
62.315 12.097833
62.320 13.224333
62.325 12.965123
62.330 12.980723
62.335 13.417454
62.340 13.565959
62.345 13.837305
62.350 13.557595
62.355 12.64297
62.360 13.053853
62.365 12.74064
62.370 12.470421
62.375 12.274977
62.380 12.101933
62.385 12.315727
62.390 12.621613
62.395 12.961349
62.400 13.390756
62.405 13.805366
62.410 14.353292
62.415 14.829924
62.420 15.147303
62.425 14.897463
62.430 14.664225
62.435 14.665227
62.440 14.419572
62.445 14.530294
62.450 14.770002
62.455 15.194804
62.460 15.175364
62.465 15.322992
62.470 15.438521
62.475 15.255497
62.480 14.912364
62.485 14.550632
62.490 13.904105
62.495 13.797256
62.500 13.118228
62.505 12.764066
62.510 12.642051
62.515 12.663539
62.520 12.369196
62.525 12.386115
62.530 12.109704
62.535 12.382257
62.540 12.643253
62.545 12.892178
62.550 13.104945
62.555 13.862608
62.560 14.052478
62.565 14.276621
62.570 13.807435
62.575 13.772954
62.580 13.614372
62.585 13.32772
62.590 12.313396
62.595 11.728988
62.600 11.535737
62.605 11.978749
62.610 12.024465
62.615 12.395206
62.620 12.847971
62.625 13.414931
62.630 14.136348
62.635 14.696023
62.640 14.61816
62.645 14.252601
62.650 13.809247
62.655 13.498429
62.660 13.3864
62.665 13.789541
62.670 13.926514
62.675 14.18348
62.680 14.793116
62.685 14.965261
62.690 15.086115
62.695 15.144955
62.700 14.756388
62.705 14.228312
62.710 13.8274
62.715 13.335581
62.720 13.354704
62.725 13.102039
62.730 13.238575
62.735 13.290586
62.740 13.447453
62.745 14.119471
62.750 14.814393
62.755 15.293567
62.760 15.498299
62.765 15.592998
62.770 15.808384
62.775 15.472042
62.780 14.751325
62.785 14.400906
62.790 14.413433
62.795 14.902534
62.800 14.6467
62.805 14.381857
62.810 14.637588
62.815 14.897491
62.820 14.98983
62.825 14.901772
62.830 13.966207
62.835 13.945671
62.840 14.361932
62.845 14.417159
62.850 14.328282
62.855 13.75241
62.860 13.929527
62.865 13.967874
62.870 14.326487
62.875 14.391094
62.880 14.345767
62.885 14.504348
62.890 14.680447
62.895 14.40472
62.900 14.771076
62.905 14.6012
62.910 14.154931
62.915 13.988802
62.920 13.78695
62.925 13.75207
62.930 13.640294
62.935 13.407126
62.940 13.451279
62.945 14.28562
62.950 14.37634
62.955 14.250982
62.960 14.028846
62.965 14.223936
62.970 14.142193
62.975 13.953817
62.980 13.513269
62.985 13.404424
62.990 13.570724
62.995 14.114329
63.000 14.20683
63.005 13.996761
63.010 13.79199
63.015 13.689759
63.020 14.177679
63.025 14.046791
63.030 13.597477
63.035 13.394746
63.040 13.582529
63.045 13.477882
63.050 13.569369
63.055 13.336253
63.060 13.586646
63.065 13.713787
63.070 13.651989
63.075 13.674633
63.080 13.699412
63.085 13.404432
63.090 14.031488
63.095 14.156421
63.100 14.35013
63.105 14.288256
63.110 14.427692
63.115 15.085676
63.120 15.532651
63.125 14.954721
63.130 14.942759
63.135 14.635345
63.140 14.626149
63.145 13.974696
63.150 13.065983
63.155 12.610317
63.160 12.815047
63.165 12.447809
63.170 12.526468
63.175 12.86232
63.180 13.540919
63.185 14.322414
63.190 14.121502
63.195 13.679787
63.200 13.920734
63.205 14.085359
63.210 14.17564
63.215 14.289651
63.220 12.955417
63.225 12.684089
63.230 12.836467
63.235 12.67373
63.240 12.712588
63.245 11.940531
63.250 11.897337
63.255 12.809105
63.260 13.470023
63.265 13.372719
63.270 13.273583
63.275 13.392794
63.280 13.973878
63.285 14.161099
63.290 13.844886
63.295 13.704481
63.300 13.533727
63.305 13.499577
63.310 13.397532
63.315 12.891637
63.320 13.059795
63.325 13.045057
63.330 12.802554
63.335 12.560528
63.340 12.322261
63.345 12.482711
63.350 12.798758
63.355 12.892632
63.360 13.001809
63.365 13.223212
63.370 13.36487
63.375 13.432369
63.380 13.552792
63.385 13.855698
63.390 13.504372
63.395 13.869328
63.400 14.533587
63.405 15.181544
63.410 15.375487
63.415 15.12126
63.420 14.470513
63.425 14.705233
63.430 14.886873
63.435 14.678318
63.440 14.470387
63.445 14.747561
63.450 15.17873
63.455 15.159876
63.460 15.02878
63.465 14.931692
63.470 14.828742
63.475 15.070489
63.480 14.819864
63.485 15.056379
63.490 15.477442
63.495 15.451415
63.500 14.958467
63.505 14.696231
63.510 14.401351
63.515 13.856797
63.520 13.035592
63.525 12.879603
63.530 13.020992
63.535 13.289627
63.540 13.619883
63.545 13.6247
63.550 13.876084
63.555 14.234189
63.560 13.537219
63.565 13.304017
63.570 12.82947
63.575 12.434012
63.580 12.860325
63.585 12.995542
63.590 13.286816
63.595 13.819709
63.600 14.403111
63.605 15.269507
63.610 15.512925
63.615 15.594724
63.620 15.90804
63.625 15.746992
63.630 15.869908
63.635 15.421674
63.640 15.253142
63.645 15.020518
63.650 14.540046
63.655 14.450437
63.660 14.655111
63.665 14.931688
63.670 15.087592
63.675 15.501329
63.680 15.825814
63.685 16.326906
63.690 15.997634
63.695 15.966416
63.700 15.829946
63.705 15.637355
63.710 15.388154
63.715 15.012626
63.720 14.165343
63.725 14.480135
63.730 14.537873
63.735 14.543106
63.740 14.753873
63.745 14.710487
63.750 14.988758
63.755 14.997386
63.760 14.353402
63.765 14.257394
63.770 14.29144
63.775 14.785334
63.780 15.063912
63.785 15.071035
63.790 15.647719
63.795 15.787354
63.800 15.817765
63.805 15.818788
63.810 15.184408
63.815 14.964005
63.820 15.036622
63.825 14.863947
63.830 15.344555
63.835 15.428756
63.840 15.707076
63.845 16.000309
63.850 16.133461
63.855 16.375525
63.860 16.825659
63.865 16.937725
63.870 17.110056
63.875 16.776379
63.880 16.602175
63.885 16.377163
63.890 16.300564
63.895 16.697235
63.900 16.338511
63.905 16.246426
63.910 16.543736
63.915 16.701593
63.920 17.119162
63.925 17.067997
63.930 17.025524
63.935 17.466579
63.940 17.366777
63.945 17.886547
63.950 18.014277
63.955 17.777647
63.960 17.530281
63.965 17.386644
63.970 17.478331
63.975 17.466135
63.980 17.135201
63.985 17.384567
63.990 18.038134
63.995 18.529591
64.000 19.228149
64.005 19.704411
64.010 20.354385
64.015 21.197008
64.020 22.295059
64.025 22.125229
64.030 22.332899
64.035 22.396952
64.040 22.312414
64.045 21.936344
64.050 22.271271
64.055 21.446056
64.060 21.727205
64.065 22.477049
64.070 22.574148
64.075 22.922239
64.080 23.494215
64.085 23.385221
64.090 23.604
64.095 23.47291
64.100 22.991856
64.105 22.776783
64.110 22.567532
64.115 22.939604
64.120 23.453144
64.125 23.765409
64.130 24.384451
64.135 24.455246
64.140 24.834661
64.145 25.541002
64.150 25.853519
64.155 26.305431
64.160 26.224846
64.165 26.368757
64.170 26.41848
64.175 26.480869
64.180 25.748957
64.185 25.275984
64.190 24.586943
64.195 24.968922
64.200 24.831892
64.205 24.60976
64.210 24.651581
64.215 25.442564
64.220 26.121807
64.225 26.819935
64.230 26.565016
64.235 26.530384
64.240 26.682516
64.245 26.952738
64.250 26.97982
64.255 26.673742
64.260 26.782673
64.265 27.064146
64.270 26.618767
64.275 26.493843
64.280 26.722502
64.285 26.689285
64.290 26.362558
64.295 25.356806
64.300 25.64983
64.305 26.333797
64.310 26.595478
64.315 26.71771
64.320 26.436226
64.325 26.599207
64.330 27.403265
64.335 26.707268
64.340 26.946487
64.345 27.499023
64.350 27.49065
64.355 27.772593
64.360 28.471441
64.365 28.807108
64.370 29.247499
64.375 28.798094
64.380 28.684509
64.385 28.390938
64.390 28.325464
64.395 27.446096
64.400 26.958065
64.405 27.083408
64.410 27.459332
64.415 27.200449
64.420 26.852524
64.425 26.394823
64.430 26.412979
64.435 25.804134
64.440 25.216412
64.445 24.146133
64.450 23.570778
64.455 23.526667
64.460 23.398605
64.465 23.081816
64.470 23.556032
64.475 23.929482
64.480 24.257143
64.485 23.874224
64.490 23.64255
64.495 23.535025
64.500 23.369749
64.505 22.778282
64.510 22.237467
64.515 22.162989
64.520 22.373415
64.525 22.00642
64.530 21.608965
64.535 21.609106
64.540 21.594604
64.545 21.895226
64.550 21.542273
64.555 21.143232
64.560 21.815159
64.565 22.134686
64.570 20.988199
64.575 20.107374
64.580 19.657574
64.585 19.155294
64.590 18.713419
64.595 17.572556
64.600 17.163464
64.605 17.154337
64.610 17.095379
64.615 16.972176
64.620 16.941946
64.625 16.826405
64.630 16.827637
64.635 17.234446
64.640 17.872875
64.645 17.810711
64.650 18.319298
64.655 18.988756
64.660 19.595659
64.665 19.989168
64.670 19.755871
64.675 19.913464
64.680 20.081617
64.685 19.769884
64.690 18.723093
64.695 18.773916
64.700 18.821774
64.705 18.523968
64.710 17.830175
64.715 17.665779
64.720 17.117794
64.725 17.620522
64.730 17.516483
64.735 17.269333
64.740 17.271742
64.745 17.22892
64.750 17.111347
64.755 18.008249
64.760 18.319128
64.765 18.494184
64.770 18.932789
64.775 19.081514
64.780 18.98073
64.785 19.101286
64.790 18.343483
64.795 17.94327
64.800 17.589106
64.805 17.341814
64.810 17.546669
64.815 17.940102
64.820 17.780573
64.825 17.954897
64.830 17.978853
64.835 18.604946
64.840 18.698959
64.845 18.638613
64.850 18.588377
64.855 18.183174
64.860 18.541437
64.865 18.035351
64.870 17.472841
64.875 17.178719
64.880 16.984493
64.885 17.135511
64.890 16.518684
64.895 15.994823
64.900 16.642866
64.905 16.866098
64.910 17.238718
64.915 17.68749
64.920 18.057236
64.925 18.62112
64.930 18.762882
64.935 18.335688
64.940 18.470196
64.945 18.200485
64.950 18.023733
64.955 18.307467
64.960 18.547529
64.965 18.577808
64.970 18.563988
64.975 18.263199
64.980 18.815939
64.985 19.678186
64.990 19.387516
64.995 19.427856
65.000 20.047127
65.005 20.796137
65.010 20.932545
65.015 20.129282
65.020 19.657761
65.025 19.168882
65.030 19.22566
65.035 19.007076
65.040 18.075981
65.045 18.466
65.050 18.944492
65.055 18.434055
65.060 19.18602
65.065 19.325562
65.070 18.752338
65.075 18.815275
65.080 18.586123
65.085 18.783497
65.090 19.296791
65.095 19.683491
65.100 19.739134
65.105 21.074793
65.110 21.605751
65.115 21.739874
65.120 21.648745
65.125 21.661253
65.130 21.22858
65.135 20.757679
65.140 19.820696
65.145 18.858868
65.150 18.928009
65.155 18.263409
65.160 18.028885
65.165 17.876642
65.170 18.055912
65.175 18.24798
65.180 18.841269
65.185 18.949356
65.190 19.242416
65.195 19.677065
65.200 20.104027
65.205 20.494612
65.210 20.764322
65.215 20.329527
65.220 20.01997
65.225 19.95392
65.230 19.766285
65.235 19.923922
65.240 19.417339
65.245 18.920086
65.250 18.726334
65.255 18.339066
65.260 18.66573
65.265 18.409229
65.270 17.453495
65.275 17.291637
65.280 17.397797
65.285 17.525208
65.290 17.583689
65.295 17.120478
65.300 16.920942
65.305 17.3876
65.310 17.22188
65.315 16.807089
65.320 17.355558
65.325 17.757214
65.330 17.578079
65.335 18.033756
65.340 18.2236
65.345 18.654787
65.350 19.387167
65.355 19.137951
65.360 19.21454
65.365 19.401949
65.370 19.226259
65.375 18.923525
65.380 18.873297
65.385 18.507404
65.390 18.237497
65.395 17.97909
65.400 17.878027
65.405 18.398691
65.410 18.930309
65.415 19.009111
65.420 19.241758
65.425 19.556084
65.430 19.976456
65.435 20.110558
65.440 19.766949
65.445 19.507311
65.450 19.787386
65.455 19.516729
65.460 19.489084
65.465 19.260197
65.470 19.221363
65.475 19.258076
65.480 20.175625
65.485 20.543409
65.490 21.403566
65.495 21.296249
65.500 21.510462
65.505 23.031574
65.510 23.425774
65.515 22.630697
65.520 22.85083
65.525 23.239363
65.530 24.019239
65.535 24.531723
65.540 24.047663
65.545 24.614346
65.550 25.078053
65.555 25.260933
65.560 25.081354
65.565 25.008913
65.570 24.942987
65.575 25.292753
65.580 25.271063
65.585 25.770889
65.590 25.934961
65.595 26.253426
65.600 27.084173
65.605 27.273617
65.610 26.946438
65.615 26.927933
65.620 26.802567
65.625 26.997002
65.630 26.866869
65.635 25.956228
65.640 26.11554
65.645 26.07696
65.650 26.357086
65.655 26.266371
65.660 26.476013
65.665 26.684034
65.670 26.865601
65.675 27.23662
65.680 28.127445
65.685 28.836618
65.690 29.795685
65.695 30.093107
65.700 30.550367
65.705 30.923187
65.710 30.666254
65.715 30.895699
65.720 30.348072
65.725 29.547428
65.730 28.838062
65.735 28.535646
65.740 28.879086
65.745 29.341799
65.750 29.388777
65.755 28.972557
65.760 29.713501
65.765 29.936024
65.770 30.099655
65.775 29.628124
65.780 29.222198
65.785 29.687447
65.790 29.923866
65.795 29.633093
65.800 29.445673
65.805 28.835821
65.810 28.865158
65.815 28.676994
65.820 27.972826
65.825 28.00791
65.830 27.947298
65.835 28.530993
65.840 29.490911
65.845 29.570755
65.850 29.244469
65.855 29.18148
65.860 29.355419
65.865 30.197512
65.870 30.053034
65.875 28.816256
65.880 28.604851
65.885 28.536949
65.890 28.801498
65.895 28.066975
65.900 26.93449
65.905 26.789227
65.910 26.984869
65.915 27.116602
65.920 27.31241
65.925 26.491209
65.930 25.684235
65.935 25.514963
65.940 26.034409
65.945 25.821554
65.950 25.291416
65.955 24.77635
65.960 25.522583
65.965 26.005819
65.970 25.62311
65.975 25.06286
65.980 25.175522
65.985 25.363844
65.990 25.61997
65.995 25.132742
66.000 25.232504
66.005 25.115004
66.010 24.489569
66.015 24.13236
66.020 23.94488
66.025 23.331089
66.030 23.191553
66.035 22.860954
66.040 23.072123
66.045 23.511084
66.050 23.566336
66.055 23.364292
66.060 23.549437
66.065 23.623787
66.070 23.728243
66.075 23.535179
66.080 23.17116
66.085 23.046354
66.090 22.804344
66.095 22.118328
66.100 22.023409
66.105 22.057697
66.110 21.544352
66.115 21.448698
66.120 21.051359
66.125 20.719563
66.130 20.240734
66.135 19.138964
66.140 19.15448
66.145 19.74691
66.150 19.786877
66.155 20.050648
66.160 20.309986
66.165 20.657455
66.170 21.07139
66.175 21.079582
66.180 21.057074
66.185 21.081087
66.190 20.904421
66.195 20.946632
66.200 20.642124
66.205 20.411642
66.210 19.926329
66.215 19.259226
66.220 19.148605
66.225 19.151255
66.230 18.981726
66.235 18.496359
66.240 17.591351
66.245 17.291756
66.250 17.294912
66.255 16.562382
66.260 15.919281
66.265 15.888241
66.270 15.974271
66.275 16.099028
66.280 15.858359
66.285 15.677692
66.290 15.773227
66.295 15.82205
66.300 15.623696
66.305 15.709449
66.310 15.661348
66.315 15.993275
66.320 16.494806
66.325 16.863459
66.330 17.076508
66.335 16.887903
66.340 16.974199
66.345 16.751284
66.350 16.462225
66.355 16.688969
66.360 16.719917
66.365 16.459854
66.370 16.535538
66.375 16.62212
66.380 17.130714
66.385 16.729805
66.390 16.079445
66.395 15.950938
66.400 16.489189
66.405 16.85273
66.410 16.364431
66.415 16.373539
66.420 16.195259
66.425 15.889845
66.430 15.657567
66.435 15.400629
66.440 15.545721
66.445 15.259559
66.450 14.700557
66.455 14.832636
66.460 14.985911
66.465 14.746497
66.470 14.406967
66.475 14.242929
66.480 14.42669
66.485 14.640249
66.490 15.225396
66.495 15.47471
66.500 16.162834
66.505 16.443781
66.510 16.362614
66.515 16.334131
66.520 16.292923
66.525 15.913461
66.530 15.741707
66.535 15.825531
66.540 16.135729
66.545 15.757123
66.550 15.774265
66.555 15.960383
66.560 16.060675
66.565 16.364727
66.570 16.315147
66.575 15.931603
66.580 15.791158
66.585 15.658932
66.590 15.366342
66.595 15.212755
66.600 14.564145
66.605 14.522685
66.610 14.577972
66.615 14.800894
66.620 14.57565
66.625 14.899358
66.630 14.835296
66.635 14.505173
66.640 14.127344
66.645 14.171748
66.650 14.75152
66.655 14.811442
66.660 14.265758
66.665 14.310359
66.670 14.70728
66.675 15.101608
66.680 15.308682
66.685 14.691684
66.690 15.067521
66.695 15.622287
66.700 15.556124
66.705 15.060949
66.710 14.814876
66.715 14.894832
66.720 15.670219
66.725 15.650245
66.730 15.202234
66.735 15.014423
66.740 14.795875
66.745 14.151501
66.750 14.063504
66.755 13.938209
66.760 13.739399
66.765 13.909286
66.770 14.40454
66.775 15.086988
66.780 15.035597
66.785 14.507472
66.790 14.025589
66.795 13.862975
66.800 13.616155
66.805 13.188676
66.810 13.189771
66.815 13.713784
66.820 14.598914
66.825 14.313893
66.830 14.248404
66.835 14.225797
66.840 14.486414
66.845 14.43866
66.850 14.073273
66.855 13.394574
66.860 13.556314
66.865 13.685772
66.870 13.182524
66.875 12.595223
66.880 12.391442
66.885 12.473246
66.890 12.116129
66.895 12.373538
66.900 12.485671
66.905 13.44062
66.910 14.255021
66.915 14.780557
66.920 15.104829
66.925 15.559539
66.930 15.55603
66.935 15.903004
66.940 15.838814
66.945 15.187474
66.950 14.599711
66.955 13.9967
66.960 13.894438
66.965 13.761183
66.970 13.837823
66.975 13.059455
66.980 13.087566
66.985 13.367426
66.990 13.81297
66.995 13.942689
67.000 14.058924
67.005 14.156482
67.010 14.845499
67.015 14.969935
67.020 15.086226
67.025 15.313809
67.030 15.697396
67.035 16.265362
67.040 16.162294
67.045 16.166101
67.050 16.127516
67.055 15.49905
67.060 15.060401
67.065 14.739909
67.070 14.700561
67.075 14.752385
67.080 15.086809
67.085 15.31711
67.090 15.978438
67.095 16.077408
67.100 16.095686
67.105 15.543864
67.110 15.558099
67.115 14.864445
67.120 15.010431
67.125 14.598158
67.130 14.697263
67.135 14.790576
67.140 14.903486
67.145 14.688366
67.150 14.627516
67.155 14.87952
67.160 15.148463
67.165 14.94201
67.170 14.693477
67.175 14.2936
67.180 14.763651
67.185 14.689034
67.190 14.760256
67.195 14.580479
67.200 14.620132
67.205 14.544724
67.210 14.726305
67.215 14.285533
67.220 14.667136
67.225 14.420545
67.230 14.271159
67.235 14.306029
67.240 14.544538
67.245 14.739331
67.250 15.389336
67.255 15.357246
67.260 15.250276
67.265 15.671439
67.270 15.93782
67.275 15.286884
67.280 14.588319
67.285 13.991213
67.290 13.91447
67.295 14.150702
67.300 14.019433
67.305 14.114235
67.310 14.448627
67.315 14.672878
67.320 14.748377
67.325 14.706701
67.330 14.613377
67.335 14.685104
67.340 14.445958
67.345 14.764424
67.350 14.753537
67.355 14.499002
67.360 14.599491
67.365 14.419559
67.370 14.333884
67.375 14.807882
67.380 14.782187
67.385 15.249728
67.390 15.580973
67.395 15.19093
67.400 15.090197
67.405 14.717512
67.410 14.52836
67.415 14.821647
67.420 14.424844
67.425 14.30904
67.430 14.554906
67.435 14.679861
67.440 15.386331
67.445 15.076828
67.450 14.880294
67.455 14.700201
67.460 15.001792
67.465 15.019437
67.470 15.123339
67.475 14.847243
67.480 14.754901
67.485 14.228287
67.490 14.217303
67.495 13.787186
67.500 13.842071
67.505 13.945298
67.510 14.073577
67.515 14.643025
67.520 15.427633
67.525 15.938993
67.530 16.2948
67.535 16.04912
67.540 15.440229
67.545 15.247273
67.550 14.659471
67.555 14.308129
67.560 13.919666
67.565 13.737807
67.570 14.363
67.575 14.691846
67.580 14.757131
67.585 15.095531
67.590 15.102537
67.595 15.030251
67.600 15.373545
67.605 15.423672
67.610 15.592581
67.615 15.481965
67.620 15.067434
67.625 15.199804
67.630 15.944972
67.635 15.799946
67.640 15.203206
67.645 15.179804
67.650 15.76606
67.655 16.034403
67.660 15.476465
67.665 15.038719
67.670 14.902139
67.675 14.713488
67.680 14.442814
67.685 14.0931
67.690 14.07951
67.695 14.327907
67.700 14.020318
67.705 14.277279
67.710 14.488407
67.715 14.405854
67.720 14.335459
67.725 14.586081
67.730 14.969868
67.735 15.030388
67.740 14.733768
67.745 15.074607
67.750 15.270348
67.755 15.173381
67.760 14.832692
67.765 14.897005
67.770 15.080174
67.775 14.809892
67.780 14.811015
67.785 14.601918
67.790 14.853412
67.795 14.875514
67.800 14.325055
67.805 14.524744
67.810 14.627371
67.815 14.655843
67.820 14.500957
67.825 14.027106
67.830 14.520545
67.835 14.649298
67.840 14.195684
67.845 14.305739
67.850 14.620951
67.855 15.094431
67.860 15.555655
67.865 14.639626
67.870 14.735869
67.875 15.059029
67.880 14.837638
67.885 14.154328
67.890 14.027552
67.895 14.158766
67.900 14.640105
67.905 14.598482
67.910 14.872787
67.915 14.935073
67.920 15.254338
67.925 15.506783
67.930 15.340644
67.935 15.473173
67.940 15.907818
67.945 15.277528
67.950 15.287483
67.955 14.929581
67.960 14.572498
67.965 14.397514
67.970 14.657174
67.975 14.472732
67.980 14.747562
67.985 14.903736
67.990 15.128708
67.995 15.137257
68.000 15.249537
68.005 14.887574
68.010 15.028491
68.015 15.03781
68.020 14.852552
68.025 14.784518
68.030 14.841152
68.035 14.637607
68.040 14.581374
68.045 14.711224
68.050 14.655852
68.055 14.841625
68.060 15.546046
68.065 15.781128
68.070 15.450799
68.075 15.062778
68.080 14.554
68.085 14.596145
68.090 14.301212
68.095 13.564404
68.100 13.424609
68.105 14.149518
68.110 14.824809
68.115 15.319805
68.120 15.60956
68.125 15.839598
68.130 16.435091
68.135 16.676237
68.140 16.680471
68.145 16.171867
68.150 15.630463
68.155 16.175526
68.160 16.3533
68.165 16.01005
68.170 15.551185
68.175 15.290922
68.180 15.332775
68.185 15.394974
68.190 14.881984
68.195 15.050256
68.200 15.285405
68.205 15.892589
68.210 16.240162
68.215 16.582989
68.220 16.784193
68.225 16.630939
68.230 15.469949
68.235 14.875788
68.240 14.326776
68.245 13.727258
68.250 13.617039
68.255 12.868792
68.260 12.684107
68.265 13.366961
68.270 13.880673
68.275 14.223807
68.280 14.245152
68.285 14.206519
68.290 14.628468
68.295 14.504103
68.300 14.240093
68.305 14.240259
68.310 14.046075
68.315 14.015315
68.320 14.296278
68.325 14.781345
68.330 15.336007
68.335 15.165079
68.340 14.939723
68.345 15.317704
68.350 16.085344
68.355 16.220457
68.360 15.830664
68.365 15.661347
68.370 16.053555
68.375 15.813476
68.380 15.750992
68.385 15.349555
68.390 15.337692
68.395 15.899683
68.400 15.85369
68.405 15.871451
68.410 15.80653
68.415 15.197749
68.420 15.269364
68.425 14.998246
68.430 14.426972
68.435 14.471617
68.440 14.283106
68.445 14.581431
68.450 15.079377
68.455 15.518315
68.460 16.260921
68.465 16.703402
68.470 16.790556
68.475 17.134254
68.480 17.05431
68.485 16.885107
68.490 16.83276
68.495 16.482758
68.500 16.495171
68.505 16.472536
68.510 16.407089
68.515 16.596796
68.520 16.645136
68.525 16.495169
68.530 16.286234
68.535 16.455559
68.540 16.540737
68.545 16.768522
68.550 16.988468
68.555 16.755726
68.560 16.974186
68.565 17.282787
68.570 17.26792
68.575 17.291437
68.580 17.025
68.585 17.36928
68.590 17.755779
68.595 17.835825
68.600 18.094131
68.605 17.829601
68.610 18.404552
68.615 19.263887
68.620 19.336872
68.625 19.883465
68.630 20.582479
68.635 20.679308
68.640 21.242849
68.645 21.109901
68.650 21.089525
68.655 21.06888
68.660 20.656328
68.665 20.120354
68.670 20.012974
68.675 20.226408
68.680 19.92601
68.685 19.675402
68.690 19.803259
68.695 20.058966
68.700 20.09712
68.705 19.980192
68.710 19.904701
68.715 20.156185
68.720 20.248196
68.725 20.166437
68.730 20.354595
68.735 21.115889
68.740 21.209127
68.745 21.309311
68.750 21.922171
68.755 22.384695
68.760 23.098251
68.765 23.931704
68.770 24.253174
68.775 24.277494
68.780 23.855469
68.785 23.281853
68.790 23.073879
68.795 22.848766
68.800 21.796726
68.805 21.925167
68.810 22.338793
68.815 23.081873
68.820 23.370905
68.825 23.557774
68.830 24.487625
68.835 25.382343
68.840 25.152514
68.845 25.655897
68.850 25.820116
68.855 26.196177
68.860 26.121561
68.865 25.601681
68.870 25.160818
68.875 25.430357
68.880 25.152349
68.885 25.053089
68.890 25.180582
68.895 25.198883
68.900 25.692574
68.905 26.044756
68.910 26.370058
68.915 26.83292
68.920 26.788374
68.925 26.3706
68.930 26.242701
68.935 25.373192
68.940 25.336906
68.945 25.201029
68.950 24.710913
68.955 24.597986
68.960 24.961676
68.965 25.090475
68.970 25.043766
68.975 25.157955
68.980 25.089962
68.985 25.471588
68.990 25.955191
68.995 25.99964
69.000 26.447151
69.005 26.77817
69.010 26.535398
69.015 26.469576
69.020 26.549459
69.025 26.460882
69.030 26.206808
69.035 26.30361
69.040 26.247335
69.045 26.621843
69.050 26.817278
69.055 26.755919
69.060 26.448803
69.065 26.250366
69.070 26.286596
69.075 26.806215
69.080 26.335855
69.085 26.530563
69.090 26.466774
69.095 26.953936
69.100 26.78245
69.105 27.075247
69.110 26.884499
69.115 26.613714
69.120 26.465668
69.125 26.262936
69.130 26.475189
69.135 26.586079
69.140 26.556513
69.145 26.435328
69.150 26.392321
69.155 26.294901
69.160 25.684
69.165 25.433073
69.170 24.79657
69.175 24.532276
69.180 24.297596
69.185 24.049639
69.190 23.47892
69.195 23.361019
69.200 22.738113
69.205 22.397768
69.210 21.738483
69.215 21.587631
69.220 21.625412
69.225 21.673037
69.230 21.6598
69.235 21.182205
69.240 21.063448
69.245 20.867174
69.250 20.383936
69.255 19.905388
69.260 20.009819
69.265 20.041485
69.270 20.368872
69.275 20.832451
69.280 20.771067
69.285 20.39097
69.290 20.224504
69.295 19.843285
69.300 19.707809
69.305 19.537886
69.310 18.882593
69.315 18.513052
69.320 18.658964
69.325 19.295422
69.330 19.798265
69.335 20.407442
69.340 20.431473
69.345 20.539631
69.350 20.542406
69.355 20.765427
69.360 20.780575
69.365 20.571943
69.370 19.796797
69.375 19.270216
69.380 19.463379
69.385 19.591188
69.390 19.932003
69.395 19.18302
69.400 18.735872
69.405 18.667576
69.410 18.773729
69.415 18.285748
69.420 18.411655
69.425 18.142355
69.430 18.628397
69.435 18.941612
69.440 19.041021
69.445 19.061844
69.450 18.545841
69.455 17.851851
69.460 17.338654
69.465 16.982433
69.470 16.298531
69.475 15.772959
69.480 15.82484
69.485 15.849201
69.490 15.55977
69.495 14.98129
69.500 14.550589
69.505 15.060352
69.510 15.268756
69.515 15.353483
69.520 15.479244
69.525 16.143698
69.530 15.931229
69.535 15.78307
69.540 15.799509
69.545 16.2323
69.550 16.42197
69.555 16.207952
69.560 16.120045
69.565 16.860291
69.570 17.614796
69.575 18.044052
69.580 17.645998
69.585 17.129169
69.590 16.692211
69.595 16.893936
69.600 16.280403
69.605 15.79155
69.610 15.592261
69.615 15.738475
69.620 16.270277
69.625 16.958176
69.630 16.252645
69.635 15.980124
69.640 16.040401
69.645 15.925001
69.650 15.511295
69.655 15.366613
69.660 15.072344
69.665 15.374782
69.670 15.834399
69.675 15.738474
69.680 15.704309
69.685 16.014088
69.690 15.854661
69.695 15.702765
69.700 15.713538
69.705 15.885278
69.710 15.861609
69.715 15.739234
69.720 15.722021
69.725 15.496604
69.730 15.939106
69.735 16.034594
69.740 15.540412
69.745 15.27145
69.750 15.171383
69.755 15.542462
69.760 16.369244
69.765 16.01483
69.770 16.010715
69.775 15.848103
69.780 15.998425
69.785 16.179201
69.790 15.492846
69.795 15.131357
69.800 14.912586
69.805 14.609068
69.810 14.734913
69.815 15.004676
69.820 14.983301
69.825 15.158007
69.830 14.751654
69.835 15.04717
69.840 14.494852
69.845 14.182434
69.850 13.814763
69.855 14.03541
69.860 13.906787
69.865 13.836658
69.870 14.059275
69.875 14.812617
69.880 15.026728
69.885 15.209799
69.890 14.933782
69.895 15.084492
69.900 15.307671
69.905 14.915449
69.910 14.914155
69.915 14.818656
69.920 14.769248
69.925 15.100411
69.930 14.603499
69.935 14.295975
69.940 14.467002
69.945 14.528358
69.950 14.664532
69.955 14.407664
69.960 14.275488
69.965 14.774633
69.970 14.890398
69.975 14.85521
69.980 14.568991
69.985 14.259431
69.990 14.332306
69.995 14.266369
70.000 14.563501
70.005 14.529378
70.010 13.866961
70.015 13.860854
70.020 14.150784
70.025 14.281025
70.030 14.359593
70.035 14.026715
70.040 14.299489
70.045 14.811443
70.050 14.619765
70.055 14.826225
70.060 14.70798
70.065 15.028567
70.070 15.054015
70.075 14.647863
70.080 15.084374
70.085 15.703188
70.090 15.351789
70.095 15.390243
70.100 15.236127
70.105 15.305592
70.110 15.237259
70.115 14.593034
70.120 14.0346
70.125 14.466001
70.130 14.741756
70.135 15.554098
70.140 15.456687
70.145 15.766625
70.150 15.658185
70.155 15.828016
70.160 15.57439
70.165 15.401166
70.170 14.560981
70.175 14.8663
70.180 14.762953
70.185 15.196301
70.190 15.248731
70.195 15.588518
70.200 15.424828
70.205 16.05415
70.210 16.055658
70.215 15.74515
70.220 15.476613
70.225 15.052331
70.230 14.317488
70.235 13.994579
70.240 13.704597
70.245 13.797309
70.250 13.901967
70.255 13.923107
70.260 13.568288
70.265 14.06405
70.270 14.325141
70.275 14.340045
70.280 14.784043
70.285 14.817309
70.290 14.78752
70.295 15.15233
70.300 14.927824
70.305 14.884805
70.310 14.601118
70.315 14.758243
70.320 14.825755
70.325 14.99194
70.330 15.038102
70.335 14.674822
70.340 14.473801
70.345 13.998878
70.350 13.896066
70.355 14.231484
70.360 14.442277
70.365 15.00282
70.370 15.458914
70.375 15.791349
70.380 16.019688
70.385 15.879087
70.390 15.858067
70.395 15.187435
70.400 14.783278
70.405 14.556806
70.410 14.00028
70.415 13.931145
70.420 13.245267
70.425 13.643469
70.430 14.438048
70.435 14.238638
70.440 14.133786
70.445 14.117727
70.450 13.987122
70.455 14.067871
70.460 13.291112
70.465 12.893579
70.470 12.886845
70.475 12.900591
70.480 12.883827
70.485 13.041097
70.490 13.457899
70.495 13.554412
70.500 14.080496
70.505 13.995516
70.510 14.363765
70.515 14.221319
70.520 14.447716
70.525 14.28824
70.530 14.245441
70.535 14.267364
70.540 14.19702
70.545 14.056669
70.550 14.5867
70.555 14.365375
70.560 14.480721
70.565 14.271054
70.570 13.707214
70.575 13.893351
70.580 13.780808
70.585 13.479617
70.590 13.35462
70.595 13.595783
70.600 13.734181
70.605 14.294681
70.610 13.997875
70.615 14.194454
70.620 14.616064
70.625 14.627799
70.630 14.232063
70.635 14.247806
70.640 14.315931
70.645 14.565509
70.650 14.884002
70.655 14.98132
70.660 14.733939
70.665 14.570625
70.670 14.915382
70.675 14.865059
70.680 14.938759
70.685 14.551491
70.690 14.490814
70.695 15.045773
70.700 14.995362
70.705 14.951958
70.710 14.713923
70.715 14.738043
70.720 14.887369
70.725 14.898371
70.730 14.659448
70.735 14.817518
70.740 14.235924
70.745 13.944954
70.750 13.486378
70.755 13.350506
70.760 13.143051
70.765 12.981961
70.770 12.808242
70.775 13.38817
70.780 14.107974
70.785 14.510274
70.790 14.325731
70.795 14.240625
70.800 13.773701
70.805 13.465579
70.810 13.014636
70.815 13.003579
70.820 12.741584
70.825 12.947696
70.830 13.377151
70.835 14.1031
70.840 15.074147
70.845 15.2623
70.850 15.226149
70.855 15.570618
70.860 15.56501
70.865 15.926392
70.870 15.791377
70.875 15.341928
70.880 15.137074
70.885 14.840975
70.890 14.753005
70.895 13.947131
70.900 13.640565
70.905 13.205129
70.910 13.055525
70.915 12.787455
70.920 12.677343
70.925 12.646051
70.930 12.964506
70.935 13.313838
70.940 13.82634
70.945 13.715714
70.950 13.606668
70.955 13.280109
70.960 12.95467
70.965 12.93914
70.970 12.662175
70.975 12.812424
70.980 13.191572
70.985 13.240788
70.990 13.528977
70.995 14.208909
71.000 14.526973
71.005 14.521629
71.010 14.303082
71.015 14.126711
71.020 14.476169
71.025 14.406092
71.030 13.662675
71.035 13.436743
71.040 13.359115
71.045 13.423272
71.050 13.591969
71.055 13.922686
71.060 14.545872
71.065 14.794722
71.070 14.900226
71.075 14.597663
71.080 14.338032
71.085 14.554028
71.090 14.201497
71.095 14.149632
71.100 13.879918
71.105 13.849714
71.110 14.080632
71.115 13.957057
71.120 13.542129
71.125 13.248013
71.130 13.141295
71.135 13.957388
71.140 14.166728
71.145 14.326858
71.150 14.796223
71.155 15.142538
71.160 15.313601
71.165 15.459569
71.170 15.017097
71.175 14.573523
71.180 14.476054
71.185 14.694554
71.190 14.803902
71.195 15.628344
71.200 15.129553
71.205 14.881888
71.210 14.797546
71.215 14.92827
71.220 14.924404
71.225 14.888136
71.230 13.809343
71.235 14.094253
71.240 14.201549
71.245 14.499079
71.250 14.464378
71.255 14.248432
71.260 14.117645
71.265 14.780493
71.270 14.629006
71.275 14.900574
71.280 14.437125
71.285 14.11202
71.290 14.027584
71.295 14.060865
71.300 14.312859
71.305 15.003577
71.310 15.05277
71.315 15.429935
71.320 15.480764
71.325 15.248067
71.330 15.097228
71.335 14.60033
71.340 14.203209
71.345 14.272511
71.350 14.278373
71.355 14.278728
71.360 14.452593
71.365 14.342709
71.370 14.156349
71.375 14.188755
71.380 14.431245
71.385 13.843838
71.390 13.541606
71.395 13.064986
71.400 13.207769
71.405 13.204098
71.410 12.803479
71.415 12.277086
71.420 12.360916
71.425 12.635507
71.430 13.061396
71.435 12.91971
71.440 12.611063
71.445 12.450147
71.450 13.129221
71.455 13.668694
71.460 13.401474
71.465 13.293911
71.470 13.481328
71.475 13.978307
71.480 14.630639
71.485 14.528344
71.490 14.291858
71.495 13.961818
71.500 14.219458
71.505 14.597666
71.510 14.781082
71.515 14.819263
71.520 15.381809
71.525 15.980065
71.530 16.143234
71.535 15.586188
71.540 15.643398
71.545 15.18942
71.550 15.192372
71.555 14.59215
71.560 14.169259
71.565 14.060751
71.570 14.386903
71.575 13.804998
71.580 13.79885
71.585 13.519048
71.590 13.202319
71.595 13.27237
71.600 13.453739
71.605 13.74568
71.610 13.922867
71.615 13.351524
71.620 13.462101
71.625 14.023573
71.630 14.540005
71.635 14.50589
71.640 14.617421
71.645 15.198197
71.650 15.771829
71.655 15.091687
71.660 14.499442
71.665 13.85897
71.670 14.047487
71.675 14.506111
71.680 14.183616
71.685 14.330743
71.690 15.108427
71.695 15.327716
71.700 15.67288
71.705 14.634122
71.710 14.381878
71.715 14.502657
71.720 14.563024
71.725 14.899778
71.730 15.34952
71.735 15.525412
71.740 15.964945
71.745 15.876933
71.750 15.716224
71.755 15.066317
71.760 14.799069
71.765 14.869644
71.770 14.93322
71.775 14.837825
71.780 14.693491
71.785 15.353741
71.790 15.737661
71.795 15.891494
71.800 15.533102
71.805 15.142628
71.810 15.001598
71.815 14.769218
71.820 14.271969
71.825 13.843472
71.830 13.377239
71.835 13.585696
71.840 14.275386
71.845 14.869879
71.850 14.686856
71.855 14.830109
71.860 15.050646
71.865 15.229152
71.870 15.043097
71.875 14.525554
71.880 14.325478
71.885 15.075157
71.890 14.671274
71.895 14.248731
71.900 14.049273
71.905 14.435321
71.910 14.489305
71.915 14.215492
71.920 13.841255
71.925 14.328939
71.930 14.45621
71.935 14.374684
71.940 13.930629
71.945 13.936487
71.950 13.757301
71.955 13.697864
71.960 13.060946
71.965 13.218567
71.970 13.450752
71.975 13.612928
71.980 13.105336
71.985 13.316998
71.990 13.682563
71.995 13.888716
72.000 13.676369
72.005 13.24306
72.010 13.442191
72.015 14.091338
72.020 14.335737
72.025 14.695694
72.030 15.121764
72.035 15.7093
72.040 16.126497
72.045 16.204102
72.050 16.069693
72.055 16.1287
72.060 15.618821
72.065 15.103221
72.070 14.48735
72.075 14.193839
72.080 14.152567
72.085 13.70266
72.090 13.388927
72.095 13.642556
72.100 14.415614
72.105 15.151995
72.110 14.958983
72.115 15.046196
72.120 15.257138
72.125 15.857948
72.130 15.758399
72.135 15.094079
72.140 14.766291
72.145 14.967418
72.150 15.212708
72.155 15.315425
72.160 14.969512
72.165 15.067913
72.170 15.807837
72.175 15.976937
72.180 15.696274
72.185 15.577835
72.190 15.065311
72.195 15.292228
72.200 14.696578
72.205 14.21005
72.210 13.887166
72.215 13.321283
72.220 12.966092
72.225 12.806475
72.230 12.679227
72.235 12.390646
72.240 12.52386
72.245 12.481427
72.250 12.833262
72.255 12.780961
72.260 12.766488
72.265 12.550355
72.270 12.541154
72.275 12.660229
72.280 13.164871
72.285 12.972818
72.290 13.140468
72.295 12.91115
72.300 12.840361
72.305 12.789868
72.310 12.935395
72.315 13.10149
72.320 13.546227
72.325 13.623065
72.330 14.473988
72.335 14.569296
72.340 14.32906
72.345 13.729828
72.350 13.916481
72.355 13.674668
72.360 13.07218
72.365 12.563734
72.370 12.831382
72.375 13.274576
72.380 13.403592
72.385 12.612732
72.390 12.791432
72.395 12.990733
72.400 12.943426
72.405 12.841822
72.410 12.652317
72.415 12.47027
72.420 12.575048
72.425 12.699917
72.430 12.700933
72.435 13.136888
72.440 13.097976
72.445 12.896808
72.450 13.367308
72.455 13.254999
72.460 13.212957
72.465 13.242807
72.470 13.244452
72.475 13.043792
72.480 13.627319
72.485 14.127237
72.490 14.575694
72.495 14.774012
72.500 14.634912
72.505 14.713704
72.510 14.80899
72.515 14.364992
72.520 14.075841
72.525 13.804987
72.530 13.678146
72.535 13.565441
72.540 13.288747
72.545 13.169216
72.550 12.899695
72.555 12.57444
72.560 12.430723
72.565 12.501801
72.570 12.619805
72.575 12.8717
72.580 12.854783
72.585 13.222972
72.590 13.844409
72.595 14.062732
72.600 13.849613
72.605 13.801365
72.610 13.905828
72.615 14.149502
72.620 13.769753
72.625 12.971884
72.630 12.964579
72.635 13.760126
72.640 13.797069
72.645 13.663418
72.650 13.411252
72.655 13.590573
72.660 13.904982
72.665 13.534689
72.670 13.034987
72.675 13.225631
72.680 13.204814
72.685 13.341599
72.690 13.037611
72.695 12.991893
72.700 13.498049
72.705 13.32108
72.710 13.396874
72.715 13.884373
72.720 13.751285
72.725 14.415107
72.730 14.088401
72.735 14.07632
72.740 14.053723
72.745 13.91888
72.750 14.036266
72.755 13.975962
72.760 13.773894
72.765 14.182372
72.770 14.491305
72.775 14.656684
72.780 14.370901
72.785 13.600957
72.790 14.234988
72.795 14.037405
72.800 14.106916
72.805 13.492496
72.810 13.705582
72.815 13.813973
72.820 14.220136
72.825 13.862165
72.830 13.44217
72.835 13.065854
72.840 12.930499
72.845 12.860003
72.850 12.976124
72.855 12.723239
72.860 12.78287
72.865 13.019586
72.870 13.679276
72.875 13.841691
72.880 13.628894
72.885 13.186018
72.890 13.134155
72.895 12.882989
72.900 13.349998
72.905 13.233588
72.910 13.222441
72.915 13.636569
72.920 14.184906
72.925 14.272713
72.930 14.408445
72.935 13.369303
72.940 13.60354
72.945 14.06985
72.950 14.169049
72.955 13.864732
72.960 13.800865
72.965 13.565302
72.970 13.881587
72.975 13.507491
72.980 12.990391
72.985 12.800965
72.990 13.139472
72.995 12.903977
73.000 13.093834
