!@!!GADDS PLOTSO FILE: Chi integration type
!@!!Title/SampleName: map-3e
!@!!Comment: ?
!@!!User: Bruker Instrument Administrator
!@!!Site: University of Illinois Chicago
!@!!Frame: map-3e_01_000.gfrm
!@!!Wavelengths    1.54184   1.54056   1.54439
!@!!Frame angles: 2Theta: 63.000 Omega: 50.000 Phi: 0.000 Chi: 90.000
!@!!Integration range: 2Theta: 53.000 to 73.000  Gamma: -105.000 to -75.000
!@!!Integration method: bin normalized
!@!N
!@!SS
!@!M
!@!L 0.0 0.0 0.0 0.0
!@!XDegrees
!@!YCounts
53.000 7.776835
53.005 7.957887
53.010 7.987414
53.015 7.946333
53.020 8.00683
53.025 8.294642
53.030 7.956117
53.035 7.93153
53.040 7.759193
53.045 7.842315
53.050 7.976643
53.055 7.879742
53.060 7.892579
53.065 8.158893
53.070 8.071828
53.075 8.182151
53.080 7.621686
53.085 7.331436
53.090 6.985454
53.095 6.755291
53.100 6.943964
53.105 7.140051
53.110 7.085898
53.115 7.540536
53.120 7.522037
53.125 7.807425
53.130 8.051671
53.135 8.269525
53.140 7.968602
53.145 8.031678
53.150 8.028119
53.155 8.106388
53.160 8.516627
53.165 8.159161
53.170 8.293062
53.175 8.697686
53.180 8.500237
53.185 8.411563
53.190 8.316759
53.195 7.882458
53.200 8.081413
53.205 7.779315
53.210 7.642794
53.215 8.070827
53.220 8.261932
53.225 8.309425
53.230 8.351377
53.235 8.537653
53.240 8.980622
53.245 8.920913
53.250 8.64641
53.255 8.594567
53.260 8.79408
53.265 8.553942
53.270 8.23231
53.275 8.040474
53.280 7.905227
53.285 8.062315
53.290 8.006924
53.295 7.736901
53.300 7.934181
53.305 8.239996
53.310 7.829259
53.315 7.439181
53.320 7.045474
53.325 7.056658
53.330 7.62301
53.335 8.00261
53.340 8.087288
53.345 8.721341
53.350 9.268563
53.355 9.806515
53.360 10.08261
53.365 9.762726
53.370 9.604277
53.375 9.587969
53.380 9.502063
53.385 9.454401
53.390 9.154319
53.395 8.716883
53.400 8.876
53.405 8.519989
53.410 8.585336
53.415 8.630713
53.420 8.543402
53.425 8.665236
53.430 8.687868
53.435 8.711633
53.440 8.934829
53.445 8.736667
53.450 8.951547
53.455 9.858042
53.460 10.168344
53.465 10.097325
53.470 10.239308
53.475 10.298199
53.480 10.023391
53.485 9.857697
53.490 9.113394
53.495 9.045862
53.500 9.233265
53.505 9.137575
53.510 9.147528
53.515 9.270085
53.520 9.409595
53.525 9.864344
53.530 9.585973
53.535 9.62455
53.540 9.500581
53.545 9.542123
53.550 9.725715
53.555 9.393307
53.560 9.253969
53.565 9.258096
53.570 9.177525
53.575 9.072792
53.580 8.748216
53.585 8.580926
53.590 8.231995
53.595 8.232273
53.600 8.393549
53.605 8.547502
53.610 9.006813
53.615 9.241415
53.620 9.447536
53.625 9.808379
53.630 9.872887
53.635 10.011166
53.640 10.215574
53.645 10.184143
53.650 10.068715
53.655 10.206396
53.660 10.380053
53.665 10.721496
53.670 10.407486
53.675 10.238404
53.680 10.183097
53.685 10.60209
53.690 10.599993
53.695 9.999646
53.700 9.240797
53.705 9.046456
53.710 8.783716
53.715 8.673324
53.720 8.51087
53.725 8.87001
53.730 9.314962
53.735 9.860389
53.740 10.603839
53.745 10.829312
53.750 11.069659
53.755 11.251862
53.760 11.276512
53.765 11.239706
53.770 10.757034
53.775 10.560529
53.780 10.483839
53.785 10.30199
53.790 9.735365
53.795 9.233131
53.800 9.402308
53.805 9.551998
53.810 9.082269
53.815 8.618289
53.820 8.583007
53.825 8.575604
53.830 8.88872
53.835 8.897328
53.840 8.685814
53.845 9.310163
53.850 9.729216
53.855 10.043864
53.860 10.102524
53.865 9.877748
53.870 9.592716
53.875 9.804726
53.880 9.353837
53.885 9.184195
53.890 9.062594
53.895 8.772303
53.900 8.691542
53.905 8.987698
53.910 9.171848
53.915 9.190994
53.920 8.894474
53.925 8.666255
53.930 8.884116
53.935 8.82314
53.940 8.374115
53.945 8.381259
53.950 8.919122
53.955 8.975122
53.960 9.075014
53.965 9.293264
53.970 9.213573
53.975 9.492024
53.980 9.455996
53.985 9.195855
53.990 9.446726
53.995 9.329353
54.000 9.24216
54.005 9.44075
54.010 9.336074
54.015 9.141539
54.020 8.967642
54.025 8.722514
54.030 8.995449
54.035 9.181986
54.040 9.05674
54.045 9.453333
54.050 9.753995
54.055 9.706335
54.060 9.916108
54.065 9.610629
54.070 9.992629
54.075 10.006727
54.080 9.775589
54.085 9.786483
54.090 10.094441
54.095 10.468624
54.100 10.445182
54.105 9.932194
54.110 9.970026
54.115 9.738395
54.120 9.823452
54.125 9.775711
54.130 9.160101
54.135 9.011582
54.140 9.293233
54.145 9.280644
54.150 9.36083
54.155 8.992003
54.160 8.921014
54.165 9.201467
54.170 9.751124
54.175 9.81642
54.180 10.263583
54.185 10.580729
54.190 10.760633
54.195 10.865937
54.200 10.574797
54.205 10.181556
54.210 9.910806
54.215 9.435986
54.220 9.495766
54.225 9.63828
54.230 9.819472
54.235 9.850321
54.240 9.541607
54.245 9.618136
54.250 9.225673
54.255 9.025915
54.260 9.13985
54.265 8.960516
54.270 9.293544
54.275 9.775517
54.280 9.816837
54.285 9.960746
54.290 9.749634
54.295 9.376578
54.300 9.604661
54.305 9.994761
54.310 10.33122
54.315 10.353486
54.320 10.890822
54.325 11.041416
54.330 11.098281
54.335 10.82509
54.340 10.599093
54.345 10.729581
54.350 10.590067
54.355 10.121655
54.360 10.452868
54.365 10.802737
54.370 10.934742
54.375 10.87096
54.380 10.157148
54.385 10.284057
54.390 10.341695
54.395 10.089902
54.400 9.535935
54.405 9.319689
54.410 9.563643
54.415 10.21443
54.420 10.581505
54.425 10.719404
54.430 10.969911
54.435 11.07712
54.440 11.406226
54.445 11.261012
54.450 10.787227
54.455 10.004972
54.460 9.636505
54.465 9.232656
54.470 9.059132
54.475 8.82558
54.480 9.36112
54.485 9.979507
54.490 10.172276
54.495 10.334796
54.500 10.451754
54.505 10.774199
54.510 10.243478
54.515 10.266751
54.520 10.128034
54.525 10.511773
54.530 10.848031
54.535 10.714594
54.540 10.314711
54.545 10.169425
54.550 10.262706
54.555 10.080282
54.560 9.693516
54.565 9.294751
54.570 9.377571
54.575 9.666414
54.580 9.590964
54.585 9.285316
54.590 9.514895
54.595 9.832675
54.600 10.346325
54.605 10.903831
54.610 11.125971
54.615 11.046004
54.620 10.619273
54.625 10.244801
54.630 10.135357
54.635 9.639395
54.640 9.5107
54.645 9.56819
54.650 10.079905
54.655 10.443997
54.660 10.387079
54.665 10.548959
54.670 10.833702
54.675 10.970542
54.680 11.027374
54.685 10.361626
54.690 10.569485
54.695 11.224983
54.700 11.18532
54.705 10.777353
54.710 10.255815
54.715 10.261007
54.720 10.320962
54.725 9.869328
54.730 9.439286
54.735 9.466112
54.740 9.319203
54.745 9.341938
54.750 9.663694
54.755 9.76225
54.760 10.141369
54.765 10.375
54.770 10.320624
54.775 10.669658
54.780 10.487931
54.785 10.349003
54.790 10.624187
54.795 10.614335
54.800 10.785966
54.805 10.72431
54.810 10.631528
54.815 10.429901
54.820 10.525796
54.825 10.7627
54.830 10.455857
54.835 10.322955
54.840 10.241231
54.845 10.447034
54.850 11.181008
54.855 10.894676
54.860 10.778052
54.865 10.734696
54.870 11.112142
54.875 11.168942
54.880 11.228333
54.885 11.181259
54.890 11.270485
54.895 11.450559
54.900 11.110136
54.905 10.741042
54.910 10.841703
54.915 10.447463
54.920 10.255957
54.925 10.563548
54.930 10.881253
54.935 11.392094
54.940 11.217126
54.945 10.937628
54.950 10.911786
54.955 10.430694
54.960 9.971148
54.965 9.465297
54.970 9.217797
54.975 9.668455
54.980 9.827948
54.985 10.059783
54.990 10.22504
54.995 10.532224
55.000 10.53194
55.005 10.656869
55.010 10.636978
55.015 10.217194
55.020 10.169389
55.025 10.441652
55.030 10.201449
55.035 10.31814
55.040 10.305952
55.045 10.513931
55.050 10.716561
55.055 11.044244
55.060 11.249069
55.065 11.064013
55.070 10.656067
55.075 10.521076
55.080 10.652877
55.085 10.706807
55.090 10.47331
55.095 10.344025
55.100 10.873436
55.105 11.932703
55.110 12.404487
55.115 12.537156
55.120 12.378943
55.125 12.063118
55.130 11.881792
55.135 11.832458
55.140 10.889894
55.145 10.582989
55.150 10.807273
55.155 11.169362
55.160 11.551289
55.165 11.551827
55.170 12.11957
55.175 12.395056
55.180 12.411237
55.185 12.296124
55.190 12.845393
55.195 13.221621
55.200 13.320659
55.205 12.907988
55.210 12.879459
55.215 12.236374
55.220 11.733533
55.225 11.49755
55.230 10.979967
55.235 10.810017
55.240 10.828192
55.245 11.237363
55.250 11.624624
55.255 11.855927
55.260 11.234093
55.265 11.410972
55.270 11.360441
55.275 10.852875
55.280 10.612891
55.285 10.36509
55.290 10.068087
55.295 10.517915
55.300 10.380492
55.305 10.662309
55.310 10.577882
55.315 10.667614
55.320 10.780292
55.325 10.614334
55.330 10.473299
55.335 10.5013
55.340 10.594112
55.345 10.904656
55.350 10.854107
55.355 11.18571
55.360 11.599324
55.365 11.344043
55.370 11.422425
55.375 11.007983
55.380 10.709688
55.385 10.694527
55.390 10.598807
55.395 10.400017
55.400 10.273853
55.405 10.162135
55.410 10.46718
55.415 10.412415
55.420 10.205936
55.425 9.856606
55.430 9.623135
55.435 9.539439
55.440 9.411889
55.445 9.516504
55.450 9.635347
55.455 9.627608
55.460 9.722644
55.465 10.189348
55.470 10.938277
55.475 11.002725
55.480 10.892824
55.485 10.777095
55.490 10.868216
55.495 11.097553
55.500 10.99048
55.505 10.401276
55.510 10.358864
55.515 10.514623
55.520 10.58017
55.525 10.536842
55.530 10.185918
55.535 10.318247
55.540 10.736764
55.545 10.404933
55.550 10.424805
55.555 10.751663
55.560 11.238436
55.565 11.485778
55.570 10.998565
55.575 11.258876
55.580 11.987011
55.585 12.050018
55.590 11.653219
55.595 11.468679
55.600 11.8608
55.605 11.843193
55.610 11.547245
55.615 11.103981
55.620 11.039226
55.625 11.124127
55.630 10.938785
55.635 10.596438
55.640 10.543323
55.645 10.741782
55.650 11.121534
55.655 11.272388
55.660 11.224663
55.665 10.552648
55.670 10.518988
55.675 10.757006
55.680 10.752527
55.685 10.511105
55.690 10.56665
55.695 10.902371
55.700 11.758262
55.705 12.221041
55.710 12.232767
55.715 12.031574
55.720 11.936147
55.725 12.075966
55.730 12.160048
55.735 11.946682
55.740 11.35656
55.745 11.073727
55.750 11.278469
55.755 11.108067
55.760 10.971138
55.765 11.00316
55.770 10.915202
55.775 10.815234
55.780 10.787858
55.785 10.758636
55.790 11.326942
55.795 11.284102
55.800 11.25176
55.805 11.53323
55.810 12.055401
55.815 11.894929
55.820 11.633469
55.825 11.150249
55.830 11.155432
55.835 11.099694
55.840 10.55158
55.845 10.419459
55.850 10.331341
55.855 10.501282
55.860 10.387547
55.865 10.29973
55.870 9.638968
55.875 9.840358
55.880 10.1649
55.885 10.692513
55.890 10.733899
55.895 10.962136
55.900 11.268745
55.905 12.060353
55.910 11.998231
55.915 11.780871
55.920 11.999998
55.925 12.203765
55.930 11.797274
55.935 11.767811
55.940 11.776114
55.945 12.052302
55.950 12.07092
55.955 11.778474
55.960 11.77608
55.965 11.678424
55.970 11.744723
55.975 11.796621
55.980 12.011135
55.985 12.152233
55.990 11.974771
55.995 12.026216
56.000 12.414526
56.005 12.357586
56.010 11.893624
56.015 11.532043
56.020 11.50389
56.025 11.836025
56.030 11.315067
56.035 11.533404
56.040 11.403545
56.045 11.637659
56.050 11.729663
56.055 11.409698
56.060 11.01815
56.065 11.163017
56.070 10.922193
56.075 11.331971
56.080 11.358698
56.085 11.376631
56.090 11.83301
56.095 11.782356
56.100 11.60153
56.105 11.98074
56.110 12.053942
56.115 11.715842
56.120 11.315745
56.125 10.674476
56.130 10.411251
56.135 10.393322
56.140 9.826495
56.145 9.748716
56.150 10.211469
56.155 10.700397
56.160 11.438777
56.165 11.751583
56.170 11.787381
56.175 11.658269
56.180 11.146483
56.185 11.222928
56.190 11.407305
56.195 11.327113
56.200 11.769001
56.205 11.597813
56.210 11.535251
56.215 12.158458
56.220 11.805507
56.225 11.871022
56.230 12.086633
56.235 12.370052
56.240 12.784972
56.245 13.678122
56.250 13.347674
56.255 13.574747
56.260 13.5771
56.265 13.53464
56.270 13.45254
56.275 12.948322
56.280 12.225632
56.285 12.671272
56.290 13.239579
56.295 13.337738
56.300 13.300539
56.305 13.588432
56.310 13.760607
56.315 14.161042
56.320 13.718337
56.325 13.369187
56.330 13.353111
56.335 13.747273
56.340 13.339508
56.345 13.543778
56.350 13.681849
56.355 13.730729
56.360 13.612733
56.365 13.084506
56.370 13.120496
56.375 13.734739
56.380 13.484634
56.385 13.381796
56.390 13.173305
56.395 13.068058
56.400 13.073083
56.405 12.199725
56.410 11.902717
56.415 11.876655
56.420 11.987109
56.425 12.352329
56.430 12.638323
56.435 12.857282
56.440 13.135342
56.445 12.979528
56.450 12.623516
56.455 11.833012
56.460 11.132689
56.465 10.607221
56.470 10.483952
56.475 10.125179
56.480 9.930755
56.485 10.284614
56.490 10.409374
56.495 10.467049
56.500 10.863648
56.505 11.162993
56.510 11.549533
56.515 11.931879
56.520 12.245458
56.525 12.735022
56.530 12.604334
56.535 12.357527
56.540 12.579971
56.545 12.90796
56.550 12.858263
56.555 13.153289
56.560 12.889939
56.565 13.396086
56.570 13.77318
56.575 13.197076
56.580 13.273105
56.585 13.282117
56.590 13.093055
56.595 13.568332
56.600 13.760889
56.605 13.981734
56.610 14.168517
56.615 13.426183
56.620 13.357453
56.625 13.301371
56.630 13.652929
56.635 13.340941
56.640 12.954797
56.645 12.711256
56.650 12.815372
56.655 12.760951
56.660 12.591408
56.665 12.198608
56.670 12.320807
56.675 12.495069
56.680 12.904461
56.685 13.266754
56.690 13.644416
56.695 13.414
56.700 13.093987
56.705 13.109118
56.710 12.740023
56.715 12.246531
56.720 12.21656
56.725 12.264862
56.730 12.640436
56.735 13.205317
56.740 13.073296
56.745 14.077811
56.750 14.3167
56.755 14.015867
56.760 13.944353
56.765 13.792489
56.770 13.856952
56.775 14.01058
56.780 13.324622
56.785 13.79332
56.790 14.303451
56.795 14.545702
56.800 15.020996
56.805 15.539644
56.810 15.596474
56.815 15.460944
56.820 15.019651
56.825 14.350983
56.830 13.948349
56.835 13.103678
56.840 12.320559
56.845 12.186545
56.850 12.328573
56.855 12.070226
56.860 12.212097
56.865 12.405529
56.870 12.023331
56.875 11.908816
56.880 12.142485
56.885 12.094999
56.890 12.1602
56.895 11.681985
56.900 11.34117
56.905 11.89798
56.910 11.628747
56.915 11.750571
56.920 11.993242
56.925 12.377591
56.930 12.914419
56.935 12.656934
56.940 12.777165
56.945 12.912045
56.950 12.324685
56.955 12.111265
56.960 11.959076
56.965 11.869588
56.970 11.953487
56.975 12.215606
56.980 12.679738
56.985 13.609163
56.990 13.694008
56.995 14.065188
57.000 14.331606
57.005 14.525002
57.010 14.415962
57.015 13.857973
57.020 13.350987
57.025 13.22631
57.030 12.751284
57.035 12.524628
57.040 12.438767
57.045 12.202171
57.050 12.380886
57.055 12.609604
57.060 12.841784
57.065 13.146619
57.070 13.225203
57.075 13.054132
57.080 13.091988
57.085 13.034258
57.090 12.887175
57.095 12.572114
57.100 12.416224
57.105 12.227727
57.110 12.608432
57.115 12.190872
57.120 11.911782
57.125 12.243766
57.130 12.472204
57.135 12.72538
57.140 12.850687
57.145 12.705276
57.150 13.142519
57.155 13.502121
57.160 13.244203
57.165 12.904247
57.170 12.840808
57.175 13.320215
57.180 13.555698
57.185 13.427831
57.190 13.68231
57.195 13.686477
57.200 14.001478
57.205 14.167882
57.210 14.034054
57.215 13.889009
57.220 13.824625
57.225 13.48028
57.230 13.667966
57.235 13.380494
57.240 13.715238
57.245 13.611111
57.250 13.660748
57.255 13.278337
57.260 13.24171
57.265 13.49141
57.270 13.720255
57.275 13.086476
57.280 12.850154
57.285 12.822791
57.290 13.087308
57.295 13.397866
57.300 13.141453
57.305 13.015047
57.310 12.633766
57.315 12.752928
57.320 12.608657
57.325 12.412749
57.330 12.273847
57.335 12.46909
57.340 13.212203
57.345 13.782381
57.350 14.375971
57.355 14.601249
57.360 14.746837
57.365 15.003022
57.370 15.10158
57.375 14.773497
57.380 14.765594
57.385 14.514763
57.390 15.121888
57.395 15.440145
57.400 14.676974
57.405 14.322765
57.410 14.264509
57.415 13.736903
57.420 13.684567
57.425 13.415507
57.430 13.150909
57.435 13.618428
57.440 13.356143
57.445 13.074274
57.450 13.15679
57.455 13.11321
57.460 12.407204
57.465 12.498806
57.470 12.396702
57.475 12.848958
57.480 13.558659
57.485 13.778637
57.490 13.714914
57.495 14.214949
57.500 14.259261
57.505 14.170918
57.510 13.84534
57.515 13.63908
57.520 13.680005
57.525 13.589699
57.530 13.24818
57.535 13.089512
57.540 12.725558
57.545 12.461722
57.550 12.456848
57.555 12.237057
57.560 12.223621
57.565 12.398134
57.570 12.952695
57.575 13.61641
57.580 14.116505
57.585 14.305237
57.590 14.399026
57.595 14.527906
57.600 14.323553
57.605 13.564256
57.610 13.998543
57.615 13.859374
57.620 13.501309
57.625 13.95918
57.630 14.359964
57.635 14.299278
57.640 14.641415
57.645 14.271085
57.650 14.169585
57.655 14.17106
57.660 14.146533
57.665 14.16858
57.670 14.457076
57.675 13.858956
57.680 13.693686
57.685 13.443005
57.690 13.182091
57.695 12.433284
57.700 12.539234
57.705 12.571216
57.710 12.888577
57.715 12.859412
57.720 13.330914
57.725 13.302786
57.730 13.495485
57.735 13.027821
57.740 12.863981
57.745 13.050927
57.750 13.35827
57.755 13.589231
57.760 14.405163
57.765 14.824965
57.770 15.112166
57.775 15.838549
57.780 15.883537
57.785 15.645174
57.790 15.069818
57.795 14.55845
57.800 14.225196
57.805 14.060431
57.810 13.319112
57.815 13.413465
57.820 13.73562
57.825 13.898021
57.830 13.489966
57.835 13.221552
57.840 13.105719
57.845 12.831603
57.850 12.6898
57.855 12.787457
57.860 12.821599
57.865 13.428686
57.870 13.427982
57.875 13.19465
57.880 13.40497
57.885 13.227036
57.890 12.832577
57.895 12.963367
57.900 12.644278
57.905 12.752504
57.910 13.207313
57.915 13.212148
57.920 13.359608
57.925 13.041629
57.930 13.106058
57.935 13.195979
57.940 13.239803
57.945 12.522163
57.950 12.556338
57.955 12.909439
57.960 12.891064
57.965 12.667503
57.970 12.918769
57.975 13.026246
57.980 13.361762
57.985 13.436266
57.990 13.279855
57.995 13.552299
58.000 13.894483
58.005 13.749053
58.010 14.327551
58.015 14.360109
58.020 14.173692
58.025 14.066279
58.030 13.772688
58.035 13.925385
58.040 14.121025
58.045 14.19331
58.050 14.494348
58.055 14.83057
58.060 15.260098
58.065 15.410244
58.070 15.099037
58.075 15.634213
58.080 15.4545
58.085 14.959672
58.090 14.639642
58.095 14.745611
58.100 14.297626
58.105 14.502703
58.110 13.855429
58.115 13.77356
58.120 13.908057
58.125 13.831048
58.130 13.855481
58.135 13.993468
58.140 13.207141
58.145 13.17011
58.150 13.308087
58.155 13.31066
58.160 13.607715
58.165 13.821317
58.170 14.599332
58.175 15.295197
58.180 15.573998
58.185 15.363995
58.190 15.184381
58.195 14.676981
58.200 14.359717
58.205 13.631449
58.210 13.405905
58.215 13.429304
58.220 13.925161
58.225 14.058052
58.230 13.752151
58.235 13.329121
58.240 13.356856
58.245 13.221729
58.250 12.717751
58.255 12.757545
58.260 12.877443
58.265 12.888564
58.270 13.333817
58.275 13.661775
58.280 14.154786
58.285 14.227953
58.290 13.676282
58.295 13.887587
58.300 13.780319
58.305 13.906059
58.310 13.965437
58.315 13.274831
58.320 13.707346
58.325 13.571916
58.330 13.294745
58.335 13.575643
58.340 13.405885
58.345 13.439589
58.350 13.936392
58.355 14.351271
58.360 14.47077
58.365 14.820814
58.370 14.670741
58.375 15.082101
58.380 15.483804
58.385 15.218202
58.390 14.834569
58.395 15.128158
58.400 15.535592
58.405 15.746908
58.410 15.581357
58.415 15.63223
58.420 15.661447
58.425 15.715302
58.430 15.505837
58.435 14.959086
58.440 14.915276
58.445 14.504242
58.450 14.137125
58.455 13.913546
58.460 13.673957
58.465 13.626125
58.470 13.850756
58.475 13.450946
58.480 14.085087
58.485 14.330029
58.490 14.429745
58.495 14.319452
58.500 14.328486
58.505 14.243481
58.510 14.485399
58.515 14.065923
58.520 14.079223
58.525 14.129265
58.530 14.147548
58.535 14.184585
58.540 14.009849
58.545 13.640821
58.550 13.145531
58.555 13.299109
58.560 13.189228
58.565 13.675253
58.570 14.131873
58.575 14.474958
58.580 14.725705
58.585 14.986426
58.590 15.483804
58.595 16.28409
58.600 16.063505
58.605 15.829928
58.610 15.663123
58.615 16.27562
58.620 16.482426
58.625 15.812002
58.630 15.582797
58.635 16.016516
58.640 15.535378
58.645 15.097553
58.650 14.265757
58.655 14.064441
58.660 14.561055
58.665 14.296554
58.670 14.041345
58.675 14.254813
58.680 14.894445
58.685 15.779059
58.690 15.852996
58.695 16.049854
58.700 15.951373
58.705 16.138403
58.710 16.505484
58.715 16.05707
58.720 15.597423
58.725 15.80642
58.730 15.441705
58.735 15.535064
58.740 15.400722
58.745 15.107122
58.750 15.44952
58.755 15.556306
58.760 16.053806
58.765 15.672338
58.770 15.89972
58.775 15.438413
58.780 15.313258
58.785 14.886823
58.790 14.922837
58.795 14.425035
58.800 14.568119
58.805 14.250259
58.810 14.626981
58.815 15.147725
58.820 14.876231
58.825 14.357615
58.830 14.321281
58.835 14.350242
58.840 14.499893
58.845 14.56863
58.850 14.564077
58.855 15.027555
58.860 15.06742
58.865 15.054271
58.870 14.634674
58.875 14.749136
58.880 14.416751
58.885 14.21134
58.890 14.319532
58.895 14.538711
58.900 14.66094
58.905 15.454429
58.910 15.110953
58.915 15.263848
58.920 15.516373
58.925 14.956341
58.930 14.712866
58.935 14.541882
58.940 14.360127
58.945 14.580249
58.950 14.56371
58.955 14.649307
58.960 15.119368
58.965 15.608047
58.970 15.683425
58.975 15.229006
58.980 15.393406
58.985 15.615144
58.990 15.960999
58.995 16.02532
59.000 15.974275
59.005 16.291756
59.010 16.830788
59.015 16.461559
59.020 16.363264
59.025 16.363968
59.030 16.118603
59.035 15.852913
59.040 15.724384
59.045 15.993211
59.050 16.198786
59.055 15.999868
59.060 15.878989
59.065 15.501462
59.070 15.714702
59.075 15.289158
59.080 15.03234
59.085 14.878732
59.090 15.413103
59.095 15.890581
59.100 15.994377
59.105 15.9787
59.110 16.061666
59.115 15.866991
59.120 15.959743
59.125 15.717903
59.130 15.586082
59.135 16.09833
59.140 15.617515
59.145 15.972077
59.150 15.720553
59.155 15.619047
59.160 15.161505
59.165 14.797616
59.170 14.524833
59.175 14.91816
59.180 15.001143
59.185 15.706296
59.190 16.031288
59.195 15.971173
59.200 16.366104
59.205 16.545208
59.210 16.396711
59.215 16.155443
59.220 15.82517
59.225 15.62062
59.230 15.434357
59.235 15.344024
59.240 15.545395
59.245 15.890796
59.250 15.779405
59.255 15.968704
59.260 16.011749
59.265 16.220657
59.270 15.958982
59.275 15.75583
59.280 15.757292
59.285 15.310639
59.290 14.699442
59.295 14.478298
59.300 14.319776
59.305 14.82336
59.310 15.042808
59.315 14.341936
59.320 14.480211
59.325 14.484097
59.330 15.238011
59.335 15.977252
59.340 15.750272
59.345 15.825225
59.350 16.397154
59.355 16.77146
59.360 16.893984
59.365 16.55859
59.370 16.458088
59.375 16.373743
59.380 15.968755
59.385 15.6473
59.390 15.842896
59.395 15.702101
59.400 15.036404
59.405 14.280919
59.410 14.485738
59.415 14.935415
59.420 15.534822
59.425 16.016273
59.430 16.481184
59.435 17.275734
59.440 17.872355
59.445 18.031498
59.450 18.201754
59.455 17.789091
59.460 17.555601
59.465 18.105844
59.470 18.376022
59.475 18.185944
59.480 17.906555
59.485 17.879454
59.490 18.521217
59.495 18.660591
59.500 17.725525
59.505 17.225262
59.510 17.169245
59.515 16.737606
59.520 16.730186
59.525 16.201555
59.530 15.913401
59.535 16.271442
59.540 16.486963
59.545 16.609879
59.550 16.696085
59.555 17.146786
59.560 17.112976
59.565 17.517992
59.570 18.017965
59.575 18.10541
59.580 18.258333
59.585 18.003342
59.590 17.528873
59.595 17.845106
59.600 17.442625
59.605 17.042032
59.610 17.463873
59.615 18.129457
59.620 18.78508
59.625 19.363932
59.630 19.234114
59.635 19.611277
59.640 19.698359
59.645 18.679981
59.650 18.082233
59.655 17.768873
59.660 17.484993
59.665 16.968084
59.670 15.837379
59.675 15.814724
59.680 16.357672
59.685 16.418434
59.690 16.282793
59.695 15.615474
59.700 16.466833
59.705 17.111452
59.710 16.790747
59.715 16.378359
59.720 16.275068
59.725 16.394537
59.730 17.668818
59.735 18.290655
59.740 18.989128
59.745 19.961466
59.750 20.560123
59.755 21.103424
59.760 21.220734
59.765 20.371264
59.770 19.505554
59.775 19.320662
59.780 19.298216
59.785 19.303978
59.790 18.972027
59.795 19.26786
59.800 20.059603
59.805 20.632355
59.810 20.78668
59.815 19.944679
59.820 20.061844
59.825 20.196609
59.830 19.580042
59.835 18.964045
59.840 18.633083
59.845 18.872519
59.850 19.218153
59.855 18.598217
59.860 18.488846
59.865 18.571825
59.870 18.83947
59.875 18.72751
59.880 18.217573
59.885 18.402639
59.890 19.289953
59.895 19.740831
59.900 19.752964
59.905 20.137615
59.910 20.269424
59.915 20.449026
59.920 20.064785
59.925 19.981676
59.930 20.078697
59.935 20.260944
59.940 19.721458
59.945 19.544117
59.950 19.344952
59.955 19.25499
59.960 19.16803
59.965 18.778744
59.970 18.879887
59.975 19.10121
59.980 19.378462
59.985 19.630482
59.990 19.58773
59.995 19.311722
60.000 19.240669
60.005 19.079517
60.010 19.732
60.015 20.322147
60.020 20.207762
60.025 20.059149
60.030 20.431047
60.035 20.517914
60.040 19.921095
60.045 19.224001
60.050 18.98386
60.055 18.986418
60.060 19.495018
60.065 19.361481
60.070 19.688957
60.075 20.323664
60.080 19.978916
60.085 19.830688
60.090 19.934071
60.095 19.553471
60.100 19.572853
60.105 19.217943
60.110 18.919943
60.115 19.144592
60.120 20.023561
60.125 20.512148
60.130 20.151634
60.135 19.938408
60.140 20.141907
60.145 20.878763
60.150 20.750492
60.155 20.008305
60.160 19.519491
60.165 19.555397
60.170 19.727581
60.175 19.532356
60.180 19.11672
60.185 18.862709
60.190 18.726856
60.195 19.213793
60.200 19.987951
60.205 20.763407
60.210 21.223028
60.215 21.773312
60.220 22.304398
60.225 22.318638
60.230 22.399643
60.235 22.294603
60.240 21.633833
60.245 21.431316
60.250 21.352169
60.255 21.001274
60.260 20.830334
60.265 20.655649
60.270 20.309687
60.275 20.549881
60.280 20.510803
60.285 20.378168
60.290 20.622038
60.295 20.200466
60.300 19.997866
60.305 19.956434
60.310 19.869143
60.315 20.383867
60.320 19.925375
60.325 20.144238
60.330 21.032953
60.335 21.255363
60.340 21.130716
60.345 20.947165
60.350 20.698727
60.355 20.869589
60.360 20.658909
60.365 20.132345
60.370 19.859905
60.375 19.86957
60.380 20.197359
60.385 20.224379
60.390 20.594706
60.395 21.459591
60.400 21.473307
60.405 21.790947
60.410 21.710251
60.415 21.320972
60.420 20.484053
60.425 19.433809
60.430 18.68712
60.435 19.247618
60.440 19.00621
60.445 19.499289
60.450 19.680069
60.455 20.858084
60.460 21.595648
60.465 20.857792
60.470 20.503338
60.475 21.228371
60.480 21.391062
60.485 20.935373
60.490 20.224426
60.495 20.480066
60.500 20.577307
60.505 21.28212
60.510 20.480892
60.515 20.097824
60.520 20.766184
60.525 21.171782
60.530 20.939344
60.535 21.375107
60.540 20.469763
60.545 20.471697
60.550 20.28232
60.555 20.412878
60.560 20.593044
60.565 20.239561
60.570 20.321608
60.575 20.555927
60.580 20.912098
60.585 20.785542
60.590 20.717001
60.595 20.288435
60.600 20.306635
60.605 20.164957
60.610 20.669916
60.615 20.742504
60.620 20.577873
60.625 20.143305
60.630 19.97047
60.635 20.458738
60.640 20.72077
60.645 20.148796
60.650 19.89469
60.655 20.18482
60.660 20.588507
60.665 21.016506
60.670 21.007467
60.675 20.498444
60.680 21.165474
60.685 21.466496
60.690 21.161707
60.695 21.218155
60.700 21.041515
60.705 20.677889
60.710 20.875502
60.715 20.241789
60.720 20.108383
60.725 20.034609
60.730 20.027256
60.735 19.965464
60.740 19.75281
60.745 19.220062
60.750 18.796806
60.755 18.628637
60.760 18.230383
60.765 17.176414
60.770 17.560875
60.775 17.657356
60.780 17.519264
60.785 17.835871
60.790 17.854824
60.795 18.333403
60.800 18.832554
60.805 18.642836
60.810 18.950586
60.815 19.482716
60.820 19.852873
60.825 19.909084
60.830 19.856157
60.835 19.566296
60.840 18.991796
60.845 19.025776
60.850 18.986132
60.855 18.973539
60.860 18.538172
60.865 18.42174
60.870 19.016254
60.875 19.335596
60.880 19.16197
60.885 18.768074
60.890 18.248713
60.895 18.471743
60.900 18.327179
60.905 17.696699
60.910 17.697203
60.915 17.204285
60.920 16.650747
60.925 16.741894
60.930 17.334129
60.935 17.479593
60.940 17.822823
60.945 17.848503
60.950 18.664974
60.955 19.064657
60.960 19.060886
60.965 18.883173
60.970 18.551388
60.975 18.060678
60.980 17.440361
60.985 16.429211
60.990 16.219072
60.995 16.185923
61.000 16.312485
61.005 16.521978
61.010 16.152203
61.015 16.303303
61.020 16.912701
61.025 16.969238
61.030 17.053322
61.035 17.052435
61.040 16.942423
61.045 17.573912
61.050 17.442005
61.055 17.823992
61.060 17.991154
61.065 17.863585
61.070 18.263678
61.075 18.55699
61.080 18.466295
61.085 18.729553
61.090 18.030329
61.095 17.656446
61.100 17.175854
61.105 17.105213
61.110 17.559774
61.115 17.651018
61.120 17.316458
61.125 17.801731
61.130 18.481226
61.135 18.657755
61.140 18.204187
61.145 17.758665
61.150 17.035967
61.155 17.012325
61.160 17.419773
61.165 16.867138
61.170 16.533237
61.175 15.964764
61.180 16.042946
61.185 16.539427
61.190 16.5292
61.195 15.983037
61.200 16.23975
61.205 16.554539
61.210 16.713879
61.215 16.682396
61.220 16.904322
61.225 17.531738
61.230 18.395647
61.235 18.85252
61.240 18.946814
61.245 19.002392
61.250 19.179226
61.255 19.183601
61.260 18.888378
61.265 18.778482
61.270 18.285053
61.275 18.256462
61.280 18.349697
61.285 18.114519
61.290 18.172491
61.295 17.911009
61.300 17.362101
61.305 17.19928
61.310 17.031559
61.315 17.036924
61.320 17.420425
61.325 17.311565
61.330 17.290541
61.335 16.542969
61.340 16.889885
61.345 16.89464
61.350 16.773241
61.355 16.471561
61.360 15.79411
61.365 15.785851
61.370 15.992632
61.375 15.317822
61.380 15.495593
61.385 15.485132
61.390 15.199158
61.395 15.541514
61.400 15.591349
61.405 15.808978
61.410 15.749399
61.415 15.420066
61.420 15.091187
61.425 15.443287
61.430 15.358779
61.435 15.526319
61.440 15.627003
61.445 16.091373
61.450 16.613428
61.455 16.614496
61.460 16.952496
61.465 17.025871
61.470 16.581373
61.475 16.443333
61.480 16.22403
61.485 16.161943
61.490 15.892046
61.495 15.202761
61.500 14.733357
61.505 14.745313
61.510 14.462399
61.515 13.904799
61.520 14.097544
61.525 15.063557
61.530 15.561245
61.535 15.97565
61.540 16.184555
61.545 16.500202
61.550 17.158096
61.555 17.379395
61.560 17.044352
61.565 16.773924
61.570 17.218733
61.575 17.505575
61.580 17.681087
61.585 17.57295
61.590 16.413719
61.595 15.778749
61.600 16.09326
61.605 16.207851
61.610 16.172104
61.615 16.830309
61.620 17.143209
61.625 18.281801
61.630 19.352896
61.635 19.542355
61.640 19.329145
61.645 19.017874
61.650 17.777227
61.655 17.836916
61.660 17.190784
61.665 16.470423
61.670 15.969972
61.675 15.543224
61.680 16.050064
61.685 16.912285
61.690 17.080502
61.695 17.432789
61.700 17.781618
61.705 18.128559
61.710 18.139791
61.715 17.327919
61.720 16.560404
61.725 16.118824
61.730 16.308363
61.735 15.894777
61.740 15.853438
61.745 15.953418
61.750 16.329718
61.755 16.854115
61.760 16.746569
61.765 16.806885
61.770 17.466599
61.775 17.610023
61.780 17.521271
61.785 17.239613
61.790 17.368057
61.795 17.224371
61.800 16.876181
61.805 16.466156
61.810 16.914347
61.815 17.614641
61.820 18.266901
61.825 18.267319
61.830 18.171978
61.835 18.499355
61.840 18.814089
61.845 18.56753
61.850 18.230997
61.855 18.124367
61.860 17.986431
61.865 18.337948
61.870 18.189386
61.875 18.136456
61.880 18.154819
61.885 18.006447
61.890 17.722004
61.895 17.620523
61.900 17.474197
61.905 17.128958
61.910 17.248356
61.915 17.002682
61.920 17.124149
61.925 17.966286
61.930 17.974979
61.935 18.16168
61.940 17.993753
61.945 17.66119
61.950 17.498877
61.955 17.18148
61.960 16.271313
61.965 16.852636
61.970 17.073063
61.975 17.289228
61.980 17.397585
61.985 18.098154
61.990 18.290335
61.995 18.280178
62.000 17.714609
62.005 17.561638
62.010 17.26012
62.015 16.700974
62.020 15.874062
62.025 15.408427
62.030 15.678903
62.035 15.442296
62.040 15.264075
62.045 15.720459
62.050 16.534199
62.055 16.610769
62.060 16.712587
62.065 16.264908
62.070 16.50942
62.075 17.07823
62.080 17.761126
62.085 17.328218
62.090 17.508202
62.095 17.766314
62.100 18.224548
62.105 18.427334
62.110 18.424322
62.115 17.554636
62.120 17.278687
62.125 17.619389
62.130 17.486105
62.135 17.056818
62.140 17.091074
62.145 16.924557
62.150 17.059814
62.155 17.75992
62.160 17.811079
62.165 18.198238
62.170 18.455017
62.175 18.242203
62.180 18.363537
62.185 18.105261
62.190 17.029451
62.195 16.515537
62.200 16.068014
62.205 15.647136
62.210 15.631306
62.215 15.319054
62.220 15.13236
62.225 15.393795
62.230 15.284249
62.235 15.193682
62.240 15.355812
62.245 15.734222
62.250 16.201481
62.255 16.582565
62.260 16.655167
62.265 17.15873
62.270 17.282526
62.275 16.690996
62.280 16.173437
62.285 15.717481
62.290 15.283069
62.295 15.064684
62.300 14.601027
62.305 15.15144
62.310 15.63561
62.315 15.270253
62.320 15.379679
62.325 16.074354
62.330 16.629156
62.335 16.669252
62.340 16.154728
62.345 16.14353
62.350 16.607513
62.355 16.86462
62.360 16.80064
62.365 17.338224
62.370 17.468311
62.375 17.436869
62.380 17.924891
62.385 18.057692
62.390 18.410971
62.395 18.442646
62.400 17.934963
62.405 17.824108
62.410 18.167645
62.415 18.171995
62.420 17.898302
62.425 17.299143
62.430 17.19751
62.435 17.11504
62.440 17.762709
62.445 18.170057
62.450 18.669916
62.455 18.887354
62.460 18.372543
62.465 18.007914
62.470 18.184612
62.475 17.662489
62.480 17.477152
62.485 16.414682
62.490 16.122166
62.495 16.475117
62.500 16.996729
62.505 16.883127
62.510 16.724226
62.515 16.888128
62.520 17.575048
62.525 18.383482
62.530 19.0242
62.535 18.86142
62.540 19.039814
62.545 19.04015
62.550 18.505423
62.555 17.91456
62.560 17.043484
62.565 16.199171
62.570 15.067616
62.575 14.950308
62.580 14.945702
62.585 15.159103
62.590 15.212163
62.595 15.738294
62.600 16.24094
62.605 17.253929
62.610 17.193716
62.615 17.147266
62.620 16.715048
62.625 16.538439
62.630 16.573042
62.635 16.300936
62.640 16.363932
62.645 16.712442
62.650 17.318695
62.655 17.038542
62.660 16.998156
62.665 16.932745
62.670 17.325024
62.675 17.100662
62.680 16.991726
62.685 16.651712
62.690 17.576984
62.695 17.830746
62.700 16.8729
62.705 16.36463
62.710 16.053869
62.715 16.085464
62.720 15.816095
62.725 15.168684
62.730 15.718532
62.735 16.390177
62.740 16.94796
62.745 17.22154
62.750 16.870384
62.755 16.766932
62.760 16.420097
62.765 16.114517
62.770 15.945517
62.775 15.48545
62.780 15.394471
62.785 16.012119
62.790 16.358488
62.795 16.745266
62.800 16.594143
62.805 16.695536
62.810 16.951778
62.815 16.905401
62.820 16.610453
62.825 16.747458
62.830 17.444525
62.835 17.286907
62.840 17.457287
62.845 17.865688
62.850 18.285563
62.855 18.358957
62.860 18.540632
62.865 18.160591
62.870 17.961742
62.875 18.003012
62.880 17.695971
62.885 17.565697
62.890 17.380714
62.895 17.1411
62.900 16.964304
62.905 17.084343
62.910 17.153435
62.915 17.324163
62.920 17.220198
62.925 17.527021
62.930 17.463381
62.935 17.363504
62.940 17.763714
62.945 17.229288
62.950 16.561464
62.955 15.978633
62.960 15.782121
62.965 15.47299
62.970 16.035471
62.975 15.808245
62.980 16.350323
62.985 17.264624
62.990 18.115452
62.995 18.386063
63.000 18.393229
63.005 17.880245
63.010 17.476376
63.015 17.513763
63.020 16.74761
63.025 16.634691
63.030 16.673817
63.035 16.561056
63.040 16.309633
63.045 17.177835
63.050 17.398407
63.055 17.717495
63.060 17.348024
63.065 16.809513
63.070 17.541525
63.075 17.532404
63.080 16.939756
63.085 17.041679
63.090 17.140329
63.095 17.567993
63.100 17.342363
63.105 16.965023
63.110 17.429646
63.115 17.173264
63.120 16.607412
63.125 16.775341
63.130 16.686422
63.135 16.973366
63.140 16.485443
63.145 16.492014
63.150 16.520321
63.155 16.276508
63.160 15.929828
63.165 15.59455
63.170 15.757807
63.175 16.35795
63.180 16.434603
63.185 16.797169
63.190 17.560139
63.195 17.306032
63.200 17.740486
63.205 17.802553
63.210 17.410286
63.215 17.339132
63.220 17.345606
63.225 17.118483
63.230 17.4743
63.235 17.077526
63.240 16.98139
63.245 17.384233
63.250 18.342999
63.255 18.879372
63.260 19.042358
63.265 18.780766
63.270 18.792749
63.275 18.990173
63.280 19.181488
63.285 19.069742
63.290 19.133877
63.295 19.133471
63.300 19.566736
63.305 19.59318
63.310 19.803925
63.315 20.072588
63.320 19.206585
63.325 18.595221
63.330 18.598999
63.335 18.298115
63.340 18.358355
63.345 18.197268
63.350 18.062914
63.355 18.447309
63.360 18.628637
63.365 18.404188
63.370 18.302094
63.375 18.107687
63.380 17.93166
63.385 17.97179
63.390 18.088863
63.395 18.096542
63.400 17.878448
63.405 17.674292
63.410 17.854021
63.415 17.84594
63.420 17.078829
63.425 16.531042
63.430 16.456575
63.435 16.961416
63.440 17.657503
63.445 17.830885
63.450 17.617193
63.455 17.567352
63.460 17.399815
63.465 17.804306
63.470 18.021027
63.475 17.55357
63.480 17.668041
63.485 18.013512
63.490 18.893684
63.495 19.132715
63.500 18.485928
63.505 18.184048
63.510 18.19908
63.515 17.823801
63.520 17.588512
63.525 17.343983
63.530 17.638123
63.535 18.29125
63.540 18.529127
63.545 18.782761
63.550 18.778599
63.555 18.97681
63.560 18.690802
63.565 18.39847
63.570 17.784576
63.575 17.206652
63.580 16.551546
63.585 16.681393
63.590 16.424469
63.595 16.17713
63.600 16.771036
63.605 16.640621
63.610 16.801615
63.615 17.671686
63.620 17.199493
63.625 17.204893
63.630 17.738377
63.635 17.698771
63.640 17.746164
63.645 17.165411
63.650 16.787405
63.655 17.281281
63.660 17.320433
63.665 17.396238
63.670 17.101042
63.675 17.49268
63.680 17.677238
63.685 17.590857
63.690 17.570978
63.695 17.599228
63.700 16.921955
63.705 16.539251
63.710 16.875992
63.715 17.30798
63.720 17.419891
63.725 17.326572
63.730 17.313927
63.735 17.810083
63.740 18.307659
63.745 18.066889
63.750 17.741707
63.755 17.454737
63.760 17.358898
63.765 17.475416
63.770 17.318274
63.775 16.726053
63.780 17.002337
63.785 17.239887
63.790 17.612574
63.795 18.369757
63.800 18.105875
63.805 17.835503
63.810 17.730326
63.815 17.369812
63.820 17.38608
63.825 17.556461
63.830 17.274363
63.835 17.919897
63.840 18.558115
63.845 19.271452
63.850 19.744774
63.855 20.5016
63.860 20.766268
63.865 20.969215
63.870 20.514551
63.875 19.869318
63.880 18.811422
63.885 18.480759
63.890 18.224461
63.895 17.582962
63.900 17.396511
63.905 17.292887
63.910 17.708689
63.915 18.486408
63.920 18.562431
63.925 18.687717
63.930 18.522413
63.935 18.739931
63.940 19.096519
63.945 19.475811
63.950 19.542181
63.955 19.175934
63.960 18.649345
63.965 18.450521
63.970 18.444832
63.975 18.66692
63.980 18.070522
63.985 17.946266
63.990 18.57502
63.995 18.808165
64.000 19.175413
64.005 18.860735
64.010 18.315399
64.015 18.65596
64.020 18.708176
64.025 18.686829
64.030 19.306692
64.035 19.625187
64.040 19.587452
64.045 19.288654
64.050 19.438299
64.055 19.06982
64.060 18.66209
64.065 18.121586
64.070 17.970634
64.075 18.322472
64.080 18.579805
64.085 18.580404
64.090 18.486153
64.095 18.690054
64.100 18.802536
64.105 18.545755
64.110 18.220943
64.115 18.584845
64.120 18.339003
64.125 18.764917
64.130 18.444944
64.135 18.197069
64.140 18.49848
64.145 18.287916
64.150 17.522806
64.155 17.405569
64.160 17.627247
64.165 17.521763
64.170 17.264341
64.175 16.928877
64.180 17.31461
64.185 17.558966
64.190 17.501518
64.195 17.03956
64.200 17.513111
64.205 17.865597
64.210 18.205244
64.215 18.271139
64.220 18.11257
64.225 17.479818
64.230 17.156542
64.235 17.021791
64.240 16.913599
64.245 16.670256
64.250 16.076982
64.255 16.710714
64.260 17.622692
64.265 18.234669
64.270 18.526127
64.275 18.630627
64.280 18.275814
64.285 17.987999
64.290 18.582525
64.295 18.200674
64.300 18.098425
64.305 17.971561
64.310 17.418409
64.315 17.432848
64.320 17.417814
64.325 16.784912
64.330 16.810104
64.335 16.672525
64.340 16.712778
64.345 17.200315
64.350 17.878536
64.355 18.847795
64.360 19.18449
64.365 19.542345
64.370 19.630795
64.375 19.972475
64.380 20.525829
64.385 20.80599
64.390 20.267756
64.395 19.934666
64.400 19.847052
64.405 19.364437
64.410 18.406021
64.415 18.321783
64.420 18.068083
64.425 18.102671
64.430 18.167233
64.435 18.032166
64.440 18.606586
64.445 19.359129
64.450 19.637857
64.455 19.839245
64.460 19.777378
64.465 20.076361
64.470 19.586311
64.475 19.106014
64.480 19.132854
64.485 19.275253
64.490 19.11204
64.495 19.114418
64.500 19.573282
64.505 19.998446
64.510 20.213593
64.515 19.723515
64.520 19.006031
64.525 18.881664
64.530 18.921692
64.535 18.566105
64.540 18.517439
64.545 18.258694
64.550 18.48069
64.555 19.041304
64.560 19.102604
64.565 19.20857
64.570 18.834772
64.575 18.555357
64.580 18.545837
64.585 18.871809
64.590 18.950762
64.595 19.340683
64.600 19.516661
64.605 19.465372
64.610 20.148741
64.615 20.014799
64.620 19.457897
64.625 19.480261
64.630 19.387814
64.635 19.062927
64.640 19.253149
64.645 19.116793
64.650 19.567881
64.655 19.64711
64.660 19.351385
64.665 19.146227
64.670 19.793707
64.675 19.842531
64.680 20.093988
64.685 19.806057
64.690 18.943399
64.695 18.680498
64.700 18.697233
64.705 18.448896
64.710 18.343504
64.715 17.768744
64.720 17.907003
64.725 18.425293
64.730 18.150202
64.735 18.275545
64.740 17.978699
64.745 18.611631
64.750 18.895283
64.755 18.967085
64.760 19.35013
64.765 19.937389
64.770 19.709654
64.775 19.914057
64.780 19.620016
64.785 19.546
64.790 19.356653
64.795 18.935509
64.800 18.136152
64.805 18.328285
64.810 18.540112
64.815 18.791233
64.820 18.99058
64.825 19.287172
64.830 19.608318
64.835 20.457945
64.840 20.363972
64.845 20.09112
64.850 20.318821
64.855 20.809301
64.860 21.31329
64.865 21.143867
64.870 21.018984
64.875 21.04628
64.880 20.330694
64.885 20.39757
64.890 19.884254
64.895 19.419346
64.900 19.604561
64.905 19.140366
64.910 19.140682
64.915 19.359707
64.920 18.907408
64.925 19.190481
64.930 19.388725
64.935 20.119078
64.940 20.919847
64.945 21.349703
64.950 21.309055
64.955 21.1737
64.960 21.226965
64.965 20.748217
64.970 20.183399
64.975 19.839266
64.980 19.819798
64.985 20.696915
64.990 21.060553
64.995 20.706383
65.000 21.161474
65.005 21.30584
65.010 21.853933
65.015 22.164913
65.020 21.817263
65.025 21.740602
65.030 21.388205
65.035 21.285652
65.040 20.858217
65.045 20.661108
65.050 20.245163
65.055 20.744289
65.060 21.246889
65.065 21.329926
65.070 21.481279
65.075 21.787004
65.080 21.6978
65.085 22.05525
65.090 21.44467
65.095 20.816505
65.100 20.699326
65.105 20.694626
65.110 21.605228
65.115 22.041937
65.120 21.966663
65.125 21.779472
65.130 22.609575
65.135 23.368467
65.140 23.266294
65.145 22.18553
65.150 22.079464
65.155 21.921053
65.160 22.103077
65.165 22.209787
65.170 21.998402
65.175 21.916388
65.180 22.019049
65.185 21.739779
65.190 21.786137
65.195 21.151855
65.200 20.529821
65.205 20.524897
65.210 20.255846
65.215 20.474447
65.220 20.697865
65.225 21.019693
65.230 21.575544
65.235 22.084974
65.240 22.096777
65.245 22.54092
65.250 22.323463
65.255 21.890972
65.260 21.762613
65.265 22.161512
65.270 22.075968
65.275 22.490648
65.280 22.656731
65.285 22.925764
65.290 22.932652
65.295 22.751534
65.300 22.092674
65.305 21.53957
65.310 21.27441
65.315 21.90127
65.320 21.930246
65.325 21.926277
65.330 21.702818
65.335 22.145824
65.340 22.633829
65.345 22.482723
65.350 22.42115
65.355 22.442654
65.360 22.549068
65.365 22.680614
65.370 22.991192
65.375 22.980349
65.380 23.011572
65.385 23.125694
65.390 22.9993
65.395 23.742643
65.400 24.142921
65.405 23.652578
65.410 23.514004
65.415 23.598427
65.420 23.230906
65.425 23.095636
65.430 22.299423
65.435 22.184921
65.440 23.057688
65.445 22.757677
65.450 22.353111
65.455 22.727877
65.460 23.578699
65.465 24.155462
65.470 23.83864
65.475 23.722803
65.480 24.187687
65.485 24.545755
65.490 24.363085
65.495 24.412535
65.500 24.678835
65.505 24.640493
65.510 24.9443
65.515 25.544773
65.520 25.485275
65.525 25.757322
65.530 25.868237
65.535 25.890976
65.540 26.752443
65.545 27.701431
65.550 28.442833
65.555 28.35704
65.560 28.269484
65.565 28.006359
65.570 28.228138
65.575 27.858604
65.580 27.514439
65.585 27.123699
65.590 27.486982
65.595 27.411692
65.600 27.606968
65.605 28.409794
65.610 29.34581
65.615 29.023905
65.620 29.454121
65.625 29.715401
65.630 30.496447
65.635 30.48983
65.640 29.732954
65.645 30.142277
65.650 30.291822
65.655 31.350531
65.660 32.03363
65.665 31.644478
65.670 31.703152
65.675 31.691694
65.680 32.23016
65.685 32.849754
65.690 32.087658
65.695 32.441689
65.700 33.189507
65.705 33.581383
65.710 33.417503
65.715 32.64711
65.720 32.359646
65.725 32.51334
65.730 32.81863
65.735 32.688087
65.740 33.189129
65.745 34.208172
65.750 34.467789
65.755 34.86171
65.760 35.271053
65.765 34.867275
65.770 34.820984
65.775 34.830368
65.780 35.144577
65.785 35.587097
65.790 35.018143
65.795 34.757256
65.800 34.588699
65.805 34.907761
65.810 34.928806
65.815 34.415813
65.820 34.921745
65.825 35.686371
65.830 35.906254
65.835 36.464668
65.840 37.426544
65.845 37.586521
65.850 37.870239
65.855 38.371346
65.860 38.247185
65.865 38.212082
65.870 38.168724
65.875 37.143085
65.880 37.44339
65.885 37.721371
65.890 37.752987
65.895 37.997639
65.900 37.873238
65.905 37.311699
65.910 37.523956
65.915 37.533924
65.920 37.372158
65.925 36.425022
65.930 36.824074
65.935 37.110691
65.940 37.976402
65.945 38.150894
65.950 37.648457
65.955 37.54929
65.960 37.539303
65.965 37.599426
65.970 37.833195
65.975 37.584263
65.980 36.829998
65.985 36.829449
65.990 36.84383
65.995 36.476055
66.000 36.151958
66.005 35.679386
66.010 35.604435
66.015 35.740101
66.020 35.912502
66.025 36.368279
66.030 37.34536
66.035 37.728588
66.040 38.067711
66.045 38.431812
66.050 38.656345
66.055 38.077534
66.060 37.435486
66.065 36.538326
66.070 35.901211
66.075 35.526497
66.080 35.250042
66.085 35.120304
66.090 35.429028
66.095 35.841663
66.100 35.843323
66.105 35.397438
66.110 35.258698
66.115 35.322186
66.120 35.16172
66.125 35.440437
66.130 35.554455
66.135 36.177261
66.140 37.234058
66.145 37.891579
66.150 38.131237
66.155 38.406059
66.160 37.728752
66.165 36.715832
66.170 35.611786
66.175 34.747189
66.180 33.971611
66.185 33.68121
66.190 33.820034
66.195 33.87207
66.200 34.83136
66.205 35.288086
66.210 35.177422
66.215 35.272316
66.220 34.941422
66.225 34.408813
66.230 34.129574
66.235 34.141552
66.240 34.893005
66.245 34.30545
66.250 34.063305
66.255 34.153137
66.260 34.363064
66.265 33.900093
66.270 33.223057
66.275 32.567432
66.280 32.822479
66.285 32.901089
66.290 32.946083
66.295 32.660122
66.300 32.425236
66.305 32.480534
66.310 32.537895
66.315 32.741241
66.320 32.351456
66.325 32.674213
66.330 33.202175
66.335 33.605385
66.340 32.681107
66.345 32.671482
66.350 32.83308
66.355 32.892212
66.360 32.256477
66.365 31.486391
66.370 31.411367
66.375 31.419182
66.380 30.301064
66.385 29.571739
66.390 28.660051
66.395 28.060331
66.400 27.85792
66.405 28.034416
66.410 28.837912
66.415 29.656199
66.420 30.621025
66.425 31.280632
66.430 31.588165
66.435 31.580627
66.440 31.529612
66.445 30.896177
66.450 30.548153
66.455 29.776388
66.460 29.614862
66.465 29.430777
66.470 29.238026
66.475 28.863852
66.480 28.894642
66.485 28.879187
66.490 29.183264
66.495 29.703148
66.500 29.696556
66.505 30.24642
66.510 30.120743
66.515 28.579771
66.520 27.463593
66.525 26.075481
66.530 25.366098
66.535 25.388245
66.540 24.856541
66.545 24.310574
66.550 25.618929
66.555 26.140804
66.560 26.735041
66.565 27.287857
66.570 27.633047
66.575 28.198444
66.580 28.330788
66.585 27.161615
66.590 26.759604
66.595 26.959415
66.600 26.510799
66.605 25.646114
66.610 25.134264
66.615 25.046421
66.620 25.891346
66.625 26.538322
66.630 26.146811
66.635 26.19441
66.640 26.685326
66.645 27.108725
66.650 27.294525
66.655 27.403002
66.660 26.784002
66.665 26.456564
66.670 27.025068
66.675 26.834894
66.680 26.751863
66.685 26.943768
66.690 26.71019
66.695 26.479242
66.700 26.233232
66.705 25.387218
66.710 25.522795
66.715 25.396118
66.720 24.932215
66.725 25.70735
66.730 26.062399
66.735 26.461128
66.740 26.231131
66.745 25.881351
66.750 26.075666
66.755 26.068773
66.760 24.906237
66.765 24.201038
66.770 24.42091
66.775 24.74081
66.780 25.030315
66.785 24.873528
66.790 24.65719
66.795 24.836487
66.800 25.146986
66.805 25.117361
66.810 24.988293
66.815 24.249861
66.820 23.540369
66.825 23.657495
66.830 23.953562
66.835 23.718285
66.840 23.149988
66.845 22.960453
66.850 22.844181
66.855 23.056339
66.860 23.142496
66.865 23.149931
66.870 23.239847
66.875 23.53013
66.880 23.300907
66.885 23.336767
66.890 23.359911
66.895 23.472885
66.900 23.557434
66.905 23.24983
66.910 23.265347
66.915 23.999353
66.920 24.284649
66.925 24.776934
66.930 24.685947
66.935 24.348555
66.940 24.485971
66.945 24.042553
66.950 23.965656
66.955 24.073675
66.960 23.240633
66.965 22.943756
66.970 22.805479
66.975 22.95903
66.980 23.462385
66.985 23.007177
66.990 22.912987
66.995 22.583891
67.000 21.989342
67.005 22.226776
67.010 21.868607
67.015 21.704252
67.020 22.074072
67.025 21.813356
67.030 22.40217
67.035 23.031303
67.040 22.889669
67.045 23.098181
67.050 22.67149
67.055 22.150906
67.060 22.154295
67.065 22.508995
67.070 23.029972
67.075 23.170666
67.080 22.489222
67.085 22.809811
67.090 23.017036
67.095 22.859123
67.100 22.037819
67.105 21.031265
67.110 20.986692
67.115 21.320789
67.120 21.378633
67.125 21.301899
67.130 21.79562
67.135 22.387516
67.140 23.038176
67.145 23.310915
67.150 23.112816
67.155 22.738791
67.160 22.945761
67.165 22.689354
67.170 22.879877
67.175 23.162878
67.180 23.364279
67.185 23.447144
67.190 23.459646
67.195 23.030268
67.200 22.771595
67.205 22.53039
67.210 21.93845
67.215 21.447386
67.220 21.799852
67.225 22.156925
67.230 22.76586
67.235 22.650639
67.240 22.286201
67.245 23.105164
67.250 23.059313
67.255 22.415606
67.260 22.108707
67.265 22.333473
67.270 22.332218
67.275 22.224705
67.280 21.833979
67.285 22.091211
67.290 22.164747
67.295 22.020004
67.300 22.089611
67.305 21.865677
67.310 21.34358
67.315 20.620407
67.320 20.852207
67.325 20.678211
67.330 20.775534
67.335 20.543152
67.340 20.684406
67.345 21.339611
67.350 21.007923
67.355 21.089291
67.360 20.947412
67.365 20.891844
67.370 21.112461
67.375 21.083912
67.380 21.41188
67.385 22.081982
67.390 22.035324
67.395 23.049446
67.400 23.271555
67.405 22.685467
67.410 22.994989
67.415 22.666449
67.420 22.288595
67.425 22.653042
67.430 21.953363
67.435 21.690676
67.440 22.11422
67.445 21.987837
67.450 22.148775
67.455 22.07119
67.460 21.503414
67.465 21.804695
67.470 21.423498
67.475 21.211235
67.480 21.381941
67.485 21.400146
67.490 21.326212
67.495 21.977238
67.500 22.042603
67.505 22.570637
67.510 22.858337
67.515 22.923494
67.520 23.226086
67.525 23.411005
67.530 23.253571
67.535 23.165565
67.540 22.602711
67.545 22.135265
67.550 21.21228
67.555 20.335491
67.560 20.456806
67.565 20.776562
67.570 21.140236
67.575 21.652243
67.580 21.660904
67.585 21.838659
67.590 22.595787
67.595 21.825068
67.600 21.522625
67.605 21.478104
67.610 21.02372
67.615 21.326586
67.620 21.776695
67.625 21.728035
67.630 21.468756
67.635 21.016008
67.640 21.223825
67.645 21.604406
67.650 21.57102
67.655 21.453569
67.660 21.731426
67.665 22.275461
67.670 22.293646
67.675 22.154282
67.680 22.079514
67.685 21.677282
67.690 20.878464
67.695 19.735312
67.700 19.334229
67.705 19.229843
67.710 18.894384
67.715 18.534531
67.720 19.168625
67.725 19.657597
67.730 20.218603
67.735 20.733906
67.740 21.253828
67.745 21.277077
67.750 21.808561
67.755 21.636053
67.760 22.189426
67.765 21.798086
67.770 20.737919
67.775 20.171017
67.780 20.129862
67.785 19.509037
67.790 19.470074
67.795 18.603815
67.800 18.651197
67.805 19.355761
67.810 20.054424
67.815 20.874975
67.820 20.953098
67.825 20.875181
67.830 21.339132
67.835 21.45434
67.840 21.333364
67.845 20.789825
67.850 20.148989
67.855 20.692944
67.860 20.555725
67.865 20.573359
67.870 20.746941
67.875 20.228561
67.880 20.667088
67.885 20.717585
67.890 20.55019
67.895 20.936977
67.900 21.522335
67.905 21.785097
67.910 21.972441
67.915 21.571299
67.920 21.410692
67.925 21.166954
67.930 20.792917
67.935 20.338705
67.940 20.473358
67.945 20.904861
67.950 20.933943
67.955 21.114651
67.960 21.995312
67.965 22.585142
67.970 22.622017
67.975 22.22043
67.980 21.537928
67.985 21.91181
67.990 21.454981
67.995 20.11532
68.000 20.10154
68.005 20.394924
68.010 20.649441
68.015 20.922081
68.020 20.956272
68.025 21.792984
68.030 21.836414
68.035 20.759798
68.040 20.058781
68.045 19.96339
68.050 19.67618
68.055 19.405748
68.060 19.323097
68.065 19.793827
68.070 20.507881
68.075 21.027122
68.080 20.888546
68.085 21.134125
68.090 21.173441
68.095 21.257967
68.100 21.032032
68.105 20.840338
68.110 20.746759
68.115 21.3276
68.120 21.23859
68.125 20.715286
68.130 20.853935
68.135 21.333559
68.140 21.08502
68.145 20.907776
68.150 20.26701
68.155 20.461292
68.160 20.763203
68.165 20.495783
68.170 20.266083
68.175 19.745289
68.180 19.653399
68.185 20.227083
68.190 21.240181
68.195 21.38496
68.200 21.797569
68.205 22.455956
68.210 23.638487
68.215 24.168415
68.220 23.446482
68.225 22.359762
68.230 21.652559
68.235 21.049585
68.240 20.696949
68.245 20.430838
68.250 20.149118
68.255 20.242601
68.260 20.92767
68.265 21.243048
68.270 21.296423
68.275 21.330835
68.280 20.757378
68.285 20.979696
68.290 21.014738
68.295 20.576607
68.300 20.760479
68.305 20.798037
68.310 20.515966
68.315 20.656164
68.320 20.607208
68.325 20.466879
68.330 20.22241
68.335 20.145607
68.340 20.194016
68.345 20.158903
68.350 19.97513
68.355 20.081392
68.360 20.4254
68.365 20.975643
68.370 21.191858
68.375 20.794312
68.380 20.966894
68.385 21.028788
68.390 20.590944
68.395 20.969875
68.400 20.215265
68.405 19.609201
68.410 19.987644
68.415 19.587797
68.420 19.295567
68.425 18.964184
68.430 18.750839
68.435 18.897188
68.440 18.636677
68.445 18.464594
68.450 19.838608
68.455 20.976185
68.460 21.063334
68.465 21.017588
68.470 21.113834
68.475 21.376081
68.480 21.651123
68.485 21.093409
68.490 21.077686
68.495 21.121143
68.500 21.929621
68.505 22.985312
68.510 23.588654
68.515 23.383017
68.520 23.160913
68.525 22.697088
68.530 22.419147
68.535 21.585487
68.540 21.28474
68.545 20.958853
68.550 20.585114
68.555 20.457842
68.560 20.947784
68.565 21.047918
68.570 20.924921
68.575 20.32473
68.580 20.342815
68.585 20.604406
68.590 20.528662
68.595 20.85804
68.600 21.69589
68.605 22.173178
68.610 22.478235
68.615 22.33691
68.620 22.188999
68.625 22.106272
68.630 21.146021
68.635 20.754501
68.640 20.541649
68.645 20.867464
68.650 21.043245
68.655 21.541321
68.660 22.132914
68.665 22.407721
68.670 22.590961
68.675 22.741301
68.680 22.551527
68.685 22.939064
68.690 22.89719
68.695 22.53471
68.700 22.254086
68.705 21.794325
68.710 21.600069
68.715 21.856483
68.720 21.584377
68.725 21.516123
68.730 21.616619
68.735 21.183455
68.740 21.261471
68.745 20.850782
68.750 20.12491
68.755 19.904367
68.760 20.19334
68.765 20.217983
68.770 20.781384
68.775 20.717915
68.780 21.105064
68.785 21.364782
68.790 21.337736
68.795 21.289639
68.800 21.275372
68.805 21.662334
68.810 21.948446
68.815 22.179762
68.820 22.419281
68.825 22.066765
68.830 22.225565
68.835 22.944407
68.840 22.902637
68.845 22.797428
68.850 23.230282
68.855 23.429922
68.860 23.765949
68.865 23.022675
68.870 22.685389
68.875 22.708435
68.880 22.865799
68.885 22.02066
68.890 21.818764
68.895 22.150896
68.900 22.682302
68.905 22.689589
68.910 23.089228
68.915 23.084293
68.920 23.383316
68.925 23.759007
68.930 23.567984
68.935 23.36874
68.940 23.371489
68.945 22.814106
68.950 23.070648
68.955 22.741926
68.960 22.790581
68.965 22.895077
68.970 23.663412
68.975 23.493736
68.980 23.061804
68.985 23.572887
68.990 24.178511
68.995 24.383776
69.000 24.001883
69.005 23.70566
69.010 23.829422
69.015 23.802435
69.020 23.891626
69.025 23.91967
69.030 23.634033
69.035 23.489523
69.040 23.534454
69.045 23.609985
69.050 24.287155
69.055 23.8325
69.060 23.225094
69.065 23.321285
69.070 23.652309
69.075 23.955702
69.080 24.132881
69.085 23.620239
69.090 23.742014
69.095 24.271236
69.100 24.8431
69.105 25.018646
69.110 24.818813
69.115 25.027212
69.120 25.422132
69.125 25.274311
69.130 25.536688
69.135 24.712814
69.140 25.4146
69.145 25.580122
69.150 25.206068
69.155 25.529831
69.160 26.060047
69.165 25.916006
69.170 26.441916
69.175 26.710886
69.180 26.506119
69.185 26.745611
69.190 26.538216
69.195 25.811504
69.200 25.942398
69.205 25.297949
69.210 23.909342
69.215 24.431973
69.220 24.263309
69.225 24.974491
69.230 25.423334
69.235 25.35029
69.240 25.730743
69.245 25.854401
69.250 25.624975
69.255 25.769251
69.260 25.321926
69.265 24.979996
69.270 24.433928
69.275 25.300173
69.280 26.340454
69.285 26.251423
69.290 26.19313
69.295 26.041327
69.300 26.624804
69.305 27.418961
69.310 27.690374
69.315 27.440285
69.320 27.351967
69.325 27.915791
69.330 28.386564
69.335 28.092731
69.340 27.380659
69.345 27.077099
69.350 27.236582
69.355 27.632658
69.360 27.565575
69.365 27.943466
69.370 28.084122
69.375 28.123512
69.380 27.940088
69.385 27.606979
69.390 27.516687
69.395 27.477154
69.400 27.79229
69.405 27.317223
69.410 27.193871
69.415 27.229118
69.420 27.691776
69.425 28.359735
69.430 29.316761
69.435 30.074661
69.440 31.500067
69.445 31.54184
69.450 31.738186
69.455 31.579075
69.460 30.680914
69.465 29.411039
69.470 29.050577
69.475 29.004284
69.480 29.46125
69.485 30.323828
69.490 30.264589
69.495 30.63842
69.500 30.599474
69.505 29.991232
69.510 29.662325
69.515 29.231604
69.520 29.859116
69.525 30.092516
69.530 30.079813
69.535 30.644247
69.540 31.029379
69.545 30.919292
69.550 30.933544
69.555 29.752794
69.560 29.204807
69.565 28.69821
69.570 28.042889
69.575 27.932285
69.580 28.4972
69.585 28.192169
69.590 27.992748
69.595 28.196791
69.600 27.928736
69.605 27.458469
69.610 27.096287
69.615 26.579273
69.620 26.982553
69.625 27.789419
69.630 28.799549
69.635 29.785418
69.640 29.935389
69.645 30.088785
69.650 30.060507
69.655 29.244045
69.660 28.826794
69.665 27.86684
69.670 27.664244
69.675 28.701855
69.680 29.067314
69.685 29.629761
69.690 29.074211
69.695 28.334124
69.700 28.277342
69.705 27.625391
69.710 26.873613
69.715 26.461552
69.720 26.354654
69.725 26.614048
69.730 26.453674
69.735 26.18244
69.740 26.545219
69.745 26.629843
69.750 26.3906
69.755 26.34123
69.760 27.084049
69.765 27.0884
69.770 27.048792
69.775 26.495075
69.780 26.608017
69.785 26.529251
69.790 26.6509
69.795 26.19149
69.800 26.885412
69.805 26.872351
69.810 27.202469
69.815 27.179619
69.820 26.926294
69.825 26.053385
69.830 25.848051
69.835 25.630993
69.840 25.299582
69.845 24.724228
69.850 24.807205
69.855 24.786123
69.860 25.302547
69.865 25.423
69.870 25.395929
69.875 26.082582
69.880 25.940559
69.885 25.796307
69.890 25.954252
69.895 25.717255
69.900 25.242222
69.905 25.389866
69.910 25.561783
69.915 25.5826
69.920 25.822168
69.925 25.813063
69.930 26.167965
69.935 26.170259
69.940 24.809294
69.945 24.02566
69.950 23.603657
69.955 23.705271
69.960 23.388517
69.965 22.672613
69.970 22.834499
69.975 22.780487
69.980 22.394476
69.985 21.592226
69.990 20.810936
69.995 21.02747
70.000 21.470036
70.005 21.230295
70.010 21.611916
70.015 22.093039
70.020 21.911215
70.025 22.104698
70.030 21.843731
70.035 21.978348
70.040 22.053463
70.045 22.78705
70.050 23.079855
70.055 23.734699
70.060 23.381739
70.065 22.821739
70.070 23.171833
70.075 23.042233
70.080 22.036356
70.085 21.230564
70.090 20.535009
70.095 20.274605
70.100 20.240587
70.105 19.597927
70.110 19.727781
70.115 20.515596
70.120 21.036177
70.125 21.369165
70.130 21.636099
70.135 21.433681
70.140 21.181606
70.145 21.148176
70.150 21.14539
70.155 21.471712
70.160 21.588478
70.165 21.712748
70.170 21.657007
70.175 21.504282
70.180 21.144592
70.185 20.618057
70.190 20.626488
70.195 20.472572
70.200 19.966145
70.205 19.490156
70.210 19.462906
70.215 19.194407
70.220 19.555637
70.225 19.390047
70.230 19.379847
70.235 19.861988
70.240 19.600128
70.245 19.415504
70.250 19.798868
70.255 19.800158
70.260 20.03496
70.265 19.685017
70.270 19.704397
70.275 20.132215
70.280 20.18679
70.285 19.782564
70.290 19.32662
70.295 19.501917
70.300 19.598421
70.305 19.585573
70.310 19.685362
70.315 19.722071
70.320 20.24917
70.325 20.174944
70.330 19.892313
70.335 20.083246
70.340 19.879944
70.345 19.872448
70.350 20.232086
70.355 19.796772
70.360 19.861084
70.365 20.369526
70.370 20.308752
70.375 20.063065
70.380 19.782923
70.385 19.610699
70.390 19.820433
70.395 19.648077
70.400 19.360521
70.405 20.040777
70.410 20.341225
70.415 20.180487
70.420 20.541553
70.425 19.97323
70.430 20.055355
70.435 19.75786
70.440 19.760851
70.445 19.808378
70.450 19.95545
70.455 19.79962
70.460 20.1035
70.465 19.894815
70.470 20.062174
70.475 19.957188
70.480 19.572493
70.485 18.746828
70.490 18.731117
70.495 18.398954
70.500 18.1681
70.505 18.141821
70.510 18.295252
70.515 19.347155
70.520 19.829103
70.525 19.397659
70.530 19.965179
70.535 19.939407
70.540 19.285772
70.545 19.293808
70.550 18.620111
70.555 18.890787
70.560 18.619183
70.565 18.487833
70.570 18.512527
70.575 18.578972
70.580 18.432003
70.585 18.665102
70.590 18.845112
70.595 19.281256
70.600 19.239208
70.605 19.555168
70.610 19.75786
70.615 19.889215
70.620 19.841961
70.625 20.003065
70.630 19.96512
70.635 20.137514
70.640 20.184843
70.645 20.515465
70.650 20.828657
70.655 20.96454
70.660 21.552288
70.665 21.859224
70.670 21.963423
70.675 21.804708
70.680 21.039154
70.685 20.572258
70.690 20.072962
70.695 19.837009
70.700 19.678499
70.705 19.300247
70.710 19.187895
70.715 19.920528
70.720 19.270079
70.725 18.738249
70.730 18.087805
70.735 17.626314
70.740 17.86582
70.745 17.703878
70.750 18.145618
70.755 19.311163
70.760 20.055067
70.765 20.601564
70.770 21.299143
70.775 21.036743
70.780 21.230726
70.785 20.714867
70.790 20.697706
70.795 20.211102
70.800 20.226221
70.805 20.077459
70.810 20.689093
70.815 20.2528
70.820 20.302439
70.825 20.316511
70.830 20.191435
70.835 19.754528
70.840 19.127306
70.845 18.639992
70.850 18.798847
70.855 17.92865
70.860 17.69656
70.865 17.845076
70.870 18.284201
70.875 19.057775
70.880 18.9275
70.885 18.824352
70.890 19.269238
70.895 19.189507
70.900 19.617859
70.905 19.603731
70.910 19.286045
70.915 19.49082
70.920 20.104525
70.925 20.028522
70.930 19.865749
70.935 19.588419
70.940 19.126507
70.945 18.982174
70.950 18.888197
70.955 18.964685
70.960 19.012722
70.965 19.012285
70.970 18.972616
70.975 19.605362
70.980 19.74844
70.985 19.635098
70.990 19.221809
70.995 19.062269
71.000 19.160305
71.005 19.229313
71.010 19.152275
71.015 19.609608
71.020 19.266327
71.025 19.289886
71.030 20.055861
71.035 19.483017
71.040 19.689877
71.045 19.331497
71.050 19.166929
71.055 19.686274
71.060 19.382204
71.065 18.726553
71.070 18.739588
71.075 18.281116
71.080 18.411587
71.085 18.055103
71.090 17.927563
71.095 18.428423
71.100 18.342693
71.105 18.813911
71.110 18.720732
71.115 18.6682
71.120 18.949625
71.125 19.187822
71.130 19.406876
71.135 19.705154
71.140 19.542435
71.145 19.947376
71.150 19.872704
71.155 19.620001
71.160 19.879004
71.165 19.999836
71.170 19.605145
71.175 19.538597
71.180 18.724422
71.185 18.976582
71.190 19.162971
71.195 19.008602
71.200 18.832531
71.205 18.709949
71.210 18.522169
71.215 18.391043
71.220 18.630175
71.225 18.80896
71.230 18.198387
71.235 18.281189
71.240 18.281147
71.245 18.801662
71.250 18.959087
71.255 18.519482
71.260 18.189892
71.265 18.556616
71.270 18.916286
71.275 18.827618
71.280 18.331339
71.285 18.283466
71.290 18.58839
71.295 18.608566
71.300 18.433918
71.305 18.527565
71.310 19.000193
71.315 19.415041
71.320 19.731445
71.325 19.514389
71.330 20.140039
71.335 20.167334
71.340 19.982164
71.345 19.525961
71.350 19.366814
71.355 19.123026
71.360 18.66198
71.365 18.189648
71.370 18.173782
71.375 18.464527
71.380 18.99971
71.385 18.855932
71.390 18.838095
71.395 18.840334
71.400 19.151869
71.405 18.781685
71.410 18.938644
71.415 19.294483
71.420 19.429281
71.425 19.770695
71.430 19.915186
71.435 20.276426
71.440 20.210884
71.445 20.055454
71.450 19.650387
71.455 19.943602
71.460 19.768677
71.465 19.071959
71.470 19.163076
71.475 19.265316
71.480 19.699753
71.485 19.424877
71.490 18.962873
71.495 19.443069
71.500 19.881977
71.505 19.848171
71.510 19.884527
71.515 19.244583
71.520 19.686596
71.525 19.706966
71.530 19.56501
71.535 19.557968
71.540 19.285769
71.545 19.033848
71.550 18.942472
71.555 18.581112
71.560 18.065742
71.565 17.277018
71.570 16.197214
71.575 16.263817
71.580 16.095697
71.585 16.538715
71.590 17.027615
71.595 17.574244
71.600 18.320753
71.605 19.138016
71.610 19.310762
71.615 18.864988
71.620 17.815954
71.625 17.164267
71.630 17.109198
71.635 17.226894
71.640 17.204784
71.645 17.563234
71.650 18.034586
71.655 18.873621
71.660 19.393063
71.665 19.624226
71.670 19.425476
71.675 19.104277
71.680 19.362728
71.685 19.783518
71.690 19.823872
71.695 19.728413
71.700 19.909582
71.705 19.89875
71.710 19.816628
71.715 19.450859
71.720 19.18911
71.725 19.168201
71.730 19.127586
71.735 19.078335
71.740 19.706129
71.745 19.413837
71.750 19.811445
71.755 18.928127
71.760 18.411987
71.765 18.253988
71.770 17.729284
71.775 16.958065
71.780 17.312733
71.785 17.439598
71.790 17.755884
71.795 17.729288
71.800 17.744478
71.805 17.89769
71.810 18.46073
71.815 17.868311
71.820 17.967381
71.825 18.386843
71.830 18.476345
71.835 18.917839
71.840 18.995337
71.845 19.221586
71.850 20.018866
71.855 19.87233
71.860 19.524094
71.865 19.226824
71.870 18.892719
71.875 19.197966
71.880 18.427397
71.885 18.553076
71.890 18.560076
71.895 18.674782
71.900 19.088217
71.905 19.434978
71.910 18.983313
71.915 18.824694
71.920 18.744293
71.925 18.882372
71.930 18.368559
71.935 18.061165
71.940 18.352493
71.945 18.532976
71.950 18.559237
71.955 18.723806
71.960 18.824644
71.965 19.615686
71.970 19.162552
71.975 19.001947
71.980 19.372351
71.985 19.489737
71.990 18.957523
71.995 19.411303
72.000 19.093708
72.005 19.27523
72.010 19.03661
72.015 18.779432
72.020 18.481358
72.025 18.638906
72.030 18.448204
72.035 18.127254
72.040 18.281403
72.045 18.029879
72.050 17.842289
72.055 17.796371
72.060 17.432074
72.065 17.754606
72.070 17.782066
72.075 17.571833
72.080 17.403574
72.085 17.483618
72.090 17.599686
72.095 18.545816
72.100 19.686289
72.105 20.427933
72.110 20.636339
72.115 21.625277
72.120 22.055923
72.125 21.536816
72.130 20.392559
72.135 19.804562
72.140 19.42149
72.145 19.097237
72.150 18.237839
72.155 17.88184
72.160 18.198044
72.165 17.850878
72.170 17.557547
72.175 17.662073
72.180 17.614208
72.185 17.88381
72.190 17.698332
72.195 17.858786
72.200 17.990314
72.205 17.780787
72.210 17.363451
72.215 17.542763
72.220 17.866367
72.225 18.034887
72.230 17.966667
72.235 17.674877
72.240 18.143187
72.245 18.233913
72.250 18.004066
72.255 17.661846
72.260 17.677917
72.265 17.874321
72.270 18.450657
72.275 18.59552
72.280 18.716675
72.285 18.751928
72.290 18.780451
72.295 19.088633
72.300 19.193184
72.305 18.678844
72.310 18.434435
72.315 19.287172
72.320 19.453983
72.325 19.437393
72.330 19.106007
72.335 19.001839
72.340 19.036905
72.345 19.062796
72.350 18.401957
72.355 18.51182
72.360 18.761112
72.365 19.170254
72.370 19.443787
72.375 19.603371
72.380 19.409876
72.385 19.123177
72.390 18.645285
72.395 18.349985
72.400 17.56142
72.405 17.301521
72.410 16.995955
72.415 17.333708
72.420 18.088179
72.425 18.222435
72.430 18.289791
72.435 18.984039
72.440 19.038099
72.445 18.865757
72.450 18.357313
72.455 17.973789
72.460 18.255703
72.465 17.498734
72.470 17.014341
72.475 17.231216
72.480 17.328407
72.485 17.147177
72.490 16.710848
72.495 16.928677
72.500 17.386204
72.505 17.362875
72.510 17.265276
72.515 17.164246
72.520 17.552797
72.525 17.72374
72.530 17.630062
72.535 17.886496
72.540 17.759012
72.545 17.653873
72.550 17.715578
72.555 17.891472
72.560 17.875681
72.565 17.625799
72.570 16.923784
72.575 16.901024
72.580 17.224049
72.585 17.148598
72.590 17.192343
72.595 17.154427
72.600 17.549276
72.605 18.165026
72.610 18.261213
72.615 17.896917
72.620 17.903975
72.625 17.653824
72.630 17.369925
72.635 16.686993
72.640 16.541235
72.645 16.670284
72.650 16.874983
72.655 16.494673
72.660 17.036367
72.665 17.1327
72.670 17.44593
72.675 17.006956
72.680 16.307873
72.685 16.285833
72.690 16.7761
72.695 16.225786
72.700 16.685358
72.705 17.032129
72.710 17.936281
72.715 17.952299
72.720 17.385798
72.725 17.537075
72.730 18.021202
72.735 17.937937
72.740 17.981796
72.745 17.878895
72.750 18.038296
72.755 18.336363
72.760 18.074282
72.765 17.250763
72.770 16.757406
72.775 16.28896
72.780 16.716536
72.785 16.845949
72.790 16.33411
72.795 16.624727
72.800 17.150459
72.805 17.549328
72.810 17.893347
72.815 17.218119
72.820 17.339895
72.825 17.560081
72.830 17.293324
72.835 16.96236
72.840 17.003363
72.845 17.08428
72.850 17.305485
72.855 16.951422
72.860 16.608339
72.865 17.024754
72.870 16.952007
72.875 16.907343
72.880 16.96244
72.885 16.937712
72.890 17.515005
72.895 17.578396
72.900 17.80681
72.905 17.665844
72.910 16.987804
72.915 16.612423
72.920 16.651709
72.925 16.374191
72.930 15.660085
72.935 15.621151
72.940 15.792769
72.945 16.102043
72.950 15.887773
72.955 15.680596
72.960 16.26844
72.965 16.123631
72.970 16.322002
72.975 16.092094
72.980 16.215588
72.985 16.780384
72.990 16.757072
72.995 16.511032
73.000 16.859291
