!@!!GADDS PLOTSO FILE: Chi integration type
!@!!Title/SampleName: map-e4
!@!!Comment: ?
!@!!User: Bruker Instrument Administrator
!@!!Site: University of Illinois Chicago
!@!!Frame: map-e4_01_000.gfrm
!@!!Wavelengths    1.54184   1.54056   1.54439
!@!!Frame angles: 2Theta: 63.000 Omega: 50.000 Phi: 0.000 Chi: 90.000
!@!!Integration range: 2Theta: 53.000 to 73.000  Gamma: -105.000 to -75.000
!@!!Integration method: bin normalized
!@!N
!@!SS
!@!M
!@!L 0.0 0.0 0.0 0.0
!@!XDegrees
!@!YCounts
53.000 7.977559
53.005 8.312633
53.010 8.459736
53.015 8.48
53.020 8.128103
53.025 7.668524
53.030 7.538148
53.035 7.580217
53.040 7.528764
53.045 7.309071
53.050 7.235909
53.055 7.573081
53.060 7.673498
53.065 7.66879
53.070 7.364292
53.075 7.243163
53.080 7.07323
53.085 6.683325
53.090 6.277442
53.095 6.231093
53.100 6.899138
53.105 7.262484
53.110 7.308187
53.115 7.541982
53.120 8.021497
53.125 8.515221
53.130 8.290452
53.135 7.551785
53.140 7.421418
53.145 7.408549
53.150 7.305896
53.155 7.274813
53.160 7.680121
53.165 7.878647
53.170 7.95366
53.175 8.138739
53.180 8.267587
53.185 7.910115
53.190 7.255977
53.195 6.860163
53.200 7.071432
53.205 7.275405
53.210 7.160066
53.215 7.545083
53.220 8.060648
53.225 8.714033
53.230 8.833497
53.235 8.686905
53.240 8.832364
53.245 8.797767
53.250 8.719145
53.255 8.575197
53.260 8.324881
53.265 8.191123
53.270 8.081887
53.275 7.832937
53.280 7.872749
53.285 7.763157
53.290 8.052864
53.295 8.40143
53.300 8.483794
53.305 8.425189
53.310 8.220788
53.315 8.445677
53.320 8.875509
53.325 8.634883
53.330 8.803024
53.335 9.089466
53.340 9.561108
53.345 9.695776
53.350 9.393597
53.355 8.955177
53.360 8.884881
53.365 8.712276
53.370 8.396041
53.375 8.096319
53.380 8.145597
53.385 7.924504
53.390 8.121714
53.395 8.525183
53.400 8.447342
53.405 8.440555
53.410 8.765074
53.415 9.285067
53.420 9.820339
53.425 9.400681
53.430 8.927555
53.435 8.914902
53.440 9.169192
53.445 9.113596
53.450 9.037462
53.455 9.474511
53.460 9.620239
53.465 9.646465
53.470 9.22737
53.475 9.066491
53.480 8.833097
53.485 7.902042
53.490 7.452296
53.495 7.32305
53.500 7.705905
53.505 8.159501
53.510 8.180114
53.515 8.28921
53.520 8.710948
53.525 8.995036
53.530 9.300938
53.535 9.111561
53.540 8.931855
53.545 8.767859
53.550 8.818157
53.555 8.877023
53.560 8.554426
53.565 8.449543
53.570 8.413336
53.575 8.72208
53.580 9.267473
53.585 9.456433
53.590 9.774905
53.595 9.970863
53.600 9.750961
53.605 9.738244
53.610 9.38793
53.615 9.494765
53.620 9.527728
53.625 9.458433
53.630 9.805169
53.635 9.913108
53.640 10.107777
53.645 10.131574
53.650 9.834724
53.655 9.651484
53.660 9.073053
53.665 8.866364
53.670 9.020686
53.675 8.952179
53.680 8.289204
53.685 7.842995
53.690 8.644773
53.695 9.14924
53.700 9.21688
53.705 9.267839
53.710 9.74952
53.715 10.354604
53.720 10.176347
53.725 9.853945
53.730 9.276992
53.735 8.717618
53.740 8.66696
53.745 8.412955
53.750 8.302195
53.755 8.400294
53.760 8.270427
53.765 8.812531
53.770 9.614895
53.775 9.71977
53.780 9.783254
53.785 9.936684
53.790 9.781617
53.795 9.657504
53.800 9.252721
53.805 8.627362
53.810 8.700814
53.815 9.009598
53.820 9.180036
53.825 9.257242
53.830 9.633387
53.835 9.582487
53.840 9.631595
53.845 9.454534
53.850 9.245589
53.855 8.919471
53.860 8.52548
53.865 8.465546
53.870 8.871411
53.875 8.750041
53.880 8.798811
53.885 8.958694
53.890 9.427521
53.895 10.188485
53.900 10.644154
53.905 10.502938
53.910 10.39572
53.915 10.242406
53.920 10.190516
53.925 9.594259
53.930 8.98075
53.935 8.690728
53.940 8.811562
53.945 8.951272
53.950 8.730084
53.955 8.852988
53.960 9.593356
53.965 9.929408
53.970 9.393583
53.975 9.365808
53.980 9.688305
53.985 9.856713
53.990 9.874448
53.995 9.23262
54.000 9.045981
54.005 9.692911
54.010 9.886686
54.015 9.623885
54.020 9.650944
54.025 9.643528
54.030 9.783443
54.035 10.07268
54.040 9.926062
54.045 9.554344
54.050 9.47683
54.055 9.366902
54.060 9.36752
54.065 9.591651
54.070 9.483535
54.075 9.556767
54.080 9.945078
54.085 9.900391
54.090 10.116686
54.095 9.993281
54.100 9.528039
54.105 9.438481
54.110 9.342425
54.115 9.131429
54.120 9.071734
54.125 8.891233
54.130 8.990684
54.135 9.241573
54.140 8.9702
54.145 9.124957
54.150 9.10415
54.155 9.222817
54.160 9.254079
54.165 9.299931
54.170 9.255161
54.175 9.262932
54.180 9.307431
54.185 9.607755
54.190 9.713539
54.195 9.920914
54.200 9.588386
54.205 9.837476
54.210 9.849314
54.215 9.863504
54.220 9.607783
54.225 9.681127
54.230 9.384939
54.235 9.924414
54.240 10.205598
54.245 9.997544
54.250 10.124229
54.255 10.027907
54.260 9.682353
54.265 10.055236
54.270 9.671244
54.275 9.352395
54.280 9.442571
54.285 9.447846
54.290 10.08847
54.295 10.299974
54.300 10.086653
54.305 10.252649
54.310 10.195651
54.315 9.863774
54.320 9.537177
54.325 9.617961
54.330 9.800233
54.335 10.06863
54.340 10.395638
54.345 10.958747
54.350 11.262013
54.355 11.314925
54.360 10.997505
54.365 10.439484
54.370 10.125678
54.375 10.116756
54.380 10.082685
54.385 10.229732
54.390 9.85984
54.395 9.885906
54.400 9.809903
54.405 9.636031
54.410 9.136163
54.415 8.921585
54.420 9.231667
54.425 9.864073
54.430 10.168327
54.435 10.29666
54.440 10.575294
54.445 10.932941
54.450 11.226068
54.455 10.890073
54.460 10.836761
54.465 10.805702
54.470 10.879435
54.475 10.748244
54.480 10.768606
54.485 10.187613
54.490 10.122147
54.495 9.523963
54.500 9.273978
54.505 9.281849
54.510 9.11981
54.515 9.205466
54.520 9.246418
54.525 9.5626
54.530 9.991715
54.535 9.912498
54.540 9.771243
54.545 10.254307
54.550 9.795325
54.555 10.217859
54.560 10.087591
54.565 10.156549
54.570 10.509863
54.575 10.500191
54.580 9.994016
54.585 10.181746
54.590 9.727979
54.595 9.506589
54.600 9.761761
54.605 9.740982
54.610 9.169248
54.615 9.272454
54.620 9.653879
54.625 9.979025
54.630 10.629134
54.635 10.884536
54.640 11.68183
54.645 12.167998
54.650 12.106503
54.655 11.694107
54.660 11.391557
54.665 11.173741
54.670 10.580871
54.675 9.887697
54.680 9.90996
54.685 10.145226
54.690 10.612478
54.695 10.844695
54.700 10.82442
54.705 11.14403
54.710 10.982964
54.715 10.915462
54.720 10.77533
54.725 10.005442
54.730 9.314785
54.735 8.912128
54.740 8.750461
54.745 8.954448
54.750 8.724347
54.755 8.913783
54.760 9.353481
54.765 9.608511
54.770 9.61713
54.775 9.678627
54.780 9.945261
54.785 10.646729
54.790 10.641844
54.795 10.587476
54.800 10.760517
54.805 10.782473
54.810 10.633808
54.815 10.222753
54.820 10.015233
54.825 10.186821
54.830 9.882529
54.835 10.335479
54.840 10.302578
54.845 10.374884
54.850 10.681983
54.855 9.985572
54.860 9.737815
54.865 9.649111
54.870 9.184362
54.875 9.560395
54.880 10.378955
54.885 11.172332
54.890 12.036738
54.895 12.468546
54.900 12.725705
54.905 12.879375
54.910 12.783894
54.915 12.38879
54.920 11.715755
54.925 11.251644
54.930 11.052786
54.935 11.099299
54.940 11.15211
54.945 10.860262
54.950 10.737455
54.955 10.704501
54.960 10.411293
54.965 10.298387
54.970 10.555777
54.975 10.678799
54.980 10.811396
54.985 10.598351
54.990 10.654815
54.995 11.071849
55.000 11.099658
55.005 10.933018
55.010 10.754898
55.015 10.049835
55.020 10.106604
55.025 10.312968
55.030 10.24174
55.035 10.768411
55.040 10.893016
55.045 11.234127
55.050 11.491338
55.055 11.818768
55.060 11.838446
55.065 11.655592
55.070 11.46803
55.075 11.494888
55.080 11.317723
55.085 11.273469
55.090 10.847739
55.095 11.168277
55.100 11.387601
55.105 10.930098
55.110 10.701255
55.115 10.990453
55.120 11.526646
55.125 11.63425
55.130 11.113499
55.135 11.07435
55.140 11.473001
55.145 11.849248
55.150 11.568275
55.155 11.080533
55.160 11.169162
55.165 11.227896
55.170 10.868828
55.175 10.547911
55.180 10.36914
55.185 10.2373
55.190 10.139156
55.195 10.298081
55.200 10.293447
55.205 10.320243
55.210 10.468148
55.215 10.549507
55.220 10.372456
55.225 10.421415
55.230 10.125951
55.235 10.355812
55.240 10.142776
55.245 10.131438
55.250 10.360599
55.255 11.048949
55.260 10.549299
55.265 10.593364
55.270 10.87635
55.275 11.01466
55.280 11.295625
55.285 11.145795
55.290 11.320276
55.295 12.156381
55.300 11.596645
55.305 10.916117
55.310 10.934138
55.315 10.713789
55.320 10.433644
55.325 9.995034
55.330 9.543372
55.335 10.163059
55.340 10.248869
55.345 9.954575
55.350 9.836387
55.355 10.217204
55.360 10.738012
55.365 11.471818
55.370 11.992818
55.375 11.999036
55.380 11.98105
55.385 12.051988
55.390 12.10953
55.395 11.746734
55.400 11.088827
55.405 11.180322
55.410 11.370934
55.415 11.364947
55.420 11.076218
55.425 11.25216
55.430 11.218332
55.435 11.077333
55.440 10.507071
55.445 10.479531
55.450 10.462543
55.455 10.767689
55.460 11.045223
55.465 11.86423
55.470 12.174996
55.475 12.686347
55.480 13.127151
55.485 12.835832
55.490 12.659494
55.495 12.249778
55.500 11.627578
55.505 11.719852
55.510 11.465772
55.515 11.422151
55.520 11.786377
55.525 11.922343
55.530 11.486809
55.535 11.730271
55.540 11.418054
55.545 11.188326
55.550 11.319801
55.555 11.049594
55.560 10.626359
55.565 10.542901
55.570 10.517187
55.575 10.649682
55.580 10.822504
55.585 10.728845
55.590 11.149513
55.595 11.57921
55.600 11.516072
55.605 11.433203
55.610 11.525522
55.615 11.624275
55.620 11.976358
55.625 12.126632
55.630 11.897036
55.635 12.388591
55.640 12.491576
55.645 12.586493
55.650 12.400756
55.655 11.707001
55.660 11.497926
55.665 11.232714
55.670 11.117849
55.675 10.88856
55.680 10.613036
55.685 11.240965
55.690 11.867929
55.695 12.038719
55.700 12.442602
55.705 12.512116
55.710 12.783719
55.715 12.979601
55.720 12.909805
55.725 12.526563
55.730 12.760893
55.735 12.69846
55.740 12.219776
55.745 11.810381
55.750 11.911706
55.755 11.491418
55.760 11.532084
55.765 11.533013
55.770 11.394916
55.775 11.716332
55.780 11.963247
55.785 11.70741
55.790 11.599854
55.795 11.713808
55.800 11.74881
55.805 12.009122
55.810 12.042881
55.815 11.940269
55.820 11.730443
55.825 11.78819
55.830 11.898435
55.835 12.342053
55.840 12.221021
55.845 12.763119
55.850 12.981622
55.855 13.15877
55.860 13.143534
55.865 13.010024
55.870 12.934649
55.875 12.940664
55.880 12.696066
55.885 13.57771
55.890 14.222159
55.895 14.313319
55.900 13.702725
55.905 13.143691
55.910 13.040311
55.915 12.836312
55.920 11.833369
55.925 11.381145
55.930 11.163508
55.935 11.4341
55.940 11.795081
55.945 12.174067
55.950 12.361019
55.955 12.666481
55.960 12.391374
55.965 12.336514
55.970 12.267185
55.975 11.672037
55.980 10.757633
55.985 10.652058
55.990 10.527847
55.995 10.558463
56.000 10.503835
56.005 11.004152
56.010 11.789124
56.015 12.203698
56.020 11.760149
56.025 11.707081
56.030 12.356243
56.035 12.292393
56.040 11.9315
56.045 11.849566
56.050 11.743404
56.055 12.148996
56.060 12.235958
56.065 12.034301
56.070 11.895288
56.075 11.980918
56.080 11.85493
56.085 12.049278
56.090 11.944851
56.095 11.770261
56.100 11.828587
56.105 12.043607
56.110 11.970037
56.115 12.42763
56.120 12.544826
56.125 12.637892
56.130 12.917586
56.135 12.7236
56.140 12.783173
56.145 12.983607
56.150 13.248598
56.155 13.635947
56.160 13.246908
56.165 13.256006
56.170 13.582938
56.175 13.608878
56.180 13.426023
56.185 12.822295
56.190 12.316934
56.195 12.570387
56.200 12.467705
56.205 12.354253
56.210 12.566644
56.215 12.402781
56.220 12.233992
56.225 12.83233
56.230 13.291721
56.235 13.607625
56.240 13.172556
56.245 12.624324
56.250 12.628469
56.255 12.692967
56.260 12.727753
56.265 12.820665
56.270 13.021312
56.275 13.558379
56.280 13.9738
56.285 14.014611
56.290 14.576195
56.295 14.246202
56.300 13.586918
56.305 13.026875
56.310 12.079498
56.315 11.508712
56.320 11.077385
56.325 10.211649
56.330 10.034179
56.335 10.378581
56.340 10.798872
56.345 11.524611
56.350 12.342071
56.355 12.722942
56.360 13.357808
56.365 13.380021
56.370 13.117368
56.375 13.084173
56.380 12.977767
56.385 12.914145
56.390 13.015553
56.395 13.159368
56.400 13.524622
56.405 13.540303
56.410 13.093891
56.415 12.603366
56.420 12.412832
56.425 12.254195
56.430 11.998158
56.435 11.845301
56.440 11.57081
56.445 12.062199
56.450 11.839713
56.455 11.654791
56.460 11.61591
56.465 11.578901
56.470 11.454774
56.475 11.954655
56.480 12.162802
56.485 13.061608
56.490 13.096085
56.495 12.819007
56.500 13.213603
56.505 13.509562
56.510 13.36049
56.515 12.840582
56.520 12.689884
56.525 12.664466
56.530 12.67296
56.535 12.612796
56.540 12.836852
56.545 12.820061
56.550 13.359605
56.555 13.804143
56.560 14.255144
56.565 14.247302
56.570 14.183147
56.575 13.938023
56.580 13.595431
56.585 13.217707
56.590 12.771236
56.595 13.008602
56.600 12.956721
56.605 12.704766
56.610 12.805261
56.615 13.219064
56.620 12.95908
56.625 12.785049
56.630 12.550904
56.635 12.622062
56.640 12.831047
56.645 12.849581
56.650 12.668662
56.655 13.016337
56.660 13.44326
56.665 13.746524
56.670 13.533186
56.675 13.224141
56.680 13.721092
56.685 14.114524
56.690 14.219275
56.695 13.776368
56.700 13.498034
56.705 14.097946
56.710 14.14273
56.715 13.85609
56.720 14.007057
56.725 13.996347
56.730 13.975457
56.735 13.879745
56.740 13.80878
56.745 13.714841
56.750 13.837507
56.755 13.573095
56.760 13.184145
56.765 12.550689
56.770 12.170851
56.775 11.70865
56.780 11.575056
56.785 11.22939
56.790 11.293564
56.795 11.83231
56.800 12.584426
56.805 13.335294
56.810 13.748966
56.815 14.063831
56.820 13.984437
56.825 13.619203
56.830 13.27456
56.835 13.162381
56.840 13.468618
56.845 13.473272
56.850 13.29559
56.855 13.61433
56.860 13.969125
56.865 14.514544
56.870 14.474013
56.875 14.167309
56.880 14.111086
56.885 14.185598
56.890 13.848905
56.895 13.788795
56.900 13.555771
56.905 13.228586
56.910 12.673005
56.915 12.627419
56.920 12.702202
56.925 12.941423
56.930 12.693675
56.935 12.603781
56.940 13.144269
56.945 13.447476
56.950 13.094775
56.955 13.14938
56.960 13.271889
56.965 13.268694
56.970 13.739471
56.975 13.407747
56.980 13.299086
56.985 13.575951
56.990 13.389883
56.995 13.287069
57.000 13.228995
57.005 12.087888
57.010 12.310953
57.015 12.192191
57.020 12.351474
57.025 12.279499
57.030 12.44393
57.035 12.85963
57.040 13.672254
57.045 13.696293
57.050 14.176027
57.055 14.109596
57.060 13.637669
57.065 13.375407
57.070 13.31106
57.075 12.761375
57.080 12.393859
57.085 12.03911
57.090 12.13256
57.095 12.846271
57.100 12.771648
57.105 12.852003
57.110 13.085203
57.115 12.960014
57.120 12.548511
57.125 12.430642
57.130 12.151609
57.135 12.338211
57.140 12.394711
57.145 12.922396
57.150 13.165778
57.155 13.70003
57.160 14.039063
57.165 14.028312
57.170 13.953357
57.175 13.972074
57.180 14.291922
57.185 14.890456
57.190 14.646287
57.195 14.305959
57.200 14.922443
57.205 15.285707
57.210 15.860459
57.215 15.276103
57.220 14.921559
57.225 15.308898
57.230 15.325542
57.235 14.977252
57.240 14.778411
57.245 14.743157
57.250 15.497454
57.255 16.102592
57.260 15.823721
57.265 16.13674
57.270 15.847508
57.275 15.082104
57.280 14.452257
57.285 14.169847
57.290 13.808203
57.295 14.045984
57.300 14.263498
57.305 14.611403
57.310 14.977958
57.315 14.75245
57.320 14.688275
57.325 14.53615
57.330 14.599536
57.335 14.587487
57.340 15.041265
57.345 15.40828
57.350 15.075079
57.355 14.90991
57.360 14.745258
57.365 14.05438
57.370 13.751745
57.375 13.5786
57.380 13.933025
57.385 14.076922
57.390 13.920416
57.395 14.623941
57.400 15.285408
57.405 15.019786
57.410 14.156904
57.415 13.45107
57.420 13.395772
57.425 13.390022
57.430 12.557917
57.435 12.385462
57.440 12.734224
57.445 13.324182
57.450 13.983287
57.455 14.099058
57.460 14.367259
57.465 15.032282
57.470 14.716078
57.475 14.531241
57.480 14.446498
57.485 14.652604
57.490 14.772193
57.495 14.697001
57.500 14.76427
57.505 15.110749
57.510 15.200995
57.515 15.028565
57.520 14.617237
57.525 14.476166
57.530 13.853887
57.535 14.154282
57.540 13.889649
57.545 14.007929
57.550 13.90357
57.555 13.8264
57.560 14.153832
57.565 14.499887
57.570 14.172009
57.575 14.071159
57.580 13.78182
57.585 14.2981
57.590 14.58015
57.595 14.431087
57.600 14.895781
57.605 15.647148
57.610 15.931345
57.615 16.471209
57.620 16.40011
57.625 16.575909
57.630 16.705837
57.635 16.059532
57.640 15.293143
57.645 15.364728
57.650 15.241836
57.655 15.650414
57.660 15.504717
57.665 15.750526
57.670 15.498365
57.675 15.434631
57.680 15.479104
57.685 15.25563
57.690 15.276602
57.695 15.10017
57.700 15.204041
57.705 15.516496
57.710 15.271165
57.715 14.789744
57.720 14.575801
57.725 14.217871
57.730 14.811394
57.735 14.690943
57.740 14.441007
57.745 14.83382
57.750 14.880059
57.755 14.79408
57.760 14.654997
57.765 13.926826
57.770 13.594754
57.775 13.937321
57.780 14.219228
57.785 15.004976
57.790 15.310377
57.795 15.582994
57.800 15.70136
57.805 16.099388
57.810 16.812119
57.815 16.754372
57.820 16.135778
57.825 15.766665
57.830 15.324699
57.835 15.11573
57.840 14.928404
57.845 15.053335
57.850 14.844983
57.855 14.83926
57.860 15.239167
57.865 15.723194
57.870 16.275354
57.875 16.688375
57.880 16.090687
57.885 16.037868
57.890 15.809765
57.895 15.164773
57.900 14.961791
57.905 14.627522
57.910 14.388676
57.915 14.700329
57.920 15.249892
57.925 15.785709
57.930 15.819981
57.935 16.063969
57.940 16.044086
57.945 15.806688
57.950 15.392775
57.955 14.967546
57.960 14.5596
57.965 14.720111
57.970 14.79212
57.975 14.44695
57.980 14.360698
57.985 14.545237
57.990 14.567825
57.995 14.701823
58.000 14.629498
58.005 15.059205
58.010 15.712533
58.015 15.494031
58.020 15.599579
58.025 16.005932
58.030 16.412073
58.035 16.503103
58.040 16.71434
58.045 17.077204
58.050 17.300112
58.055 17.178873
58.060 17.300585
58.065 17.552324
58.070 17.811628
58.075 17.743874
58.080 17.459114
58.085 17.921955
58.090 18.305002
58.095 18.142332
58.100 17.85301
58.105 17.661032
58.110 16.80307
58.115 16.682087
58.120 16.487202
58.125 16.46806
58.130 16.101788
58.135 16.281061
58.140 16.61924
58.145 17.491995
58.150 17.351213
58.155 17.402849
58.160 17.121536
58.165 17.574831
58.170 17.338261
58.175 17.047613
58.180 16.848253
58.185 17.177309
58.190 17.106686
58.195 17.643986
58.200 17.799511
58.205 18.30784
58.210 18.849806
58.215 19.40621
58.220 19.576033
58.225 19.58391
58.230 19.291126
58.235 19.447681
58.240 19.26491
58.245 19.114252
58.250 19.196857
58.255 19.820055
58.260 20.403572
58.265 20.777147
58.270 20.532789
58.275 20.652107
58.280 20.567492
58.285 20.493362
58.290 20.161627
58.295 20.245422
58.300 20.32778
58.305 20.624626
58.310 20.659851
58.315 20.229628
58.320 20.441647
58.325 20.769459
58.330 20.711094
58.335 21.135057
58.340 21.494501
58.345 22.312124
58.350 22.948904
58.355 22.903986
58.360 22.630945
58.365 22.298168
58.370 22.422001
58.375 22.499651
58.380 22.353514
58.385 22.878084
58.390 23.654934
58.395 24.78146
58.400 25.608622
58.405 25.684652
58.410 25.584705
58.415 26.067713
58.420 26.140293
58.425 25.668133
58.430 25.699734
58.435 25.825428
58.440 25.754496
58.445 25.842545
58.450 26.14513
58.455 26.319061
58.460 26.967281
58.465 26.129431
58.470 25.742401
58.475 26.010546
58.480 25.819489
58.485 26.113012
58.490 25.943895
58.495 25.921791
58.500 26.386225
58.505 26.626364
58.510 26.497768
58.515 26.782663
58.520 26.512127
58.525 27.078747
58.530 27.33379
58.535 28.070152
58.540 28.292496
58.545 28.220053
58.550 28.266819
58.555 28.279369
58.560 28.109768
58.565 27.592798
58.570 26.902058
58.575 26.659019
58.580 27.160784
58.585 27.234301
58.590 26.63187
58.595 26.722925
58.600 26.760862
58.605 26.609138
58.610 26.542974
58.615 25.6315
58.620 25.742569
58.625 26.81609
58.630 26.914871
58.635 27.208656
58.640 27.359108
58.645 27.444784
58.650 27.576241
58.655 27.319729
58.660 26.599895
58.665 26.346189
58.670 26.21603
58.675 26.221554
58.680 26.094097
58.685 25.944258
58.690 26.001926
58.695 26.552422
58.700 25.682148
58.705 24.914824
58.710 24.778652
58.715 25.272997
58.720 25.246668
58.725 24.738789
58.730 23.69482
58.735 23.727211
58.740 24.244535
58.745 24.130262
58.750 23.973667
58.755 23.896145
58.760 23.951725
58.765 23.507376
58.770 23.473202
58.775 22.947096
58.780 23.275183
58.785 23.517206
58.790 23.345507
58.795 22.578356
58.800 22.410053
58.805 23.100334
58.810 23.527988
58.815 23.102638
58.820 22.54545
58.825 22.498295
58.830 22.508978
58.835 22.241283
58.840 21.991274
58.845 21.57103
58.850 21.121796
58.855 20.749653
58.860 20.389713
58.865 20.304653
58.870 20.157675
58.875 19.658239
58.880 19.5832
58.885 19.163902
58.890 19.508741
58.895 20.269657
58.900 20.75897
58.905 20.418264
58.910 20.068241
58.915 20.183693
58.920 20.052595
58.925 19.576986
58.930 19.159191
58.935 19.234653
58.940 19.602356
58.945 19.261665
58.950 19.088835
58.955 19.657499
58.960 19.867651
58.965 19.511345
58.970 18.671417
58.975 18.485338
58.980 18.871246
58.985 19.305349
58.990 19.147556
58.995 18.891203
59.000 19.332079
59.005 20.279495
59.010 20.369493
59.015 19.703226
59.020 18.656408
59.025 18.532097
59.030 18.360512
59.035 17.938807
59.040 17.830828
59.045 18.182156
59.050 18.463148
59.055 18.39431
59.060 18.428375
59.065 18.497679
59.070 18.54372
59.075 17.730516
59.080 17.54088
59.085 17.863533
59.090 18.376579
59.095 18.061314
59.100 17.963976
59.105 18.525755
59.110 18.757168
59.115 17.748539
59.120 17.413328
59.125 17.563225
59.130 17.993317
59.135 17.86825
59.140 17.313156
59.145 17.195841
59.150 18.091078
59.155 18.184635
59.160 17.325903
59.165 16.723969
59.170 16.699162
59.175 16.59207
59.180 16.646168
59.185 15.89936
59.190 15.637963
59.195 15.699043
59.200 15.722891
59.205 15.37666
59.210 15.432518
59.215 14.59538
59.220 14.309924
59.225 14.149363
59.230 14.713677
59.235 15.275307
59.240 15.538629
59.245 15.982768
59.250 16.574751
59.255 17.172235
59.260 17.624474
59.265 17.285069
59.270 17.217937
59.275 17.095844
59.280 16.667381
59.285 16.303297
59.290 16.329552
59.295 16.176611
59.300 16.260544
59.305 16.103136
59.310 15.842624
59.315 16.033537
59.320 16.459112
59.325 16.033421
59.330 15.738825
59.335 15.700197
59.340 15.736786
59.345 16.096035
59.350 16.111624
59.355 16.088833
59.360 16.537548
59.365 16.582327
59.370 16.67271
59.375 16.414936
59.380 16.160763
59.385 16.022827
59.390 16.191645
59.395 16.168497
59.400 16.408773
59.405 16.481415
59.410 16.587851
59.415 16.481684
59.420 16.153828
59.425 16.039484
59.430 15.960974
59.435 15.455293
59.440 15.327281
59.445 15.219982
59.450 15.36928
59.455 15.424378
59.460 15.180433
59.465 14.801982
59.470 14.824149
59.475 14.644483
59.480 14.390175
59.485 14.064941
59.490 14.067253
59.495 13.741333
59.500 13.814245
59.505 13.818946
59.510 13.963457
59.515 14.416398
59.520 14.69088
59.525 14.986351
59.530 14.938708
59.535 15.124947
59.540 14.917372
59.545 14.566539
59.550 14.279259
59.555 14.203724
59.560 13.952854
59.565 14.025905
59.570 13.984927
59.575 14.328284
59.580 14.951431
59.585 15.172538
59.590 14.892511
59.595 15.232615
59.600 15.591926
59.605 15.724753
59.610 15.494582
59.615 14.793507
59.620 14.899535
59.625 14.979838
59.630 14.952011
59.635 14.584925
59.640 14.366541
59.645 14.644858
59.650 15.213669
59.655 14.966715
59.660 15.323867
59.665 15.764465
59.670 15.870905
59.675 15.882811
59.680 15.938001
59.685 16.170135
59.690 16.352318
59.695 16.092068
59.700 15.726354
59.705 15.989064
59.710 16.042267
59.715 16.060488
59.720 15.936867
59.725 15.820552
59.730 15.482144
59.735 15.682263
59.740 15.927416
59.745 16.247313
59.750 16.11828
59.755 15.953781
59.760 16.497219
59.765 16.784283
59.770 16.655891
59.775 15.99913
59.780 15.721819
59.785 15.745891
59.790 15.353287
59.795 14.920003
59.800 14.778193
59.805 14.618058
59.810 14.488501
59.815 14.297783
59.820 14.218797
59.825 14.408825
59.830 14.845634
59.835 14.373505
59.840 13.890516
59.845 13.908312
59.850 14.244634
59.855 14.628799
59.860 14.524946
59.865 14.573751
59.870 15.506668
59.875 15.773632
59.880 16.087286
59.885 16.11116
59.890 16.030338
59.895 15.969186
59.900 15.484028
59.905 15.259037
59.910 15.21317
59.915 14.871849
59.920 14.550331
59.925 14.375027
59.930 14.306941
59.935 14.356746
59.940 14.299056
59.945 14.094503
59.950 14.298939
59.955 14.103074
59.960 14.250584
59.965 14.312448
59.970 14.08965
59.975 14.127789
59.980 14.270385
59.985 14.069805
59.990 14.400358
59.995 14.17993
60.000 14.414762
60.005 14.25779
60.010 14.148867
60.015 14.456257
60.020 14.558434
60.025 14.697623
60.030 14.348984
60.035 14.098645
60.040 14.370732
60.045 14.716984
60.050 14.484468
60.055 14.385775
60.060 14.380591
60.065 14.670464
60.070 14.63051
60.075 14.825157
60.080 14.893888
60.085 15.272619
60.090 15.829531
60.095 15.908808
60.100 16.385962
60.105 16.67634
60.110 16.058622
60.115 15.710375
60.120 16.054333
60.125 16.339937
60.130 15.826234
60.135 15.319605
60.140 15.186976
60.145 15.197224
60.150 14.887589
60.155 13.973454
60.160 13.33387
60.165 13.663652
60.170 14.085923
60.175 14.791463
60.180 15.278794
60.185 16.44286
60.190 17.527735
60.195 17.685659
60.200 17.929071
60.205 17.546141
60.210 17.042562
60.215 16.965797
60.220 15.649063
60.225 14.84689
60.230 14.825599
60.235 14.609301
60.240 14.797723
60.245 15.030636
60.250 14.684951
60.255 14.128494
60.260 13.949619
60.265 13.928244
60.270 13.961799
60.275 13.89607
60.280 13.64996
60.285 14.399407
60.290 15.722461
60.295 16.086304
60.300 15.858742
60.305 15.294988
60.310 15.061573
60.315 14.839674
60.320 14.735048
60.325 14.493692
60.330 14.488235
60.335 14.939838
60.340 15.569409
60.345 15.781422
60.350 15.975462
60.355 16.083071
60.360 15.848001
60.365 15.379292
60.370 15.040773
60.375 14.747869
60.380 14.698723
60.385 13.921722
60.390 13.596072
60.395 13.787089
60.400 14.331981
60.405 14.384564
60.410 14.781162
60.415 15.052612
60.420 15.762662
60.425 16.23789
60.430 16.55851
60.435 16.420145
60.440 16.354757
60.445 16.129377
60.450 16.209118
60.455 16.493484
60.460 16.246382
60.465 16.275858
60.470 16.765636
60.475 17.504881
60.480 17.384125
60.485 16.834854
60.490 15.852589
60.495 15.233705
60.500 14.560071
60.505 14.153316
60.510 14.072324
60.515 14.467895
60.520 14.656063
60.525 14.920959
60.530 15.180669
60.535 15.156625
60.540 14.610873
60.545 14.242037
60.550 13.936576
60.555 13.994691
60.560 14.272756
60.565 14.773252
60.570 15.263609
60.575 16.440395
60.580 17.304913
60.585 17.901279
60.590 18.06868
60.595 18.045994
60.600 17.751291
60.605 17.323917
60.610 16.600679
60.615 15.959928
60.620 15.760436
60.625 15.642177
60.630 15.627071
60.635 15.331428
60.640 15.058355
60.645 14.671771
60.650 14.672366
60.655 14.852308
60.660 15.132923
60.665 15.189368
60.670 15.405554
60.675 15.918421
60.680 15.955183
60.685 15.672855
60.690 15.620291
60.695 15.749367
60.700 15.55521
60.705 15.636249
60.710 15.25608
60.715 15.813212
60.720 16.101423
60.725 15.694998
60.730 15.771694
60.735 16.089415
60.740 16.350391
60.745 16.897184
60.750 16.341137
60.755 16.276056
60.760 16.316105
60.765 16.183077
60.770 16.185268
60.775 15.963246
60.780 15.731875
60.785 15.348312
60.790 15.274277
60.795 15.394941
60.800 15.100094
60.805 15.151849
60.810 15.304622
60.815 16.013176
60.820 16.26408
60.825 16.674433
60.830 16.803085
60.835 16.508352
60.840 15.921868
60.845 16.073862
60.850 15.764188
60.855 16.24597
60.860 15.965757
60.865 16.169252
60.870 16.383575
60.875 16.379135
60.880 16.27722
60.885 16.199846
60.890 16.334614
60.895 15.959529
60.900 15.955823
60.905 16.008753
60.910 16.446571
60.915 15.988858
60.920 15.730323
60.925 15.370065
60.930 15.485001
60.935 14.855013
60.940 14.78889
60.945 14.563347
60.950 14.687681
60.955 14.774326
60.960 14.243533
60.965 13.636973
60.970 13.795455
60.975 13.837128
60.980 13.865252
60.985 14.001323
60.990 14.03893
60.995 14.301808
61.000 14.675742
61.005 15.392052
61.010 15.754782
61.015 15.905107
61.020 16.42741
61.025 16.533764
61.030 16.627163
61.035 16.368998
61.040 15.412403
61.045 15.507488
61.050 15.703435
61.055 14.973326
61.060 14.927559
61.065 15.018123
61.070 15.341505
61.075 15.876468
61.080 15.437385
61.085 15.58964
61.090 15.929336
61.095 16.163813
61.100 15.878427
61.105 16.186178
61.110 16.184261
61.115 16.168898
61.120 16.183954
61.125 16.016058
61.130 15.999212
61.135 15.633729
61.140 15.385293
61.145 15.473765
61.150 15.759144
61.155 15.163081
61.160 15.000325
61.165 15.242924
61.170 16.233042
61.175 16.26437
61.180 16.554697
61.185 16.416025
61.190 17.083361
61.195 18.249992
61.200 19.01123
61.205 19.679342
61.210 19.816793
61.215 19.603233
61.220 19.923824
61.225 19.183638
61.230 18.257648
61.235 17.868418
61.240 17.387974
61.245 17.643911
61.250 18.098804
61.255 18.328709
61.260 18.951855
61.265 19.228754
61.270 18.648237
61.275 18.396547
61.280 18.030664
61.285 17.416939
61.290 16.954453
61.295 16.294104
61.300 15.938322
61.305 16.121199
61.310 16.594128
61.315 16.767195
61.320 16.941298
61.325 17.764372
61.330 18.27449
61.335 18.230381
61.340 18.001278
61.345 17.917807
61.350 18.029058
61.355 17.91724
61.360 17.279314
61.365 16.895933
61.370 16.434006
61.375 15.952266
61.380 15.373383
61.385 15.402105
61.390 15.499109
61.395 15.053409
61.400 15.503663
61.405 16.352877
61.410 17.30722
61.415 18.052204
61.420 17.826077
61.425 17.250143
61.430 17.057014
61.435 16.426579
61.440 15.544749
61.445 14.288924
61.450 13.809895
61.455 14.117047
61.460 14.180417
61.465 14.607145
61.470 15.169107
61.475 15.848367
61.480 16.037123
61.485 15.838882
61.490 15.467286
61.495 15.517828
61.500 14.985895
61.505 14.437984
61.510 14.252574
61.515 14.830109
61.520 15.150002
61.525 15.350539
61.530 16.049986
61.535 16.54022
61.540 16.967846
61.545 17.216116
61.550 17.289745
61.555 17.381552
61.560 17.07658
61.565 16.783697
61.570 16.679787
61.575 16.273203
61.580 15.847239
61.585 15.423924
61.590 14.677248
61.595 14.800557
61.600 14.657273
61.605 14.532378
61.610 15.15683
61.615 15.599301
61.620 15.255468
61.625 15.083269
61.630 14.715148
61.635 14.817057
61.640 15.433593
61.645 15.290809
61.650 14.923424
61.655 15.278483
61.660 15.798176
61.665 16.072371
61.670 16.099693
61.675 15.592058
61.680 15.101398
61.685 15.450746
61.690 15.210341
61.695 15.363603
61.700 15.211589
61.705 15.055677
61.710 15.195724
61.715 15.665861
61.720 15.979252
61.725 15.810572
61.730 15.452385
61.735 16.002985
61.740 16.038866
61.745 15.919107
61.750 15.7186
61.755 15.161116
61.760 15.539255
61.765 15.769712
61.770 16.010527
61.775 15.904043
61.780 15.857964
61.785 15.618315
61.790 15.774781
61.795 15.71862
61.800 15.454823
61.805 14.841404
61.810 15.04834
61.815 15.283272
61.820 15.753201
61.825 16.15432
61.830 16.435726
61.835 16.231737
61.840 16.063189
61.845 15.861562
61.850 15.596117
61.855 14.949927
61.860 14.707331
61.865 14.79209
61.870 15.05462
61.875 15.904853
61.880 16.033266
61.885 16.734087
61.890 17.649384
61.895 18.013607
61.900 17.785452
61.905 18.443029
61.910 18.08596
61.915 18.146729
61.920 17.583584
61.925 17.410585
61.930 17.19413
61.935 17.274153
61.940 16.986839
61.945 17.261574
61.950 17.32914
61.955 17.205847
61.960 16.356731
61.965 16.329113
61.970 16.379269
61.975 16.144108
61.980 15.899723
61.985 15.645415
61.990 15.685347
61.995 15.825095
62.000 15.099768
62.005 14.813044
62.010 14.428496
62.015 14.205213
62.020 14.168653
62.025 14.292115
62.030 14.994307
62.035 15.452072
62.040 15.275552
62.045 15.806011
62.050 16.065264
62.055 16.09338
62.060 16.131197
62.065 15.666472
62.070 15.931665
62.075 16.305025
62.080 15.809953
62.085 15.737827
62.090 16.146479
62.095 16.181492
62.100 15.425018
62.105 15.3541
62.110 14.990233
62.115 15.176786
62.120 15.333209
62.125 15.193819
62.130 15.474232
62.135 16.301052
62.140 16.480953
62.145 17.51684
62.150 17.664688
62.155 18.035124
62.160 18.136482
62.165 18.737919
62.170 19.187819
62.175 18.999109
62.180 18.747118
62.185 18.934919
62.190 18.5583
62.195 18.227966
62.200 17.565029
62.205 16.953344
62.210 16.725594
62.215 16.343925
62.220 15.843003
62.225 15.797685
62.230 15.374146
62.235 15.134183
62.240 15.175287
62.245 15.51962
62.250 15.631473
62.255 16.311401
62.260 15.891675
62.265 15.797141
62.270 15.731483
62.275 15.59246
62.280 15.705287
62.285 15.411254
62.290 14.438785
62.295 14.676656
62.300 14.834746
62.305 14.759541
62.310 14.807373
62.315 14.864489
62.320 15.358636
62.325 15.689234
62.330 16.49678
62.335 16.749268
62.340 17.249104
62.345 16.866779
62.350 16.355665
62.355 16.426758
62.360 16.469734
62.365 16.240011
62.370 16.3736
62.375 15.884479
62.380 16.18524
62.385 16.196526
62.390 15.581074
62.395 15.629018
62.400 15.337799
62.405 15.188577
62.410 15.34616
62.415 16.022114
62.420 16.18059
62.425 16.145235
62.430 16.331959
62.435 16.829414
62.440 16.69067
62.445 16.668688
62.450 15.926294
62.455 16.047464
62.460 16.65012
62.465 16.527304
62.470 16.172548
62.475 16.343269
62.480 16.21151
62.485 16.600536
62.490 16.225618
62.495 16.41605
62.500 16.83651
62.505 16.798231
62.510 16.716211
62.515 16.985125
62.520 16.936132
62.525 17.086367
62.530 16.778055
62.535 16.386757
62.540 16.533791
62.545 16.975735
62.550 17.304787
62.555 17.195448
62.560 17.16309
62.565 16.822338
62.570 16.744444
62.575 16.614315
62.580 15.831194
62.585 15.715931
62.590 16.220434
62.595 16.384659
62.600 16.549019
62.605 16.364786
62.610 16.811228
62.615 17.743158
62.620 17.653473
62.625 17.897221
62.630 18.360212
62.635 18.785976
62.640 18.945183
62.645 18.625772
62.650 18.348799
62.655 17.551353
62.660 17.215006
62.665 16.941675
62.670 16.268227
62.675 16.380898
62.680 16.258667
62.685 15.949545
62.690 17.240704
62.695 17.065777
62.700 16.75963
62.705 17.642799
62.710 17.97718
62.715 17.99684
62.720 18.312435
62.725 17.876011
62.730 18.467703
62.735 18.530796
62.740 18.41375
62.745 18.365728
62.750 18.512098
62.755 18.233055
62.760 17.533699
62.765 17.030201
62.770 16.699175
62.775 16.187311
62.780 15.778054
62.785 15.564956
62.790 15.184343
62.795 15.100115
62.800 15.106646
62.805 15.274922
62.810 14.853505
62.815 14.751914
62.820 14.961265
62.825 15.695533
62.830 15.989982
62.835 16.22294
62.840 16.685968
62.845 17.397909
62.850 17.653074
62.855 17.475887
62.860 17.262875
62.865 17.418716
62.870 17.453993
62.875 16.518702
62.880 16.729631
62.885 16.69739
62.890 16.714857
62.895 16.36344
62.900 16.449743
62.905 16.390068
62.910 17.127226
62.915 17.078678
62.920 17.644878
62.925 17.752361
62.930 17.731192
62.935 17.785532
62.940 17.971569
62.945 17.890148
62.950 17.708735
62.955 17.199448
62.960 17.281206
62.965 17.652187
62.970 17.451277
62.975 17.386038
62.980 17.529289
62.985 16.779181
62.990 16.486401
62.995 16.190834
63.000 16.308514
63.005 16.197729
63.010 16.359652
63.015 16.428421
63.020 16.869184
63.025 17.278496
63.030 17.63813
63.035 18.142784
63.040 18.426798
63.045 18.481232
63.050 18.473072
63.055 18.671648
63.060 18.858242
63.065 19.061117
63.070 18.626364
63.075 18.903223
63.080 18.512222
63.085 18.852715
63.090 18.730455
63.095 18.022625
63.100 17.473621
63.105 17.230995
63.110 16.781822
63.115 16.941484
63.120 16.903877
63.125 16.748253
63.130 17.016962
63.135 16.916227
63.140 16.779739
63.145 16.416977
63.150 15.726665
63.155 15.629125
63.160 15.844948
63.165 16.115973
63.170 16.662701
63.175 17.705191
63.180 18.644779
63.185 19.394434
63.190 19.437864
63.195 18.916103
63.200 18.656357
63.205 18.377216
63.210 17.581928
63.215 16.7236
63.220 16.380789
63.225 16.526239
63.230 17.378839
63.235 17.31476
63.240 17.122793
63.245 17.437637
63.250 18.190727
63.255 18.653368
63.260 18.38225
63.265 17.965754
63.270 18.069674
63.275 18.109873
63.280 17.883286
63.285 17.311365
63.290 17.560049
63.295 17.679647
63.300 17.665085
63.305 17.804354
63.310 18.141485
63.315 18.644835
63.320 18.592831
63.325 18.513899
63.330 18.741396
63.335 18.631687
63.340 18.53174
63.345 17.861889
63.350 17.15505
63.355 16.663418
63.360 15.877544
63.365 15.941851
63.370 16.178057
63.375 16.772419
63.380 17.90111
63.385 18.87694
63.390 19.541264
63.395 20.267633
63.400 20.078348
63.405 20.130825
63.410 19.594862
63.415 19.208118
63.420 18.431465
63.425 18.336948
63.430 18.725805
63.435 18.232895
63.440 17.870571
63.445 17.649506
63.450 18.042318
63.455 18.394266
63.460 18.140408
63.465 18.08329
63.470 18.570225
63.475 18.757477
63.480 18.847593
63.485 18.5044
63.490 18.248459
63.495 17.868275
63.500 17.735451
63.505 18.590343
63.510 18.726496
63.515 18.751184
63.520 18.51059
63.525 18.488705
63.530 19.022305
63.535 19.259134
63.540 18.596743
63.545 18.436596
63.550 17.84831
63.555 17.731112
63.560 18.265821
63.565 18.211105
63.570 17.564426
63.575 17.623495
63.580 17.808161
63.585 18.394711
63.590 18.55781
63.595 18.398277
63.600 18.486984
63.605 18.785637
63.610 18.534639
63.615 18.109102
63.620 17.672886
63.625 17.482517
63.630 17.466433
63.635 17.540424
63.640 17.844072
63.645 18.328728
63.650 19.120455
63.655 19.578743
63.660 19.441208
63.665 19.138424
63.670 19.717581
63.675 20.029392
63.680 20.489323
63.685 20.279232
63.690 20.285454
63.695 21.097784
63.700 21.775793
63.705 21.183111
63.710 20.941631
63.715 20.605268
63.720 20.942812
63.725 21.506769
63.730 21.706945
63.735 22.399948
63.740 22.689039
63.745 22.781738
63.750 22.375637
63.755 22.173212
63.760 22.029806
63.765 21.94697
63.770 22.058044
63.775 22.500559
63.780 22.821966
63.785 23.905087
63.790 24.477474
63.795 24.340916
63.800 24.079611
63.805 23.467394
63.810 22.714611
63.815 22.359562
63.820 21.921671
63.825 21.547159
63.830 21.339336
63.835 21.569078
63.840 21.974039
63.845 22.537901
63.850 22.927904
63.855 23.340296
63.860 24.151665
63.865 24.884123
63.870 25.356209
63.875 25.456738
63.880 25.111937
63.885 25.093401
63.890 25.057272
63.895 24.577326
63.900 24.338026
63.905 24.709112
63.910 25.365955
63.915 25.75573
63.920 25.708878
63.925 26.3904
63.930 27.508814
63.935 28.06543
63.940 27.998167
63.945 28.790699
63.950 29.07505
63.955 29.918865
63.960 30.132553
63.965 29.985302
63.970 30.252779
63.975 30.535395
63.980 30.08432
63.985 30.353157
63.990 30.014292
63.995 29.95661
64.000 30.208572
64.005 30.318422
64.010 30.726927
64.015 31.610489
64.020 32.128689
64.025 31.784079
64.030 31.199751
64.035 31.781094
64.040 32.159256
64.045 31.961466
64.050 31.599503
64.055 30.859787
64.060 30.959028
64.065 31.441919
64.070 31.694347
64.075 31.49782
64.080 31.201605
64.085 30.924238
64.090 31.294506
64.095 31.738529
64.100 32.051846
64.105 31.762753
64.110 31.118023
64.115 31.237932
64.120 31.786768
64.125 31.368574
64.130 30.431543
64.135 30.270826
64.140 30.452106
64.145 30.61717
64.150 30.030104
64.155 30.212847
64.160 30.343647
64.165 30.310602
64.170 29.668697
64.175 28.795666
64.180 29.139908
64.185 29.834282
64.190 29.498856
64.195 30.500647
64.200 31.006517
64.205 30.5142
64.210 30.417212
64.215 29.659575
64.220 29.521864
64.225 29.50396
64.230 28.918674
64.235 28.629181
64.240 29.039871
64.245 29.177485
64.250 28.917309
64.255 29.439507
64.260 29.255398
64.265 28.827911
64.270 28.869316
64.275 29.052629
64.280 28.989285
64.285 29.062454
64.290 28.543015
64.295 28.38043
64.300 28.644012
64.305 27.398169
64.310 26.529539
64.315 27.212505
64.320 27.447741
64.325 27.890741
64.330 27.791409
64.335 27.528027
64.340 28.092178
64.345 28.051985
64.350 27.829338
64.355 27.344273
64.360 26.76152
64.365 26.443121
64.370 26.607113
64.375 26.644184
64.380 26.671202
64.385 26.234678
64.390 26.482584
64.395 26.236485
64.400 26.765705
64.405 27.411484
64.410 27.548876
64.415 27.512539
64.420 27.62528
64.425 27.388712
64.430 26.638775
64.435 26.279671
64.440 25.818129
64.445 26.043159
64.450 26.282015
64.455 26.100821
64.460 26.116331
64.465 26.473797
64.470 26.223995
64.475 25.827293
64.480 26.105444
64.485 25.516003
64.490 25.324785
64.495 25.465282
64.500 24.82514
64.505 24.388021
64.510 24.473963
64.515 23.744772
64.520 23.523373
64.525 23.647305
64.530 23.533693
64.535 24.047745
64.540 24.465668
64.545 24.277388
64.550 24.187845
64.555 24.061548
64.560 23.257378
64.565 23.16539
64.570 22.118324
64.575 21.587643
64.580 21.258465
64.585 20.966736
64.590 21.166847
64.595 21.566301
64.600 21.569492
64.605 21.717821
64.610 21.740709
64.615 21.848082
64.620 22.121281
64.625 21.995964
64.630 22.065699
64.635 21.915966
64.640 21.544287
64.645 21.68214
64.650 21.45537
64.655 20.820431
64.660 20.743879
64.665 20.382666
64.670 20.490931
64.675 21.278002
64.680 21.36968
64.685 21.953272
64.690 22.06819
64.695 22.237343
64.700 22.009483
64.705 22.401455
64.710 22.70233
64.715 22.519264
64.720 22.271038
64.725 22.218884
64.730 22.523384
64.735 22.639023
64.740 22.666372
64.745 22.270782
64.750 22.375158
64.755 22.413029
64.760 22.710985
64.765 22.188576
64.770 21.739727
64.775 20.378672
64.780 20.518141
64.785 20.120392
64.790 19.721296
64.795 19.350361
64.800 19.307186
64.805 19.716352
64.810 20.547852
64.815 21.121099
64.820 21.465672
64.825 21.576637
64.830 21.207504
64.835 21.398565
64.840 21.686211
64.845 21.606117
64.850 20.824804
64.855 21.574574
64.860 21.749268
64.865 21.928257
64.870 21.846745
64.875 21.446966
64.880 20.573158
64.885 20.176207
64.890 18.988499
64.895 19.144398
64.900 19.51475
64.905 19.833557
64.910 20.091961
64.915 20.58601
64.920 20.506996
64.925 21.204849
64.930 21.382458
64.935 21.795004
64.940 21.76581
64.945 21.524643
64.950 21.777838
64.955 22.185207
64.960 22.130527
64.965 22.099947
64.970 21.485929
64.975 21.426735
64.980 21.86035
64.985 22.292772
64.990 22.304773
64.995 22.343126
65.000 22.675524
65.005 22.948427
65.010 23.164049
65.015 23.418249
65.020 23.462101
65.025 22.680029
65.030 22.596766
65.035 22.536932
65.040 22.451237
65.045 22.070337
65.050 21.510235
65.055 21.088774
65.060 21.958813
65.065 22.078802
65.070 21.713247
65.075 21.236429
65.080 21.716652
65.085 22.213194
65.090 21.859694
65.095 21.502075
65.100 21.477501
65.105 21.970436
65.110 22.447891
65.115 22.425529
65.120 22.331949
65.125 22.934464
65.130 23.081564
65.135 22.431126
65.140 22.067011
65.145 21.831158
65.150 21.333696
65.155 20.885736
65.160 21.302326
65.165 21.454556
65.170 21.608271
65.175 21.461716
65.180 20.912252
65.185 21.123587
65.190 21.15868
65.195 19.683138
65.200 19.164917
65.205 19.226158
65.210 19.114952
65.215 19.316339
65.220 19.127274
65.225 19.668911
65.230 21.16139
65.235 21.29579
65.240 20.896576
65.245 20.825531
65.250 20.858446
65.255 20.982395
65.260 20.787046
65.265 19.863903
65.270 19.741219
65.275 19.635946
65.280 19.487906
65.285 19.480913
65.290 19.521067
65.295 19.324528
65.300 18.378777
65.305 17.93442
65.310 17.888128
65.315 18.054899
65.320 18.166739
65.325 17.716553
65.330 17.789873
65.335 18.056231
65.340 18.309389
65.345 18.524744
65.350 18.825434
65.355 19.159691
65.360 19.188383
65.365 18.930477
65.370 19.341951
65.375 19.259563
65.380 19.775196
65.385 19.57078
65.390 18.876106
65.395 19.466116
65.400 19.523642
65.405 19.507427
65.410 20.563206
65.415 20.882774
65.420 20.968311
65.425 21.592733
65.430 21.419657
65.435 21.711052
65.440 22.123945
65.445 20.963358
65.450 20.433434
65.455 19.800856
65.460 19.055679
65.465 18.541513
65.470 18.16383
65.475 18.236681
65.480 19.164173
65.485 19.549761
65.490 20.389538
65.495 21.18709
65.500 21.672386
65.505 21.805166
65.510 21.504871
65.515 20.976408
65.520 20.57498
65.525 19.878674
65.530 19.80167
65.535 19.703732
65.540 20.037968
65.545 20.051977
65.550 20.193617
65.555 20.2813
65.560 20.336912
65.565 19.883307
65.570 19.612509
65.575 19.193529
65.580 19.63291
65.585 19.770208
65.590 20.195024
65.595 20.785511
65.600 20.850082
65.605 21.521248
65.610 21.44582
65.615 21.197756
65.620 21.090878
65.625 20.800158
65.630 20.558088
65.635 20.862209
65.640 20.488129
65.645 20.60667
65.650 20.822145
65.655 20.621906
65.660 20.833231
65.665 21.505352
65.670 21.001902
65.675 20.929962
65.680 21.236568
65.685 20.632034
65.690 20.689089
65.695 20.524162
65.700 20.054577
65.705 21.20709
65.710 21.911295
65.715 22.025494
65.720 22.559719
65.725 22.620483
65.730 22.694359
65.735 22.923876
65.740 22.478823
65.745 21.945778
65.750 22.525047
65.755 23.255705
65.760 23.277843
65.765 23.356195
65.770 23.610207
65.775 24.284019
65.780 24.892229
65.785 24.861015
65.790 24.610176
65.795 25.349091
65.800 25.618896
65.805 25.866966
65.810 25.542055
65.815 25.75342
65.820 25.413704
65.825 26.321688
65.830 26.332817
65.835 26.565348
65.840 27.161459
65.845 27.313072
65.850 27.58234
65.855 28.070004
65.860 27.797028
65.865 27.952227
65.870 28.008825
65.875 27.706154
65.880 28.10989
65.885 28.36076
65.890 29.079418
65.895 29.778273
65.900 30.119225
65.905 29.672739
65.910 29.79077
65.915 29.60285
65.920 29.91744
65.925 30.01379
65.930 30.132652
65.935 30.899338
65.940 32.282269
65.945 32.277653
65.950 32.35252
65.955 32.638767
65.960 32.945087
65.965 33.567669
65.970 33.260086
65.975 33.287651
65.980 34.020912
65.985 34.766987
65.990 35.416599
65.995 36.398815
66.000 37.022114
66.005 37.702785
66.010 38.024155
66.015 38.682453
66.020 38.813175
66.025 39.256374
66.030 39.136887
66.035 39.089294
66.040 39.234932
66.045 39.103157
66.050 39.273232
66.055 39.248051
66.060 39.189125
66.065 39.387325
66.070 39.594532
66.075 39.914932
66.080 40.785252
66.085 41.354427
66.090 41.931427
66.095 41.920918
66.100 42.6693
66.105 43.346642
66.110 44.277485
66.115 43.765991
66.120 43.672955
66.125 43.367626
66.130 43.977299
66.135 44.162624
66.140 44.159637
66.145 44.208393
66.150 43.744175
66.155 43.876156
66.160 44.339893
66.165 43.970184
66.170 43.943794
66.175 44.065498
66.180 43.915916
66.185 44.319916
66.190 43.765862
66.195 43.489525
66.200 43.597458
66.205 43.411003
66.210 43.012234
66.215 42.542786
66.220 42.918514
66.225 42.72728
66.230 42.690384
66.235 42.906242
66.240 43.232368
66.245 43.638172
66.250 43.85384
66.255 43.279652
66.260 43.053635
66.265 42.778675
66.270 41.501659
66.275 40.061081
66.280 38.93774
66.285 38.758568
66.290 39.516602
66.295 39.69529
66.300 39.092724
66.305 39.603188
66.310 39.412724
66.315 38.960762
66.320 38.928188
66.325 38.392742
66.330 38.732033
66.335 39.107754
66.340 38.55505
66.345 38.78091
66.350 37.924572
66.355 36.865543
66.360 35.967049
66.365 34.692707
66.370 34.438259
66.375 34.469013
66.380 34.008373
66.385 33.863228
66.390 34.161991
66.395 34.163403
66.400 34.212769
66.405 33.387428
66.410 32.564392
66.415 32.414665
66.420 32.341858
66.425 31.579123
66.430 31.267565
66.435 31.254772
66.440 30.940165
66.445 29.944246
66.450 28.889601
66.455 28.344492
66.460 27.869843
66.465 27.587578
66.470 27.512907
66.475 27.240089
66.480 28.688818
66.485 28.949638
66.490 28.844198
66.495 29.110477
66.500 29.130671
66.505 29.427921
66.510 29.315029
66.515 28.111515
66.520 27.658373
66.525 27.394299
66.530 26.722803
66.535 25.927435
66.540 24.982851
66.545 24.454536
66.550 23.29405
66.555 23.35824
66.560 23.236822
66.565 23.616564
66.570 23.852547
66.575 23.576792
66.580 23.634663
66.585 23.966848
66.590 24.032423
66.595 24.306688
66.600 23.792587
66.605 23.194778
66.610 22.921801
66.615 22.258093
66.620 21.916826
66.625 21.014671
66.630 20.326813
66.635 19.764917
66.640 19.782942
66.645 20.156872
66.650 20.605305
66.655 20.913452
66.660 21.307585
66.665 21.65521
66.670 22.061543
66.675 22.003819
66.680 22.116844
66.685 21.413605
66.690 21.319645
66.695 21.473696
66.700 20.952847
66.705 20.459152
66.710 20.097851
66.715 20.533915
66.720 20.779934
66.725 20.354528
66.730 19.918842
66.735 19.850916
66.740 19.709518
66.745 19.387554
66.750 18.76087
66.755 18.436821
66.760 18.894066
66.765 18.546247
66.770 18.753731
66.775 18.65188
66.780 18.718863
66.785 18.654629
66.790 18.411856
66.795 17.72398
66.800 18.166256
66.805 18.752893
66.810 18.852823
66.815 18.971016
66.820 18.690269
66.825 19.391115
66.830 19.30303
66.835 18.503912
66.840 17.76759
66.845 17.622873
66.850 17.765295
66.855 17.814386
66.860 17.183062
66.865 17.489044
66.870 18.451752
66.875 19.093302
66.880 18.843691
66.885 18.31341
66.890 17.951406
66.895 17.901575
66.900 17.104134
66.905 16.677113
66.910 16.917608
66.915 17.550447
66.920 18.450674
66.925 18.489676
66.930 18.683884
66.935 18.953753
66.940 18.586584
66.945 17.325348
66.950 16.717384
66.955 16.396492
66.960 16.938648
66.965 16.872246
66.970 16.481102
66.975 16.786409
66.980 17.404297
66.985 17.368782
66.990 17.36035
66.995 17.51807
67.000 18.286978
67.005 19.410488
67.010 19.326641
67.015 19.430326
67.020 19.884796
67.025 19.615871
67.030 19.087614
67.035 18.391336
67.040 17.894688
67.045 17.828346
67.050 17.974957
67.055 17.683767
67.060 18.328007
67.065 19.04114
67.070 18.942961
67.075 19.693661
67.080 19.567665
67.085 19.524349
67.090 19.441393
67.095 18.863682
67.100 18.493361
67.105 18.450159
67.110 18.336637
67.115 18.340441
67.120 18.221619
67.125 18.211121
67.130 18.202377
67.135 18.236652
67.140 18.503284
67.145 18.186861
67.150 18.349163
67.155 18.637394
67.160 18.710794
67.165 18.950481
67.170 18.360052
67.175 17.924017
67.180 17.81008
67.185 17.445875
67.190 17.508062
67.195 17.723713
67.200 17.543514
67.205 18.418068
67.210 18.764479
67.215 19.572319
67.220 20.028135
67.225 20.133801
67.230 19.760828
67.235 19.700209
67.240 19.144493
67.245 18.885427
67.250 18.521681
67.255 18.32765
67.260 18.148497
67.265 18.658916
67.270 18.516016
67.275 18.613672
67.280 18.2036
67.285 18.292273
67.290 18.123331
67.295 18.161373
67.300 18.082977
67.305 17.998049
67.310 18.000278
67.315 18.329334
67.320 18.124872
67.325 17.965628
67.330 17.606411
67.335 16.968014
67.340 17.191643
67.345 17.654242
67.350 17.437658
67.355 17.597612
67.360 17.958342
67.365 18.619459
67.370 19.314978
67.375 19.420687
67.380 19.623676
67.385 19.812471
67.390 19.576448
67.395 19.630835
67.400 19.415941
67.405 19.142336
67.410 19.12582
67.415 19.023184
67.420 19.336237
67.425 19.803928
67.430 19.57029
67.435 19.499268
67.440 19.383738
67.445 19.569483
67.450 19.162531
67.455 18.747417
67.460 17.966791
67.465 17.521883
67.470 17.154297
67.475 17.178318
67.480 16.690641
67.485 16.093874
67.490 16.139435
67.495 17.175814
67.500 17.529503
67.505 17.648827
67.510 18.110743
67.515 18.808203
67.520 19.624416
67.525 19.334225
67.530 18.811058
67.535 19.153305
67.540 18.999239
67.545 18.820398
67.550 18.818146
67.555 17.958958
67.560 18.217165
67.565 18.36097
67.570 18.40646
67.575 18.115768
67.580 17.794762
67.585 17.541508
67.590 17.818447
67.595 17.507524
67.600 17.881365
67.605 18.559406
67.610 18.868195
67.615 19.070951
67.620 19.787584
67.625 20.604187
67.630 20.629194
67.635 20.26403
67.640 19.806503
67.645 20.132254
67.650 19.946728
67.655 19.24262
67.660 18.554287
67.665 18.691082
67.670 18.685278
67.675 18.440519
67.680 18.352646
67.685 19.109348
67.690 19.374054
67.695 19.849842
67.700 19.066221
67.705 19.21604
67.710 19.183495
67.715 19.008072
67.720 18.627232
67.725 18.880777
67.730 19.011978
67.735 19.203856
67.740 19.09001
67.745 19.230116
67.750 18.923275
67.755 18.582561
67.760 18.122583
67.765 18.02943
67.770 17.596886
67.775 17.738203
67.780 17.821835
67.785 17.854445
67.790 18.352478
67.795 18.651518
67.800 19.021152
67.805 19.957033
67.810 19.574713
67.815 19.446587
67.820 19.660816
67.825 19.129517
67.830 19.161009
67.835 18.891768
67.840 18.402958
67.845 18.662655
67.850 18.492514
67.855 18.73069
67.860 18.586836
67.865 18.722027
67.870 19.169966
67.875 19.723217
67.880 19.466497
67.885 19.717337
67.890 19.32353
67.895 19.223263
67.900 19.135393
67.905 18.365005
67.910 17.976461
67.915 18.389919
67.920 18.530258
67.925 18.941866
67.930 19.220942
67.935 19.742006
67.940 20.360979
67.945 20.131519
67.950 20.267384
67.955 19.920176
67.960 19.876476
67.965 19.478283
67.970 18.78446
67.975 19.390371
67.980 19.486122
67.985 19.622255
67.990 19.732447
67.995 19.442631
68.000 19.758968
68.005 19.999403
68.010 19.942976
68.015 20.455564
68.020 20.297359
68.025 20.302771
68.030 20.169897
68.035 19.490568
68.040 19.162859
68.045 18.55757
68.050 17.877722
68.055 17.688463
68.060 18.116323
68.065 18.274954
68.070 18.131779
68.075 18.312309
68.080 18.579077
68.085 19.068014
68.090 19.073988
68.095 18.902819
68.100 19.10342
68.105 19.597776
68.110 20.045679
68.115 20.254496
68.120 20.534758
68.125 20.685179
68.130 20.745989
68.135 21.028469
68.140 20.822962
68.145 20.308277
68.150 20.527889
68.155 19.844677
68.160 19.862991
68.165 20.064819
68.170 19.558203
68.175 19.639708
68.180 19.851662
68.185 19.220045
68.190 19.558218
68.195 19.2575
68.200 19.31172
68.205 19.8179
68.210 19.981506
68.215 19.74691
68.220 19.76038
68.225 19.575441
68.230 19.458435
68.235 19.020498
68.240 18.902449
68.245 19.280821
68.250 19.178839
68.255 19.337465
68.260 19.687426
68.265 19.66548
68.270 19.359896
68.275 19.320332
68.280 19.384089
68.285 20.434952
68.290 20.494799
68.295 20.679256
68.300 21.268044
68.305 21.748158
68.310 21.625622
68.315 21.165306
68.320 20.888706
68.325 21.102293
68.330 20.114649
68.335 19.535622
68.340 19.414101
68.345 19.300098
68.350 19.001371
68.355 18.273834
68.360 17.965637
68.365 18.10071
68.370 18.572758
68.375 18.504469
68.380 18.780745
68.385 19.460735
68.390 19.664141
68.395 19.669376
68.400 19.53672
68.405 18.86059
68.410 18.411955
68.415 18.29393
68.420 18.335312
68.425 18.512833
68.430 18.074787
68.435 18.199066
68.440 18.611237
68.445 19.222189
68.450 19.323479
68.455 19.176643
68.460 19.412481
68.465 20.351604
68.470 20.364071
68.475 20.358213
68.480 19.904245
68.485 19.672972
68.490 19.548058
68.495 19.266529
68.500 18.57468
68.505 18.362053
68.510 18.198328
68.515 18.287308
68.520 17.933804
68.525 18.027071
68.530 18.11536
68.535 18.063629
68.540 18.547192
68.545 19.087595
68.550 19.202677
68.555 18.883055
68.560 18.473959
68.565 19.005993
68.570 19.207041
68.575 18.856644
68.580 18.815084
68.585 19.276524
68.590 19.726318
68.595 19.725792
68.600 19.579073
68.605 20.002241
68.610 21.084694
68.615 21.404594
68.620 20.895079
68.625 20.782457
68.630 21.098068
68.635 21.0949
68.640 20.466574
68.645 19.707491
68.650 19.095123
68.655 19.520994
68.660 18.869015
68.665 18.130812
68.670 18.543695
68.675 18.941095
68.680 19.287237
68.685 19.692476
68.690 20.095776
68.695 20.681452
68.700 20.286224
68.705 20.090103
68.710 19.866343
68.715 19.225769
68.720 18.589138
68.725 18.69471
68.730 18.813421
68.735 19.246962
68.740 19.363386
68.745 19.687099
68.750 20.028551
68.755 20.114521
68.760 20.104937
68.765 20.648218
68.770 21.011736
68.775 20.893847
68.780 21.005772
68.785 21.015631
68.790 20.980639
68.795 21.246748
68.800 21.027857
68.805 20.915892
68.810 20.580849
68.815 20.478888
68.820 21.055283
68.825 21.732864
68.830 21.528997
68.835 21.799685
68.840 21.803514
68.845 22.046185
68.850 21.96656
68.855 21.821959
68.860 21.498383
68.865 21.921364
68.870 22.302835
68.875 22.190403
68.880 22.088739
68.885 21.515179
68.890 21.845095
68.895 22.184086
68.900 22.057785
68.905 22.748503
68.910 23.276203
68.915 24.201385
68.920 25.276781
68.925 24.646198
68.930 24.224607
68.935 24.1705
68.940 23.623859
68.945 23.732521
68.950 23.313906
68.955 23.179325
68.960 23.680519
68.965 23.859518
68.970 24.000059
68.975 24.045038
68.980 24.416664
68.985 24.627478
68.990 24.299574
68.995 24.358107
69.000 25.112034
69.005 26.059292
69.010 26.784601
69.015 25.746845
69.020 25.877048
69.025 26.22385
69.030 26.648907
69.035 26.265581
69.040 26.071396
69.045 26.090321
69.050 26.99192
69.055 27.356548
69.060 27.564711
69.065 26.875914
69.070 26.68305
69.075 26.509769
69.080 26.363068
69.085 26.077604
69.090 26.121462
69.095 26.321421
69.100 27.009455
69.105 27.492867
69.110 28.246553
69.115 28.71524
69.120 29.829588
69.125 29.884525
69.130 30.228786
69.135 30.665277
69.140 31.530849
69.145 31.598396
69.150 31.470688
69.155 31.083725
69.160 30.981869
69.165 30.914896
69.170 30.710909
69.175 30.639688
69.180 30.544561
69.185 30.678225
69.190 31.724512
69.195 33.087505
69.200 33.459274
69.205 33.693996
69.210 33.72596
69.215 34.555702
69.220 35.511391
69.225 35.305294
69.230 34.995701
69.235 34.751072
69.240 35.126244
69.245 35.226944
69.250 34.820641
69.255 34.246647
69.260 34.532295
69.265 35.078041
69.270 35.175007
69.275 35.001015
69.280 35.27071
69.285 34.822262
69.290 35.000668
69.295 34.296524
69.300 33.997185
69.305 34.364143
69.310 34.769356
69.315 35.783024
69.320 36.095108
69.325 36.182304
69.330 36.650688
69.335 36.269657
69.340 36.540684
69.345 36.674873
69.350 36.949936
69.355 37.931587
69.360 37.948593
69.365 38.503731
69.370 39.162609
69.375 38.861115
69.380 37.851673
69.385 36.815357
69.390 36.112263
69.395 35.738091
69.400 35.091679
69.405 33.778255
69.410 33.506592
69.415 33.84483
69.420 34.445297
69.425 34.82185
69.430 34.623997
69.435 35.125969
69.440 36.297443
69.445 36.79184
69.450 37.040909
69.455 36.483948
69.460 35.962139
69.465 35.579109
69.470 35.69051
69.475 35.489208
69.480 34.878689
69.485 34.222565
69.490 33.59697
69.495 33.969604
69.500 33.829441
69.505 33.620068
69.510 33.45174
69.515 33.271294
69.520 32.492805
69.525 32.565006
69.530 32.680542
69.535 32.781425
69.540 31.612614
69.545 31.240919
69.550 31.385551
69.555 32.215405
69.560 31.99633
69.565 31.403059
69.570 31.73638
69.575 32.294762
69.580 31.716085
69.585 30.96139
69.590 30.161951
69.595 30.088961
69.600 29.631746
69.605 28.679062
69.610 28.437952
69.615 28.865252
69.620 28.775406
69.625 28.012449
69.630 27.91045
69.635 27.887094
69.640 27.875288
69.645 27.871662
69.650 27.282999
69.655 27.125578
69.660 27.475088
69.665 27.061827
69.670 26.612125
69.675 26.906597
69.680 26.851393
69.685 26.898849
69.690 26.284676
69.695 26.224417
69.700 26.487261
69.705 26.650692
69.710 25.468901
69.715 24.834143
69.720 23.676634
69.725 23.749233
69.730 23.368273
69.735 22.893711
69.740 22.951323
69.745 22.934589
69.750 23.287699
69.755 23.658777
69.760 23.814068
69.765 23.644522
69.770 23.741127
69.775 23.28241
69.780 23.01985
69.785 23.35799
69.790 23.42359
69.795 22.993584
69.800 21.998863
69.805 21.899958
69.810 22.415682
69.815 22.446466
69.820 22.606068
69.825 22.628513
69.830 22.436335
69.835 23.219168
69.840 22.259262
69.845 22.156879
69.850 21.991993
69.855 21.515057
69.860 21.084311
69.865 21.140165
69.870 20.760538
69.875 21.217308
69.880 20.73381
69.885 21.087591
69.890 20.935984
69.895 20.342058
69.900 19.982603
69.905 19.571472
69.910 19.202654
69.915 18.928806
69.920 18.659941
69.925 18.710403
69.930 19.568996
69.935 19.903109
69.940 20.230608
69.945 19.989014
69.950 19.876747
69.955 19.394159
69.960 19.214727
69.965 18.56204
69.970 18.253664
69.975 18.517399
69.980 19.190256
69.985 19.899326
69.990 20.199842
69.995 20.867359
70.000 21.642111
70.005 21.277651
70.010 21.361607
70.015 21.311626
70.020 20.378359
70.025 20.148434
70.030 19.102238
70.035 19.050394
70.040 19.045044
70.045 18.59767
70.050 18.227718
70.055 18.129015
70.060 17.844511
70.065 18.635227
70.070 19.206427
70.075 19.954611
70.080 20.198343
70.085 20.532444
70.090 21.325464
70.095 21.755009
70.100 20.815443
70.105 20.291262
70.110 19.563148
70.115 19.276741
70.120 19.475801
70.125 19.237976
70.130 18.829479
70.135 18.334644
70.140 18.398228
70.145 18.398323
70.150 18.335131
70.155 18.311026
70.160 18.572128
70.165 18.926435
70.170 19.393427
70.175 19.372021
70.180 19.46468
70.185 19.377264
70.190 18.801107
70.195 18.574295
70.200 18.812021
70.205 18.585672
70.210 18.250368
70.215 18.099075
70.220 18.399899
70.225 18.757263
70.230 18.655865
70.235 18.266499
70.240 17.900009
70.245 18.030092
70.250 17.924913
70.255 18.023302
70.260 17.826281
70.265 18.189087
70.270 19.193928
70.275 19.609041
70.280 19.706833
70.285 19.205868
70.290 18.629171
70.295 19.224003
70.300 18.244244
70.305 17.494963
70.310 17.490261
70.315 18.253319
70.320 18.391685
70.325 18.240231
70.330 18.061838
70.335 18.44895
70.340 18.922794
70.345 18.454397
70.350 17.542959
70.355 17.436354
70.360 17.021366
70.365 16.79862
70.370 17.276182
70.375 17.293476
70.380 17.678707
70.385 17.871735
70.390 18.510389
70.395 18.882296
70.400 18.48674
70.405 18.527037
70.410 19.329899
70.415 18.749994
70.420 19.1101
70.425 18.926662
70.430 18.735409
70.435 18.748459
70.440 18.141138
70.445 17.153391
70.450 17.536434
70.455 17.811985
70.460 17.699703
70.465 17.796381
70.470 17.80131
70.475 17.599201
70.480 17.432262
70.485 17.456646
70.490 17.05797
70.495 17.837654
70.500 18.113457
70.505 17.896273
70.510 17.974997
70.515 18.557526
70.520 18.394659
70.525 18.486526
70.530 18.283838
70.535 18.157724
70.540 18.201653
70.545 18.579594
70.550 18.570795
70.555 18.75724
70.560 18.398306
70.565 18.189808
70.570 18.193508
70.575 17.958065
70.580 17.651501
70.585 17.52026
70.590 17.116522
70.595 16.783188
70.600 16.860283
70.605 17.164362
70.610 17.176498
70.615 16.859108
70.620 16.745472
70.625 17.018078
70.630 17.641539
70.635 18.205082
70.640 17.774345
70.645 17.775259
70.650 18.492012
70.655 18.558386
70.660 18.321751
70.665 17.658974
70.670 17.560202
70.675 18.111403
70.680 17.996719
70.685 18.073181
70.690 18.178337
70.695 18.345888
70.700 18.369932
70.705 18.251789
70.710 18.678617
70.715 18.72578
70.720 18.747025
70.725 18.915264
70.730 18.743488
70.735 18.719273
70.740 18.768847
70.745 18.760502
70.750 18.336401
70.755 17.771643
70.760 18.302347
70.765 18.204384
70.770 18.285725
70.775 18.153774
70.780 17.698116
70.785 17.359243
70.790 17.132343
70.795 16.518543
70.800 16.521811
70.805 16.184519
70.810 15.796183
70.815 16.210342
70.820 17.469746
70.825 17.739771
70.830 18.076574
70.835 18.468702
70.840 18.715878
70.845 18.742109
70.850 18.383974
70.855 17.928734
70.860 17.462971
70.865 17.468719
70.870 17.118715
70.875 17.213173
70.880 18.007185
70.885 18.377853
70.890 18.757353
70.895 19.06226
70.900 18.976192
70.905 19.167131
70.910 19.234608
70.915 18.989361
70.920 19.341408
70.925 19.323034
70.930 18.904499
70.935 18.637968
70.940 18.657848
70.945 18.543533
70.950 18.399147
70.955 17.756824
70.960 17.891544
70.965 18.085243
70.970 18.037079
70.975 17.637722
70.980 17.359224
70.985 17.109598
70.990 16.722853
70.995 16.485836
71.000 16.962435
71.005 17.006107
71.010 17.153717
71.015 17.355473
71.020 17.53956
71.025 18.204254
71.030 18.032375
71.035 17.658096
71.040 17.825403
71.045 17.217077
71.050 17.18685
71.055 17.534536
71.060 17.955515
71.065 18.064913
71.070 18.299206
71.075 18.465319
71.080 18.469179
71.085 18.167814
71.090 17.620184
71.095 16.921606
71.100 16.399952
71.105 16.198715
71.110 16.401649
71.115 16.884949
71.120 16.852657
71.125 16.88986
71.130 16.872374
71.135 17.520853
71.140 17.828135
71.145 17.700129
71.150 17.848513
71.155 18.11655
71.160 18.244595
71.165 18.676271
71.170 18.870037
71.175 18.642735
71.180 18.113564
71.185 17.628078
71.190 17.478807
71.195 17.860521
71.200 16.96167
71.205 16.455381
71.210 16.67474
71.215 16.868357
71.220 16.83815
71.225 16.985897
71.230 16.672325
71.235 17.296318
71.240 18.034033
71.245 18.097019
71.250 18.008081
71.255 18.34013
71.260 17.94558
71.265 18.483574
71.270 18.55434
71.275 17.716024
71.280 17.154621
71.285 17.096855
71.290 16.925228
71.295 16.66366
71.300 16.359295
71.305 16.121592
71.310 16.723495
71.315 17.674927
71.320 18.241117
71.325 18.806236
71.330 19.140539
71.335 18.895905
71.340 18.921379
71.345 18.803839
71.350 18.434607
71.355 18.199093
71.360 18.302153
71.365 18.044397
71.370 18.293255
71.375 18.354301
71.380 17.990795
71.385 17.545153
71.390 17.483765
71.395 17.436031
71.400 17.396198
71.405 17.434433
71.410 17.832514
71.415 18.235661
71.420 18.509747
71.425 18.230278
71.430 18.457911
71.435 18.825735
71.440 18.849495
71.445 18.527622
71.450 18.456871
71.455 18.950853
71.460 18.865267
71.465 18.753145
71.470 18.031107
71.475 17.875322
71.480 18.236506
71.485 17.914907
71.490 17.335045
71.495 17.273769
71.500 17.266357
71.505 18.527849
71.510 18.716881
71.515 19.229795
71.520 19.216759
71.525 19.346291
71.530 19.523672
71.535 18.786985
71.540 17.769396
71.545 17.202452
71.550 16.73682
71.555 16.770185
71.560 16.897987
71.565 16.814724
71.570 16.916292
71.575 17.1115
71.580 17.435953
71.585 17.855625
71.590 18.164993
71.595 18.310144
71.600 18.791954
71.605 18.664064
71.610 19.352163
71.615 18.742245
71.620 18.532122
71.625 18.281958
71.630 18.073801
71.635 17.561516
71.640 17.30106
71.645 17.208473
71.650 17.458954
71.655 17.187092
71.660 17.285975
71.665 17.457914
71.670 18.008654
71.675 18.038557
71.680 17.875957
71.685 17.757557
71.690 18.238237
71.695 18.149982
71.700 18.188017
71.705 18.054998
71.710 17.745493
71.715 17.704695
71.720 17.949305
71.725 17.967674
71.730 17.823191
71.735 17.351145
71.740 16.913876
71.745 16.683836
71.750 16.788965
71.755 16.77813
71.760 16.870075
71.765 17.138704
71.770 17.227953
71.775 17.594797
71.780 17.297598
71.785 17.158064
71.790 17.143688
71.795 16.808094
71.800 16.648247
71.805 16.656145
71.810 17.323763
71.815 17.988073
71.820 17.731712
71.825 17.020052
71.830 17.151447
71.835 17.080673
71.840 17.689163
71.845 17.574934
71.850 17.406658
71.855 17.664097
71.860 17.047388
71.865 16.84193
71.870 17.16889
71.875 17.526649
71.880 17.723476
71.885 17.515532
71.890 17.224161
71.895 18.0205
71.900 17.862995
71.905 17.607649
71.910 17.275484
71.915 16.973747
71.920 16.77149
71.925 16.804827
71.930 16.545189
71.935 16.809271
71.940 16.511583
71.945 15.978541
71.950 15.948614
71.955 16.321632
71.960 17.029732
71.965 16.78949
71.970 16.88698
71.975 17.034393
71.980 17.719387
71.985 17.511805
71.990 17.314804
71.995 17.527332
72.000 18.094257
72.005 17.910641
72.010 18.039509
72.015 17.718533
72.020 17.937094
72.025 17.993847
72.030 17.618727
72.035 17.756969
72.040 17.540541
72.045 17.223642
72.050 17.062302
72.055 17.165913
72.060 17.599176
72.065 17.102713
72.070 16.595339
72.075 16.300323
72.080 16.634647
72.085 16.787987
72.090 16.378757
72.095 16.252129
72.100 16.713501
72.105 16.941006
72.110 16.978851
72.115 16.420458
72.120 17.240662
72.125 17.852552
72.130 17.774906
72.135 18.325796
72.140 18.286182
72.145 18.661203
72.150 18.965796
72.155 17.753443
72.160 17.503916
72.165 17.648605
72.170 17.379238
72.175 16.975292
72.180 16.381716
72.185 16.88776
72.190 17.003498
72.195 17.141474
72.200 17.108269
72.205 17.205873
72.210 17.543787
72.215 17.402044
72.220 17.068295
72.225 17.012325
72.230 16.559559
72.235 16.449409
72.240 16.592258
72.245 16.89687
72.250 17.28739
72.255 17.328201
72.260 16.927147
72.265 16.591272
72.270 16.89378
72.275 16.957426
72.280 17.128637
72.285 17.103813
72.290 17.473076
72.295 17.433319
72.300 17.495831
72.305 17.437136
72.310 17.398325
72.315 17.432764
72.320 17.131262
72.325 16.570826
72.330 17.670439
72.335 17.966587
72.340 17.926567
72.345 17.645134
72.350 17.678556
72.355 17.74176
72.360 18.010674
72.365 17.342777
72.370 16.574053
72.375 16.361578
72.380 16.556168
72.385 16.842232
72.390 17.623127
72.395 17.737139
72.400 17.555984
72.405 18.178864
72.410 18.111574
72.415 17.508818
72.420 16.896755
72.425 16.401428
72.430 16.781963
72.435 17.139318
72.440 16.728243
72.445 16.922571
72.450 17.341013
72.455 17.268213
72.460 17.042107
72.465 16.369184
72.470 16.349979
72.475 16.573528
72.480 16.578491
72.485 16.252977
72.490 16.24061
72.495 16.285763
72.500 16.346773
72.505 16.545223
72.510 16.44491
72.515 16.571075
72.520 16.865408
72.525 16.657066
72.530 16.877428
72.535 16.879654
72.540 16.524878
72.545 16.493567
72.550 16.04487
72.555 15.7891
72.560 15.816648
72.565 15.998067
72.570 16.148592
72.575 16.388016
72.580 16.658165
72.585 17.321142
72.590 18.131432
72.595 17.79974
72.600 17.609795
72.605 17.694527
72.610 17.795462
72.615 17.673832
72.620 17.367325
72.625 18.035967
72.630 18.476269
72.635 18.590942
72.640 18.096155
72.645 17.606548
72.650 18.058657
72.655 17.892294
72.660 17.707771
72.665 17.524462
72.670 17.917721
72.675 17.975803
72.680 17.64917
72.685 16.742302
72.690 15.979489
72.695 15.52542
72.700 14.796255
72.705 15.073893
72.710 15.188102
72.715 15.633444
72.720 16.353374
72.725 17.168819
72.730 18.028223
72.735 18.698906
72.740 18.580437
72.745 18.877314
72.750 18.415751
72.755 17.769461
72.760 17.561975
72.765 16.612728
72.770 15.844494
72.775 15.559105
72.780 15.536617
72.785 16.021299
72.790 16.730921
72.795 16.444937
72.800 16.975815
72.805 17.39926
72.810 17.62809
72.815 17.703445
72.820 17.108339
72.825 16.942852
72.830 16.779097
72.835 17.162703
72.840 17.364008
72.845 17.377405
72.850 17.126606
72.855 17.577972
72.860 17.438009
72.865 17.372458
72.870 17.070383
72.875 16.551292
72.880 16.515779
72.885 16.662861
72.890 16.432138
72.895 16.430977
72.900 15.938374
72.905 16.003033
72.910 16.12006
72.915 15.785024
72.920 15.923766
72.925 16.166464
72.930 16.479445
72.935 17.131262
72.940 17.396036
72.945 17.402657
72.950 17.305456
72.955 16.740929
72.960 16.810732
72.965 16.178478
72.970 15.705182
72.975 15.451773
72.980 15.519213
72.985 15.532076
72.990 15.271066
72.995 15.402387
73.000 15.424138
