!@!!GADDS PLOTSO FILE: Chi integration type
!@!!Title/SampleName: map-c5
!@!!Comment: ?
!@!!User: Bruker Instrument Administrator
!@!!Site: University of Illinois Chicago
!@!!Frame: map-c5_01_000.gfrm
!@!!Wavelengths    1.54184   1.54056   1.54439
!@!!Frame angles: 2Theta: 63.000 Omega: 50.000 Phi: 0.000 Chi: 90.000
!@!!Integration range: 2Theta: 53.000 to 73.000  Gamma: -105.000 to -75.000
!@!!Integration method: bin normalized
!@!N
!@!SS
!@!M
!@!L 0.0 0.0 0.0 0.0
!@!XDegrees
!@!YCounts
53.000 7.662829
53.005 7.463912
53.010 7.287611
53.015 6.914947
53.020 7.037132
53.025 7.680744
53.030 8.182126
53.035 8.632717
53.040 8.829754
53.045 9.038586
53.050 8.837499
53.055 8.382327
53.060 8.381889
53.065 8.523855
53.070 8.245128
53.075 8.465789
53.080 9.117016
53.085 9.433246
53.090 9.519969
53.095 8.766521
53.100 8.582567
53.105 8.471927
53.110 7.895349
53.115 7.591006
53.120 7.5492
53.125 8.010927
53.130 7.926058
53.135 8.219448
53.140 8.624881
53.145 8.640638
53.150 8.598099
53.155 8.730353
53.160 8.619074
53.165 8.84838
53.170 9.049322
53.175 9.778155
53.180 9.954212
53.185 9.802553
53.190 9.703506
53.195 9.852882
53.200 9.521153
53.205 9.130569
53.210 9.120988
53.215 9.66932
53.220 9.872429
53.225 9.774507
53.230 9.910728
53.235 10.317231
53.240 10.344941
53.245 9.828179
53.250 9.835538
53.255 9.877643
53.260 10.203401
53.265 9.85507
53.270 9.392613
53.275 9.312608
53.280 9.229701
53.285 8.940171
53.290 8.442219
53.295 8.396762
53.300 8.568212
53.305 8.645385
53.310 8.387938
53.315 8.267735
53.320 8.123751
53.325 8.343881
53.330 8.289881
53.335 8.602796
53.340 8.989376
53.345 9.445921
53.350 9.427758
53.355 9.54324
53.360 9.374693
53.365 9.442517
53.370 9.193233
53.375 8.833385
53.380 8.951557
53.385 8.885906
53.390 8.96971
53.395 9.444577
53.400 9.809617
53.405 10.010683
53.410 9.635164
53.415 9.211109
53.420 9.254153
53.425 9.290788
53.430 9.112713
53.435 8.46858
53.440 8.319652
53.445 7.943224
53.450 8.428436
53.455 8.61954
53.460 8.178081
53.465 8.641136
53.470 9.22243
53.475 9.89751
53.480 10.293542
53.485 10.170553
53.490 10.324343
53.495 10.245236
53.500 9.365962
53.505 8.969316
53.510 8.3643
53.515 8.659673
53.520 9.165489
53.525 9.252858
53.530 9.715319
53.535 9.846836
53.540 9.69945
53.545 9.735746
53.550 8.907206
53.555 8.605966
53.560 8.456093
53.565 8.483383
53.570 9.134845
53.575 9.814606
53.580 10.227568
53.585 10.39092
53.590 10.281874
53.595 10.401295
53.600 9.770592
53.605 9.283063
53.610 8.768058
53.615 8.605816
53.620 8.298587
53.625 8.155999
53.630 8.177906
53.635 8.691957
53.640 9.117569
53.645 9.566947
53.650 9.77763
53.655 10.05564
53.660 10.030448
53.665 9.936388
53.670 9.561425
53.675 8.926528
53.680 8.531408
53.685 8.64481
53.690 8.698358
53.695 9.167799
53.700 9.485648
53.705 9.616241
53.710 9.945153
53.715 10.205333
53.720 10.006541
53.725 10.252744
53.730 9.922117
53.735 10.19482
53.740 10.050758
53.745 10.033908
53.750 10.065193
53.755 10.304478
53.760 10.24406
53.765 10.355072
53.770 10.382701
53.775 10.717207
53.780 10.815911
53.785 10.64257
53.790 10.26937
53.795 10.040249
53.800 10.055388
53.805 9.910424
53.810 9.592166
53.815 9.479808
53.820 9.808598
53.825 10.314788
53.830 10.295186
53.835 9.825057
53.840 9.532358
53.845 9.4993
53.850 9.653959
53.855 9.63416
53.860 9.290826
53.865 9.561146
53.870 9.9676
53.875 10.049225
53.880 10.503054
53.885 10.432185
53.890 10.357299
53.895 10.896021
53.900 10.537864
53.905 10.704121
53.910 10.761295
53.915 10.055122
53.920 9.774319
53.925 9.523946
53.930 9.112973
53.935 8.927314
53.940 8.659552
53.945 8.601777
53.950 8.697942
53.955 8.92484
53.960 8.896843
53.965 9.718685
53.970 9.808228
53.975 10.277719
53.980 9.791941
53.985 9.575895
53.990 9.613395
53.995 9.499308
54.000 9.098678
54.005 8.716284
54.010 8.460263
54.015 8.849147
54.020 8.846135
54.025 8.751668
54.030 8.975924
54.035 9.418818
54.040 10.028787
54.045 10.277339
54.050 10.539628
54.055 10.538162
54.060 10.338111
54.065 9.432936
54.070 8.874192
54.075 8.345009
54.080 8.225258
54.085 8.166898
54.090 8.7025
54.095 8.863414
54.100 9.416983
54.105 9.735578
54.110 9.920575
54.115 10.067163
54.120 10.139805
54.125 10.057109
54.130 10.202095
54.135 10.017879
54.140 10.117515
54.145 9.838526
54.150 9.429658
54.155 9.290629
54.160 9.074678
54.165 8.852119
54.170 8.963549
54.175 8.760496
54.180 9.161619
54.185 9.380856
54.190 9.347672
54.195 9.344076
54.200 9.427161
54.205 9.598027
54.210 9.996294
54.215 9.808733
54.220 9.748679
54.225 9.930077
54.230 10.209846
54.235 10.465901
54.240 10.437348
54.245 10.283978
54.250 10.623778
54.255 10.454971
54.260 10.553663
54.265 10.417301
54.270 9.99205
54.275 10.107611
54.280 10.245436
54.285 10.796169
54.290 11.210564
54.295 11.189386
54.300 11.080697
54.305 11.258075
54.310 11.40362
54.315 11.727747
54.320 11.187214
54.325 11.13919
54.330 11.444201
54.335 12.000091
54.340 12.44965
54.345 12.318685
54.350 11.616783
54.355 11.61753
54.360 11.796244
54.365 11.701463
54.370 11.222599
54.375 10.840478
54.380 10.530935
54.385 10.890272
54.390 11.187657
54.395 10.820731
54.400 10.906333
54.405 10.988218
54.410 10.376828
54.415 10.463055
54.420 10.375686
54.425 10.163624
54.430 10.350822
54.435 10.286905
54.440 10.31994
54.445 10.901528
54.450 10.80474
54.455 10.459591
54.460 10.251223
54.465 9.766887
54.470 9.735155
54.475 10.18991
54.480 10.254638
54.485 10.313174
54.490 10.407887
54.495 10.302063
54.500 10.048314
54.505 9.788845
54.510 9.004282
54.515 8.876706
54.520 8.900284
54.525 9.242315
54.530 9.439995
54.535 9.680373
54.540 9.955211
54.545 10.321307
54.550 10.550917
54.555 10.213748
54.560 10.059579
54.565 10.433044
54.570 10.138873
54.575 9.469185
54.580 9.510342
54.585 10.062425
54.590 10.254386
54.595 10.474631
54.600 10.144277
54.605 10.635186
54.610 10.757469
54.615 10.388304
54.620 10.588696
54.625 10.978307
54.630 11.011203
54.635 11.336191
54.640 11.101548
54.645 11.426267
54.650 10.766254
54.655 10.109836
54.660 10.094726
54.665 10.278343
54.670 10.169065
54.675 10.999923
54.680 11.521349
54.685 11.920811
54.690 12.006561
54.695 11.748386
54.700 11.349432
54.705 11.198273
54.710 10.504091
54.715 10.193521
54.720 10.524098
54.725 10.587982
54.730 10.555335
54.735 11.091812
54.740 11.327964
54.745 11.555472
54.750 11.540163
54.755 11.034766
54.760 10.585002
54.765 10.642645
54.770 10.480298
54.775 10.279805
54.780 10.470448
54.785 11.03957
54.790 11.271047
54.795 11.299067
54.800 11.06126
54.805 10.988784
54.810 10.642244
54.815 10.025938
54.820 9.639119
54.825 9.86923
54.830 9.825862
54.835 9.902956
54.840 9.780634
54.845 10.113418
54.850 10.458988
54.855 10.922569
54.860 11.041735
54.865 11.460172
54.870 11.794433
54.875 11.835225
54.880 12.425125
54.885 12.224624
54.890 11.647019
54.895 11.609408
54.900 11.232588
54.905 11.165638
54.910 11.276818
54.915 11.686601
54.920 11.572983
54.925 11.743641
54.930 11.45824
54.935 11.684811
54.940 11.687943
54.945 11.663499
54.950 11.384218
54.955 11.731427
54.960 11.854409
54.965 11.81451
54.970 11.506032
54.975 11.484817
54.980 11.357189
54.985 11.067005
54.990 10.508229
54.995 10.432195
55.000 10.858948
55.005 11.409828
55.010 11.174376
55.015 10.724918
55.020 11.05675
55.025 11.402485
55.030 11.627279
55.035 11.703814
55.040 11.562591
55.045 12.030285
55.050 12.055048
55.055 11.637885
55.060 11.409623
55.065 10.986732
55.070 10.395861
55.075 10.373925
55.080 10.631928
55.085 10.688619
55.090 10.697601
55.095 11.421666
55.100 11.679002
55.105 11.788102
55.110 11.473516
55.115 10.809096
55.120 11.189198
55.125 11.172088
55.130 11.426936
55.135 11.468528
55.140 11.845557
55.145 12.022589
55.150 12.167243
55.155 12.416395
55.160 12.307278
55.165 12.039398
55.170 12.280869
55.175 11.986393
55.180 11.867184
55.185 11.896988
55.190 11.695058
55.195 11.290739
55.200 10.8725
55.205 10.244465
55.210 10.081313
55.215 10.659195
55.220 10.327322
55.225 10.356441
55.230 10.843578
55.235 11.222117
55.240 11.55363
55.245 11.349666
55.250 10.613777
55.255 10.989411
55.260 10.813428
55.265 10.148649
55.270 9.969592
55.275 10.018789
55.280 10.601231
55.285 10.913239
55.290 10.99623
55.295 11.312033
55.300 11.570169
55.305 11.472205
55.310 11.420568
55.315 11.057353
55.320 11.150804
55.325 10.850487
55.330 10.822005
55.335 10.575305
55.340 10.285769
55.345 10.115856
55.350 10.091369
55.355 10.244797
55.360 10.692546
55.365 10.397202
55.370 10.566837
55.375 11.078938
55.380 11.309525
55.385 11.035653
55.390 10.808741
55.395 10.823596
55.400 11.472214
55.405 11.787726
55.410 11.805605
55.415 12.187147
55.420 12.385127
55.425 12.52922
55.430 12.336323
55.435 12.003295
55.440 11.944569
55.445 12.030754
55.450 11.719697
55.455 11.760006
55.460 11.220034
55.465 11.227524
55.470 11.701854
55.475 11.714156
55.480 11.395273
55.485 11.470691
55.490 11.339735
55.495 11.947034
55.500 11.941426
55.505 11.186679
55.510 11.104918
55.515 11.183751
55.520 11.167431
55.525 10.90291
55.530 10.314281
55.535 10.435978
55.540 10.730299
55.545 10.500652
55.550 10.760433
55.555 10.900717
55.560 10.868818
55.565 11.044804
55.570 11.123206
55.575 11.147053
55.580 11.424842
55.585 11.409691
55.590 11.994151
55.595 12.514894
55.600 12.366084
55.605 12.061056
55.610 12.058257
55.615 12.01629
55.620 12.184883
55.625 11.590986
55.630 11.024587
55.635 11.101089
55.640 11.298404
55.645 11.660767
55.650 11.575889
55.655 11.097432
55.660 11.494443
55.665 12.297154
55.670 12.333082
55.675 11.791906
55.680 10.958418
55.685 10.671619
55.690 10.275031
55.695 9.722349
55.700 8.503136
55.705 8.307758
55.710 8.837173
55.715 9.050804
55.720 9.470781
55.725 10.019185
55.730 10.250488
55.735 10.816872
55.740 10.998673
55.745 10.959417
55.750 11.215463
55.755 10.827989
55.760 10.558561
55.765 10.924978
55.770 11.261157
55.775 11.313891
55.780 11.494221
55.785 11.555415
55.790 12.127883
55.795 12.187699
55.800 11.847587
55.805 11.977227
55.810 11.945662
55.815 11.786514
55.820 11.708868
55.825 11.058917
55.830 11.330689
55.835 11.383605
55.840 11.711338
55.845 12.184277
55.850 11.999545
55.855 12.112003
55.860 12.273593
55.865 11.896264
55.870 11.602908
55.875 11.049877
55.880 10.537313
55.885 10.97138
55.890 11.112499
55.895 10.927284
55.900 10.798657
55.905 10.768062
55.910 10.759117
55.915 10.899885
55.920 10.780891
55.925 11.254142
55.930 11.825312
55.935 12.050779
55.940 12.564473
55.945 13.209262
55.950 13.941988
55.955 13.891237
55.960 13.584449
55.965 13.649461
55.970 14.004975
55.975 13.905705
55.980 13.044864
55.985 12.366006
55.990 12.257925
55.995 12.427217
56.000 12.171472
56.005 11.973306
56.010 11.902099
56.015 11.715936
56.020 11.405963
56.025 11.191802
56.030 11.165575
56.035 11.494614
56.040 11.104872
56.045 10.545468
56.050 10.701589
56.055 11.013198
56.060 10.638143
56.065 10.21632
56.070 10.340581
56.075 10.692788
56.080 10.638708
56.085 10.693986
56.090 11.060482
56.095 11.370149
56.100 11.707552
56.105 11.549119
56.110 11.453995
56.115 11.80405
56.120 11.452334
56.125 10.908495
56.130 10.585587
56.135 10.626205
56.140 11.042767
56.145 11.645948
56.150 12.535827
56.155 13.005469
56.160 13.779431
56.165 14.264518
56.170 13.714322
56.175 13.092856
56.180 11.932991
56.185 10.885743
56.190 10.910305
56.195 10.629576
56.200 10.76546
56.205 11.037718
56.210 11.939728
56.215 12.957881
56.220 13.450803
56.225 13.863679
56.230 13.855911
56.235 14.197194
56.240 13.830395
56.245 13.504402
56.250 13.291768
56.255 12.867929
56.260 12.512366
56.265 12.007589
56.270 11.290529
56.275 11.604091
56.280 11.349648
56.285 11.435502
56.290 11.268539
56.295 11.257618
56.300 11.92165
56.305 12.197239
56.310 11.47164
56.315 11.162511
56.320 10.971531
56.325 11.024682
56.330 10.642956
56.335 10.766174
56.340 10.756413
56.345 11.069952
56.350 11.328361
56.355 11.490284
56.360 11.753122
56.365 12.25741
56.370 12.347759
56.375 12.283426
56.380 12.65063
56.385 12.982869
56.390 13.362113
56.395 13.428045
56.400 13.342112
56.405 13.170908
56.410 12.846733
56.415 12.411499
56.420 12.061069
56.425 11.815537
56.430 11.803044
56.435 11.573817
56.440 11.226388
56.445 11.859488
56.450 11.649453
56.455 11.309228
56.460 10.905646
56.465 10.273156
56.470 10.987724
56.475 11.622548
56.480 11.639731
56.485 12.11522
56.490 12.308563
56.495 12.482684
56.500 12.579123
56.505 11.794073
56.510 11.751593
56.515 11.374174
56.520 11.333121
56.525 11.534238
56.530 11.703701
56.535 12.112954
56.540 12.238922
56.545 12.12925
56.550 12.454857
56.555 12.375364
56.560 12.203338
56.565 12.66473
56.570 12.51355
56.575 12.374142
56.580 11.983614
56.585 11.518212
56.590 12.392876
56.595 12.460149
56.600 12.665868
56.605 13.045411
56.610 13.695515
56.615 14.298747
56.620 14.542366
56.625 14.298789
56.630 14.506137
56.635 14.360422
56.640 13.829793
56.645 13.519901
56.650 13.745521
56.655 14.007284
56.660 13.672478
56.665 13.504514
56.670 13.385197
56.675 13.710682
56.680 13.407525
56.685 13.040974
56.690 12.743797
56.695 12.622324
56.700 13.149966
56.705 12.982007
56.710 13.008481
56.715 13.466008
56.720 14.109895
56.725 14.46789
56.730 14.443728
56.735 14.272238
56.740 14.629894
56.745 14.804365
56.750 14.788366
56.755 14.336884
56.760 14.076781
56.765 13.735719
56.770 13.387461
56.775 12.865142
56.780 12.477274
56.785 12.125965
56.790 11.939958
56.795 11.848159
56.800 11.879781
56.805 11.878423
56.810 12.107191
56.815 11.762319
56.820 11.621885
56.825 11.603799
56.830 11.592855
56.835 11.571927
56.840 11.60515
56.845 11.721231
56.850 12.017333
56.855 11.899636
56.860 12.128474
56.865 12.473132
56.870 12.824705
56.875 12.942627
56.880 12.595483
56.885 12.278837
56.890 12.446952
56.895 12.583686
56.900 12.696762
56.905 12.084384
56.910 12.147966
56.915 12.565007
56.920 12.634466
56.925 12.688267
56.930 12.366696
56.935 12.252769
56.940 13.052067
56.945 13.303985
56.950 13.244701
56.955 13.459693
56.960 13.995096
56.965 14.071648
56.970 13.776775
56.975 13.487742
56.980 13.362407
56.985 13.584226
56.990 13.372169
56.995 13.320944
57.000 13.077005
57.005 13.498075
57.010 13.920331
57.015 13.761025
57.020 13.619885
57.025 13.471181
57.030 13.431719
57.035 13.381207
57.040 12.974569
57.045 12.768377
57.050 13.050944
57.055 13.073958
57.060 12.871675
57.065 12.622771
57.070 13.041632
57.075 13.283347
57.080 13.059155
57.085 13.037533
57.090 12.831911
57.095 12.632342
57.100 12.424274
57.105 12.806468
57.110 12.580432
57.115 13.1208
57.120 13.362947
57.125 13.832124
57.130 14.26692
57.135 14.393466
57.140 13.618172
57.145 13.557514
57.150 13.334332
57.155 12.897134
57.160 12.579059
57.165 12.602059
57.170 12.570739
57.175 12.874496
57.180 13.029686
57.185 12.666689
57.190 12.996289
57.195 13.14439
57.200 13.554682
57.205 13.553473
57.210 13.628602
57.215 13.608692
57.220 13.726656
57.225 13.520807
57.230 13.51925
57.235 13.472774
57.240 13.737685
57.245 13.623543
57.250 13.420339
57.255 13.334031
57.260 13.285858
57.265 13.040179
57.270 12.90861
57.275 12.791373
57.280 12.816628
57.285 13.037458
57.290 13.109007
57.295 13.266746
57.300 13.770674
57.305 14.030448
57.310 14.045315
57.315 13.843529
57.320 13.607458
57.325 13.782781
57.330 13.975367
57.335 13.474718
57.340 13.075022
57.345 13.50023
57.350 13.940692
57.355 14.004824
57.360 13.904664
57.365 13.825479
57.370 14.249894
57.375 14.305674
57.380 14.133853
57.385 14.136298
57.390 14.151875
57.395 14.187988
57.400 13.924567
57.405 13.84356
57.410 14.463012
57.415 14.437346
57.420 13.775614
57.425 13.508922
57.430 13.312766
57.435 13.294456
57.440 13.570252
57.445 13.358216
57.450 13.530063
57.455 13.280493
57.460 13.464971
57.465 13.905169
57.470 13.782361
57.475 13.206111
57.480 12.859144
57.485 13.081604
57.490 13.591657
57.495 13.564543
57.500 13.36925
57.505 13.28881
57.510 13.227285
57.515 13.552625
57.520 13.39507
57.525 13.452392
57.530 13.203607
57.535 13.461658
57.540 13.816031
57.545 13.902368
57.550 13.727551
57.555 13.506616
57.560 13.346088
57.565 13.364771
57.570 13.118455
57.575 12.97122
57.580 13.189989
57.585 12.900969
57.590 13.107951
57.595 13.5549
57.600 13.925595
57.605 13.730941
57.610 13.969921
57.615 14.206993
57.620 14.859088
57.625 15.003682
57.630 14.632465
57.635 14.142301
57.640 13.948689
57.645 13.413483
57.650 12.78642
57.655 12.629424
57.660 12.88026
57.665 12.916466
57.670 13.635349
57.675 14.542459
57.680 14.732741
57.685 14.72834
57.690 15.03794
57.695 15.247306
57.700 15.309881
57.705 14.638732
57.710 14.054597
57.715 14.342342
57.720 14.47102
57.725 13.636717
57.730 13.095472
57.735 12.812839
57.740 12.786137
57.745 12.557756
57.750 12.58611
57.755 12.836136
57.760 13.314948
57.765 13.773556
57.770 13.622791
57.775 13.961984
57.780 14.680226
57.785 14.670288
57.790 14.796838
57.795 14.345778
57.800 14.2843
57.805 15.15871
57.810 15.176635
57.815 15.079425
57.820 14.855544
57.825 14.806993
57.830 15.18851
57.835 14.771697
57.840 14.504331
57.845 14.247706
57.850 14.134185
57.855 14.262205
57.860 14.357701
57.865 14.566751
57.870 14.918814
57.875 15.039443
57.880 15.352695
57.885 15.340477
57.890 15.329855
57.895 15.335889
57.900 15.77057
57.905 16.007315
57.910 15.477871
57.915 14.964178
57.920 15.182437
57.925 14.807733
57.930 14.762083
57.935 14.150577
57.940 13.915645
57.945 14.384267
57.950 14.074872
57.955 13.434817
57.960 13.441868
57.965 13.616041
57.970 14.296176
57.975 14.416716
57.980 14.603439
57.985 14.964896
57.990 15.662894
57.995 15.766018
58.000 15.434937
58.005 15.08648
58.010 15.540472
58.015 16.078045
58.020 16.526283
58.025 16.02471
58.030 16.556055
58.035 17.003227
58.040 17.555201
58.045 17.528168
58.050 17.493662
58.055 17.889688
58.060 18.117386
58.065 17.653141
58.070 17.466257
58.075 16.813005
58.080 16.117847
58.085 15.728585
58.090 15.492981
58.095 15.381792
58.100 15.76888
58.105 16.116102
58.110 16.179811
58.115 16.420589
58.120 16.090731
58.125 15.958253
58.130 16.354456
58.135 16.301313
58.140 16.027975
58.145 16.198042
58.150 16.149054
58.155 15.924491
58.160 16.019405
58.165 15.83006
58.170 15.854404
58.175 16.075136
58.180 16.391356
58.185 16.873333
58.190 16.737738
58.195 16.00602
58.200 15.881387
58.205 15.72318
58.210 15.330654
58.215 15.122746
58.220 15.5544
58.225 16.60293
58.230 17.176514
58.235 17.005415
58.240 17.225115
58.245 17.231407
58.250 16.232843
58.255 15.55356
58.260 15.294429
58.265 15.701622
58.270 15.789737
58.275 15.414256
58.280 15.440239
58.285 15.746263
58.290 16.146444
58.295 16.515589
58.300 16.605967
58.305 16.58255
58.310 16.379194
58.315 16.840303
58.320 17.380293
58.325 17.143885
58.330 16.847076
58.335 17.144022
58.340 17.381628
58.345 17.368181
58.350 17.311199
58.355 18.187634
58.360 18.640707
58.365 18.309978
58.370 18.349283
58.375 18.594627
58.380 19.260494
58.385 19.572626
58.390 19.236961
58.395 19.155399
58.400 19.612383
58.405 19.686762
58.410 19.684851
58.415 19.248358
58.420 19.048021
58.425 18.990992
58.430 19.639105
58.435 20.013988
58.440 20.100121
58.445 20.926756
58.450 21.639299
58.455 22.11475
58.460 22.288818
58.465 22.228289
58.470 22.496389
58.475 22.884052
58.480 23.190527
58.485 23.942419
58.490 25.248165
58.495 25.535271
58.500 25.84161
58.505 25.976149
58.510 26.408224
58.515 27.207439
58.520 26.785059
58.525 26.598679
58.530 27.283409
58.535 27.282478
58.540 27.122662
58.545 26.758972
58.550 26.341328
58.555 26.74614
58.560 27.570894
58.565 28.291529
58.570 29.734318
58.575 30.922617
58.580 31.218018
58.585 31.432083
58.590 32.382992
58.595 33.089787
58.600 32.857956
58.605 32.480656
58.610 32.88718
58.615 33.67152
58.620 34.248436
58.625 34.782928
58.630 35.718807
58.635 36.97823
58.640 37.224323
58.645 36.967754
58.650 36.514355
58.655 36.011703
58.660 35.933609
58.665 35.080338
58.670 35.599613
58.675 36.023014
58.680 36.376022
58.685 37.518841
58.690 38.662376
58.695 39.437977
58.700 39.328094
58.705 37.899002
58.710 37.581772
58.715 36.227997
58.720 35.937229
58.725 35.488754
58.730 34.245041
58.735 33.76276
58.740 34.564754
58.745 34.790718
58.750 35.004959
58.755 34.769318
58.760 34.892559
58.765 35.423866
58.770 35.581013
58.775 34.550491
58.780 33.98217
58.785 34.155567
58.790 33.521065
58.795 32.151344
58.800 31.004509
58.805 30.49074
58.810 30.054052
58.815 29.436544
58.820 28.418699
58.825 27.696169
58.830 27.446234
58.835 27.358301
58.840 27.704163
58.845 27.764872
58.850 27.613031
58.855 28.324633
58.860 28.278631
58.865 27.563482
58.870 26.13781
58.875 24.946159
58.880 24.259087
58.885 24.177084
58.890 24.116919
58.895 23.962582
58.900 23.97863
58.905 23.667028
58.910 23.021652
58.915 23.00963
58.920 22.453186
58.925 21.059479
58.930 20.832212
58.935 20.929007
58.940 20.899446
58.945 21.323977
58.950 21.044334
58.955 20.669744
58.960 20.734243
58.965 20.685854
58.970 20.043728
58.975 19.767107
58.980 19.235218
58.985 18.895428
58.990 19.447609
58.995 19.603222
59.000 19.439838
59.005 19.215012
59.010 18.792522
59.015 18.445953
59.020 18.353102
59.025 18.116894
59.030 17.546093
59.035 17.301987
59.040 18.342672
59.045 18.980824
59.050 19.253719
59.055 19.05002
59.060 18.980326
59.065 19.273638
59.070 19.072838
59.075 18.255203
59.080 17.924837
59.085 17.876665
59.090 17.656313
59.095 16.926657
59.100 16.737928
59.105 17.021622
59.110 17.218832
59.115 16.805544
59.120 16.488712
59.125 16.298798
59.130 17.371901
59.135 17.456276
59.140 16.708651
59.145 16.00919
59.150 16.124985
59.155 16.193665
59.160 16.648413
59.165 15.840362
59.170 15.376221
59.175 15.433739
59.180 15.744177
59.185 15.420429
59.190 15.297941
59.195 15.110937
59.200 15.090461
59.205 15.241196
59.210 15.32276
59.215 15.199183
59.220 15.49816
59.225 15.645953
59.230 16.043346
59.235 15.871725
59.240 15.681251
59.245 15.405738
59.250 14.637955
59.255 14.244108
59.260 13.624818
59.265 12.884319
59.270 13.100897
59.275 13.430111
59.280 13.628848
59.285 13.463423
59.290 13.083249
59.295 13.07776
59.300 12.952209
59.305 12.85117
59.310 12.824469
59.315 13.051547
59.320 13.935157
59.325 15.009938
59.330 16.021809
59.335 16.400665
59.340 15.976907
59.345 15.984206
59.350 15.867035
59.355 15.643854
59.360 15.771108
59.365 15.037758
59.370 14.736944
59.375 14.697698
59.380 14.573553
59.385 14.37907
59.390 14.461389
59.395 14.041512
59.400 14.670388
59.405 15.526258
59.410 15.809215
59.415 15.702041
59.420 15.632166
59.425 15.412859
59.430 14.945871
59.435 14.318474
59.440 14.010633
59.445 14.377518
59.450 14.387331
59.455 14.701095
59.460 14.735577
59.465 14.757495
59.470 14.758325
59.475 14.961278
59.480 14.997149
59.485 15.554469
59.490 15.323879
59.495 15.696232
59.500 16.510244
59.505 16.074211
59.510 15.663723
59.515 15.492605
59.520 15.548483
59.525 15.631416
59.530 14.54531
59.535 13.886616
59.540 14.621016
59.545 14.587118
59.550 14.321895
59.555 14.460153
59.560 14.452791
59.565 14.584773
59.570 14.733938
59.575 14.364747
59.580 14.269129
59.585 14.249629
59.590 13.482152
59.595 12.946203
59.600 13.398791
59.605 13.678102
59.610 13.918884
59.615 14.201076
59.620 14.338367
59.625 15.180659
59.630 15.967851
59.635 15.354255
59.640 15.229259
59.645 15.444526
59.650 15.707803
59.655 15.985225
59.660 15.481567
59.665 15.083924
59.670 15.116842
59.675 15.285361
59.680 14.7843
59.685 14.415654
59.690 14.01076
59.695 14.516664
59.700 15.705998
59.705 16.072035
59.710 15.896009
59.715 16.168903
59.720 16.34304
59.725 16.621862
59.730 16.879223
59.735 16.840149
59.740 17.158863
59.745 17.175251
59.750 17.511692
59.755 17.544533
59.760 17.434858
59.765 16.843254
59.770 16.096708
59.775 15.49166
59.780 15.256721
59.785 14.831532
59.790 14.693516
59.795 14.572695
59.800 14.752561
59.805 15.611791
59.810 16.094992
59.815 15.590522
59.820 15.736534
59.825 16.115786
59.830 16.329811
59.835 16.022087
59.840 15.08204
59.845 14.97253
59.850 15.315579
59.855 15.362693
59.860 14.965491
59.865 14.653167
59.870 14.478785
59.875 14.692474
59.880 14.693625
59.885 14.749032
59.890 14.283516
59.895 14.022485
59.900 13.900099
59.905 14.203214
59.910 14.082449
59.915 14.007837
59.920 13.993083
59.925 13.923309
59.930 14.06798
59.935 14.142115
59.940 13.755444
59.945 13.313798
59.950 13.624314
59.955 14.13844
59.960 14.808225
59.965 14.671213
59.970 14.42616
59.975 14.565089
59.980 14.927336
59.985 14.834581
59.990 14.642015
59.995 14.173591
60.000 14.505151
60.005 15.040195
60.010 15.509956
60.015 15.899325
60.020 15.861051
60.025 15.524849
60.030 15.740653
60.035 15.617075
60.040 15.780371
60.045 15.715447
60.050 15.32682
60.055 15.183759
60.060 15.2164
60.065 15.179913
60.070 14.759087
60.075 14.605625
60.080 14.544057
60.085 14.33169
60.090 14.216475
60.095 13.8539
60.100 13.579617
60.105 13.903859
60.110 13.681519
60.115 13.776257
60.120 14.588984
60.125 15.274508
60.130 15.65085
60.135 16.462215
60.140 16.670282
60.145 16.982635
60.150 17.011898
60.155 16.69883
60.160 16.330284
60.165 16.445013
60.170 15.880915
60.175 15.604059
60.180 15.237317
60.185 15.222031
60.190 15.173914
60.195 14.957593
60.200 14.967881
60.205 15.160028
60.210 15.123384
60.215 15.001039
60.220 14.7389
60.225 14.854101
60.230 14.881373
60.235 14.610548
60.240 14.499917
60.245 14.829732
60.250 15.021564
60.255 15.003174
60.260 14.599839
60.265 14.86515
60.270 15.184424
60.275 15.349568
60.280 15.077312
60.285 15.338382
60.290 15.503468
60.295 15.595886
60.300 15.061785
60.305 14.838125
60.310 14.993362
60.315 14.864529
60.320 14.411183
60.325 14.066425
60.330 14.513174
60.335 14.624618
60.340 14.395571
60.345 14.737581
60.350 15.029219
60.355 15.154234
60.360 16.132359
60.365 15.539395
60.370 15.867804
60.375 15.855856
60.380 15.484835
60.385 15.532944
60.390 15.792388
60.395 15.575589
60.400 16.097765
60.405 15.910513
60.410 16.101532
60.415 16.434099
60.420 16.484005
60.425 16.103565
60.430 14.988272
60.435 14.73721
60.440 14.733803
60.445 14.131591
60.450 13.886219
60.455 13.770675
60.460 13.851103
60.465 14.826666
60.470 15.349205
60.475 15.797756
60.480 15.757046
60.485 16.065443
60.490 16.354643
60.495 16.689596
60.500 15.988107
60.505 15.634852
60.510 15.902699
60.515 16.45038
60.520 16.35611
60.525 16.607952
60.530 16.766636
60.535 17.263597
60.540 17.150301
60.545 16.330185
60.550 15.628867
60.555 14.938705
60.560 14.293528
60.565 13.917695
60.570 13.402308
60.575 13.747734
60.580 14.072729
60.585 14.31485
60.590 14.525159
60.595 14.866398
60.600 15.769052
60.605 16.162258
60.610 16.471262
60.615 16.561132
60.620 16.682339
60.625 16.656559
60.630 16.321644
60.635 15.572051
60.640 15.420979
60.645 14.624741
60.650 14.582253
60.655 14.77025
60.660 14.629086
60.665 14.515089
60.670 14.717707
60.675 15.059798
60.680 14.573603
60.685 14.322901
60.690 14.10898
60.695 14.095584
60.700 13.87385
60.705 13.54514
60.710 13.453867
60.715 14.129457
60.720 14.433102
60.725 14.315788
60.730 14.94042
60.735 15.475699
60.740 15.675923
60.745 15.604246
60.750 15.592103
60.755 15.331375
60.760 15.383221
60.765 15.403468
60.770 15.311402
60.775 15.142172
60.780 15.424634
60.785 15.504113
60.790 15.437154
60.795 15.316237
60.800 15.026816
60.805 15.135304
60.810 15.498568
60.815 14.820157
60.820 14.485859
60.825 14.634029
60.830 15.049977
60.835 14.97215
60.840 15.109232
60.845 15.472821
60.850 16.63961
60.855 17.087877
60.860 17.278763
60.865 16.707487
60.870 16.443586
60.875 15.670314
60.880 15.206773
60.885 14.708748
60.890 15.283309
60.895 15.202732
60.900 15.298341
60.905 15.375288
60.910 15.502898
60.915 15.291603
60.920 14.485229
60.925 13.866322
60.930 13.890881
60.935 14.296855
60.940 14.550962
60.945 14.584631
60.950 14.34342
60.955 14.618212
60.960 14.908204
60.965 15.000045
60.970 15.185455
60.975 14.927256
60.980 15.248434
60.985 15.319346
60.990 15.116889
60.995 14.408706
61.000 14.473733
61.005 14.110183
61.010 13.93699
61.015 13.542048
61.020 13.72011
61.025 14.178889
61.030 14.932026
61.035 15.164414
61.040 15.187769
61.045 15.487974
61.050 15.980272
61.055 15.860628
61.060 15.9087
61.065 16.025953
61.070 15.478041
61.075 15.484835
61.080 15.516525
61.085 15.612192
61.090 15.775461
61.095 15.469603
61.100 15.164389
61.105 15.058494
61.110 14.64719
61.115 14.872826
61.120 14.487264
61.125 14.520535
61.130 14.865335
61.135 15.106823
61.140 15.985926
61.145 16.569723
61.150 16.207781
61.155 15.976053
61.160 15.776684
61.165 15.344692
61.170 15.15504
61.175 14.511309
61.180 14.279268
61.185 14.467139
61.190 14.977851
61.195 15.319645
61.200 15.757226
61.205 15.651792
61.210 15.341931
61.215 15.541671
61.220 15.538345
61.225 15.772177
61.230 15.607321
61.235 14.796353
61.240 15.117395
61.245 15.650379
61.250 15.586971
61.255 15.397299
61.260 15.057825
61.265 15.691061
61.270 16.171131
61.275 15.672493
61.280 15.933473
61.285 16.299614
61.290 16.470314
61.295 16.110687
61.300 15.088196
61.305 14.910068
61.310 15.147263
61.315 14.826953
61.320 15.067202
61.325 15.422986
61.330 15.559423
61.335 15.819318
61.340 15.326629
61.345 15.26482
61.350 15.100822
61.355 14.728596
61.360 14.761317
61.365 15.087422
61.370 15.625424
61.375 16.921421
61.380 17.609184
61.385 17.814703
61.390 17.458549
61.395 17.353994
61.400 17.339647
61.405 17.141768
61.410 16.065023
61.415 15.402519
61.420 15.104492
61.425 15.703705
61.430 15.402006
61.435 15.488461
61.440 15.701911
61.445 15.872823
61.450 16.166462
61.455 16.256012
61.460 15.773489
61.465 15.336073
61.470 15.071135
61.475 15.145061
61.480 14.991702
61.485 14.894369
61.490 14.813265
61.495 14.515797
61.500 14.885248
61.505 14.931876
61.510 14.444878
61.515 14.974582
61.520 14.872337
61.525 14.96328
61.530 15.576138
61.535 16.139282
61.540 15.810141
61.545 15.957121
61.550 15.613351
61.555 15.767728
61.560 16.181532
61.565 16.008574
61.570 15.899848
61.575 16.801754
61.580 17.391203
61.585 18.106092
61.590 17.923964
61.595 17.177877
61.600 17.002047
61.605 16.442911
61.610 15.90088
61.615 15.035582
61.620 14.092178
61.625 14.365976
61.630 14.846931
61.635 14.871344
61.640 15.389584
61.645 15.734941
61.650 16.181723
61.655 16.689363
61.660 16.782705
61.665 16.649065
61.670 16.783831
61.675 16.763575
61.680 16.772989
61.685 17.164234
61.690 17.01041
61.695 16.517818
61.700 16.919979
61.705 17.360769
61.710 17.595449
61.715 17.560925
61.720 16.946264
61.725 16.553799
61.730 16.55171
61.735 16.228115
61.740 15.770993
61.745 15.430532
61.750 15.055861
61.755 14.89362
61.760 15.151543
61.765 15.441298
61.770 15.692029
61.775 15.49576
61.780 15.23353
61.785 15.617226
61.790 15.95603
61.795 16.222815
61.800 16.377878
61.805 16.077555
61.810 16.593935
61.815 16.677485
61.820 17.104008
61.825 17.529604
61.830 17.530933
61.835 17.440008
61.840 17.87018
61.845 17.765135
61.850 17.673241
61.855 17.534409
61.860 17.431187
61.865 17.422356
61.870 17.039085
61.875 16.874517
61.880 16.94405
61.885 17.030951
61.890 16.920897
61.895 16.906403
61.900 17.399832
61.905 17.143335
61.910 16.76314
61.915 17.271828
61.920 17.600594
61.925 17.473721
61.930 16.88307
61.935 16.435268
61.940 16.881922
61.945 17.358191
61.950 16.971811
61.955 16.481796
61.960 16.220037
61.965 16.169981
61.970 16.130236
61.975 15.882116
61.980 15.848624
61.985 15.869775
61.990 15.796644
61.995 15.956251
62.000 16.313532
62.005 16.867268
62.010 16.94659
62.015 16.164724
62.020 15.834912
62.025 16.235226
62.030 16.247618
62.035 15.703998
62.040 15.666888
62.045 15.743873
62.050 16.045176
62.055 16.296732
62.060 15.954213
62.065 15.88683
62.070 16.023062
62.075 15.548655
62.080 15.809479
62.085 16.279974
62.090 16.133623
62.095 16.537447
62.100 16.872147
62.105 16.599796
62.110 17.150415
62.115 17.320782
62.120 16.726728
62.125 16.5744
62.130 16.117807
62.135 16.297785
62.140 16.411909
62.145 15.964846
62.150 15.615426
62.155 15.776598
62.160 15.950649
62.165 15.826698
62.170 16.240126
62.175 16.863131
62.180 17.113197
62.185 17.357399
62.190 16.82127
62.195 16.340927
62.200 16.200562
62.205 15.502292
62.210 14.456184
62.215 14.145406
62.220 14.17064
62.225 14.415967
62.230 14.825548
62.235 15.168204
62.240 15.315382
62.245 15.882677
62.250 16.154625
62.255 16.543818
62.260 16.777805
62.265 16.649092
62.270 16.960339
62.275 17.113247
62.280 17.005989
62.285 16.63504
62.290 15.853453
62.295 15.439542
62.300 15.388937
62.305 15.396641
62.310 15.231553
62.315 15.241525
62.320 14.879371
62.325 15.837161
62.330 16.164919
62.335 16.208155
62.340 15.557039
62.345 15.551922
62.350 15.947377
62.355 15.791491
62.360 15.187167
62.365 15.116942
62.370 15.148668
62.375 15.102294
62.380 14.748643
62.385 14.194501
62.390 14.579688
62.395 14.730186
62.400 15.051445
62.405 15.353892
62.410 15.814029
62.415 16.440586
62.420 17.012947
62.425 17.016647
62.430 16.683628
62.435 16.624945
62.440 16.943213
62.445 16.50971
62.450 16.135221
62.455 15.820131
62.460 15.920444
62.465 16.656597
62.470 16.399084
62.475 16.38509
62.480 16.916586
62.485 16.684233
62.490 16.124165
62.495 16.008076
62.500 15.707404
62.505 15.712398
62.510 15.276627
62.515 14.644757
62.520 14.684431
62.525 15.043848
62.530 15.243045
62.535 15.448862
62.540 15.907695
62.545 16.138466
62.550 16.735821
62.555 17.232967
62.560 16.97798
62.565 16.686523
62.570 16.609531
62.575 16.601021
62.580 16.376776
62.585 15.950878
62.590 15.646151
62.595 15.773202
62.600 16.079664
62.605 15.898038
62.610 15.211278
62.615 15.126278
62.620 15.312216
62.625 15.763919
62.630 15.555339
62.635 15.314425
62.640 15.353583
62.645 15.259601
62.650 15.608544
62.655 15.69525
62.660 15.857329
62.665 16.286467
62.670 16.491064
62.675 17.136507
62.680 17.764168
62.685 17.566442
62.690 17.373968
62.695 16.868988
62.700 16.784197
62.705 16.580662
62.710 16.208809
62.715 16.500786
62.720 17.277308
62.725 17.811007
62.730 18.09775
62.735 18.892336
62.740 18.983376
62.745 18.566776
62.750 18.090885
62.755 17.699369
62.760 17.714861
62.765 17.072271
62.770 15.814581
62.775 15.612989
62.780 16.142874
62.785 16.081163
62.790 15.483541
62.795 14.521238
62.800 14.41226
62.805 14.942175
62.810 14.631422
62.815 14.124538
62.820 14.469578
62.825 15.066651
62.830 15.61086
62.835 15.88911
62.840 15.874406
62.845 16.577429
62.850 17.021084
62.855 17.420815
62.860 17.551348
62.865 17.663216
62.870 17.284956
62.875 17.020502
62.880 16.244373
62.885 16.035406
62.890 15.521956
62.895 16.139587
62.900 16.345732
62.905 16.850071
62.910 17.166328
62.915 17.62117
62.920 17.208515
62.925 16.827816
62.930 15.621311
62.935 14.948052
62.940 15.385021
62.945 15.357391
62.950 15.078569
62.955 15.226539
62.960 15.364637
62.965 15.458282
62.970 16.116831
62.975 15.717442
62.980 15.638399
62.985 15.756261
62.990 16.464363
62.995 16.594696
63.000 16.841133
63.005 16.96714
63.010 17.530294
63.015 17.756315
63.020 17.539488
63.025 16.9256
63.030 17.021395
63.035 17.373978
63.040 17.116829
63.045 16.839056
63.050 16.508022
63.055 17.204111
63.060 17.649446
63.065 17.601877
63.070 17.263195
63.075 17.014868
63.080 17.031578
63.085 17.290558
63.090 16.997128
63.095 16.669191
63.100 16.911386
63.105 17.210783
63.110 17.669075
63.115 17.567259
63.120 17.803823
63.125 18.05233
63.130 18.015789
63.135 18.002504
63.140 17.510473
63.145 17.073553
63.150 16.995893
63.155 16.754416
63.160 16.264776
63.165 16.516899
63.170 16.498432
63.175 16.91757
63.180 17.345352
63.185 17.786013
63.190 17.836689
63.195 17.865166
63.200 17.924025
63.205 17.897457
63.210 17.331381
63.215 17.120537
63.220 16.639772
63.225 17.077675
63.230 17.380131
63.235 17.251347
63.240 17.193394
63.245 17.595591
63.250 18.165827
63.255 18.815739
63.260 18.824858
63.265 18.718279
63.270 18.251631
63.275 18.003651
63.280 18.161238
63.285 17.256502
63.290 16.571533
63.295 16.365383
63.300 16.608337
63.305 16.9154
63.310 17.019995
63.315 16.919077
63.320 17.38295
63.325 17.628693
63.330 17.317835
63.335 16.862726
63.340 17.012316
63.345 17.219366
63.350 17.306993
63.355 17.232544
63.360 17.086176
63.365 17.21949
63.370 17.658934
63.375 17.858543
63.380 18.04147
63.385 17.786228
63.390 17.604
63.395 17.491117
63.400 17.302063
63.405 16.628056
63.410 16.170071
63.415 15.78962
63.420 15.772461
63.425 16.147245
63.430 16.771646
63.435 17.111816
63.440 17.176935
63.445 17.292404
63.450 17.774885
63.455 17.866304
63.460 17.561592
63.465 17.432682
63.470 17.204283
63.475 17.522213
63.480 17.407377
63.485 17.593691
63.490 17.877136
63.495 18.163477
63.500 17.995018
63.505 17.971252
63.510 18.063864
63.515 17.951784
63.520 17.339231
63.525 16.883614
63.530 16.522179
63.535 16.649487
63.540 16.668859
63.545 16.493738
63.550 16.330694
63.555 16.274672
63.560 16.518028
63.565 16.746826
63.570 16.337873
63.575 16.110935
63.580 15.731724
63.585 16.209131
63.590 16.783716
63.595 16.722288
63.600 16.617538
63.605 17.558302
63.610 17.841904
63.615 18.585365
63.620 18.507603
63.625 18.133957
63.630 18.293238
63.635 18.613436
63.640 18.422329
63.645 18.497007
63.650 18.185377
63.655 17.785521
63.660 18.051033
63.665 17.968306
63.670 17.313963
63.675 17.07098
63.680 16.821636
63.685 16.920366
63.690 16.943741
63.695 16.681585
63.700 16.379704
63.705 16.22673
63.710 15.954887
63.715 16.479973
63.720 16.614105
63.725 17.280468
63.730 17.531406
63.735 18.122
63.740 18.315731
63.745 18.326105
63.750 17.764919
63.755 17.367823
63.760 16.923418
63.765 16.605247
63.770 16.616884
63.775 17.283237
63.780 17.630375
63.785 17.917583
63.790 18.426134
63.795 18.411585
63.800 18.195612
63.805 17.601509
63.810 17.596729
63.815 17.599262
63.820 17.206421
63.825 16.832998
63.830 16.985491
63.835 17.238762
63.840 17.577791
63.845 17.222466
63.850 17.551758
63.855 17.99334
63.860 17.828362
63.865 17.065331
63.870 17.3384
63.875 18.122631
63.880 18.221914
63.885 18.011929
63.890 18.580164
63.895 19.155519
63.900 20.179201
63.905 19.900633
63.910 19.471037
63.915 19.098597
63.920 18.618607
63.925 17.967295
63.930 17.710606
63.935 17.817602
63.940 18.113262
63.945 18.270905
63.950 18.794249
63.955 18.834227
63.960 18.936964
63.965 19.438614
63.970 19.218882
63.975 18.751371
63.980 18.663748
63.985 18.601254
63.990 19.263
63.995 19.569187
64.000 19.53952
64.005 20.073177
64.010 21.258049
64.015 22.086456
64.020 22.373947
64.025 22.282463
64.030 22.475292
64.035 23.086498
64.040 22.868582
64.045 22.027
64.050 21.81772
64.055 21.821526
64.060 21.670341
64.065 21.41086
64.070 20.988312
64.075 21.050123
64.080 20.976397
64.085 21.148142
64.090 21.369579
64.095 21.981939
64.100 22.447701
64.105 22.096848
64.110 22.612139
64.115 23.075798
64.120 23.266539
64.125 23.790617
64.130 24.149754
64.135 24.523249
64.140 24.614491
64.145 24.93552
64.150 25.430782
64.155 25.097843
64.160 25.480124
64.165 25.643688
64.170 25.550301
64.175 26.155584
64.180 26.277803
64.185 26.364529
64.190 27.106251
64.195 26.2658
64.200 25.938457
64.205 26.515553
64.210 26.918653
64.215 27.707218
64.220 27.895985
64.225 28.350204
64.230 29.461489
64.235 30.616846
64.240 31.412424
64.245 31.699717
64.250 32.052483
64.255 33.970829
64.260 34.944489
64.265 35.838768
64.270 36.603161
64.275 36.546803
64.280 37.068413
64.285 37.467167
64.290 37.0172
64.295 37.04266
64.300 37.946758
64.305 38.404568
64.310 39.506374
64.315 40.533878
64.320 41.030636
64.325 41.676758
64.330 41.812943
64.335 41.478676
64.340 41.895954
64.345 41.940884
64.350 42.153778
64.355 43.052017
64.360 44.426296
64.365 45.499012
64.370 46.256756
64.375 46.438251
64.380 47.278439
64.385 47.592754
64.390 47.885525
64.395 49.213604
64.400 49.922394
64.405 50.380642
64.410 51.214989
64.415 51.239525
64.420 51.202084
64.425 51.509926
64.430 51.062729
64.435 50.593433
64.440 50.088478
64.445 49.97691
64.450 49.882439
64.455 49.364185
64.460 48.767185
64.465 49.442539
64.470 50.607681
64.475 50.468307
64.480 50.905483
64.485 50.727764
64.490 51.071842
64.495 51.994167
64.500 51.172745
64.505 50.503605
64.510 49.812214
64.515 48.648476
64.520 48.459995
64.525 47.204845
64.530 46.076637
64.535 44.952679
64.540 44.123608
64.545 43.49403
64.550 43.67762
64.555 43.753635
64.560 43.431362
64.565 42.809341
64.570 43.09819
64.575 42.942062
64.580 42.631111
64.585 41.844337
64.590 41.012508
64.595 41.104584
64.600 40.921406
64.605 39.81144
64.610 39.256504
64.615 38.566273
64.620 37.727764
64.625 37.180332
64.630 36.97456
64.635 36.362503
64.640 36.557343
64.645 35.883152
64.650 35.555325
64.655 35.388195
64.660 35.821712
64.665 35.578159
64.670 35.087406
64.675 34.290363
64.680 34.234722
64.685 34.086155
64.690 32.964302
64.695 32.19043
64.700 32.049072
64.705 31.462252
64.710 30.897882
64.715 30.704744
64.720 30.324965
64.725 30.084801
64.730 29.461065
64.735 28.718838
64.740 28.460533
64.745 27.999773
64.750 27.563238
64.755 27.197252
64.760 26.836885
64.765 26.268641
64.770 26.133591
64.775 26.123934
64.780 25.297119
64.785 24.590443
64.790 23.921095
64.795 23.996071
64.800 24.150583
64.805 23.445333
64.810 23.079168
64.815 23.164345
64.820 22.994989
64.825 23.785969
64.830 23.384762
64.835 23.033985
64.840 22.897038
64.845 22.723768
64.850 22.819761
64.855 23.195753
64.860 22.668579
64.865 22.79936
64.870 23.005056
64.875 23.851677
64.880 24.082199
64.885 24.055386
64.890 24.713249
64.895 25.238365
64.900 25.448303
64.905 25.308285
64.910 25.300205
64.915 25.22673
64.920 24.664774
64.925 23.707317
64.930 23.465185
64.935 23.485424
64.940 23.955627
64.945 23.784582
64.950 24.412626
64.955 25.05759
64.960 25.349848
64.965 26.053431
64.970 26.32395
64.975 26.209761
64.980 25.874069
64.985 26.04228
64.990 26.541077
64.995 26.884003
65.000 27.049883
65.005 27.233202
65.010 27.328756
65.015 27.587559
65.020 27.589392
65.025 28.150314
65.030 28.481014
65.035 28.48229
65.040 28.18362
65.045 29.000084
65.050 29.135509
65.055 29.757195
65.060 29.985094
65.065 30.944756
65.070 32.358295
65.075 33.568451
65.080 34.001858
65.085 34.444164
65.090 34.688374
65.095 34.579865
65.100 34.171276
65.105 34.230618
65.110 33.725185
65.115 34.093803
65.120 35.001999
65.125 35.156441
65.130 35.697575
65.135 35.653622
65.140 35.4916
65.145 36.212029
65.150 36.433147
65.155 36.173164
65.160 36.87468
65.165 37.198391
65.170 37.234882
65.175 37.34087
65.180 37.101208
65.185 36.77264
65.190 36.995361
65.195 37.306717
65.200 37.864929
65.205 38.41555
65.210 38.241001
65.215 38.112202
65.220 37.883244
65.225 38.030571
65.230 37.445786
65.235 38.004589
65.240 38.026695
65.245 38.635036
65.250 38.473965
65.255 38.358189
65.260 38.052925
65.265 38.131344
65.270 37.75061
65.275 38.269703
65.280 38.610996
65.285 39.225086
65.290 40.031944
65.295 40.500366
65.300 40.936657
65.305 40.440903
65.310 39.981651
65.315 39.831722
65.320 39.455769
65.325 38.886478
65.330 38.941898
65.335 39.036434
65.340 38.584862
65.345 38.35231
65.350 37.784271
65.355 37.866001
65.360 37.745914
65.365 37.372772
65.370 37.009583
65.375 37.820404
65.380 38.391079
65.385 38.477531
65.390 38.135536
65.395 38.901768
65.400 39.219841
65.405 39.104633
65.410 38.870502
65.415 39.141834
65.420 40.315002
65.425 41.215122
65.430 41.258831
65.435 42.019672
65.440 42.251804
65.445 41.693626
65.450 41.236172
65.455 40.427509
65.460 39.765324
65.465 38.377728
65.470 37.696453
65.475 37.73238
65.480 37.512569
65.485 37.712879
65.490 37.787865
65.495 37.877934
65.500 38.404568
65.505 37.716213
65.510 37.004242
65.515 36.760189
65.520 36.10825
65.525 36.310982
65.530 36.032658
65.535 36.234142
65.540 36.60854
65.545 37.098335
65.550 36.676289
65.555 36.250813
65.560 36.229748
65.565 36.263268
65.570 36.198456
65.575 35.946503
65.580 36.082047
65.585 36.569775
65.590 36.571678
65.595 36.500576
65.600 37.481537
65.605 38.020981
65.610 38.121124
65.615 37.905731
65.620 38.308353
65.625 38.738503
65.630 38.274033
65.635 37.666473
65.640 37.590618
65.645 37.495312
65.650 37.473682
65.655 36.91695
65.660 36.658844
65.665 36.62075
65.670 35.904461
65.675 34.867958
65.680 34.234421
65.685 33.101185
65.690 33.136009
65.695 33.050327
65.700 33.147991
65.705 32.922695
65.710 33.483509
65.715 34.007103
65.720 34.353424
65.725 34.201458
65.730 33.504112
65.735 33.048267
65.740 32.890461
65.745 32.160187
65.750 30.549793
65.755 29.719734
65.760 29.590588
65.765 29.364368
65.770 28.93704
65.775 28.549763
65.780 28.447697
65.785 29.307598
65.790 29.472057
65.795 29.106207
65.800 28.920237
65.805 29.159664
65.810 29.079885
65.815 28.433817
65.820 27.479494
65.825 27.657013
65.830 27.960939
65.835 28.141733
65.840 27.602163
65.845 26.56996
65.850 26.651804
65.855 26.850748
65.860 25.994886
65.865 25.769314
65.870 25.279068
65.875 24.960585
65.880 25.398962
65.885 25.69964
65.890 25.749142
65.895 25.479137
65.900 24.303366
65.905 23.56955
65.910 23.482637
65.915 23.558588
65.920 23.224924
65.925 22.30863
65.930 22.121365
65.935 22.620594
65.940 22.779369
65.945 22.757742
65.950 22.697718
65.955 22.096996
65.960 22.08943
65.965 21.710964
65.970 21.621559
65.975 21.669884
65.980 21.768614
65.985 21.851311
65.990 21.863865
65.995 21.65107
66.000 22.562532
66.005 22.456577
66.010 22.603537
66.015 22.146137
66.020 21.856581
66.025 22.193308
66.030 22.218588
66.035 21.601822
66.040 21.204203
66.045 20.286076
66.050 20.205763
66.055 20.658527
66.060 20.792082
66.065 20.831692
66.070 21.642389
66.075 22.254711
66.080 22.655107
66.085 22.241465
66.090 21.554813
66.095 21.299934
66.100 21.344975
66.105 20.18646
66.110 19.568657
66.115 19.357595
66.120 19.450548
66.125 19.578453
66.130 19.196308
66.135 18.747755
66.140 19.042797
66.145 18.915054
66.150 18.995604
66.155 18.697556
66.160 18.578918
66.165 19.035851
66.170 18.707741
66.175 18.145531
66.180 18.20005
66.185 18.874523
66.190 19.10359
66.195 18.582966
66.200 17.979502
66.205 17.732964
66.210 18.107035
66.215 18.296524
66.220 18.173647
66.225 18.154387
66.230 18.523571
66.235 18.753958
66.240 19.498322
66.245 19.559656
66.250 19.340939
66.255 19.046064
66.260 18.934847
66.265 19.029085
66.270 19.085388
66.275 18.284761
66.280 17.931238
66.285 17.563259
66.290 17.560806
66.295 17.607782
66.300 17.572826
66.305 18.055706
66.310 18.173128
66.315 18.328688
66.320 18.908989
66.325 19.294579
66.330 19.519388
66.335 19.461512
66.340 20.059174
66.345 19.712921
66.350 19.032421
66.355 18.504505
66.360 18.371902
66.365 18.350178
66.370 18.019922
66.375 17.794899
66.380 18.087358
66.385 17.97374
66.390 17.882374
66.395 17.555841
66.400 17.445244
66.405 16.999241
66.410 16.424955
66.415 16.668528
66.420 17.589165
66.425 17.989685
66.430 18.057281
66.435 18.265173
66.440 17.908638
66.445 18.320189
66.450 18.517721
66.455 18.184492
66.460 18.464197
66.465 18.535124
66.470 18.629572
66.475 19.272583
66.480 18.813326
66.485 18.411278
66.490 17.798021
66.495 17.416788
66.500 17.358934
66.505 17.191805
66.510 16.593111
66.515 16.249939
66.520 16.431993
66.525 16.694162
66.530 17.02742
66.535 16.795473
66.540 17.039896
66.545 17.53833
66.550 18.542271
66.555 19.346968
66.560 19.365292
66.565 19.273764
66.570 19.599922
66.575 19.106394
66.580 19.067656
66.585 18.457949
66.590 18.037474
66.595 18.231674
66.600 18.413429
66.605 18.679495
66.610 19.004457
66.615 19.368898
66.620 19.467163
66.625 19.380129
66.630 18.975132
66.635 18.407581
66.640 18.329741
66.645 18.478239
66.650 17.862152
66.655 18.038485
66.660 18.411474
66.665 18.531898
66.670 18.407864
66.675 17.647017
66.680 17.386404
66.685 17.755827
66.690 18.071882
66.695 18.04137
66.700 17.623013
66.705 17.65062
66.710 18.266094
66.715 18.244797
66.720 17.710709
66.725 17.686932
66.730 17.367809
66.735 17.92318
66.740 18.198736
66.745 18.468727
66.750 18.578524
66.755 19.062656
66.760 18.483683
66.765 18.60218
66.770 18.972231
66.775 19.295841
66.780 18.488672
66.785 17.943575
66.790 17.479706
66.795 17.438156
66.800 17.311403
66.805 16.960932
66.810 16.461815
66.815 17.327589
66.820 17.942739
66.825 18.032619
66.830 18.358398
66.835 18.462337
66.840 18.249865
66.845 18.368778
66.850 18.070736
66.855 18.283892
66.860 18.11105
66.865 18.364189
66.870 18.686548
66.875 19.472439
66.880 19.765575
66.885 19.936775
66.890 19.390297
66.895 19.254915
66.900 18.730366
66.905 18.231495
66.910 17.187546
66.915 17.039064
66.920 17.215897
66.925 17.373686
66.930 17.804049
66.935 17.936958
66.940 18.489729
66.945 18.97896
66.950 18.830212
66.955 18.915533
66.960 18.898085
66.965 18.72303
66.970 19.10458
66.975 19.028479
66.980 19.276657
66.985 19.027317
66.990 19.069378
66.995 19.359871
67.000 19.0317
67.005 18.557535
67.010 18.198338
67.015 18.01709
67.020 18.366703
67.025 18.081865
67.030 18.08901
67.035 17.781809
67.040 18.000095
67.045 17.662321
67.050 17.12944
67.055 16.841707
67.060 16.780048
67.065 16.544708
67.070 17.001526
67.075 17.3505
67.080 17.729284
67.085 18.810452
67.090 18.917427
67.095 18.876766
67.100 19.367844
67.105 19.382486
67.110 19.407427
67.115 19.514292
67.120 19.140188
67.125 18.91935
67.130 19.450647
67.135 19.490013
67.140 19.095741
67.145 18.826939
67.150 17.868404
67.155 17.293509
67.160 17.232212
67.165 17.129583
67.170 17.110693
67.175 16.942678
67.180 16.796703
67.185 16.798256
67.190 17.32675
67.195 17.028214
67.200 16.870611
67.205 17.32032
67.210 17.67082
67.215 17.817831
67.220 18.398285
67.225 18.66621
67.230 18.839809
67.235 18.530733
67.240 18.396717
67.245 18.55752
67.250 18.357109
67.255 17.890274
67.260 17.502419
67.265 17.38055
67.270 17.253447
67.275 16.549252
67.280 16.427824
67.285 17.12365
67.290 17.674629
67.295 17.314117
67.300 18.041996
67.305 18.518566
67.310 18.359304
67.315 18.62809
67.320 18.607357
67.325 18.773046
67.330 19.268475
67.335 19.028328
67.340 18.860796
67.345 19.265749
67.350 19.240128
67.355 18.669262
67.360 18.388498
67.365 18.222589
67.370 17.615875
67.375 17.176111
67.380 17.379936
67.385 17.366083
67.390 16.958643
67.395 16.948332
67.400 16.774151
67.405 16.606192
67.410 16.887167
67.415 16.118048
67.420 15.691246
67.425 16.224182
67.430 16.463617
67.435 16.333731
67.440 16.436745
67.445 16.563343
67.450 16.92911
67.455 17.037203
67.460 16.752298
67.465 16.942377
67.470 17.290028
67.475 16.680471
67.480 17.514061
67.485 18.066746
67.490 18.403399
67.495 18.378624
67.500 18.509777
67.505 19.170774
67.510 20.013134
67.515 19.07868
67.520 19.201027
67.525 19.236931
67.530 19.135414
67.535 18.965284
67.540 18.346869
67.545 18.028788
67.550 18.01026
67.555 17.361187
67.560 17.2756
67.565 17.157967
67.570 17.017099
67.575 17.634758
67.580 17.97538
67.585 18.013004
67.590 17.82856
67.595 18.66926
67.600 18.457212
67.605 18.537006
67.610 18.390808
67.615 18.822111
67.620 18.868464
67.625 19.12236
67.630 18.579727
67.635 18.505499
67.640 18.232906
67.645 17.805809
67.650 17.481472
67.655 17.535723
67.660 17.228949
67.665 17.494341
67.670 17.830853
67.675 18.326023
67.680 18.561512
67.685 18.480301
67.690 18.693949
67.695 18.728514
67.700 19.140427
67.705 19.080784
67.710 18.621077
67.715 18.200981
67.720 17.821556
67.725 17.692953
67.730 17.551683
67.735 17.035866
67.740 17.041553
67.745 17.359285
67.750 17.986153
67.755 18.286089
67.760 18.195299
67.765 18.379122
67.770 18.113071
67.775 18.375254
67.780 18.676586
67.785 18.366262
67.790 18.646524
67.795 18.874504
67.800 18.839239
67.805 19.344814
67.810 19.115358
67.815 18.61853
67.820 18.680233
67.825 18.217861
67.830 17.339813
67.835 16.56394
67.840 16.111849
67.845 16.755987
67.850 16.862635
67.855 17.158905
67.860 17.452335
67.865 18.615398
67.870 19.606735
67.875 19.523924
67.880 19.148607
67.885 19.141247
67.890 19.134518
67.895 19.36006
67.900 18.582054
67.905 18.606497
67.910 19.240995
67.915 19.051331
67.920 18.762434
67.925 18.863249
67.930 19.189802
67.935 19.709259
67.940 19.215866
67.945 18.895786
67.950 18.936018
67.955 19.325779
67.960 18.647953
67.965 18.519354
67.970 18.972727
67.975 19.303938
67.980 19.113661
67.985 19.14666
67.990 18.513227
67.995 18.853851
68.000 18.329107
68.005 17.925154
68.010 17.873056
68.015 17.805586
68.020 17.408447
68.025 17.788551
68.030 18.328613
68.035 18.546869
68.040 18.332329
68.045 18.310633
68.050 18.308672
68.055 18.63117
68.060 18.544519
68.065 17.967587
68.070 18.480516
68.075 19.225901
68.080 19.237534
68.085 19.354683
68.090 18.838207
68.095 18.745029
68.100 19.136911
68.105 20.280727
68.110 20.272949
68.115 19.78808
68.120 19.877338
68.125 20.726423
68.130 20.806618
68.135 20.277115
68.140 18.840057
68.145 18.614117
68.150 18.619574
68.155 18.686125
68.160 18.208965
68.165 18.338749
68.170 18.356426
68.175 18.802824
68.180 19.022015
68.185 19.778244
68.190 20.210876
68.195 20.580212
68.200 20.780045
68.205 21.327749
68.210 21.578798
68.215 21.524393
68.220 21.517374
68.225 21.566517
68.230 22.166611
68.235 22.09281
68.240 21.839663
68.245 22.2939
68.250 22.228426
68.255 21.925062
68.260 21.886168
68.265 22.198643
68.270 22.494368
68.275 22.47407
68.280 22.526594
68.285 22.619352
68.290 23.036562
68.295 22.851112
68.300 22.538553
68.305 22.625454
68.310 23.364088
68.315 24.249451
68.320 24.697693
68.325 24.908072
68.330 25.09721
68.335 25.436092
68.340 25.43635
68.345 25.587044
68.350 26.319506
68.355 26.602627
68.360 26.757196
68.365 27.327059
68.370 27.361216
68.375 28.174261
68.380 28.42469
68.385 28.435343
68.390 29.131384
68.395 29.218248
68.400 29.423134
68.405 29.434008
68.410 29.754416
68.415 30.107241
68.420 30.111349
68.425 30.559711
68.430 30.705339
68.435 30.828043
68.440 31.012707
68.445 30.853914
68.450 30.383032
68.455 30.158916
68.460 30.329485
68.465 31.249096
68.470 32.056957
68.475 32.533089
68.480 32.712883
68.485 33.427685
68.490 32.919651
68.495 32.842857
68.500 32.801292
68.505 32.350136
68.510 31.836214
68.515 31.259624
68.520 32.198273
68.525 33.221077
68.530 33.249405
68.535 33.411098
68.540 33.894276
68.545 34.467865
68.550 34.638577
68.555 34.498306
68.560 34.737469
68.565 35.068985
68.570 34.632656
68.575 34.389778
68.580 34.668018
68.585 34.300949
68.590 34.490116
68.595 34.366554
68.600 34.278618
68.605 34.747391
68.610 34.672318
68.615 34.428959
68.620 35.176365
68.625 34.802086
68.630 34.407921
68.635 34.405766
68.640 34.11797
68.645 34.814877
68.650 34.519821
68.655 34.250767
68.660 34.646152
68.665 34.258846
68.670 34.128433
68.675 34.528786
68.680 34.14019
68.685 35.078045
68.690 35.131058
68.695 34.796398
68.700 34.750999
68.705 34.819263
68.710 35.321301
68.715 35.873581
68.720 35.507996
68.725 35.78323
68.730 36.61541
68.735 37.317631
68.740 37.095066
68.745 36.482029
68.750 35.924709
68.755 35.605762
68.760 35.349815
68.765 35.187866
68.770 35.081669
68.775 35.392479
68.780 35.260174
68.785 35.439598
68.790 35.097801
68.795 34.412792
68.800 33.836521
68.805 33.447151
68.810 32.738277
68.815 32.50251
68.820 32.301235
68.825 32.57679
68.830 33.258247
68.835 33.702641
68.840 33.789433
68.845 34.397594
68.850 34.16362
68.855 34.149929
68.860 34.479912
68.865 34.212959
68.870 33.632496
68.875 33.428936
68.880 32.743687
68.885 32.551571
68.890 32.917259
68.895 32.76104
68.900 32.368351
68.905 32.202843
68.910 31.725899
68.915 32.256393
68.920 32.849415
68.925 32.624828
68.930 32.307697
68.935 31.689327
68.940 32.00898
68.945 32.119282
68.950 32.465263
68.955 31.264854
68.960 30.834646
68.965 31.186586
68.970 31.351889
68.975 31.217136
68.980 30.313848
68.985 29.601358
68.990 29.625851
68.995 29.173552
69.000 28.642817
69.005 28.371161
69.010 27.703564
69.015 27.995529
69.020 27.896681
69.025 27.313501
69.030 26.833126
69.035 25.935799
69.040 26.156322
69.045 26.76749
69.050 26.52453
69.055 26.592321
69.060 26.759501
69.065 26.897169
69.070 26.954781
69.075 26.454288
69.080 25.77413
69.085 25.903023
69.090 25.840271
69.095 25.851835
69.100 26.261663
69.105 25.986897
69.110 25.722591
69.115 25.427931
69.120 24.820032
69.125 24.497793
69.130 24.203634
69.135 24.117001
69.140 25.327349
69.145 24.505838
69.150 24.593142
69.155 24.503687
69.160 24.847485
69.165 24.648586
69.170 24.302454
69.175 22.801117
69.180 23.576887
69.185 24.43598
69.190 24.619471
69.195 23.9692
69.200 23.563015
69.205 23.436457
69.210 23.765453
69.215 23.400177
69.220 22.075218
69.225 21.73765
69.230 21.320375
69.235 21.343344
69.240 21.368759
69.245 21.023798
69.250 20.940733
69.255 20.930351
69.260 21.008156
69.265 20.947409
69.270 20.897446
69.275 21.086451
69.280 21.627695
69.285 21.647488
69.290 21.600355
69.295 21.805933
69.300 22.303558
69.305 22.355062
69.310 22.19165
69.315 21.240604
69.320 21.242798
69.325 21.524464
69.330 21.604198
69.335 21.51042
69.340 20.675079
69.345 19.895578
69.350 20.229931
69.355 20.092375
69.360 19.352102
69.365 18.796038
69.370 18.725674
69.375 19.419703
69.380 19.640364
69.385 19.450853
69.390 19.455273
69.395 19.168369
69.400 19.641516
69.405 19.343159
69.410 19.372816
69.415 19.568626
69.420 19.094707
69.425 18.807449
69.430 19.267956
69.435 19.30015
69.440 19.320255
69.445 18.750942
69.450 18.036947
69.455 18.528028
69.460 18.053593
69.465 17.845364
69.470 17.725786
69.475 17.738546
69.480 18.235901
69.485 18.817142
69.490 18.91288
69.495 19.723091
69.500 19.786978
69.505 19.709953
69.510 19.86013
69.515 20.108879
69.520 19.559488
69.525 19.300869
69.530 18.875948
69.535 18.512695
69.540 18.552685
69.545 18.172783
69.550 17.72485
69.555 17.786594
69.560 17.842213
69.565 18.034708
69.570 17.858917
69.575 17.695402
69.580 18.292078
69.585 18.47451
69.590 18.450071
69.595 18.202248
69.600 17.866289
69.605 17.926476
69.610 17.816013
69.615 17.969286
69.620 18.11981
69.625 18.018362
69.630 18.165659
69.635 18.285477
69.640 18.525682
69.645 18.223488
69.650 18.133619
69.655 17.82983
69.660 17.945683
69.665 17.750547
69.670 17.901031
69.675 17.949066
69.680 17.777302
69.685 17.757326
69.690 17.856358
69.695 18.004473
69.700 18.422779
69.705 18.832512
69.710 18.386597
69.715 18.406666
69.720 18.592497
69.725 19.096394
69.730 18.507277
69.735 17.904425
69.740 17.927406
69.745 18.905233
69.750 18.851086
69.755 18.38023
69.760 18.083065
69.765 18.581945
69.770 18.892111
69.775 18.51811
69.780 17.924444
69.785 18.444445
69.790 18.625105
69.795 18.436993
69.800 18.602299
69.805 18.545395
69.810 18.807178
69.815 18.910433
69.820 18.813782
69.825 19.002937
69.830 19.55121
69.835 19.503601
69.840 19.452324
69.845 19.38662
69.850 18.964521
69.855 18.946657
69.860 18.742144
69.865 18.427391
69.870 18.067255
69.875 18.259897
69.880 18.504944
69.885 18.526924
69.890 18.676023
69.895 18.583279
69.900 18.510267
69.905 18.634396
69.910 18.908619
69.915 18.788277
69.920 18.842934
69.925 18.707964
69.930 18.801548
69.935 19.04184
69.940 18.749573
69.945 17.95363
69.950 18.060289
69.955 18.114136
69.960 17.990278
69.965 17.994738
69.970 18.072611
69.975 18.232756
69.980 18.273891
69.985 18.124737
69.990 17.803169
69.995 18.473497
70.000 18.390429
70.005 18.10491
70.010 18.240068
70.015 18.786249
70.020 18.856256
70.025 19.154087
70.030 19.222736
70.035 19.329079
70.040 19.584396
70.045 19.471607
70.050 18.96203
70.055 18.655991
70.060 18.375742
70.065 17.816038
70.070 17.413242
70.075 17.584675
70.080 17.304007
70.085 17.531322
70.090 17.434269
70.095 17.113649
70.100 17.013964
70.105 16.381601
70.110 16.396509
70.115 17.011818
70.120 16.83564
70.125 16.721176
70.130 16.927914
70.135 17.426903
70.140 17.921719
70.145 17.426256
70.150 16.881144
70.155 17.15708
70.160 17.65625
70.165 17.241745
70.170 17.45447
70.175 17.599241
70.180 18.038954
70.185 18.265398
70.190 18.234276
70.195 18.469767
70.200 19.183926
70.205 18.875286
70.210 19.19532
70.215 19.19211
70.220 19.446993
70.225 19.421522
70.230 19.33082
70.235 18.972326
70.240 19.505365
70.245 18.855446
70.250 18.58382
70.255 17.996881
70.260 17.654097
70.265 17.807745
70.270 17.608765
70.275 16.883051
70.280 17.054592
70.285 17.201893
70.290 17.311899
70.295 16.852795
70.300 16.393999
70.305 16.741632
70.310 17.101894
70.315 17.103662
70.320 16.960407
70.325 17.124435
70.330 17.219122
70.335 17.3671
70.340 17.175184
70.345 16.799124
70.350 17.11414
70.355 17.028887
70.360 17.433334
70.365 17.762947
70.370 17.576664
70.375 17.700132
70.380 17.959887
70.385 17.521456
70.390 17.48811
70.395 17.616581
70.400 17.913017
70.405 18.063297
70.410 18.031637
70.415 17.831684
70.420 17.943104
70.425 18.012526
70.430 17.931297
70.435 17.660736
70.440 17.609213
70.445 17.375338
70.450 17.661745
70.455 17.548355
70.460 17.435595
70.465 16.902842
70.470 16.781349
70.475 16.843512
70.480 17.266569
70.485 17.399292
70.490 17.395575
70.495 17.624727
70.500 17.816544
70.505 17.887295
70.510 18.067892
70.515 17.494745
70.520 17.605124
70.525 18.099094
70.530 17.763844
70.535 17.819304
70.540 18.024702
70.545 17.7712
70.550 18.375242
70.555 18.377186
70.560 17.450047
70.565 17.383583
70.570 17.225809
70.575 17.195242
70.580 17.094416
70.585 17.090651
70.590 17.345417
70.595 17.830612
70.600 18.324347
70.605 18.002045
70.610 18.242861
70.615 18.443071
70.620 18.26092
70.625 18.460323
70.630 18.967295
70.635 18.997128
70.640 18.886187
70.645 18.22991
70.650 18.246901
70.655 17.751919
70.660 17.292229
70.665 17.249544
70.670 17.131845
70.675 17.761082
70.680 17.713228
70.685 17.265808
70.690 17.42355
70.695 17.736677
70.700 17.876505
70.705 18.053257
70.710 18.102365
70.715 18.499489
70.720 18.516449
70.725 18.71303
70.730 18.126036
70.735 17.944817
70.740 17.43931
70.745 17.211563
70.750 17.686018
70.755 17.859436
70.760 17.528589
70.765 17.781935
70.770 18.014341
70.775 18.41411
70.780 17.970678
70.785 17.382465
70.790 16.982977
70.795 16.687407
70.800 16.031004
70.805 15.378137
70.810 15.474514
70.815 16.071487
70.820 16.148035
70.825 16.678215
70.830 17.245525
70.835 17.275265
70.840 17.963455
70.845 17.790943
70.850 17.449478
70.855 17.514698
70.860 17.625473
70.865 17.986378
70.870 18.207397
70.875 18.517992
70.880 18.718243
70.885 18.827427
70.890 18.285242
70.895 17.324551
70.900 16.927563
70.905 16.606379
70.910 15.876003
70.915 15.414392
70.920 15.417289
70.925 15.614792
70.930 15.912177
70.935 15.41311
70.940 15.428953
70.945 15.835561
70.950 15.982779
70.955 16.122179
70.960 16.368992
70.965 16.736065
70.970 17.350357
70.975 17.308661
70.980 17.20397
70.985 17.658968
70.990 17.274611
70.995 16.83362
71.000 16.791967
71.005 16.158045
71.010 16.115114
71.015 16.487988
71.020 16.111021
71.025 15.945967
71.030 15.798043
71.035 16.275257
71.040 17.378811
71.045 17.130682
71.050 16.889805
71.055 17.006935
71.060 17.407724
71.065 17.684395
71.070 17.771198
71.075 17.643183
71.080 17.492983
71.085 17.810549
71.090 18.784788
71.095 19.336241
71.100 18.712339
71.105 17.913017
71.110 17.475676
71.115 17.019611
71.120 16.551964
71.125 16.097233
71.130 16.209883
71.135 16.323278
71.140 16.169664
71.145 16.190655
71.150 16.848312
71.155 16.850796
71.160 16.219511
71.165 16.304764
71.170 17.200489
71.175 17.29664
71.180 17.461737
71.185 17.427721
71.190 17.511177
71.195 17.879417
71.200 17.248276
71.205 16.578806
71.210 17.014462
71.215 17.536304
71.220 17.327269
71.225 17.413073
71.230 17.85154
71.235 18.711185
71.240 19.41514
71.245 19.426037
71.250 19.633081
71.255 19.673048
71.260 18.904608
71.265 18.417587
71.270 17.95945
71.275 18.134342
71.280 17.980591
71.285 17.689171
71.290 17.9643
71.295 18.763672
71.300 18.502369
71.305 18.084911
71.310 17.787418
71.315 18.279022
71.320 18.859928
71.325 18.941845
71.330 18.363327
71.335 18.51099
71.340 18.825602
71.345 18.403603
71.350 17.753407
71.355 16.93181
71.360 16.765896
71.365 16.316999
71.370 16.439369
71.375 16.217163
71.380 16.129368
71.385 15.996367
71.390 16.34568
71.395 16.815296
71.400 17.754993
71.405 17.761213
71.410 17.881643
71.415 18.55974
71.420 19.237883
71.425 19.876537
71.430 19.822666
71.435 19.21739
71.440 18.855658
71.445 18.840281
71.450 18.749271
71.455 18.314697
71.460 17.794125
71.465 17.487396
71.470 17.709305
71.475 18.704657
71.480 18.778519
71.485 18.511351
71.490 18.345518
71.495 18.436684
71.500 18.808861
71.505 18.612095
71.510 18.101658
71.515 18.100029
71.520 18.038902
71.525 18.060307
71.530 17.612703
71.535 17.953138
71.540 17.946905
71.545 17.675703
71.550 17.824272
71.555 17.830296
71.560 18.128817
71.565 18.246065
71.570 17.416897
71.575 16.971354
71.580 16.749615
71.585 16.340801
71.590 16.474575
71.595 16.394184
71.600 16.331783
71.605 16.954317
71.610 17.072483
71.615 17.248554
71.620 17.240381
71.625 17.049911
71.630 17.613041
71.635 17.400564
71.640 17.408066
71.645 17.019447
71.650 17.170639
71.655 17.430208
71.660 17.882223
71.665 18.111668
71.670 18.191664
71.675 18.477259
71.680 19.030443
71.685 18.866764
71.690 18.545979
71.695 18.081207
71.700 18.151033
71.705 18.212109
71.710 18.29368
71.715 18.644087
71.720 18.603384
71.725 18.538364
71.730 18.109972
71.735 17.804739
71.740 17.770473
71.745 17.774546
71.750 17.84449
71.755 18.287071
71.760 17.924625
71.765 17.811176
71.770 18.08684
71.775 18.69738
71.780 18.264069
71.785 17.754177
71.790 17.898975
71.795 18.73172
71.800 18.591413
71.805 18.642954
71.810 18.419119
71.815 18.824427
71.820 18.861237
71.825 18.323565
71.830 18.202974
71.835 18.067278
71.840 17.989014
71.845 18.349106
71.850 18.319538
71.855 18.126898
71.860 17.821451
71.865 17.788885
71.870 17.890514
71.875 18.07295
71.880 17.518887
71.885 17.224779
71.890 16.981171
71.895 17.475079
71.900 17.679302
71.905 17.787277
71.910 17.467819
71.915 17.726427
71.920 17.532133
71.925 17.378635
71.930 17.001932
71.935 16.598032
71.940 16.355398
71.945 16.424099
71.950 16.484392
71.955 17.13838
71.960 17.819155
71.965 17.952879
71.970 18.056877
71.975 18.365238
71.980 18.643711
71.985 18.472033
71.990 18.603834
71.995 18.607924
72.000 18.754452
72.005 18.746136
72.010 18.571877
72.015 18.059122
72.020 17.765684
72.025 17.645969
72.030 17.446558
72.035 17.357761
72.040 17.551243
72.045 18.005817
72.050 17.924786
72.055 17.74427
72.060 17.824013
72.065 17.930349
72.070 17.843712
72.075 17.954332
72.080 18.168207
72.085 18.067471
72.090 18.246126
72.095 18.418579
72.100 18.397457
72.105 17.894505
72.110 17.433407
72.115 17.862091
72.120 17.782934
72.125 17.48568
72.130 17.143181
72.135 16.836851
72.140 17.028193
72.145 17.173386
72.150 17.052191
72.155 17.226732
72.160 17.619539
72.165 17.633425
72.170 17.779535
72.175 17.132273
72.180 17.095833
72.185 17.079224
72.190 17.462086
72.195 17.666512
72.200 17.552299
72.205 17.834358
72.210 18.126358
72.215 17.543369
72.220 17.085539
72.225 16.685328
72.230 16.51182
72.235 17.082972
72.240 17.344391
72.245 17.342072
72.250 17.933611
72.255 18.67461
72.260 18.524031
72.265 18.565531
72.270 18.449677
72.275 18.476093
72.280 18.612532
72.285 18.216038
72.290 17.449648
72.295 17.806881
72.300 18.176805
72.305 18.222441
72.310 18.184311
72.315 18.055006
72.320 17.846519
72.325 17.720602
72.330 17.353548
72.335 16.927309
72.340 16.900829
72.345 16.703836
72.350 17.036774
72.355 17.436689
72.360 17.672369
72.365 18.165514
72.370 18.210396
72.375 18.28005
72.380 18.391455
72.385 18.298693
72.390 17.947365
72.395 18.118979
72.400 18.032558
72.405 17.591036
72.410 17.298683
72.415 16.962746
72.420 16.446381
72.425 16.672499
72.430 16.067394
72.435 15.826622
72.440 15.830481
72.445 15.727706
72.450 16.036552
72.455 15.824304
72.460 15.795464
72.465 16.263304
72.470 16.435364
72.475 16.486774
72.480 16.530046
72.485 17.107752
72.490 17.036282
72.495 16.548401
72.500 16.283634
72.505 16.585047
72.510 16.35314
72.515 16.157532
72.520 16.497839
72.525 17.1577
72.530 17.179033
72.535 16.784452
72.540 16.703264
72.545 16.948668
72.550 17.057226
72.555 16.483263
72.560 16.525763
72.565 16.550896
72.570 16.834345
72.575 17.127676
72.580 17.379562
72.585 17.892921
72.590 17.937292
72.595 18.015373
72.600 18.683455
72.605 18.540089
72.610 18.126392
72.615 17.743914
72.620 16.618765
72.625 16.748354
72.630 16.417753
72.635 16.004272
72.640 15.660338
72.645 15.887859
72.650 15.900191
72.655 16.064259
72.660 15.87502
72.665 15.481482
72.670 15.819236
72.675 16.088655
72.680 15.791741
72.685 16.306475
72.690 17.405308
72.695 17.549576
72.700 17.587879
72.705 17.22563
72.710 17.20265
72.715 17.343136
72.720 16.857878
72.725 16.353081
72.730 16.826813
72.735 16.669424
72.740 17.08028
72.745 16.915869
72.750 16.367195
72.755 16.376398
72.760 16.653023
72.765 16.67836
72.770 17.141882
72.775 17.443647
72.780 18.203207
72.785 18.513592
72.790 18.531092
72.795 18.456175
72.800 18.645723
72.805 17.982092
72.810 17.759579
72.815 17.402016
72.820 17.427582
72.825 16.924837
72.830 16.206127
72.835 16.104731
72.840 15.80373
72.845 15.44975
72.850 15.316344
72.855 15.152913
72.860 15.102929
72.865 15.100171
72.870 15.133196
72.875 15.525102
72.880 16.184124
72.885 15.985637
72.890 16.118147
72.895 15.685376
72.900 15.770943
72.905 15.574293
72.910 15.587488
72.915 15.148345
72.920 15.272245
72.925 15.446159
72.930 16.209454
72.935 16.694275
72.940 16.644678
72.945 16.458214
72.950 16.772463
72.955 16.793547
72.960 16.053257
72.965 15.507432
72.970 15.380752
72.975 15.655091
72.980 15.892882
72.985 16.245476
72.990 16.153446
72.995 16.322252
73.000 16.701237
