!@!!GADDS PLOTSO FILE: Chi integration type
!@!!Title/SampleName: map-29
!@!!Comment: ?
!@!!User: Bruker Instrument Administrator
!@!!Site: University of Illinois Chicago
!@!!Frame: map-29_01_000.gfrm
!@!!Wavelengths    1.54184   1.54056   1.54439
!@!!Frame angles: 2Theta: 63.000 Omega: 50.000 Phi: 0.000 Chi: 90.000
!@!!Integration range: 2Theta: 53.000 to 73.000  Gamma: -105.000 to -75.000
!@!!Integration method: bin normalized
!@!N
!@!SS
!@!M
!@!L 0.0 0.0 0.0 0.0
!@!XDegrees
!@!YCounts
53.000 6.341733
53.005 6.347695
53.010 5.967547
53.015 6.09535
53.020 6.168463
53.025 5.885473
53.030 5.761546
53.035 5.559578
53.040 5.708006
53.045 5.949007
53.050 5.944821
53.055 6.245398
53.060 6.281676
53.065 6.187407
53.070 5.918407
53.075 5.88955
53.080 5.976077
53.085 5.836837
53.090 5.924146
53.095 6.379114
53.100 6.630679
53.105 6.858169
53.110 6.71523
53.115 6.902705
53.120 7.284799
53.125 7.163505
53.130 7.287213
53.135 7.428598
53.140 7.554064
53.145 7.76188
53.150 7.479557
53.155 7.300295
53.160 7.379381
53.165 7.065997
53.170 7.304898
53.175 7.313143
53.180 7.45862
53.185 7.636579
53.190 8.080297
53.195 7.950532
53.200 7.927557
53.205 7.81277
53.210 7.817984
53.215 8.048267
53.220 7.953463
53.225 7.596455
53.230 7.483898
53.235 7.606342
53.240 7.645001
53.245 7.543973
53.250 7.363881
53.255 6.759863
53.260 6.755839
53.265 6.771744
53.270 6.629752
53.275 6.350107
53.280 6.413705
53.285 6.481046
53.290 6.851415
53.295 6.935653
53.300 6.658025
53.305 6.692419
53.310 6.887084
53.315 6.799051
53.320 6.791637
53.325 7.158379
53.330 7.319179
53.335 7.475928
53.340 7.271465
53.345 6.887856
53.350 7.078663
53.355 7.228317
53.360 7.065326
53.365 6.988493
53.370 6.705193
53.375 7.032004
53.380 7.270817
53.385 7.057723
53.390 6.902928
53.395 6.624028
53.400 6.465744
53.405 7.113962
53.410 7.111015
53.415 7.206195
53.420 7.328282
53.425 7.190574
53.430 7.038908
53.435 7.229412
53.440 6.641585
53.445 6.500162
53.450 6.258132
53.455 6.000029
53.460 6.034125
53.465 6.278428
53.470 6.112313
53.475 6.214981
53.480 6.168355
53.485 6.292204
53.490 6.598295
53.495 6.760436
53.500 7.325972
53.505 7.473859
53.510 7.359297
53.515 7.826668
53.520 7.94317
53.525 8.005557
53.530 7.815099
53.535 7.313076
53.540 7.337647
53.545 7.335073
53.550 7.168931
53.555 7.349869
53.560 7.470741
53.565 7.723315
53.570 7.86741
53.575 7.954127
53.580 8.15404
53.585 8.177784
53.590 8.014923
53.595 7.860864
53.600 7.985072
53.605 8.141582
53.610 8.483816
53.615 8.467172
53.620 8.248731
53.625 8.639966
53.630 8.355587
53.635 8.366608
53.640 8.326626
53.645 7.647304
53.650 7.299991
53.655 7.411639
53.660 7.496582
53.665 7.227175
53.670 6.964746
53.675 7.143187
53.680 7.472612
53.685 7.486082
53.690 7.758751
53.695 7.861145
53.700 8.755265
53.705 8.55475
53.710 8.473861
53.715 8.525543
53.720 8.276114
53.725 7.326618
53.730 7.314511
53.735 7.05766
53.740 7.363307
53.745 7.615247
53.750 7.614228
53.755 8.133492
53.760 8.471556
53.765 8.505161
53.770 8.430302
53.775 8.106666
53.780 8.036571
53.785 8.144629
53.790 8.277534
53.795 8.07013
53.800 8.070419
53.805 7.777612
53.810 7.871286
53.815 8.196051
53.820 7.892494
53.825 8.142735
53.830 8.010654
53.835 7.729622
53.840 7.81585
53.845 7.641076
53.850 7.458084
53.855 7.657897
53.860 8.093435
53.865 8.276201
53.870 8.327433
53.875 8.506669
53.880 8.360893
53.885 8.456637
53.890 8.293666
53.895 7.681042
53.900 7.727862
53.905 8.12374
53.910 8.385278
53.915 8.394268
53.920 8.441951
53.925 8.484525
53.930 8.64722
53.935 8.941964
53.940 8.881136
53.945 8.649195
53.950 8.82973
53.955 8.451137
53.960 8.478381
53.965 8.454502
53.970 8.122262
53.975 7.976023
53.980 8.064606
53.985 7.581482
53.990 7.698528
53.995 7.187247
54.000 7.597008
54.005 7.632995
54.010 7.267726
54.015 7.122817
54.020 6.964325
54.025 7.3211
54.030 7.826634
54.035 7.737947
54.040 7.470836
54.045 7.92264
54.050 8.456623
54.055 8.892586
54.060 8.654216
54.065 8.287405
54.070 8.344853
54.075 8.492752
54.080 8.627197
54.085 8.320369
54.090 8.055655
54.095 8.224109
54.100 8.848726
54.105 9.477116
54.110 9.417686
54.115 9.513939
54.120 9.694143
54.125 9.792769
54.130 9.882913
54.135 9.439757
54.140 9.163498
54.145 9.214217
54.150 8.943157
54.155 8.992177
54.160 8.868134
54.165 8.27439
54.170 8.040971
54.175 8.051127
54.180 8.089368
54.185 7.927408
54.190 7.771549
54.195 8.078644
54.200 8.659063
54.205 8.779489
54.210 8.717739
54.215 9.015483
54.220 9.577776
54.225 9.705534
54.230 9.468868
54.235 9.228836
54.240 9.26601
54.245 9.022415
54.250 8.757747
54.255 8.890146
54.260 9.012454
54.265 8.650793
54.270 8.392629
54.275 8.310297
54.280 8.771253
54.285 8.412334
54.290 8.359862
54.295 8.300346
54.300 8.583034
54.305 8.879025
54.310 8.918912
54.315 8.719212
54.320 8.897458
54.325 8.704629
54.330 9.05626
54.335 9.450006
54.340 9.535636
54.345 9.099572
54.350 9.059965
54.355 9.030848
54.360 9.221777
54.365 8.723052
54.370 8.238689
54.375 8.1581
54.380 8.281499
54.385 8.222928
54.390 7.883166
54.395 7.320305
54.400 7.086035
54.405 7.101065
54.410 7.516914
54.415 7.584986
54.420 7.544645
54.425 7.932052
54.430 8.725358
54.435 9.279154
54.440 9.538033
54.445 9.161704
54.450 9.241087
54.455 10.038958
54.460 10.387511
54.465 9.958281
54.470 9.350301
54.475 8.633888
54.480 8.787222
54.485 8.486092
54.490 7.90333
54.495 7.41349
54.500 7.235432
54.505 7.396163
54.510 7.669988
54.515 7.676461
54.520 7.704564
54.525 7.855708
54.530 8.100408
54.535 8.431434
54.540 8.846247
54.545 8.804626
54.550 8.987844
54.555 8.863404
54.560 8.799398
54.565 8.740907
54.570 8.571907
54.575 8.515138
54.580 8.269212
54.585 8.280973
54.590 8.108307
54.595 8.69116
54.600 8.732949
54.605 8.767229
54.610 8.74473
54.615 9.012701
54.620 9.445363
54.625 9.563823
54.630 8.9527
54.635 9.059376
54.640 9.217976
54.645 9.474002
54.650 9.149954
54.655 8.852525
54.660 8.896566
54.665 8.937228
54.670 9.054246
54.675 8.625599
54.680 8.856109
54.685 8.520531
54.690 8.434788
54.695 8.455964
54.700 8.489341
54.705 8.223458
54.710 8.768484
54.715 9.108564
54.720 9.57237
54.725 9.43705
54.730 9.515635
54.735 9.284703
54.740 9.196928
54.745 8.821973
54.750 8.168914
54.755 8.49684
54.760 8.981822
54.765 9.074398
54.770 9.528917
54.775 9.779164
54.780 9.767659
54.785 9.56758
54.790 9.052349
54.795 8.737843
54.800 8.524746
54.805 8.415581
54.810 8.021488
54.815 8.146995
54.820 8.534036
54.825 8.847805
54.830 9.23065
54.835 9.295184
54.840 9.458417
54.845 9.719576
54.850 9.858359
54.855 9.591427
54.860 8.931709
54.865 8.67672
54.870 8.882813
54.875 8.853347
54.880 9.189425
54.885 9.031181
54.890 9.180632
54.895 9.243864
54.900 9.147861
54.905 8.807325
54.910 9.180116
54.915 8.964744
54.920 9.047283
54.925 9.467688
54.930 9.789267
54.935 9.84626
54.940 9.950507
54.945 9.271598
54.950 9.340495
54.955 9.257652
54.960 8.976817
54.965 8.92653
54.970 9.116323
54.975 9.249622
54.980 9.535158
54.985 9.941077
54.990 10.465551
54.995 10.364185
55.000 10.122249
55.005 9.753885
55.010 9.509941
55.015 9.376573
55.020 9.226196
55.025 9.107928
55.030 9.357442
55.035 9.808245
55.040 10.508028
55.045 10.314418
55.050 10.620391
55.055 10.297721
55.060 10.257626
55.065 9.871436
55.070 9.395835
55.075 9.209921
55.080 9.398948
55.085 8.463092
55.090 8.004437
55.095 7.964846
55.100 7.998406
55.105 8.148612
55.110 8.10156
55.115 8.461061
55.120 9.216494
55.125 9.593773
55.130 9.887831
55.135 10.35375
55.140 10.26278
55.145 10.206668
55.150 9.923958
55.155 9.55646
55.160 9.522031
55.165 9.511818
55.170 9.710546
55.175 9.732265
55.180 9.814903
55.185 10.005648
55.190 10.415374
55.195 10.63105
55.200 10.501514
55.205 10.459848
55.210 10.282922
55.215 10.405713
55.220 10.250776
55.225 10.416245
55.230 10.277657
55.235 10.113235
55.240 9.631659
55.245 9.57049
55.250 9.429754
55.255 8.925778
55.260 8.539437
55.265 8.601871
55.270 9.189313
55.275 9.752759
55.280 10.285384
55.285 10.383647
55.290 10.753379
55.295 10.772777
55.300 10.411372
55.305 9.842918
55.310 9.515077
55.315 8.988571
55.320 9.029816
55.325 8.829642
55.330 8.640367
55.335 8.830059
55.340 8.72333
55.345 8.626722
55.350 8.533418
55.355 8.212313
55.360 8.526398
55.365 9.156281
55.370 9.219807
55.375 9.285575
55.380 9.428243
55.385 9.71903
55.390 10.328445
55.395 9.949631
55.400 9.529927
55.405 9.866982
55.410 9.923915
55.415 9.602201
55.420 9.705636
55.425 9.538297
55.430 9.862206
55.435 9.874475
55.440 9.634845
55.445 9.785347
55.450 10.262965
55.455 10.24299
55.460 10.312656
55.465 10.225753
55.470 10.294644
55.475 10.450555
55.480 10.271096
55.485 10.43516
55.490 10.368729
55.495 10.552959
55.500 10.535909
55.505 10.510082
55.510 10.611646
55.515 10.975047
55.520 11.025193
55.525 10.675185
55.530 9.917014
55.535 9.656559
55.540 9.837924
55.545 9.779675
55.550 9.489484
55.555 9.075558
55.560 8.779563
55.565 9.067267
55.570 8.984352
55.575 9.154535
55.580 9.3016
55.585 9.764474
55.590 10.692725
55.595 11.546223
55.600 12.033674
55.605 12.010614
55.610 12.168164
55.615 11.967299
55.620 11.541726
55.625 10.524313
55.630 9.958666
55.635 9.316957
55.640 9.27562
55.645 8.771849
55.650 8.308769
55.655 8.499353
55.660 8.988684
55.665 9.229526
55.670 9.58858
55.675 9.840242
55.680 10.148932
55.685 10.601859
55.690 10.613076
55.695 10.77636
55.700 10.779931
55.705 11.085402
55.710 10.683342
55.715 10.471889
55.720 10.676084
55.725 10.856282
55.730 10.972443
55.735 10.586002
55.740 10.332137
55.745 10.482354
55.750 10.629902
55.755 10.329834
55.760 9.859743
55.765 9.757002
55.770 10.099948
55.775 9.996799
55.780 9.881422
55.785 9.733229
55.790 9.99683
55.795 10.206469
55.800 10.419484
55.805 10.295452
55.810 10.831049
55.815 11.124681
55.820 10.964799
55.825 10.894231
55.830 11.167669
55.835 11.137537
55.840 11.091177
55.845 10.818102
55.850 10.750003
55.855 10.824862
55.860 10.636519
55.865 10.578218
55.870 10.579546
55.875 10.567083
55.880 10.632704
55.885 10.30926
55.890 9.996099
55.895 9.827013
55.900 9.243258
55.905 8.886024
55.910 8.822932
55.915 8.706334
55.920 9.038134
55.925 9.636066
55.930 9.606426
55.935 10.161904
55.940 10.547954
55.945 10.446866
55.950 10.037919
55.955 9.871716
55.960 9.302795
55.965 9.176757
55.970 9.358188
55.975 9.725522
55.980 10.164998
55.985 10.425734
55.990 10.516858
55.995 10.673257
56.000 10.597606
56.005 10.397441
56.010 10.375607
56.015 10.467937
56.020 10.765053
56.025 10.842093
56.030 11.012255
56.035 11.089205
56.040 10.926445
56.045 10.47916
56.050 10.316503
56.055 10.307457
56.060 10.442156
56.065 10.840178
56.070 11.473868
56.075 11.825984
56.080 12.107509
56.085 11.879574
56.090 11.622203
56.095 11.735266
56.100 11.116852
56.105 10.553272
56.110 9.85336
56.115 9.906044
56.120 10.15051
56.125 10.072253
56.130 10.1546
56.135 10.2151
56.140 10.467219
56.145 10.106992
56.150 9.879741
56.155 10.080146
56.160 10.023645
56.165 9.771038
56.170 9.742593
56.175 9.904339
56.180 10.670981
56.185 10.604788
56.190 10.550366
56.195 10.752358
56.200 11.345592
56.205 11.919479
56.210 12.167157
56.215 11.849601
56.220 11.995523
56.225 11.78205
56.230 11.402702
56.235 11.041739
56.240 10.381266
56.245 10.549457
56.250 11.051088
56.255 10.703095
56.260 11.148027
56.265 11.20997
56.270 11.336834
56.275 11.259242
56.280 10.738114
56.285 10.585797
56.290 10.715521
56.295 10.85125
56.300 11.142754
56.305 11.027385
56.310 10.886346
56.315 10.942994
56.320 10.802692
56.325 10.631311
56.330 9.693309
56.335 9.26928
56.340 9.370564
56.345 9.730479
56.350 9.941857
56.355 9.973864
56.360 10.099431
56.365 10.797843
56.370 11.012634
56.375 10.808253
56.380 10.549604
56.385 10.169667
56.390 10.040556
56.395 10.176624
56.400 9.888107
56.405 9.636802
56.410 9.780829
56.415 9.814552
56.420 9.570513
56.425 10.194915
56.430 10.539547
56.435 10.37218
56.440 10.596812
56.445 10.526241
56.450 10.688036
56.455 10.804854
56.460 10.500939
56.465 10.809228
56.470 11.07638
56.475 11.163222
56.480 11.077629
56.485 11.083776
56.490 11.266531
56.495 10.935048
56.500 10.728176
56.505 10.341449
56.510 10.13247
56.515 10.036144
56.520 10.041542
56.525 10.290548
56.530 10.190136
56.535 10.151117
56.540 10.252135
56.545 10.625682
56.550 11.244512
56.555 11.561921
56.560 11.55098
56.565 11.285587
56.570 11.451323
56.575 11.475493
56.580 11.471754
56.585 10.951723
56.590 11.414237
56.595 11.844192
56.600 12.682826
56.605 12.602143
56.610 12.40976
56.615 12.496044
56.620 12.370437
56.625 11.722696
56.630 11.442635
56.635 11.236092
56.640 11.448289
56.645 11.570157
56.650 11.12041
56.655 11.195503
56.660 11.158281
56.665 10.785941
56.670 10.83811
56.675 10.606333
56.680 10.722352
56.685 11.379804
56.690 11.695274
56.695 11.928251
56.700 12.026558
56.705 11.665034
56.710 11.833798
56.715 12.013076
56.720 11.657468
56.725 11.538697
56.730 11.528293
56.735 11.975555
56.740 12.046693
56.745 11.855185
56.750 11.703589
56.755 11.691683
56.760 11.653219
56.765 11.606939
56.770 11.902448
56.775 11.950999
56.780 11.989417
56.785 12.070806
56.790 11.670198
56.795 11.563693
56.800 11.388185
56.805 11.050266
56.810 11.19698
56.815 10.721516
56.820 10.756412
56.825 11.38461
56.830 11.618447
56.835 12.492649
56.840 12.798542
56.845 13.076392
56.850 13.232516
56.855 13.079795
56.860 12.576993
56.865 12.667085
56.870 12.411509
56.875 12.420518
56.880 12.280787
56.885 12.529445
56.890 12.81486
56.895 13.076664
56.900 12.745479
56.905 12.708016
56.910 12.910584
56.915 12.87358
56.920 13.106462
56.925 13.005779
56.930 13.613715
56.935 13.427882
56.940 13.080938
56.945 12.841248
56.950 12.976041
56.955 12.667909
56.960 12.546502
56.965 11.99119
56.970 12.30645
56.975 12.567031
56.980 12.345148
56.985 12.295509
56.990 12.721162
56.995 13.073988
57.000 13.062333
57.005 12.301432
57.010 11.954465
57.015 12.294163
57.020 12.510913
57.025 12.06333
57.030 11.432553
57.035 11.592608
57.040 11.494802
57.045 11.467501
57.050 11.11437
57.055 11.059629
57.060 11.875076
57.065 12.266286
57.070 12.475425
57.075 12.942018
57.080 12.871517
57.085 12.732591
57.090 12.33943
57.095 12.266139
57.100 11.99628
57.105 11.405512
57.110 11.1296
57.115 11.382976
57.120 11.483889
57.125 11.682442
57.130 11.555514
57.135 11.990396
57.140 12.323823
57.145 12.089828
57.150 11.848798
57.155 11.788168
57.160 11.48863
57.165 11.255753
57.170 10.962749
57.175 11.281672
57.180 11.742508
57.185 11.987754
57.190 12.124949
57.195 12.494201
57.200 12.835214
57.205 13.229118
57.210 13.306929
57.215 13.629384
57.220 13.216465
57.225 13.447309
57.230 13.402236
57.235 13.127584
57.240 12.898843
57.245 12.916146
57.250 12.552031
57.255 12.648607
57.260 12.391258
57.265 12.543992
57.270 12.568934
57.275 12.624861
57.280 12.506812
57.285 12.493737
57.290 12.505939
57.295 12.710343
57.300 12.422633
57.305 12.441381
57.310 12.269026
57.315 12.262422
57.320 12.75421
57.325 12.776452
57.330 12.228885
57.335 12.355576
57.340 12.405036
57.345 12.365789
57.350 12.474903
57.355 12.343225
57.360 12.440796
57.365 12.791349
57.370 12.771358
57.375 12.803755
57.380 13.091911
57.385 13.455143
57.390 13.428365
57.395 13.430326
57.400 13.654942
57.405 13.932349
57.410 13.831583
57.415 13.39756
57.420 13.294935
57.425 13.309084
57.430 13.581467
57.435 13.350251
57.440 12.723969
57.445 12.529506
57.450 12.604077
57.455 11.945241
57.460 12.35951
57.465 12.635163
57.470 12.603541
57.475 12.797331
57.480 13.021215
57.485 12.904032
57.490 13.211302
57.495 13.331156
57.500 13.084606
57.505 13.477598
57.510 13.907854
57.515 13.768674
57.520 13.962387
57.525 13.859984
57.530 13.055824
57.535 12.92707
57.540 12.264811
57.545 11.850301
57.550 11.551323
57.555 11.81551
57.560 11.886419
57.565 12.073268
57.570 11.86654
57.575 12.07432
57.580 12.463279
57.585 13.011438
57.590 12.991061
57.595 13.349369
57.600 13.431572
57.605 13.630409
57.610 13.537292
57.615 13.438621
57.620 13.402535
57.625 13.193444
57.630 12.417399
57.635 12.43758
57.640 12.358834
57.645 12.543723
57.650 12.593864
57.655 12.547108
57.660 13.011722
57.665 12.934327
57.670 12.913603
57.675 12.781147
57.680 12.584436
57.685 12.15726
57.690 11.953161
57.695 11.701681
57.700 11.985614
57.705 11.908569
57.710 11.735035
57.715 11.583414
57.720 11.694651
57.725 11.600441
57.730 11.099644
57.735 11.097645
57.740 11.351376
57.745 11.904658
57.750 11.923906
57.755 12.164529
57.760 12.52463
57.765 12.645347
57.770 12.208399
57.775 12.044147
57.780 12.296828
57.785 12.735168
57.790 12.606493
57.795 12.337373
57.800 12.67016
57.805 13.348475
57.810 13.7498
57.815 13.83209
57.820 14.174517
57.825 14.345918
57.830 14.68047
57.835 15.265429
57.840 15.057555
57.845 14.657041
57.850 13.926861
57.855 13.358393
57.860 13.158004
57.865 12.688371
57.870 12.224925
57.875 12.21765
57.880 12.269526
57.885 12.582922
57.890 13.024093
57.895 13.005194
57.900 13.498009
57.905 13.209762
57.910 13.021061
57.915 13.039151
57.920 12.648564
57.925 12.352159
57.930 12.561972
57.935 12.1274
57.940 12.285171
57.945 12.525601
57.950 12.741714
57.955 13.395187
57.960 13.363873
57.965 13.203802
57.970 12.586587
57.975 12.360325
57.980 11.951903
57.985 12.162479
57.990 11.740746
57.995 11.889342
58.000 12.104923
58.005 13.139772
58.010 13.689402
58.015 13.574849
58.020 13.686425
58.025 13.847555
58.030 14.264196
58.035 14.47973
58.040 14.548482
58.045 14.368733
58.050 14.18802
58.055 14.113937
58.060 13.96769
58.065 13.997869
58.070 13.756178
58.075 13.209965
58.080 13.317575
58.085 13.425928
58.090 13.521755
58.095 13.361815
58.100 13.050019
58.105 13.299865
58.110 13.602083
58.115 13.499587
58.120 13.599354
58.125 13.637016
58.130 13.564045
58.135 13.29906
58.140 13.301184
58.145 13.191096
58.150 13.239135
58.155 12.639289
58.160 12.246519
58.165 12.436488
58.170 12.496387
58.175 12.51343
58.180 12.545115
58.185 12.726476
58.190 12.930506
58.195 12.891607
58.200 12.796898
58.205 12.967693
58.210 13.104262
58.215 13.531865
58.220 13.741257
58.225 13.875026
58.230 14.073053
58.235 13.984606
58.240 13.665312
58.245 13.455394
58.250 13.243469
58.255 13.472256
58.260 13.605845
58.265 13.469563
58.270 13.761192
58.275 13.949494
58.280 13.858385
58.285 13.838446
58.290 13.518549
58.295 13.569846
58.300 13.892646
58.305 14.060315
58.310 14.066629
58.315 14.365471
58.320 14.47404
58.325 14.401145
58.330 14.016819
58.335 13.888709
58.340 13.764815
58.345 13.55543
58.350 13.359176
58.355 13.096621
58.360 13.246161
58.365 13.80443
58.370 13.948489
58.375 13.938191
58.380 14.062495
58.385 14.008118
58.390 14.642841
58.395 14.649252
58.400 14.579819
58.405 14.190379
58.410 14.12654
58.415 13.860829
58.420 13.699988
58.425 13.596395
58.430 13.57947
58.435 13.578441
58.440 13.813629
58.445 13.799996
58.450 13.646412
58.455 13.126575
58.460 12.966841
58.465 12.59103
58.470 11.847523
58.475 11.645872
58.480 11.465911
58.485 11.7307
58.490 11.509017
58.495 11.191217
58.500 11.698496
58.505 12.494242
58.510 12.403626
58.515 13.209117
58.520 13.718201
58.525 14.47524
58.530 14.309169
58.535 14.410734
58.540 14.484994
58.545 15.092714
58.550 14.568048
58.555 13.810611
58.560 13.569162
58.565 13.880328
58.570 13.832607
58.575 13.341949
58.580 12.894234
58.585 13.084974
58.590 13.416425
58.595 13.722344
58.600 14.047194
58.605 14.085905
58.610 14.652601
58.615 14.974072
58.620 15.272325
58.625 15.424002
58.630 15.055653
58.635 14.663538
58.640 14.769313
58.645 14.268977
58.650 13.856254
58.655 13.361664
58.660 13.872032
58.665 13.790247
58.670 13.646373
58.675 13.64561
58.680 14.070113
58.685 14.234417
58.690 14.549827
58.695 14.789625
58.700 14.734453
58.705 14.653537
58.710 14.310311
58.715 14.004324
58.720 13.772024
58.725 13.476187
58.730 13.200914
58.735 13.705331
58.740 13.822506
58.745 13.72167
58.750 13.764769
58.755 14.17968
58.760 14.317579
58.765 14.166516
58.770 14.370115
58.775 14.410743
58.780 14.741821
58.785 14.954483
58.790 14.619973
58.795 14.504008
58.800 14.605985
58.805 14.061683
58.810 14.310127
58.815 14.411904
58.820 14.431004
58.825 14.967802
58.830 14.848657
58.835 14.773876
58.840 15.131639
58.845 14.974345
58.850 14.663249
58.855 14.382367
58.860 14.03016
58.865 14.010212
58.870 13.863584
58.875 13.524419
58.880 13.402505
58.885 13.503695
58.890 13.242804
58.895 12.6345
58.900 12.773581
58.905 12.651078
58.910 12.709308
58.915 12.525138
58.920 12.637082
58.925 13.107802
58.930 14.010415
58.935 14.173766
58.940 14.038647
58.945 14.275887
58.950 14.584536
58.955 14.551971
58.960 14.770834
58.965 14.91704
58.970 14.486823
58.975 14.561607
58.980 14.450231
58.985 14.565042
58.990 14.234462
58.995 14.159408
59.000 14.149589
59.005 15.310149
59.010 15.909074
59.015 15.829065
59.020 15.544365
59.025 15.372905
59.030 14.569846
59.035 14.560482
59.040 14.089152
59.045 14.109992
59.050 14.26866
59.055 14.547183
59.060 14.953137
59.065 15.274974
59.070 15.31528
59.075 15.24159
59.080 15.027936
59.085 15.162306
59.090 15.474656
59.095 15.899461
59.100 15.587861
59.105 15.428006
59.110 15.405861
59.115 15.319633
59.120 15.007915
59.125 15.007987
59.130 14.909948
59.135 15.026628
59.140 14.792459
59.145 14.44403
59.150 14.582086
59.155 14.431677
59.160 14.0054
59.165 13.363482
59.170 13.380723
59.175 13.491929
59.180 13.668481
59.185 13.52063
59.190 14.058863
59.195 14.527974
59.200 14.816222
59.205 14.397078
59.210 14.552747
59.215 14.808214
59.220 14.636024
59.225 14.057958
59.230 14.252744
59.235 14.308475
59.240 14.560201
59.245 14.471737
59.250 14.422051
59.255 14.430458
59.260 14.574837
59.265 13.996108
59.270 13.971819
59.275 14.051203
59.280 13.765098
59.285 13.577424
59.290 13.626091
59.295 13.336131
59.300 13.468013
59.305 13.831963
59.310 14.060347
59.315 14.409917
59.320 14.519141
59.325 14.77465
59.330 15.1856
59.335 15.530512
59.340 15.119863
59.345 15.098425
59.350 15.335207
59.355 15.295512
59.360 15.366307
59.365 15.277651
59.370 15.241169
59.375 15.418846
59.380 15.320709
59.385 15.25102
59.390 15.3415
59.395 15.152781
59.400 15.114285
59.405 14.933299
59.410 15.226113
59.415 15.594638
59.420 15.267782
59.425 15.061415
59.430 15.010262
59.435 15.127704
59.440 15.255013
59.445 14.652733
59.450 14.376398
59.455 14.488711
59.460 15.288105
59.465 15.408044
59.470 15.910833
59.475 16.374565
59.480 16.831833
59.485 16.71344
59.490 16.784443
59.495 16.654814
59.500 17.009403
59.505 16.939613
59.510 16.425915
59.515 16.311605
59.520 16.431614
59.525 16.530586
59.530 15.829919
59.535 15.455325
59.540 14.947039
59.545 14.99931
59.550 15.045076
59.555 15.309583
59.560 15.193201
59.565 15.135677
59.570 15.456439
59.575 15.889835
59.580 16.164055
59.585 16.066788
59.590 15.817981
59.595 16.136181
59.600 17.07955
59.605 16.208269
59.610 15.601296
59.615 15.950034
59.620 16.60355
59.625 16.309835
59.630 15.920417
59.635 15.661205
59.640 16.001413
59.645 16.562368
59.650 16.533575
59.655 16.28525
59.660 17.213079
59.665 17.652536
59.670 17.658005
59.675 17.767756
59.680 17.637548
59.685 17.56991
59.690 17.328945
59.695 17.320568
59.700 18.078497
59.705 18.314592
59.710 18.678072
59.715 18.56897
59.720 18.560188
59.725 19.10298
59.730 18.808556
59.735 18.452599
59.740 18.408203
59.745 17.998257
59.750 18.046385
59.755 18.094736
59.760 17.764177
59.765 17.870987
59.770 17.870619
59.775 18.41312
59.780 18.85825
59.785 18.768278
59.790 18.587051
59.795 18.42112
59.800 18.700817
59.805 18.487921
59.810 18.537853
59.815 18.455544
59.820 18.578869
59.825 18.680935
59.830 18.917154
59.835 18.979019
59.840 19.041298
59.845 18.612869
59.850 18.650143
59.855 18.36937
59.860 18.755976
59.865 18.932714
59.870 18.744169
59.875 18.717194
59.880 19.051128
59.885 19.206585
59.890 19.899841
59.895 19.681913
59.900 19.574699
59.905 19.666672
59.910 19.888227
59.915 20.148785
59.920 20.471575
59.925 20.016716
59.930 20.088514
59.935 20.065042
59.940 20.387775
59.945 20.582243
59.950 20.98027
59.955 21.238684
59.960 21.173159
59.965 21.294882
59.970 21.897432
59.975 21.433483
59.980 21.594055
59.985 21.317383
59.990 21.472321
59.995 22.022446
60.000 21.823311
60.005 21.552023
60.010 21.855173
60.015 21.43162
60.020 20.715456
60.025 19.837492
60.030 19.014135
60.035 18.752739
60.040 18.564173
60.045 18.257954
60.050 17.973484
60.055 18.219223
60.060 18.59214
60.065 19.805449
60.070 20.247217
60.075 20.13508
60.080 20.202692
60.085 19.797789
60.090 20.107233
60.095 19.940853
60.100 19.460079
60.105 19.756786
60.110 19.812151
60.115 20.220526
60.120 21.916582
60.125 21.876671
60.130 21.577877
60.135 20.871735
60.140 20.427057
60.145 20.61367
60.150 20.263617
60.155 19.379379
60.160 19.353559
60.165 19.758886
60.170 20.176819
60.175 20.577496
60.180 20.462502
60.185 20.609335
60.190 20.793182
60.195 21.045355
60.200 21.033888
60.205 21.454378
60.210 21.421062
60.215 22.061451
60.220 21.805489
60.225 22.147549
60.230 22.902506
60.235 23.272921
60.240 22.603415
60.245 22.014853
60.250 21.718479
60.255 21.298822
60.260 20.615335
60.265 19.894325
60.270 19.299782
60.275 19.624489
60.280 19.583935
60.285 19.40584
60.290 19.952248
60.295 19.950817
60.300 19.843136
60.305 20.224493
60.310 20.201403
60.315 20.408504
60.320 20.593256
60.325 20.283606
60.330 20.472706
60.335 20.818024
60.340 20.7906
60.345 20.619728
60.350 20.789839
60.355 20.640596
60.360 21.23597
60.365 21.2927
60.370 20.822592
60.375 20.16227
60.380 20.01889
60.385 20.079454
60.390 20.340805
60.395 20.033251
60.400 19.016842
60.405 18.478994
60.410 18.269775
60.415 18.25671
60.420 17.572573
60.425 17.524376
60.430 17.407627
60.435 17.549744
60.440 18.126369
60.445 19.166441
60.450 19.097439
60.455 19.282581
60.460 18.938206
60.465 18.890888
60.470 19.632601
60.475 20.0375
60.480 19.894243
60.485 20.096848
60.490 20.621754
60.495 20.969719
60.500 20.115608
60.505 19.737497
60.510 18.984613
60.515 18.776676
60.520 18.371588
60.525 18.073908
60.530 18.075205
60.535 18.682167
60.540 18.103542
60.545 18.203554
60.550 18.142471
60.555 18.284124
60.560 17.507179
60.565 17.136635
60.570 17.041391
60.575 17.620052
60.580 17.823891
60.585 18.335278
60.590 19.117487
60.595 19.599022
60.600 19.980452
60.605 20.361557
60.610 20.352886
60.615 20.409611
60.620 20.001595
60.625 19.626625
60.630 19.397346
60.635 19.115246
60.640 18.793955
60.645 18.685333
60.650 18.490227
60.655 17.668102
60.660 17.27235
60.665 17.331547
60.670 17.368227
60.675 17.195784
60.680 16.683674
60.685 16.449633
60.690 16.784061
60.695 16.691313
60.700 16.838684
60.705 17.05121
60.710 17.358261
60.715 17.673803
60.720 17.87492
60.725 18.45941
60.730 18.761587
60.735 18.46253
60.740 18.015953
60.745 17.641865
60.750 17.929289
60.755 17.672386
60.760 17.512346
60.765 17.665972
60.770 17.699789
60.775 17.662405
60.780 17.704172
60.785 16.989803
60.790 16.976555
60.795 16.577232
60.800 16.309628
60.805 16.335089
60.810 16.015417
60.815 15.911716
60.820 16.24975
60.825 16.149897
60.830 16.846996
60.835 16.72456
60.840 16.190525
60.845 16.145893
60.850 16.092867
60.855 16.435017
60.860 16.141684
60.865 15.302474
60.870 14.964915
60.875 14.96297
60.880 15.479761
60.885 15.825391
60.890 15.533122
60.895 15.425123
60.900 15.771871
60.905 16.152483
60.910 16.336262
60.915 15.215561
60.920 14.64596
60.925 14.637502
60.930 15.020303
60.935 14.98524
60.940 15.559783
60.945 15.974288
60.950 17.032619
60.955 17.111595
60.960 17.04244
60.965 16.762867
60.970 16.706762
60.975 15.991261
60.980 15.947809
60.985 16.006632
60.990 16.693157
60.995 16.903419
61.000 16.923204
61.005 16.784277
61.010 17.435637
61.015 17.275431
61.020 17.428741
61.025 16.899605
61.030 17.20368
61.035 17.715227
61.040 17.424803
61.045 16.464268
61.050 16.350374
61.055 15.565334
61.060 15.913397
61.065 15.893992
61.070 15.654462
61.075 15.982775
61.080 16.505579
61.085 16.345921
61.090 16.200039
61.095 15.41192
61.100 15.370246
61.105 15.548691
61.110 15.580841
61.115 15.680117
61.120 16.163555
61.125 17.027781
61.130 17.209072
61.135 16.695934
61.140 16.495722
61.145 16.229084
61.150 16.218441
61.155 16.098133
61.160 15.322131
61.165 15.036699
61.170 15.279044
61.175 15.552236
61.180 15.529205
61.185 15.141298
61.190 15.124628
61.195 16.106447
61.200 16.989357
61.205 17.679399
61.210 17.974545
61.215 18.215492
61.220 18.791336
61.225 18.927845
61.230 18.814579
61.235 18.526274
61.240 17.620092
61.245 17.475491
61.250 17.62957
61.255 17.461922
61.260 17.807009
61.265 17.468243
61.270 17.510983
61.275 17.291639
61.280 16.93734
61.285 16.763605
61.290 16.553614
61.295 16.270998
61.300 16.362986
61.305 15.717859
61.310 15.592751
61.315 15.898077
61.320 15.989092
61.325 16.059633
61.330 15.848202
61.335 15.159868
61.340 15.67379
61.345 15.590562
61.350 15.349676
61.355 15.334258
61.360 15.517242
61.365 15.502547
61.370 15.701263
61.375 15.84279
61.380 16.346838
61.385 16.098925
61.390 15.861314
61.395 15.829205
61.400 15.916286
61.405 15.942093
61.410 15.901972
61.415 15.90819
61.420 15.830067
61.425 15.828604
61.430 15.707679
61.435 15.58453
61.440 15.676245
61.445 15.672568
61.450 15.695105
61.455 15.913599
61.460 15.979022
61.465 16.017395
61.470 16.256567
61.475 16.551584
61.480 16.368065
61.485 15.989589
61.490 16.501169
61.495 16.509207
61.500 16.555138
61.505 16.111069
61.510 16.264702
61.515 16.706553
61.520 16.984314
61.525 16.8214
61.530 16.926498
61.535 17.185566
61.540 17.718025
61.545 17.326805
61.550 17.105026
61.555 16.889023
61.560 16.78961
61.565 16.677202
61.570 16.69405
61.575 17.533445
61.580 17.968199
61.585 18.036728
61.590 18.018145
61.595 17.950922
61.600 17.781712
61.605 17.308899
61.610 16.766191
61.615 16.354542
61.620 16.69717
61.625 16.907438
61.630 16.831238
61.635 16.465139
61.640 16.321327
61.645 15.709969
61.650 15.340901
61.655 15.339006
61.660 15.208746
61.665 15.39625
61.670 15.560414
61.675 15.250253
61.680 15.782371
61.685 15.864875
61.690 15.248022
61.695 15.457541
61.700 15.547183
61.705 15.679609
61.710 16.678123
61.715 16.777746
61.720 16.665865
61.725 16.557199
61.730 16.096722
61.735 16.29022
61.740 16.430628
61.745 15.635853
61.750 15.420099
61.755 15.291715
61.760 15.417066
61.765 15.459723
61.770 15.672681
61.775 15.594896
61.780 15.271063
61.785 14.855619
61.790 15.086043
61.795 15.224724
61.800 15.132233
61.805 14.762474
61.810 15.057321
61.815 15.010467
61.820 14.742391
61.825 14.910522
61.830 14.835148
61.835 14.365541
61.840 13.977168
61.845 13.583673
61.850 13.878719
61.855 14.149212
61.860 14.016986
61.865 14.269161
61.870 14.73252
61.875 15.209455
61.880 15.57383
61.885 15.819924
61.890 16.205849
61.895 16.411222
61.900 16.434877
61.905 16.507328
61.910 16.300117
61.915 16.1033
61.920 16.010296
61.925 16.33375
61.930 15.661018
61.935 15.687972
61.940 15.384363
61.945 15.510177
61.950 15.342077
61.955 14.999041
61.960 14.477813
61.965 14.75794
61.970 14.930205
61.975 15.374574
61.980 15.435205
61.985 15.386499
61.990 15.679049
61.995 16.146069
62.000 16.224161
62.005 16.037676
62.010 16.14064
62.015 16.07159
62.020 16.010794
62.025 16.201599
62.030 16.337379
62.035 15.968531
62.040 15.561522
62.045 15.098184
62.050 15.307302
62.055 16.622042
62.060 16.680138
62.065 16.765142
62.070 17.546368
62.075 17.917284
62.080 18.397827
62.085 18.162317
62.090 17.123419
62.095 17.256292
62.100 16.468094
62.105 15.992921
62.110 15.985518
62.115 15.540236
62.120 15.223841
62.125 15.479773
62.130 14.869375
62.135 15.290725
62.140 15.218005
62.145 15.021639
62.150 15.294131
62.155 15.50738
62.160 15.472717
62.165 15.874524
62.170 16.017181
62.175 16.793695
62.180 17.167534
62.185 17.474432
62.190 17.062727
62.195 16.903454
62.200 16.863792
62.205 17.001604
62.210 16.860325
62.215 16.630426
62.220 16.554289
62.225 16.859486
62.230 17.278345
62.235 17.004217
62.240 16.462721
62.245 16.242521
62.250 16.403952
62.255 16.591206
62.260 16.807461
62.265 16.778755
62.270 17.175512
62.275 17.146929
62.280 16.824984
62.285 16.047535
62.290 15.068596
62.295 14.861204
62.300 14.644432
62.305 14.404962
62.310 14.482015
62.315 14.8033
62.320 15.310092
62.325 15.881521
62.330 16.02261
62.335 15.678981
62.340 15.684841
62.345 16.024885
62.350 16.228464
62.355 16.328156
62.360 16.366732
62.365 16.474495
62.370 16.822296
62.375 16.556543
62.380 16.056404
62.385 15.809836
62.390 15.928651
62.395 15.350511
62.400 15.261099
62.405 15.369638
62.410 15.995816
62.415 16.262526
62.420 16.183764
62.425 15.930047
62.430 16.551664
62.435 16.709816
62.440 16.78516
62.445 16.939615
62.450 17.356499
62.455 17.399641
62.460 17.607643
62.465 17.634323
62.470 17.413454
62.475 17.751356
62.480 17.496437
62.485 17.017715
62.490 16.949842
62.495 17.202742
62.500 17.041601
62.505 16.667017
62.510 16.251486
62.515 16.444513
62.520 16.572348
62.525 16.73592
62.530 16.355848
62.535 16.172577
62.540 16.416691
62.545 16.52247
62.550 16.155174
62.555 16.385708
62.560 16.366434
62.565 15.942225
62.570 15.890077
62.575 16.1605
62.580 16.289057
62.585 16.179964
62.590 15.770391
62.595 15.918638
62.600 16.522898
62.605 16.781046
62.610 16.639688
62.615 16.540459
62.620 16.546347
62.625 16.961094
62.630 16.794846
62.635 16.978409
62.640 16.763882
62.645 16.754265
62.650 17.01045
62.655 16.493986
62.660 16.154245
62.665 15.762589
62.670 15.338011
62.675 15.542669
62.680 15.483742
62.685 15.399094
62.690 15.875086
62.695 16.088434
62.700 16.565081
62.705 16.947952
62.710 16.978031
62.715 16.762272
62.720 16.542482
62.725 16.412426
62.730 16.670145
62.735 16.758469
62.740 16.263319
62.745 15.902096
62.750 16.071672
62.755 16.02549
62.760 16.105198
62.765 15.921371
62.770 15.915755
62.775 15.664708
62.780 15.499442
62.785 15.197356
62.790 15.592777
62.795 15.352106
62.800 15.630209
62.805 15.892478
62.810 16.245485
62.815 16.51375
62.820 16.807539
62.825 17.217436
62.830 17.709261
62.835 16.975872
62.840 16.807276
62.845 16.916515
62.850 17.023405
62.855 16.606789
62.860 15.896592
62.865 15.783593
62.870 15.660698
62.875 15.377167
62.880 15.206935
62.885 14.701153
62.890 14.844838
62.895 15.163277
62.900 14.614394
62.905 14.908795
62.910 14.7244
62.915 14.365039
62.920 14.386443
62.925 13.979966
62.930 14.093182
62.935 15.404901
62.940 15.262131
62.945 15.853639
62.950 16.073364
62.955 16.123272
62.960 16.110844
62.965 15.629194
62.970 15.145586
62.975 15.209056
62.980 15.454552
62.985 15.734948
62.990 16.018463
62.995 16.584349
63.000 16.619783
63.005 16.128798
63.010 16.219013
63.015 15.760878
63.020 16.114866
63.025 16.432632
63.030 15.885479
63.035 15.868501
63.040 15.673911
63.045 15.432495
63.050 15.228365
63.055 15.062776
63.060 15.217186
63.065 15.605166
63.070 16.285633
63.075 16.830444
63.080 17.19841
63.085 17.223358
63.090 17.263123
63.095 16.762646
63.100 16.618681
63.105 16.066486
63.110 15.795968
63.115 15.910393
63.120 16.208549
63.125 16.299929
63.130 16.689863
63.135 16.248152
63.140 16.295458
63.145 16.102165
63.150 16.571871
63.155 16.889803
63.160 16.661932
63.165 16.562767
63.170 16.954994
63.175 17.115938
63.180 17.459723
63.185 17.106985
63.190 16.838129
63.195 17.001842
63.200 17.362267
63.205 16.794744
63.210 16.428036
63.215 16.566919
63.220 16.411081
63.225 16.783638
63.230 16.49411
63.235 16.865232
63.240 17.202539
63.245 17.504271
63.250 17.38027
63.255 17.297373
63.260 17.033476
63.265 17.12904
63.270 16.325865
63.275 16.437017
63.280 17.081112
63.285 17.479313
63.290 17.456678
63.295 17.438637
63.300 17.24894
63.305 17.615576
63.310 18.034178
63.315 17.461924
63.320 17.225515
63.325 17.173298
63.330 17.065496
63.335 16.722364
63.340 16.09647
63.345 15.522844
63.350 15.37557
63.355 15.077626
63.360 15.053191
63.365 15.485091
63.370 16.096514
63.375 16.476221
63.380 16.452276
63.385 16.770432
63.390 16.972364
63.395 16.847281
63.400 16.914354
63.405 16.549982
63.410 16.736977
63.415 16.987238
63.420 16.955122
63.425 16.577717
63.430 16.899261
63.435 16.599596
63.440 16.385286
63.445 15.816299
63.450 15.360104
63.455 15.287745
63.460 15.351832
63.465 14.909442
63.470 15.161197
63.475 15.879398
63.480 16.459534
63.485 16.655994
63.490 16.693386
63.495 16.922377
63.500 16.961224
63.505 16.719658
63.510 16.822626
63.515 16.904078
63.520 16.344458
63.525 16.187685
63.530 16.111481
63.535 16.45949
63.540 16.840519
63.545 16.878901
63.550 16.645546
63.555 17.098225
63.560 16.906931
63.565 16.73712
63.570 16.745399
63.575 16.767448
63.580 16.727629
63.585 16.724335
63.590 17.162214
63.595 17.931448
63.600 18.381433
63.605 18.560768
63.610 18.722061
63.615 18.687243
63.620 18.631289
63.625 17.586479
63.630 17.101131
63.635 16.854223
63.640 16.126986
63.645 15.741202
63.650 16.155727
63.655 16.284676
63.660 16.448122
63.665 16.951292
63.670 16.657734
63.675 16.496586
63.680 16.458292
63.685 16.490265
63.690 16.49185
63.695 16.876484
63.700 16.657516
63.705 16.999807
63.710 17.350843
63.715 17.083126
63.720 16.53734
63.725 16.160709
63.730 15.933566
63.735 15.860119
63.740 15.554538
63.745 15.090315
63.750 15.124729
63.755 15.268222
63.760 16.017176
63.765 16.121281
63.770 15.865817
63.775 16.22893
63.780 16.93877
63.785 17.185574
63.790 17.391069
63.795 17.315519
63.800 17.726902
63.805 17.769144
63.810 18.034313
63.815 17.962126
63.820 17.534557
63.825 17.79969
63.830 18.331671
63.835 18.430506
63.840 18.528334
63.845 18.278448
63.850 17.559927
63.855 17.629889
63.860 17.420542
63.865 16.830301
63.870 16.39566
63.875 16.836481
63.880 16.965313
63.885 17.546965
63.890 17.622288
63.895 16.986242
63.900 16.89319
63.905 16.968416
63.910 16.454885
63.915 16.489185
63.920 16.496042
63.925 16.244144
63.930 17.017117
63.935 16.997614
63.940 16.983223
63.945 17.044584
63.950 16.571569
63.955 16.404396
63.960 16.740341
63.965 16.814772
63.970 17.216179
63.975 17.758255
63.980 18.314697
63.985 18.820683
63.990 19.05895
63.995 18.839586
64.000 18.434866
64.005 17.959524
64.010 17.192421
64.015 17.286165
64.020 18.156981
64.025 18.467857
64.030 18.631491
64.035 18.953468
64.040 18.86935
64.045 18.893129
64.050 18.447014
64.055 17.671921
64.060 17.695677
64.065 17.587633
64.070 17.695238
64.075 18.305382
64.080 18.013636
64.085 17.630108
64.090 17.271429
64.095 16.646862
64.100 16.4333
64.105 16.105404
64.110 16.192076
64.115 16.746563
64.120 17.36072
64.125 17.451057
64.130 17.404287
64.135 17.775511
64.140 17.801769
64.145 17.126917
64.150 17.041325
64.155 16.705782
64.160 17.465969
64.165 18.032
64.170 18.139093
64.175 18.046923
64.180 18.058088
64.185 17.871017
64.190 17.830002
64.195 17.631332
64.200 17.167633
64.205 16.934736
64.210 17.026562
64.215 17.317886
64.220 17.508286
64.225 17.48563
64.230 17.699553
64.235 17.679008
64.240 17.536865
64.245 17.780378
64.250 17.965559
64.255 18.169743
64.260 17.773067
64.265 16.92219
64.270 16.784712
64.275 16.848188
64.280 16.669659
64.285 16.308933
64.290 15.453913
64.295 15.773032
64.300 16.21981
64.305 16.643494
64.310 17.092817
64.315 17.667309
64.320 17.758472
64.325 18.934111
64.330 18.716637
64.335 18.492422
64.340 18.347034
64.345 18.027395
64.350 17.938156
64.355 18.507374
64.360 18.065434
64.365 18.610617
64.370 18.584913
64.375 18.612568
64.380 18.632013
64.385 17.847742
64.390 17.701408
64.395 17.554914
64.400 17.020538
64.405 17.403677
64.410 18.171246
64.415 18.572342
64.420 19.256601
64.425 19.880686
64.430 20.583652
64.435 21.472208
64.440 21.518904
64.445 20.794336
64.450 20.605446
64.455 20.064714
64.460 19.495672
64.465 19.053583
64.470 18.306299
64.475 17.635153
64.480 17.784256
64.485 18.099684
64.490 18.185818
64.495 18.160563
64.500 18.336056
64.505 18.956516
64.510 19.596687
64.515 19.675247
64.520 19.530895
64.525 20.170185
64.530 20.471155
64.535 20.673054
64.540 21.019257
64.545 20.956078
64.550 20.386444
64.555 20.401175
64.560 20.005018
64.565 19.365211
64.570 19.203165
64.575 19.025164
64.580 19.315697
64.585 19.714857
64.590 19.234018
64.595 18.959402
64.600 19.158253
64.605 19.043314
64.610 18.685884
64.615 18.419544
64.620 18.68256
64.625 18.568562
64.630 18.783543
64.635 19.213913
64.640 19.423965
64.645 19.590631
64.650 19.646763
64.655 19.159538
64.660 19.331268
64.665 19.214302
64.670 18.970331
64.675 18.151121
64.680 17.760048
64.685 17.681669
64.690 17.766266
64.695 18.204458
64.700 18.68815
64.705 17.967045
64.710 17.953867
64.715 18.664461
64.720 18.277647
64.725 18.273468
64.730 17.894901
64.735 17.723343
64.740 18.656576
64.745 18.617584
64.750 17.818064
64.755 18.04166
64.760 18.516809
64.765 19.327307
64.770 19.027864
64.775 19.127731
64.780 19.080568
64.785 19.884315
64.790 20.168579
64.795 19.268721
64.800 18.813032
64.805 18.971386
64.810 19.191065
64.815 19.504042
64.820 19.501902
64.825 19.646597
64.830 19.778543
64.835 19.566065
64.840 19.328356
64.845 19.491621
64.850 19.639782
64.855 18.857332
64.860 18.36681
64.865 18.205751
64.870 18.658161
64.875 18.822794
64.880 17.894932
64.885 17.491917
64.890 17.877859
64.895 18.450539
64.900 18.3974
64.905 18.115273
64.910 18.302422
64.915 18.807528
64.920 18.702147
64.925 18.732058
64.930 18.565378
64.935 19.175396
64.940 19.269382
64.945 19.570847
64.950 19.271622
64.955 19.436262
64.960 19.744633
64.965 20.352753
64.970 20.556816
64.975 20.533812
64.980 19.947285
64.985 20.591946
64.990 20.977758
64.995 20.941011
65.000 20.09127
65.005 19.950396
65.010 19.772774
65.015 20.368855
65.020 20.734089
65.025 20.502422
65.030 19.888519
65.035 19.688604
65.040 19.798429
65.045 19.957006
65.050 19.845514
65.055 19.438717
65.060 19.515482
65.065 19.743345
65.070 20.063337
65.075 19.797554
65.080 19.713572
65.085 19.492006
65.090 19.538651
65.095 19.943926
65.100 20.621244
65.105 21.32707
65.110 21.477242
65.115 20.998108
65.120 21.124413
65.125 21.403631
65.130 20.725981
65.135 20.801908
65.140 20.694681
65.145 20.575727
65.150 20.880074
65.155 20.65523
65.160 20.443769
65.165 21.335325
65.170 20.82151
65.175 21.221313
65.180 21.541084
65.185 22.098049
65.190 22.518259
65.195 22.057405
65.200 21.931021
65.205 22.114727
65.210 21.155842
65.215 21.065384
65.220 21.448013
65.225 21.631556
65.230 21.376318
65.235 20.494743
65.240 20.039667
65.245 20.257236
65.250 19.882526
65.255 18.75634
65.260 18.444468
65.265 18.893883
65.270 20.116524
65.275 21.032436
65.280 20.984415
65.285 20.801996
65.290 21.21088
65.295 21.614658
65.300 22.403831
65.305 21.937622
65.310 21.383429
65.315 21.612778
65.320 22.328331
65.325 22.470741
65.330 22.42667
65.335 22.502817
65.340 22.962112
65.345 23.124311
65.350 22.852917
65.355 22.492563
65.360 22.012516
65.365 21.806513
65.370 21.334064
65.375 20.619734
65.380 20.854919
65.385 21.400558
65.390 22.041258
65.395 23.360733
65.400 23.908527
65.405 24.064457
65.410 23.915543
65.415 23.668385
65.420 23.646872
65.425 22.816378
65.430 22.376099
65.435 22.40032
65.440 23.331648
65.445 24.13154
65.450 24.780577
65.455 25.01515
65.460 25.188328
65.465 25.111488
65.470 25.125282
65.475 24.799416
65.480 25.083097
65.485 24.754795
65.490 24.124382
65.495 24.337337
65.500 24.255592
65.505 24.033386
65.510 24.373522
65.515 24.285139
65.520 24.532867
65.525 25.211338
65.530 25.567188
65.535 26.577114
65.540 26.299896
65.545 25.64813
65.550 25.586149
65.555 25.659588
65.560 26.025894
65.565 26.056427
65.570 25.30299
65.575 25.940767
65.580 26.498699
65.585 26.746893
65.590 27.349728
65.595 27.172857
65.600 26.723087
65.605 27.663055
65.610 28.05538
65.615 28.517937
65.620 29.026728
65.625 28.931099
65.630 29.665819
65.635 30.269373
65.640 29.835257
65.645 29.379889
65.650 28.486567
65.655 28.582071
65.660 29.258516
65.665 30.148533
65.670 30.682684
65.675 31.004528
65.680 31.635063
65.685 32.511379
65.690 33.023399
65.695 33.306255
65.700 33.324322
65.705 32.917858
65.710 33.236034
65.715 33.833683
65.720 34.071026
65.725 34.375099
65.730 33.729641
65.735 33.445091
65.740 33.630905
65.745 33.71854
65.750 34.392876
65.755 34.016586
65.760 33.076477
65.765 33.192463
65.770 33.450737
65.775 33.745682
65.780 34.5481
65.785 34.92144
65.790 34.949783
65.795 35.782074
65.800 36.565773
65.805 36.786152
65.810 37.785477
65.815 37.266533
65.820 37.597649
65.825 38.517723
65.830 38.134365
65.835 38.073818
65.840 38.304554
65.845 37.515404
65.850 37.073475
65.855 36.911682
65.860 36.727348
65.865 36.719875
65.870 36.314575
65.875 36.121037
65.880 35.506916
65.885 36.025333
65.890 36.211498
65.895 35.580894
65.900 35.366886
65.905 35.122097
65.910 35.329998
65.915 35.981033
65.920 35.827667
65.925 35.962051
65.930 36.580112
65.935 37.027912
65.940 37.271027
65.945 36.569328
65.950 36.394299
65.955 35.970505
65.960 36.14064
65.965 36.463112
65.970 36.948524
65.975 36.997261
65.980 37.784027
65.985 38.738022
65.990 39.4132
65.995 39.176113
66.000 39.472374
66.005 38.913704
66.010 38.564617
66.015 38.315964
66.020 37.628414
66.025 37.308556
66.030 37.62278
66.035 37.287197
66.040 38.293579
66.045 38.372135
66.050 38.516262
66.055 38.272797
66.060 38.01265
66.065 37.394268
66.070 37.907211
66.075 37.469219
66.080 37.165466
66.085 37.298229
66.090 38.437569
66.095 38.933575
66.100 39.108521
66.105 38.752674
66.110 38.367718
66.115 38.43412
66.120 38.106365
66.125 37.382454
66.130 36.686333
66.135 35.971439
66.140 35.753738
66.145 36.744514
66.150 36.70425
66.155 36.87804
66.160 36.945808
66.165 37.697853
66.170 38.37661
66.175 38.143284
66.180 37.354134
66.185 37.951717
66.190 37.186844
66.195 36.83894
66.200 36.417938
66.205 35.696499
66.210 35.132591
66.215 34.749672
66.220 33.667004
66.225 33.179379
66.230 33.074684
66.235 32.640701
66.240 32.845264
66.245 33.590431
66.250 33.670616
66.255 34.037273
66.260 34.363674
66.265 34.019367
66.270 33.766052
66.275 33.923763
66.280 33.834644
66.285 33.538116
66.290 33.657352
66.295 33.088398
66.300 33.065613
66.305 33.00631
66.310 32.29166
66.315 32.364254
66.320 32.011978
66.325 31.777283
66.330 32.186924
66.335 32.147289
66.340 31.995522
66.345 31.586409
66.350 31.916637
66.355 32.413166
66.360 32.718334
66.365 32.372444
66.370 32.259968
66.375 32.535217
66.380 33.505466
66.385 32.572899
66.390 31.76635
66.395 30.831268
66.400 31.088001
66.405 31.039946
66.410 30.377577
66.415 29.540743
66.420 29.891037
66.425 29.586599
66.430 29.204264
66.435 28.290476
66.440 27.730217
66.445 26.912943
66.450 25.607029
66.455 25.101122
66.460 25.262617
66.465 25.692665
66.470 25.726303
66.475 25.814089
66.480 26.406694
66.485 26.994919
66.490 27.393764
66.495 27.701899
66.500 27.05496
66.505 27.0154
66.510 26.516642
66.515 26.420195
66.520 25.913612
66.525 25.48633
66.530 25.714622
66.535 25.76462
66.540 25.94713
66.545 25.983868
66.550 26.148546
66.555 26.171988
66.560 25.462046
66.565 24.817039
66.570 24.981014
66.575 25.036438
66.580 25.514441
66.585 25.267235
66.590 26.070671
66.595 26.515038
66.600 26.530994
66.605 26.58975
66.610 26.491814
66.615 26.447359
66.620 25.885754
66.625 25.565229
66.630 25.477383
66.635 25.747313
66.640 26.031713
66.645 25.719797
66.650 24.983799
66.655 25.050283
66.660 24.056557
66.665 23.891031
66.670 23.764442
66.675 23.125481
66.680 23.287552
66.685 23.406898
66.690 23.141645
66.695 23.738472
66.700 23.616436
66.705 23.082508
66.710 23.306051
66.715 23.284721
66.720 23.424128
66.725 23.819805
66.730 23.116686
66.735 22.89171
66.740 23.046255
66.745 22.860661
66.750 22.608644
66.755 22.380013
66.760 21.694174
66.765 22.396715
66.770 22.705059
66.775 22.5742
66.780 22.846375
66.785 22.5634
66.790 22.615734
66.795 22.523485
66.800 22.33952
66.805 22.300488
66.810 22.154015
66.815 22.422026
66.820 23.321833
66.825 23.228767
66.830 23.784391
66.835 23.508783
66.840 23.041838
66.845 23.122343
66.850 22.046028
66.855 21.347399
66.860 21.644415
66.865 20.683388
66.870 20.838539
66.875 21.622219
66.880 22.146877
66.885 22.949648
66.890 23.194611
66.895 23.453278
66.900 23.640079
66.905 23.607435
66.910 23.07498
66.915 22.184547
66.920 22.153383
66.925 21.868792
66.930 22.07892
66.935 22.886631
66.940 23.546902
66.945 23.904816
66.950 24.331997
66.955 23.657595
66.960 23.120544
66.965 22.74082
66.970 22.995653
66.975 22.161983
66.980 22.174061
66.985 22.384741
66.990 22.182274
66.995 22.375235
67.000 22.807718
67.005 22.088348
67.010 22.217417
67.015 21.93656
67.020 21.971849
67.025 22.222109
67.030 22.244377
67.035 22.013391
67.040 22.322947
67.045 22.300201
67.050 22.239304
67.055 22.266665
67.060 22.550901
67.065 22.55143
67.070 22.11623
67.075 22.23377
67.080 22.089394
67.085 21.578451
67.090 20.812208
67.095 20.613834
67.100 20.13855
67.105 20.300568
67.110 20.074011
67.115 20.294359
67.120 20.979921
67.125 21.578793
67.130 21.4744
67.135 21.278645
67.140 20.967281
67.145 21.72484
67.150 21.419611
67.155 20.77681
67.160 20.746088
67.165 20.935308
67.170 21.437563
67.175 20.878685
67.180 19.679131
67.185 19.651009
67.190 19.95978
67.195 19.791647
67.200 19.803627
67.205 20.180084
67.210 20.572672
67.215 20.411009
67.220 20.955246
67.225 21.299519
67.230 21.906677
67.235 21.950787
67.240 21.784662
67.245 22.456837
67.250 23.504471
67.255 23.485226
67.260 22.547968
67.265 22.056717
67.270 22.60771
67.275 22.91176
67.280 22.698215
67.285 21.977118
67.290 21.959515
67.295 22.618378
67.300 22.845787
67.305 22.379219
67.310 22.221643
67.315 22.035891
67.320 21.551685
67.325 21.315062
67.330 21.297401
67.335 21.579037
67.340 21.364552
67.345 20.935196
67.350 20.885569
67.355 21.502935
67.360 21.983952
67.365 21.82163
67.370 21.750475
67.375 21.587694
67.380 21.833368
67.385 21.810186
67.390 21.803343
67.395 21.691963
67.400 21.711868
67.405 21.421246
67.410 21.642147
67.415 21.240271
67.420 21.72867
67.425 21.563931
67.430 21.4834
67.435 21.733444
67.440 21.557175
67.445 21.270567
67.450 21.185625
67.455 20.964211
67.460 20.716244
67.465 20.314116
67.470 19.939188
67.475 19.874065
67.480 19.964167
67.485 19.86227
67.490 20.017874
67.495 19.964516
67.500 20.234007
67.505 20.828526
67.510 20.881645
67.515 21.177811
67.520 21.040651
67.525 20.669764
67.530 21.096476
67.535 20.392094
67.540 19.324448
67.545 18.937538
67.550 18.681835
67.555 18.38913
67.560 18.731699
67.565 18.738041
67.570 19.017427
67.575 19.357872
67.580 19.538181
67.585 19.904482
67.590 20.910372
67.595 21.08909
67.600 21.101496
67.605 21.330389
67.610 21.573627
67.615 21.450333
67.620 21.01358
67.625 20.055187
67.630 18.926733
67.635 18.946926
67.640 19.395958
67.645 19.513288
67.650 19.504004
67.655 19.43264
67.660 20.309578
67.665 20.316235
67.670 20.01449
67.675 19.490955
67.680 19.717886
67.685 20.056614
67.690 20.377222
67.695 20.010887
67.700 20.781212
67.705 21.160429
67.710 21.237347
67.715 20.495975
67.720 20.184769
67.725 19.734798
67.730 19.699766
67.735 18.768223
67.740 19.050869
67.745 19.337626
67.750 20.07959
67.755 20.37269
67.760 20.414188
67.765 20.589914
67.770 21.291615
67.775 20.877708
67.780 20.664726
67.785 20.441307
67.790 20.291445
67.795 20.599438
67.800 20.399763
67.805 19.532915
67.810 19.210062
67.815 19.361975
67.820 19.483465
67.825 19.057352
67.830 18.609062
67.835 18.527967
67.840 19.462761
67.845 19.592272
67.850 19.136251
67.855 19.440016
67.860 20.577644
67.865 21.063879
67.870 20.6994
67.875 19.704493
67.880 20.028164
67.885 20.257524
67.890 19.936075
67.895 19.556999
67.900 20.143925
67.905 20.519781
67.910 20.541254
67.915 20.576403
67.920 20.484419
67.925 20.386326
67.930 20.775867
67.935 20.74374
67.940 20.851429
67.945 21.120491
67.950 21.009455
67.955 20.609667
67.960 20.521669
67.965 19.028374
67.970 19.107222
67.975 20.389952
67.980 20.680424
67.985 20.325836
67.990 20.613876
67.995 21.04973
68.000 21.111687
68.005 21.010509
68.010 20.452721
68.015 20.049419
68.020 20.377556
68.025 20.055899
68.030 19.791611
68.035 20.300661
68.040 19.732595
68.045 20.027424
68.050 20.9091
68.055 21.253756
68.060 21.358835
68.065 21.661301
68.070 22.298773
68.075 22.321674
68.080 21.92996
68.085 21.347984
68.090 20.808702
68.095 20.956287
68.100 20.752392
68.105 20.435724
68.110 20.615837
68.115 20.266552
68.120 19.868216
68.125 20.485929
68.130 20.490419
68.135 20.129101
68.140 19.908968
68.145 19.596087
68.150 19.926893
68.155 19.96899
68.160 19.594839
68.165 19.676275
68.170 20.149187
68.175 19.724537
68.180 19.419399
68.185 19.584286
68.190 20.549149
68.195 21.502251
68.200 21.814882
68.205 21.745714
68.210 22.335833
68.215 22.279537
68.220 22.180449
68.225 21.503349
68.230 20.461609
68.235 19.933815
68.240 19.545465
68.245 19.295483
68.250 19.950108
68.255 19.792007
68.260 20.204706
68.265 20.358454
68.270 20.695635
68.275 20.608578
68.280 20.542887
68.285 20.197033
68.290 19.930624
68.295 19.954254
68.300 20.140604
68.305 20.08544
68.310 20.103312
68.315 20.028217
68.320 19.823174
68.325 19.94557
68.330 20.104393
68.335 19.260881
68.340 18.761612
68.345 18.790623
68.350 18.669054
68.355 18.482958
68.360 17.968033
68.365 17.489246
68.370 18.254917
68.375 18.081242
68.380 17.951969
68.385 18.621561
68.390 19.069677
68.395 19.426147
68.400 19.673502
68.405 19.776146
68.410 20.282768
68.415 20.616634
68.420 20.581587
68.425 20.475039
68.430 20.265972
68.435 20.726933
68.440 20.368382
68.445 20.49246
68.450 20.169039
68.455 20.230671
68.460 20.431864
68.465 20.404541
68.470 19.898066
68.475 20.343351
68.480 20.223911
68.485 19.699259
68.490 19.018017
68.495 18.687971
68.500 18.848259
68.505 19.532108
68.510 19.476391
68.515 19.463545
68.520 20.049351
68.525 20.187328
68.530 20.106558
68.535 19.87093
68.540 19.255791
68.545 18.971109
68.550 18.448107
68.555 19.066181
68.560 20.029728
68.565 20.720415
68.570 20.951708
68.575 20.999481
68.580 20.83671
68.585 20.616907
68.590 20.051308
68.595 19.478907
68.600 19.482317
68.605 19.041702
68.610 18.888561
68.615 19.717388
68.620 20.406939
68.625 20.439119
68.630 20.262756
68.635 20.964016
68.640 21.672749
68.645 21.790424
68.650 21.839684
68.655 22.135454
68.660 22.720821
68.665 22.731331
68.670 21.984039
68.675 21.460789
68.680 21.454544
68.685 21.568041
68.690 21.315807
68.695 20.510033
68.700 20.033007
68.705 20.19479
68.710 20.698181
68.715 20.764542
68.720 20.172625
68.725 19.787029
68.730 19.708319
68.735 20.428671
68.740 20.409611
68.745 19.91914
68.750 19.15572
68.755 19.221453
68.760 19.893625
68.765 19.991798
68.770 19.663694
68.775 19.265739
68.780 19.556276
68.785 19.96759
68.790 20.08971
68.795 20.751446
68.800 21.126961
68.805 21.48638
68.810 22.3818
68.815 23.262468
68.820 23.326456
68.825 22.86422
68.830 21.592037
68.835 21.531212
68.840 21.367039
68.845 20.919548
68.850 20.434811
68.855 21.340744
68.860 22.089321
68.865 22.651823
68.870 22.582001
68.875 21.799234
68.880 22.015869
68.885 22.254824
68.890 22.015066
68.895 22.118813
68.900 22.215313
68.905 22.221361
68.910 22.322485
68.915 22.172602
68.920 22.689487
68.925 22.540997
68.930 22.242657
68.935 22.352987
68.940 22.59202
68.945 22.92831
68.950 22.47533
68.955 21.857641
68.960 21.368366
68.965 22.214582
68.970 22.582653
68.975 22.200018
68.980 21.969658
68.985 22.57419
68.990 22.698277
68.995 22.82506
69.000 22.275108
69.005 21.451513
69.010 21.908041
69.015 22.042181
69.020 21.351566
69.025 21.497465
69.030 21.792261
69.035 21.708807
69.040 22.781935
69.045 23.029779
69.050 23.124075
69.055 23.454632
69.060 23.186497
69.065 23.837265
69.070 24.558607
69.075 24.33432
69.080 24.023439
69.085 24.744446
69.090 25.191093
69.095 25.303604
69.100 25.648289
69.105 25.116604
69.110 25.706604
69.115 26.51228
69.120 26.123819
69.125 25.736061
69.130 24.913868
69.135 24.572014
69.140 24.51527
69.145 23.894526
69.150 23.588982
69.155 24.284853
69.160 24.709187
69.165 25.359987
69.170 25.631878
69.175 25.634962
69.180 25.756922
69.185 26.016512
69.190 26.374809
69.195 25.907558
69.200 25.164434
69.205 24.92774
69.210 25.41452
69.215 25.3323
69.220 24.56337
69.225 24.008114
69.230 24.694563
69.235 25.392456
69.240 25.639303
69.245 25.417027
69.250 25.410704
69.255 26.095314
69.260 26.266724
69.265 25.770271
69.270 25.453695
69.275 25.758087
69.280 26.145866
69.285 26.453224
69.290 26.12434
69.295 26.104626
69.300 26.240957
69.305 26.088654
69.310 25.574451
69.315 25.559952
69.320 25.820282
69.325 26.253807
69.330 26.612291
69.335 26.845407
69.340 26.903061
69.345 27.244198
69.350 27.362474
69.355 26.554579
69.360 26.125559
69.365 26.459814
69.370 27.041437
69.375 27.740292
69.380 28.139488
69.385 28.402256
69.390 29.398237
69.395 29.614317
69.400 28.746071
69.405 27.424175
69.410 26.918327
69.415 27.098656
69.420 26.574034
69.425 26.588602
69.430 27.255518
69.435 28.148106
69.440 28.77162
69.445 29.670843
69.450 30.50202
69.455 30.397091
69.460 29.799023
69.465 29.489729
69.470 28.900312
69.475 27.953741
69.480 26.876581
69.485 26.548012
69.490 26.669636
69.495 27.116682
69.500 27.33901
69.505 28.278465
69.510 29.539051
69.515 29.516373
69.520 29.293961
69.525 28.93726
69.530 28.867516
69.535 29.191378
69.540 29.138897
69.545 28.770115
69.550 28.44565
69.555 28.522078
69.560 29.169727
69.565 29.235785
69.570 28.797556
69.575 29.215624
69.580 30.080215
69.585 30.903183
69.590 31.144827
69.595 30.879671
69.600 30.720083
69.605 30.134901
69.610 29.652241
69.615 28.876219
69.620 28.762714
69.625 28.431097
69.630 28.43013
69.635 28.325335
69.640 28.341185
69.645 27.971443
69.650 27.834608
69.655 27.947941
69.660 28.204535
69.665 28.302814
69.670 28.189447
69.675 28.451775
69.680 28.056557
69.685 28.240452
69.690 28.212317
69.695 27.856445
69.700 27.765139
69.705 27.977024
69.710 27.979662
69.715 28.345631
69.720 27.621971
69.725 26.916346
69.730 27.032963
69.735 27.203392
69.740 27.503643
69.745 27.916277
69.750 28.075266
69.755 28.958927
69.760 29.690823
69.765 29.685184
69.770 29.892511
69.775 29.491983
69.780 29.088737
69.785 28.526487
69.790 28.075764
69.795 27.389137
69.800 27.225641
69.805 26.706722
69.810 26.228493
69.815 26.612667
69.820 26.506443
69.825 26.358015
69.830 26.282875
69.835 26.035227
69.840 25.42001
69.845 24.865307
69.850 24.770977
69.855 25.41404
69.860 25.157064
69.865 24.959919
69.870 25.1192
69.875 25.920811
69.880 25.131577
69.885 24.680964
69.890 24.049366
69.895 23.763002
69.900 24.073397
69.905 23.994701
69.910 23.650162
69.915 24.222841
69.920 24.131842
69.925 24.50239
69.930 24.349253
69.935 24.033318
69.940 23.861303
69.945 24.165745
69.950 24.595013
69.955 23.94726
69.960 23.754095
69.965 23.892038
69.970 23.660147
69.975 23.377588
69.980 22.025118
69.985 21.538406
69.990 22.701845
69.995 23.253422
70.000 22.905863
70.005 22.786226
70.010 23.078537
70.015 24.052601
70.020 23.734482
70.025 23.378197
70.030 22.468313
70.035 22.375383
70.040 22.466455
70.045 22.423214
70.050 22.22818
70.055 22.080683
70.060 21.829647
70.065 22.226217
70.070 22.040279
70.075 22.107485
70.080 22.803261
70.085 22.695738
70.090 22.544077
70.095 21.891054
70.100 22.080856
70.105 22.004061
70.110 21.232332
70.115 20.482534
70.120 20.035082
70.125 20.069757
70.130 19.959265
70.135 19.173792
70.140 18.97377
70.145 18.997202
70.150 19.082058
70.155 19.131289
70.160 19.408422
70.165 19.415058
70.170 19.814947
70.175 20.108974
70.180 20.220093
70.185 20.164005
70.190 20.272644
70.195 20.08675
70.200 20.1094
70.205 19.884892
70.210 19.630726
70.215 19.330784
70.220 18.951094
70.225 18.460831
70.230 18.683441
70.235 18.569124
70.240 18.33276
70.245 17.958254
70.250 19.045691
70.255 19.717138
70.260 20.152649
70.265 19.539305
70.270 19.598131
70.275 19.834867
70.280 19.933891
70.285 19.563391
70.290 19.028301
70.295 18.937817
70.300 18.85054
70.305 19.472319
70.310 20.404175
70.315 20.886251
70.320 20.999987
70.325 20.983097
70.330 21.013908
70.335 21.516314
70.340 21.093485
70.345 20.204693
70.350 20.126673
70.355 20.717379
70.360 20.693163
70.365 20.549679
70.370 20.422564
70.375 20.087257
70.380 20.170073
70.385 19.392534
70.390 18.869179
70.395 19.127937
70.400 19.215727
70.405 19.156183
70.410 19.60401
70.415 19.788637
70.420 19.953205
70.425 20.087446
70.430 20.21072
70.435 20.012823
70.440 19.944984
70.445 19.822412
70.450 19.389545
70.455 19.80797
70.460 19.396797
70.465 19.508682
70.470 18.898497
70.475 19.179983
70.480 19.282015
70.485 18.924301
70.490 18.584806
70.495 18.899437
70.500 19.266516
70.505 20.003565
70.510 19.689205
70.515 19.282175
70.520 19.349857
70.525 19.254454
70.530 19.033321
70.535 18.488167
70.540 18.179274
70.545 18.952522
70.550 18.955673
70.555 19.230326
70.560 19.312597
70.565 19.257694
70.570 19.596436
70.575 19.845152
70.580 18.889801
70.585 19.235926
70.590 18.599146
70.595 18.669483
70.600 18.800606
70.605 18.441135
70.610 18.272738
70.615 18.602962
70.620 18.996983
70.625 19.59968
70.630 19.168154
70.635 18.539997
70.640 18.470678
70.645 18.622854
70.650 18.638208
70.655 19.087809
70.660 19.447952
70.665 19.834171
70.670 20.231405
70.675 20.131691
70.680 20.004168
70.685 19.427197
70.690 18.72801
70.695 18.16445
70.700 18.019318
70.705 17.546001
70.710 17.585573
70.715 17.149649
70.720 17.40649
70.725 17.754265
70.730 17.970247
70.735 18.451809
70.740 18.714029
70.745 18.897682
70.750 19.277655
70.755 19.286352
70.760 18.790874
70.765 18.535265
70.770 18.226507
70.775 17.732008
70.780 17.413254
70.785 16.980612
70.790 16.894741
70.795 17.289322
70.800 17.694403
70.805 17.863838
70.810 18.309965
70.815 19.060055
70.820 19.758053
70.825 19.983313
70.830 19.682919
70.835 19.973993
70.840 20.073511
70.845 20.239994
70.850 20.209997
70.855 19.545345
70.860 19.46035
70.865 19.108831
70.870 18.816925
70.875 18.305639
70.880 17.889339
70.885 17.518423
70.890 17.469681
70.895 17.531984
70.900 17.296383
70.905 16.926983
70.910 17.550621
70.915 17.612146
70.920 18.056459
70.925 18.494312
70.930 18.049416
70.935 18.40596
70.940 18.799194
70.945 18.759148
70.950 19.027636
70.955 18.624838
70.960 18.707233
70.965 19.073368
70.970 19.411804
70.975 18.782722
70.980 18.569427
70.985 18.176382
70.990 18.486956
70.995 18.371241
71.000 17.780365
71.005 17.479601
71.010 17.281433
71.015 17.475033
71.020 17.375889
71.025 17.165092
71.030 17.433413
71.035 17.736765
71.040 17.921732
71.045 17.96129
71.050 17.973358
71.055 18.094547
71.060 18.510962
71.065 18.40596
71.070 18.527575
71.075 18.27354
71.080 18.058483
71.085 17.83392
71.090 18.200985
71.095 18.269564
71.100 18.333445
71.105 18.219906
71.110 18.715355
71.115 19.23151
71.120 19.212915
71.125 18.869083
71.130 19.048443
71.135 19.23988
71.140 19.577145
71.145 19.45887
71.150 19.432955
71.155 19.565245
71.160 19.593601
71.165 19.306591
71.170 19.703222
71.175 19.742523
71.180 19.645796
71.185 19.503719
71.190 19.215883
71.195 19.401617
71.200 18.68289
71.205 18.139011
71.210 18.035742
71.215 17.264437
71.220 17.391163
71.225 17.989595
71.230 17.385971
71.235 17.281202
71.240 17.336935
71.245 17.80718
71.250 18.419725
71.255 18.46859
71.260 17.730099
71.265 18.635582
71.270 19.049456
71.275 19.60672
71.280 19.256464
71.285 18.71039
71.290 18.224834
71.295 17.821512
71.300 17.24802
71.305 17.636017
71.310 17.330856
71.315 17.533207
71.320 17.303669
71.325 17.518007
71.330 17.310112
71.335 17.445633
71.340 16.895216
71.345 16.674356
71.350 16.623425
71.355 16.687449
71.360 16.869097
71.365 17.415346
71.370 17.846136
71.375 18.74436
71.380 18.70397
71.385 19.423203
71.390 19.804405
71.395 19.679697
71.400 19.890692
71.405 18.765646
71.410 18.547005
71.415 18.346207
71.420 18.375031
71.425 18.624083
71.430 18.848946
71.435 18.728296
71.440 18.543386
71.445 18.148668
71.450 18.417433
71.455 18.422104
71.460 18.189404
71.465 17.3431
71.470 17.469324
71.475 17.901085
71.480 17.591246
71.485 17.541851
71.490 16.800631
71.495 16.993025
71.500 17.263922
71.505 17.236082
71.510 17.625669
71.515 17.894274
71.520 18.568289
71.525 19.145332
71.530 19.458527
71.535 19.581547
71.540 20.097488
71.545 19.620705
71.550 19.481562
71.555 19.126751
71.560 18.924746
71.565 18.82696
71.570 18.66371
71.575 18.461575
71.580 18.621721
71.585 18.872091
71.590 18.811356
71.595 18.956764
71.600 18.479448
71.605 18.194466
71.610 18.001465
71.615 17.797628
71.620 18.325605
71.625 18.777485
71.630 19.041822
71.635 19.39201
71.640 19.147352
71.645 19.016008
71.650 18.486073
71.655 17.831375
71.660 17.080437
71.665 16.549026
71.670 16.854296
71.675 17.316925
71.680 17.997768
71.685 18.540228
71.690 18.485197
71.695 19.345827
71.700 19.149523
71.705 19.628166
71.710 19.595261
71.715 19.388969
71.720 19.025997
71.725 19.217772
71.730 19.491314
71.735 19.927452
71.740 19.68519
71.745 20.082916
71.750 20.525377
71.755 20.786947
71.760 20.328735
71.765 19.608061
71.770 19.325748
71.775 19.272062
71.780 18.565475
71.785 18.306339
71.790 18.39246
71.795 18.929749
71.800 18.787052
71.805 19.24049
71.810 19.191301
71.815 18.973131
71.820 18.898548
71.825 18.486664
71.830 18.651705
71.835 18.809393
71.840 18.284063
71.845 18.839394
71.850 18.9956
71.855 19.336264
71.860 19.158718
71.865 19.223385
71.870 19.548643
71.875 19.853361
71.880 19.628143
71.885 19.663095
71.890 19.216759
71.895 19.086153
71.900 19.343563
71.905 19.149807
71.910 18.729815
71.915 18.289442
71.920 18.478016
71.925 18.705538
71.930 18.517933
71.935 17.890919
71.940 18.171038
71.945 18.492779
71.950 17.999756
71.955 18.083342
71.960 18.482424
71.965 18.211576
71.970 18.100473
71.975 18.320381
71.980 18.665392
71.985 19.44459
71.990 18.680988
71.995 18.499821
72.000 18.656351
72.005 18.77862
72.010 18.035854
72.015 18.039503
72.020 17.773493
72.025 17.96571
72.030 18.144485
72.035 18.547329
72.040 18.345507
72.045 18.515652
72.050 18.617941
72.055 18.963312
72.060 19.278168
72.065 19.294628
72.070 19.006035
72.075 19.320475
72.080 18.680094
72.085 17.819817
72.090 17.654753
72.095 17.208612
72.100 17.085363
72.105 16.824978
72.110 16.249737
72.115 16.088562
72.120 16.706148
72.125 17.561831
72.130 17.970728
72.135 18.178921
72.140 18.555157
72.145 19.192081
72.150 19.709215
72.155 18.800886
72.160 18.435383
72.165 18.452532
72.170 18.29645
72.175 17.871529
72.180 18.162056
72.185 18.422161
72.190 18.661736
72.195 18.603952
72.200 18.247475
72.205 18.610527
72.210 18.912817
72.215 18.314531
72.220 18.265919
72.225 17.97241
72.230 17.958817
72.235 17.586344
72.240 17.343273
72.245 17.737398
72.250 17.659271
72.255 17.743565
72.260 18.385683
72.265 18.942364
72.270 19.412693
72.275 19.597347
72.280 19.80794
72.285 19.537493
72.290 19.507271
72.295 19.0919
72.300 18.791918
72.305 18.681374
72.310 18.090458
72.315 17.77544
72.320 17.851364
72.325 17.372158
72.330 17.686188
72.335 17.885855
72.340 18.139193
72.345 18.402212
72.350 19.477568
72.355 19.497095
72.360 19.34086
72.365 19.347237
72.370 19.071602
72.375 19.172886
72.380 18.986635
72.385 18.346064
72.390 18.2726
72.395 18.113913
72.400 17.396917
72.405 17.569654
72.410 17.486376
72.415 17.409216
72.420 17.671436
72.425 17.595333
72.430 17.854382
72.435 18.428896
72.440 18.39069
72.445 18.343824
72.450 18.583111
72.455 18.403902
72.460 18.427496
72.465 18.180462
72.470 18.334688
72.475 18.243675
72.480 18.1152
72.485 17.465416
72.490 17.60129
72.495 17.907368
72.500 17.505028
72.505 17.016897
72.510 16.863701
72.515 17.140707
72.520 17.235073
72.525 17.300449
72.530 16.782043
72.535 16.618778
72.540 16.831533
72.545 16.881464
72.550 16.597872
72.555 16.680212
72.560 16.595682
72.565 17.088663
72.570 17.023905
72.575 16.791187
72.580 16.859447
72.585 17.240513
72.590 17.510925
72.595 17.336433
72.600 17.613667
72.605 18.137732
72.610 18.453812
72.615 18.390137
72.620 18.327332
72.625 17.663445
72.630 17.209194
72.635 16.738495
72.640 16.356609
72.645 16.181032
72.650 15.890911
72.655 15.681776
72.660 15.932731
72.665 16.079294
72.670 16.650532
72.675 16.412865
72.680 16.474546
72.685 16.725729
72.690 17.048996
72.695 17.642302
72.700 17.812084
72.705 17.549757
72.710 17.49593
72.715 17.39933
72.720 17.500414
72.725 17.610102
72.730 17.410116
72.735 17.606977
72.740 17.369076
72.745 17.226276
72.750 16.925558
72.755 16.669886
72.760 16.507088
72.765 16.537308
72.770 16.262234
72.775 16.513071
72.780 16.947906
72.785 17.461052
72.790 17.756712
72.795 17.466097
72.800 17.30991
72.805 17.04788
72.810 16.849134
72.815 16.285526
72.820 15.273225
72.825 14.868272
72.830 15.219414
72.835 15.937998
72.840 16.402176
72.845 16.392572
72.850 16.459951
72.855 17.017355
72.860 17.078491
72.865 17.232777
72.870 17.194784
72.875 17.047388
72.880 17.026316
72.885 17.275572
72.890 18.056732
72.895 18.435827
72.900 17.985165
72.905 17.658298
72.910 17.712866
72.915 17.730556
72.920 17.307789
72.925 16.080025
72.930 15.919298
72.935 15.553062
72.940 15.422304
72.945 15.29123
72.950 15.450901
72.955 15.828574
72.960 16.101568
72.965 16.190039
72.970 16.104652
72.975 16.257547
72.980 16.055614
72.985 16.497978
72.990 16.410259
72.995 16.486208
73.000 16.648016
