!@!!GADDS PLOTSO FILE: Chi integration type
!@!!Title/SampleName: map-8d
!@!!Comment: ?
!@!!User: Bruker Instrument Administrator
!@!!Site: University of Illinois Chicago
!@!!Frame: map-8d_01_000.gfrm
!@!!Wavelengths    1.54184   1.54056   1.54439
!@!!Frame angles: 2Theta: 63.000 Omega: 50.000 Phi: 0.000 Chi: 90.000
!@!!Integration range: 2Theta: 53.000 to 73.000  Gamma: -105.000 to -75.000
!@!!Integration method: bin normalized
!@!N
!@!SS
!@!M
!@!L 0.0 0.0 0.0 0.0
!@!XDegrees
!@!YCounts
53.000 8.585192
53.005 8.350634
53.010 8.582772
53.015 8.731169
53.020 9.121051
53.025 8.893976
53.030 9.036625
53.035 9.575435
53.040 9.676879
53.045 9.554744
53.050 9.752605
53.055 9.21687
53.060 8.936609
53.065 8.334592
53.070 7.825397
53.075 7.896499
53.080 7.859846
53.085 7.789492
53.090 7.641613
53.095 7.658467
53.100 7.519628
53.105 7.457073
53.110 7.366901
53.115 7.293786
53.120 7.508348
53.125 7.859987
53.130 8.14923
53.135 8.161919
53.140 8.221522
53.145 8.403052
53.150 8.687468
53.155 8.685934
53.160 8.525451
53.165 8.106771
53.170 8.523695
53.175 8.730953
53.180 8.54781
53.185 8.559175
53.190 8.755945
53.195 8.642777
53.200 8.744243
53.205 8.428351
53.210 8.373178
53.215 8.259504
53.220 8.096371
53.225 7.911504
53.230 7.880572
53.235 7.933074
53.240 7.928505
53.245 7.847175
53.250 7.731325
53.255 7.849484
53.260 8.006717
53.265 8.245532
53.270 8.22076
53.275 8.107352
53.280 8.2533
53.285 8.085921
53.290 8.262193
53.295 8.440565
53.300 7.958106
53.305 7.662116
53.310 7.593197
53.315 8.126108
53.320 8.030159
53.325 7.427226
53.330 7.290627
53.335 7.71264
53.340 8.150474
53.345 8.474908
53.350 8.198181
53.355 8.524203
53.360 8.844546
53.365 9.101974
53.370 8.86692
53.375 8.453558
53.380 8.061913
53.385 7.942842
53.390 8.174236
53.395 8.536741
53.400 8.739589
53.405 8.913747
53.410 8.897566
53.415 8.954641
53.420 8.758902
53.425 9.131795
53.430 8.592986
53.435 8.44024
53.440 8.388693
53.445 8.376741
53.450 8.533785
53.455 8.516964
53.460 7.97959
53.465 7.944127
53.470 7.96074
53.475 8.06819
53.480 8.018796
53.485 8.256007
53.490 8.116906
53.495 7.822766
53.500 7.93567
53.505 8.061307
53.510 8.629399
53.515 9.027366
53.520 8.955823
53.525 9.252253
53.530 9.658908
53.535 9.400047
53.540 9.006098
53.545 8.707933
53.550 8.728328
53.555 8.734753
53.560 8.589537
53.565 8.254678
53.570 8.478157
53.575 8.555322
53.580 8.075337
53.585 7.997094
53.590 8.125648
53.595 8.518462
53.600 8.965229
53.605 9.053676
53.610 9.319261
53.615 9.155707
53.620 8.627151
53.625 9.040227
53.630 8.882129
53.635 8.649413
53.640 8.467191
53.645 8.639383
53.650 9.390222
53.655 9.31082
53.660 8.805901
53.665 8.447808
53.670 8.126219
53.675 8.380604
53.680 8.169127
53.685 8.170979
53.690 8.37216
53.695 8.818777
53.700 9.410952
53.705 9.501595
53.710 9.210835
53.715 9.002003
53.720 8.899032
53.725 8.29079
53.730 7.496286
53.735 7.206108
53.740 7.818033
53.745 8.096843
53.750 8.302119
53.755 8.254133
53.760 8.594851
53.765 8.990156
53.770 8.723186
53.775 8.295044
53.780 8.274606
53.785 8.179674
53.790 8.596962
53.795 8.828042
53.800 8.759023
53.805 8.835997
53.810 8.769849
53.815 9.302715
53.820 9.572324
53.825 9.550186
53.830 9.970754
53.835 10.432081
53.840 10.954103
53.845 11.168242
53.850 10.39209
53.855 10.054305
53.860 9.914281
53.865 9.656276
53.870 9.295382
53.875 9.047688
53.880 8.731959
53.885 8.713402
53.890 9.03977
53.895 8.955437
53.900 8.877
53.905 8.849323
53.910 8.951024
53.915 9.414511
53.920 9.776382
53.925 9.539251
53.930 9.488803
53.935 9.461484
53.940 9.544745
53.945 9.646368
53.950 9.74838
53.955 9.353503
53.960 9.161629
53.965 9.40155
53.970 9.350956
53.975 9.276211
53.980 9.204845
53.985 8.728888
53.990 8.471671
53.995 8.043484
54.000 8.141137
54.005 8.889582
54.010 8.513723
54.015 8.570425
54.020 8.897955
54.025 9.222938
54.030 9.475416
54.035 8.90398
54.040 8.414921
54.045 8.122308
54.050 7.941223
54.055 7.754829
54.060 7.761508
54.065 8.024206
54.070 8.521779
54.075 8.944699
54.080 9.378585
54.085 9.542641
54.090 9.590647
54.095 9.488581
54.100 9.453466
54.105 9.261738
54.110 9.219075
54.115 9.153972
54.120 9.158612
54.125 9.683025
54.130 10.049113
54.135 10.404984
54.140 10.059599
54.145 9.499448
54.150 9.318791
54.155 9.406292
54.160 9.092724
54.165 8.592203
54.170 8.460701
54.175 9.174412
54.180 9.558197
54.185 9.801702
54.190 9.746106
54.195 9.852495
54.200 10.400631
54.205 10.042065
54.210 9.760134
54.215 9.808762
54.220 9.933613
54.225 9.982486
54.230 9.969533
54.235 9.805045
54.240 10.112188
54.245 10.321629
54.250 10.932042
54.255 10.799397
54.260 10.526492
54.265 10.54311
54.270 10.615799
54.275 10.553378
54.280 10.291967
54.285 9.785121
54.290 10.069775
54.295 10.027754
54.300 10.337685
54.305 10.522605
54.310 10.515835
54.315 10.348484
54.320 10.654977
54.325 11.086964
54.330 11.278975
54.335 10.882467
54.340 10.752881
54.345 10.927635
54.350 10.849456
54.355 10.413715
54.360 9.882461
54.365 9.746695
54.370 9.611174
54.375 9.28273
54.380 9.622119
54.385 9.964446
54.390 10.28388
54.395 10.696444
54.400 11.091567
54.405 11.275167
54.410 11.057821
54.415 10.517663
54.420 10.350418
54.425 9.980524
54.430 9.558816
54.435 9.340079
54.440 9.127808
54.445 8.919801
54.450 8.675665
54.455 8.559879
54.460 8.291891
54.465 8.642601
54.470 8.783252
54.475 9.091984
54.480 9.191545
54.485 9.302362
54.490 9.806628
54.495 10.039826
54.500 9.946569
54.505 9.876343
54.510 9.878898
54.515 10.113632
54.520 10.181093
54.525 10.117617
54.530 9.844399
54.535 9.392858
54.540 9.284675
54.545 9.184844
54.550 9.124297
54.555 9.195891
54.560 9.148012
54.565 9.645473
54.570 9.729116
54.575 9.11357
54.580 8.84535
54.585 8.771461
54.590 8.825506
54.595 8.848261
54.600 8.827373
54.605 9.065111
54.610 9.537838
54.615 9.757378
54.620 9.912601
54.625 9.5924
54.630 9.296742
54.635 9.280109
54.640 9.522987
54.645 9.293963
54.650 9.153021
54.655 9.258517
54.660 9.79638
54.665 9.967674
54.670 9.58972
54.675 9.556452
54.680 9.88513
54.685 10.330354
54.690 10.35949
54.695 9.90986
54.700 10.502831
54.705 10.762994
54.710 11.163974
54.715 11.610229
54.720 11.586772
54.725 11.438943
54.730 11.268414
54.735 10.849928
54.740 10.74254
54.745 10.851733
54.750 10.166719
54.755 9.610959
54.760 9.915772
54.765 9.602921
54.770 9.55187
54.775 8.970082
54.780 8.769378
54.785 9.352003
54.790 9.612897
54.795 9.709222
54.800 9.752994
54.805 9.546873
54.810 10.309894
54.815 10.242791
54.820 10.348978
54.825 10.297988
54.830 10.123543
54.835 10.15615
54.840 10.193313
54.845 9.74516
54.850 10.023991
54.855 10.547117
54.860 10.740191
54.865 10.993538
54.870 11.108144
54.875 11.107864
54.880 10.881277
54.885 9.878627
54.890 9.080506
54.895 8.479598
54.900 8.501162
54.905 8.638659
54.910 8.842114
54.915 9.015181
54.920 9.732278
54.925 10.351653
54.930 10.378915
54.935 10.622248
54.940 10.619055
54.945 10.896497
54.950 10.856179
54.955 10.086265
54.960 9.942703
54.965 9.722638
54.970 9.554002
54.975 9.549163
54.980 9.083338
54.985 9.182309
54.990 9.1269
54.995 8.968892
55.000 8.789522
55.005 8.540222
55.010 8.278831
55.015 8.07427
55.020 8.572177
55.025 9.092433
55.030 9.651703
55.035 10.058004
55.040 10.514496
55.045 10.672559
55.050 10.854364
55.055 10.453612
55.060 10.310019
55.065 10.18372
55.070 10.181122
55.075 9.67135
55.080 9.758496
55.085 9.631106
55.090 9.657879
55.095 9.536301
55.100 9.364574
55.105 9.456356
55.110 10.053444
55.115 10.400316
55.120 10.726995
55.125 10.542909
55.130 10.640678
55.135 10.778961
55.140 10.569813
55.145 10.630167
55.150 10.797879
55.155 10.75562
55.160 11.218015
55.165 11.059023
55.170 11.044461
55.175 10.97952
55.180 10.790727
55.185 10.545646
55.190 10.906286
55.195 10.736176
55.200 10.641678
55.205 10.397062
55.210 10.82513
55.215 10.607929
55.220 10.279641
55.225 9.628787
55.230 9.356409
55.235 9.990353
55.240 10.196265
55.245 10.467862
55.250 10.513648
55.255 10.675701
55.260 11.089319
55.265 10.794765
55.270 10.4486
55.275 10.525838
55.280 10.453689
55.285 10.846729
55.290 10.4067
55.295 9.916865
55.300 10.214819
55.305 10.483798
55.310 10.492195
55.315 10.416206
55.320 10.30356
55.325 10.811721
55.330 11.242781
55.335 11.140918
55.340 10.822209
55.345 10.48939
55.350 10.616322
55.355 11.229947
55.360 11.441489
55.365 11.151778
55.370 11.608775
55.375 12.205844
55.380 12.096223
55.385 11.555858
55.390 10.773858
55.395 10.678705
55.400 10.569564
55.405 9.470024
55.410 8.871408
55.415 8.616403
55.420 8.56257
55.425 8.475357
55.430 8.450443
55.435 8.834879
55.440 9.881074
55.445 10.147744
55.450 10.178279
55.455 10.098232
55.460 9.991261
55.465 10.321385
55.470 10.048769
55.475 9.563682
55.480 9.362577
55.485 9.235862
55.490 9.556773
55.495 9.995463
55.500 9.448737
55.505 9.928782
55.510 10.09131
55.515 10.624529
55.520 10.792151
55.525 10.766027
55.530 10.673953
55.535 11.173611
55.540 10.973882
55.545 11.120793
55.550 11.43392
55.555 11.524723
55.560 11.398335
55.565 11.0734
55.570 10.685808
55.575 10.338774
55.580 9.960353
55.585 9.692854
55.590 9.697466
55.595 10.383
55.600 10.708787
55.605 10.800663
55.610 10.771626
55.615 11.039129
55.620 10.908059
55.625 10.465137
55.630 9.869717
55.635 9.607493
55.640 9.749378
55.645 9.801422
55.650 9.829166
55.655 9.750213
55.660 9.688012
55.665 9.886068
55.670 10.090593
55.675 9.892038
55.680 9.674203
55.685 9.677942
55.690 10.133797
55.695 10.844172
55.700 11.221506
55.705 11.381387
55.710 11.31395
55.715 11.645039
55.720 11.873652
55.725 11.675673
55.730 10.790244
55.735 10.466458
55.740 10.485704
55.745 10.57008
55.750 10.468421
55.755 10.046037
55.760 10.055511
55.765 10.10292
55.770 9.76788
55.775 9.704038
55.780 9.676872
55.785 9.529948
55.790 9.849465
55.795 9.720503
55.800 9.823213
55.805 9.685477
55.810 9.72179
55.815 10.261578
55.820 9.931941
55.825 9.866696
55.830 10.466713
55.835 11.109487
55.840 11.322759
55.845 11.268668
55.850 10.966446
55.855 11.5463
55.860 11.679675
55.865 11.574723
55.870 11.201349
55.875 11.204901
55.880 11.390203
55.885 12.07104
55.890 12.188226
55.895 11.941799
55.900 11.900747
55.905 12.164766
55.910 12.604236
55.915 12.609632
55.920 12.330323
55.925 12.54294
55.930 13.058698
55.935 12.722151
55.940 12.797754
55.945 12.311127
55.950 12.52118
55.955 12.426561
55.960 11.984724
55.965 11.155084
55.970 10.871161
55.975 10.928548
55.980 11.590171
55.985 11.447266
55.990 11.396091
55.995 11.494159
56.000 11.626225
56.005 11.807557
56.010 11.090405
56.015 10.356927
56.020 10.05941
56.025 9.746372
56.030 9.771253
56.035 10.088435
56.040 10.514367
56.045 11.159967
56.050 11.087447
56.055 11.215603
56.060 11.138083
56.065 11.073571
56.070 11.369611
56.075 11.147495
56.080 11.222887
56.085 11.125748
56.090 11.570596
56.095 11.902957
56.100 11.578715
56.105 11.589755
56.110 11.397309
56.115 11.421814
56.120 11.57975
56.125 11.397003
56.130 11.259395
56.135 11.43522
56.140 11.326526
56.145 11.450864
56.150 11.364031
56.155 11.344883
56.160 11.114414
56.165 11.272485
56.170 11.467712
56.175 11.620275
56.180 11.685846
56.185 12.224264
56.190 12.05053
56.195 12.044444
56.200 11.950098
56.205 11.623537
56.210 11.72671
56.215 11.605897
56.220 11.352347
56.225 11.579349
56.230 11.563437
56.235 11.842663
56.240 12.095387
56.245 12.660166
56.250 12.757286
56.255 12.641282
56.260 12.344179
56.265 12.083331
56.270 11.721848
56.275 11.539076
56.280 10.790572
56.285 11.064577
56.290 11.528094
56.295 11.889771
56.300 12.079892
56.305 12.139975
56.310 11.952614
56.315 11.776311
56.320 11.072033
56.325 10.637341
56.330 10.90847
56.335 11.099426
56.340 11.104259
56.345 11.147918
56.350 11.131436
56.355 11.717097
56.360 12.1361
56.365 11.918978
56.370 11.558254
56.375 11.668693
56.380 11.918427
56.385 12.121881
56.390 12.390008
56.395 12.217441
56.400 11.737497
56.405 11.679246
56.410 11.765071
56.415 11.555691
56.420 11.268541
56.425 10.588161
56.430 10.543283
56.435 11.235894
56.440 11.692529
56.445 11.78392
56.450 11.724011
56.455 12.03921
56.460 12.870593
56.465 12.834352
56.470 12.174381
56.475 12.116776
56.480 12.379346
56.485 11.91967
56.490 11.297568
56.495 10.925209
56.500 11.111035
56.505 10.842836
56.510 10.695024
56.515 10.496824
56.520 10.809708
56.525 11.151835
56.530 10.941467
56.535 11.256885
56.540 11.552284
56.545 10.958684
56.550 11.288203
56.555 11.632041
56.560 11.967484
56.565 12.304228
56.570 12.404917
56.575 12.469269
56.580 12.876766
56.585 12.882405
56.590 12.531614
56.595 12.311455
56.600 11.600641
56.605 11.326259
56.610 11.734856
56.615 11.732818
56.620 11.66678
56.625 11.350333
56.630 11.769618
56.635 12.36533
56.640 12.470904
56.645 12.14651
56.650 12.014071
56.655 12.313741
56.660 12.266912
56.665 11.716585
56.670 11.473275
56.675 11.407696
56.680 11.072652
56.685 10.850242
56.690 10.772466
56.695 11.301014
56.700 11.473668
56.705 11.886606
56.710 12.354272
56.715 12.902593
56.720 13.443592
56.725 13.438002
56.730 13.62294
56.735 13.772067
56.740 13.52275
56.745 13.680246
56.750 13.89944
56.755 13.4509
56.760 13.133247
56.765 12.98036
56.770 12.690679
56.775 12.506517
56.780 12.278156
56.785 12.27368
56.790 12.488619
56.795 12.576001
56.800 12.636944
56.805 12.810121
56.810 12.95362
56.815 12.573436
56.820 11.975453
56.825 12.443699
56.830 12.181499
56.835 12.021333
56.840 12.139217
56.845 12.25267
56.850 12.542479
56.855 12.865809
56.860 12.88839
56.865 13.353014
56.870 13.53788
56.875 13.447929
56.880 13.118186
56.885 13.213202
56.890 13.073105
56.895 12.743937
56.900 12.61878
56.905 12.386534
56.910 12.599513
56.915 13.382192
56.920 13.64532
56.925 14.022104
56.930 14.142907
56.935 14.346964
56.940 14.329838
56.945 13.858306
56.950 13.399467
56.955 12.941111
56.960 12.949271
56.965 12.772299
56.970 12.88752
56.975 12.790309
56.980 12.989537
56.985 13.09012
56.990 12.642777
56.995 12.401536
57.000 12.089673
57.005 12.175431
57.010 12.023727
57.015 11.742301
57.020 11.596887
57.025 11.739112
57.030 11.434153
57.035 11.463164
57.040 10.969912
57.045 11.021009
57.050 11.516567
57.055 11.777418
57.060 12.094422
57.065 12.79413
57.070 13.189785
57.075 13.687101
57.080 13.422808
57.085 12.889874
57.090 13.006377
57.095 13.000808
57.100 12.575462
57.105 12.657832
57.110 12.442301
57.115 13.039012
57.120 13.062749
57.125 12.537593
57.130 12.408237
57.135 12.514191
57.140 12.712015
57.145 12.979991
57.150 12.422142
57.155 12.294837
57.160 12.619433
57.165 12.425875
57.170 12.565917
57.175 12.0745
57.180 12.063688
57.185 13.081755
57.190 13.465076
57.195 13.464929
57.200 13.604111
57.205 13.293707
57.210 13.667716
57.215 13.691128
57.220 13.683674
57.225 13.771853
57.230 13.894378
57.235 14.098421
57.240 14.070452
57.245 13.507281
57.250 13.19163
57.255 12.512955
57.260 12.191132
57.265 11.783562
57.270 11.420208
57.275 11.479426
57.280 11.400856
57.285 11.82847
57.290 12.221451
57.295 12.492082
57.300 13.225014
57.305 13.502378
57.310 13.429516
57.315 13.918251
57.320 13.247391
57.325 12.789445
57.330 12.802939
57.335 12.199347
57.340 11.910808
57.345 11.541258
57.350 10.834131
57.355 11.217448
57.360 11.792569
57.365 12.20036
57.370 12.889544
57.375 13.169888
57.380 13.328334
57.385 13.276338
57.390 13.356861
57.395 13.067105
57.400 13.185046
57.405 13.036077
57.410 13.266978
57.415 13.938033
57.420 14.463478
57.425 14.327445
57.430 13.888894
57.435 13.208233
57.440 12.80404
57.445 12.551123
57.450 12.644309
57.455 12.930696
57.460 12.891315
57.465 12.894926
57.470 12.886879
57.475 12.840554
57.480 12.929474
57.485 12.564482
57.490 12.369859
57.495 12.373786
57.500 12.695958
57.505 12.806691
57.510 12.784348
57.515 12.783523
57.520 12.610937
57.525 12.422121
57.530 12.502692
57.535 12.840495
57.540 13.674269
57.545 14.024968
57.550 13.984213
57.555 13.857304
57.560 13.654838
57.565 13.694826
57.570 13.560774
57.575 12.811076
57.580 13.089808
57.585 13.028623
57.590 13.587103
57.595 14.480122
57.600 14.644648
57.605 14.587581
57.610 14.896563
57.615 14.605142
57.620 15.150229
57.625 15.144447
57.630 15.010272
57.635 14.596412
57.640 14.374005
57.645 13.912017
57.650 14.409163
57.655 14.868163
57.660 14.581768
57.665 14.403491
57.670 14.284984
57.675 14.133963
57.680 14.254581
57.685 13.089857
57.690 12.401279
57.695 12.133462
57.700 12.250408
57.705 12.347221
57.710 12.453483
57.715 13.071996
57.720 13.063922
57.725 12.721805
57.730 13.082515
57.735 13.027202
57.740 13.547578
57.745 13.812258
57.750 13.389911
57.755 14.084083
57.760 13.991101
57.765 13.811181
57.770 13.824709
57.775 13.411618
57.780 13.374311
57.785 13.957366
57.790 13.760083
57.795 13.864929
57.800 13.723765
57.805 13.932507
57.810 14.774596
57.815 14.931273
57.820 14.398536
57.825 14.428384
57.830 14.976673
57.835 15.199503
57.840 14.896452
57.845 14.085149
57.850 13.978383
57.855 14.078032
57.860 14.470665
57.865 14.439344
57.870 14.724605
57.875 15.143394
57.880 15.453399
57.885 15.298716
57.890 15.445146
57.895 15.131021
57.900 15.284496
57.905 15.382167
57.910 15.451757
57.915 15.179448
57.920 15.151332
57.925 15.655869
57.930 15.431322
57.935 15.223266
57.940 15.074077
57.945 15.235222
57.950 15.641543
57.955 15.846676
57.960 15.521959
57.965 15.99746
57.970 16.306576
57.975 15.907383
57.980 15.321387
57.985 14.951227
57.990 14.698343
57.995 14.388413
58.000 14.704114
58.005 14.465005
58.010 14.475631
58.015 14.813157
58.020 14.953875
58.025 15.113312
58.030 16.053528
58.035 15.913957
58.040 15.427984
58.045 15.241836
58.050 14.864268
58.055 15.117164
58.060 14.565226
58.065 13.190622
58.070 12.683575
58.075 12.776774
58.080 13.511265
58.085 13.887254
58.090 13.85709
58.095 14.646623
58.100 15.324429
58.105 15.904798
58.110 15.854151
58.115 15.611567
58.120 15.482907
58.125 14.899036
58.130 14.813475
58.135 14.712454
58.140 14.704895
58.145 15.254078
58.150 15.252591
58.155 15.374689
58.160 15.471664
58.165 14.925917
58.170 15.161855
58.175 14.991407
58.180 15.119836
58.185 15.420884
58.190 15.115636
58.195 15.114914
58.200 15.363023
58.205 15.120841
58.210 15.320377
58.215 14.615935
58.220 13.968175
58.225 14.11638
58.230 14.85999
58.235 15.267397
58.240 15.653625
58.245 15.877513
58.250 16.132324
58.255 16.779783
58.260 16.907927
58.265 16.348436
58.270 16.007851
58.275 16.022915
58.280 15.926944
58.285 16.079702
58.290 16.094984
58.295 16.054216
58.300 16.132414
58.305 16.824337
58.310 16.967377
58.315 17.694908
58.320 17.790981
58.325 17.831179
58.330 18.052145
58.335 18.125669
58.340 17.865685
58.345 17.908386
58.350 17.735281
58.355 18.445593
58.360 18.368807
58.365 18.405943
58.370 18.660397
58.375 18.699137
58.380 19.056334
58.385 19.131424
58.390 19.174389
58.395 19.624502
58.400 20.301422
58.405 20.446686
58.410 20.307165
58.415 20.441238
58.420 20.587093
58.425 21.046001
58.430 21.337378
58.435 21.361618
58.440 21.731571
58.445 22.266163
58.450 22.106062
58.455 22.406969
58.460 22.79977
58.465 22.997807
58.470 22.772797
58.475 22.961918
58.480 23.022709
58.485 23.469294
58.490 24.261696
58.495 24.867855
58.500 25.449156
58.505 26.738453
58.510 27.29019
58.515 28.141222
58.520 29.201916
58.525 29.55574
58.530 29.458536
58.535 30.071142
58.540 30.226517
58.545 30.817074
58.550 30.612867
58.555 30.242435
58.560 30.763336
58.565 31.60465
58.570 31.490393
58.575 31.797447
58.580 31.92362
58.585 32.834602
58.590 33.8307
58.595 33.742672
58.600 32.879646
58.605 32.938831
58.610 32.713402
58.615 32.454845
58.620 32.040726
58.625 32.283306
58.630 32.968994
58.635 33.9636
58.640 34.517902
58.645 34.698158
58.650 34.647758
58.655 34.854847
58.660 34.454281
58.665 34.366505
58.670 33.893757
58.675 33.593754
58.680 33.886497
58.685 33.950958
58.690 33.968971
58.695 34.746181
58.700 34.207161
58.705 34.104881
58.710 34.020626
58.715 33.45253
58.720 33.457039
58.725 32.707348
58.730 31.189785
58.735 31.035488
58.740 31.076986
58.745 30.578074
58.750 30.437056
58.755 29.900082
58.760 30.060564
58.765 29.991781
58.770 29.822701
58.775 29.504234
58.780 29.244425
58.785 28.752583
58.790 28.886501
58.795 28.364279
58.800 27.714973
58.805 27.199524
58.810 27.363098
58.815 27.613157
58.820 27.221313
58.825 26.609781
58.830 26.599489
58.835 25.895178
58.840 25.215288
58.845 24.210728
58.850 23.020391
58.855 22.875431
58.860 22.689402
58.865 22.297783
58.870 22.177671
58.875 22.265221
58.880 22.379889
58.885 22.566595
58.890 21.985449
58.895 21.789766
58.900 21.301786
58.905 21.00886
58.910 20.57526
58.915 20.18898
58.920 20.272068
58.925 20.144815
58.930 19.9641
58.935 19.780949
58.940 19.052153
58.945 18.373566
58.950 18.138748
58.955 17.85214
58.960 17.232471
58.965 17.147203
58.970 17.075552
58.975 16.887724
58.980 16.670216
58.985 16.557423
58.990 16.465651
58.995 16.749172
59.000 16.745159
59.005 16.666506
59.010 17.575645
59.015 18.19763
59.020 18.269491
59.025 18.340725
59.030 18.272516
59.035 17.924368
59.040 18.289694
59.045 18.014338
59.050 17.501131
59.055 17.045807
59.060 16.91259
59.065 16.704596
59.070 16.559162
59.075 16.219341
59.080 16.787926
59.085 16.533848
59.090 15.837736
59.095 15.628275
59.100 15.587406
59.105 15.52342
59.110 15.099916
59.115 14.74966
59.120 15.390282
59.125 15.750258
59.130 15.869551
59.135 16.181395
59.140 16.379776
59.145 16.139868
59.150 16.07584
59.155 16.35376
59.160 16.670309
59.165 16.49301
59.170 16.480858
59.175 16.467915
59.180 16.635534
59.185 15.670458
59.190 14.407846
59.195 14.250766
59.200 14.929923
59.205 14.610306
59.210 14.592114
59.215 14.218969
59.220 14.595668
59.225 15.198686
59.230 14.735931
59.235 14.157613
59.240 14.081228
59.245 13.776332
59.250 14.145436
59.255 14.616035
59.260 14.66084
59.265 15.162036
59.270 15.17509
59.275 15.058351
59.280 15.003695
59.285 14.908504
59.290 14.560288
59.295 14.684248
59.300 14.219978
59.305 14.216058
59.310 14.284789
59.315 14.543409
59.320 14.452399
59.325 14.710569
59.330 14.948836
59.335 15.600568
59.340 16.010551
59.345 16.463486
59.350 16.69978
59.355 16.770741
59.360 16.816357
59.365 16.422159
59.370 16.1143
59.375 15.909358
59.380 15.135958
59.385 15.077208
59.390 14.440057
59.395 14.31459
59.400 14.187056
59.405 13.905732
59.410 13.605433
59.415 13.54917
59.420 13.635421
59.425 14.250401
59.430 14.251136
59.435 14.321224
59.440 14.47298
59.445 14.422709
59.450 14.35939
59.455 14.225584
59.460 14.201143
59.465 14.089455
59.470 13.976593
59.475 14.101519
59.480 14.445904
59.485 14.987453
59.490 15.858663
59.495 16.42168
59.500 16.530811
59.505 16.543636
59.510 16.620113
59.515 16.700123
59.520 16.363699
59.525 15.490252
59.530 14.948153
59.535 15.023074
59.540 15.274037
59.545 15.223408
59.550 15.098263
59.555 14.851799
59.560 14.572916
59.565 14.717187
59.570 14.381117
59.575 13.986721
59.580 13.796379
59.585 13.91844
59.590 14.073703
59.595 13.919581
59.600 13.716451
59.605 14.062425
59.610 14.487857
59.615 14.510275
59.620 14.313322
59.625 14.172628
59.630 14.410394
59.635 14.424054
59.640 14.309082
59.645 13.670299
59.650 13.20293
59.655 13.123852
59.660 13.259166
59.665 12.875739
59.670 12.24233
59.675 12.245
59.680 12.78822
59.685 13.42345
59.690 13.456619
59.695 14.005338
59.700 14.903172
59.705 15.335158
59.710 15.478303
59.715 15.161386
59.720 14.758364
59.725 15.302464
59.730 14.930923
59.735 14.262604
59.740 14.449955
59.745 14.340942
59.750 14.813895
59.755 14.984635
59.760 14.86659
59.765 14.97517
59.770 15.356334
59.775 15.491934
59.780 15.570633
59.785 15.585449
59.790 15.989081
59.795 15.492467
59.800 15.360729
59.805 14.74873
59.810 14.889832
59.815 15.286643
59.820 15.443728
59.825 14.977323
59.830 15.031063
59.835 15.14781
59.840 15.557187
59.845 15.11628
59.850 14.717447
59.855 14.759148
59.860 15.576611
59.865 15.466063
59.870 15.010036
59.875 15.171008
59.880 15.387889
59.885 15.087245
59.890 14.958329
59.895 14.365135
59.900 14.154468
59.905 14.331594
59.910 14.335155
59.915 14.32317
59.920 14.565854
59.925 14.809072
59.930 15.180045
59.935 15.515716
59.940 15.396516
59.945 14.807924
59.950 14.863092
59.955 14.838502
59.960 14.203389
59.965 14.152216
59.970 14.26919
59.975 14.396833
59.980 14.652786
59.985 14.369262
59.990 14.144547
59.995 14.299382
60.000 14.18335
60.005 14.553593
60.010 14.702658
60.015 15.210196
60.020 15.451283
60.025 15.693531
60.030 15.834496
60.035 15.606328
60.040 15.250363
60.045 15.352098
60.050 15.221972
60.055 15.266946
60.060 14.764533
60.065 14.600112
60.070 15.07112
60.075 15.810407
60.080 15.459435
60.085 15.365864
60.090 15.774219
60.095 16.10412
60.100 16.01215
60.105 16.052988
60.110 15.928828
60.115 16.256243
60.120 15.989031
60.125 15.399277
60.130 15.615473
60.135 15.662433
60.140 15.1043
60.145 14.504189
60.150 14.13395
60.155 13.969187
60.160 13.970498
60.165 13.811342
60.170 14.210526
60.175 14.211149
60.180 14.157975
60.185 13.888735
60.190 14.49947
60.195 14.570203
60.200 15.092377
60.205 15.247965
60.210 15.216262
60.215 15.30241
60.220 16.119301
60.225 15.964109
60.230 15.893988
60.235 15.068895
60.240 14.809961
60.245 14.861308
60.250 14.68063
60.255 14.302474
60.260 14.021397
60.265 14.206107
60.270 14.704644
60.275 14.703455
60.280 14.680035
60.285 14.94887
60.290 14.537403
60.295 14.532439
60.300 14.58793
60.305 14.160809
60.310 13.713548
60.315 14.032727
60.320 13.566612
60.325 13.621705
60.330 13.486224
60.335 13.721575
60.340 14.034699
60.345 14.667614
60.350 14.806829
60.355 15.156584
60.360 15.126148
60.365 15.092798
60.370 14.994004
60.375 15.778715
60.380 15.63033
60.385 15.070556
60.390 15.253918
60.395 15.509056
60.400 15.396132
60.405 14.952622
60.410 14.182141
60.415 13.904965
60.420 14.045907
60.425 14.007432
60.430 13.916424
60.435 14.067291
60.440 14.175231
60.445 13.891157
60.450 14.163544
60.455 14.568078
60.460 14.934582
60.465 15.13599
60.470 14.94381
60.475 14.779091
60.480 15.122809
60.485 14.954269
60.490 14.770793
60.495 14.460742
60.500 14.424607
60.505 14.990188
60.510 15.085361
60.515 15.53442
60.520 15.432818
60.525 15.57809
60.530 15.95502
60.535 16.397722
60.540 16.349014
60.545 16.477505
60.550 16.506697
60.555 16.664534
60.560 16.366102
60.565 16.319849
60.570 16.015888
60.575 15.594529
60.580 15.41011
60.585 15.045327
60.590 15.168119
60.595 15.398477
60.600 15.012302
60.605 14.660699
60.610 14.861807
60.615 14.633167
60.620 14.721885
60.625 14.760819
60.630 14.392258
60.635 14.516539
60.640 14.534499
60.645 14.799959
60.650 14.597473
60.655 14.645494
60.660 14.632922
60.665 15.123674
60.670 15.238628
60.675 15.377915
60.680 15.214764
60.685 15.667558
60.690 15.738415
60.695 15.660074
60.700 15.679283
60.705 15.611014
60.710 15.285945
60.715 15.031441
60.720 14.605183
60.725 14.686924
60.730 14.693484
60.735 14.897264
60.740 14.961964
60.745 15.094444
60.750 15.273356
60.755 15.396676
60.760 15.109357
60.765 15.16276
60.770 14.951766
60.775 14.767696
60.780 14.502568
60.785 14.297521
60.790 14.15102
60.795 13.951394
60.800 13.293148
60.805 13.304324
60.810 13.593368
60.815 13.913177
60.820 14.468712
60.825 14.706895
60.830 14.801048
60.835 15.147901
60.840 15.374674
60.845 15.54608
60.850 16.137255
60.855 16.08868
60.860 16.013977
60.865 16.169838
60.870 16.41884
60.875 16.461573
60.880 16.206306
60.885 15.707354
60.890 15.195001
60.895 15.087278
60.900 14.857136
60.905 14.557275
60.910 14.045302
60.915 14.845767
60.920 15.247769
60.925 15.552559
60.930 15.495076
60.935 15.548223
60.940 15.619034
60.945 15.713148
60.950 15.294104
60.955 14.92664
60.960 15.060488
60.965 15.501357
60.970 15.476715
60.975 15.346468
60.980 15.699467
60.985 15.336641
60.990 15.272152
60.995 14.653979
61.000 14.297102
61.005 14.803081
61.010 14.507078
61.015 13.811399
61.020 13.969562
61.025 14.261527
61.030 14.977845
61.035 15.41117
61.040 15.063042
61.045 15.257831
61.050 15.595439
61.055 15.588172
61.060 15.440688
61.065 14.756088
61.070 14.578982
61.075 14.640057
61.080 14.775521
61.085 14.985357
61.090 15.037114
61.095 14.814252
61.100 15.387385
61.105 15.162275
61.110 14.781306
61.115 14.638452
61.120 14.173901
61.125 14.143415
61.130 14.584487
61.135 14.452137
61.140 15.250376
61.145 16.017969
61.150 15.651718
61.155 15.648736
61.160 15.224963
61.165 15.403305
61.170 15.339361
61.175 14.882145
61.180 14.682239
61.185 15.224831
61.190 15.571409
61.195 16.240427
61.200 16.345894
61.205 16.519053
61.210 16.97072
61.215 17.603821
61.220 17.708229
61.225 17.396534
61.230 17.115602
61.235 16.693617
61.240 16.487261
61.245 15.941551
61.250 15.33083
61.255 15.05083
61.260 15.112663
61.265 15.175622
61.270 15.028301
61.275 14.50723
61.280 14.901764
61.285 15.120162
61.290 15.110196
61.295 15.065218
61.300 14.629224
61.305 14.777773
61.310 14.662643
61.315 14.046191
61.320 13.789189
61.325 13.470472
61.330 13.165611
61.335 13.113764
61.340 12.944124
61.345 13.317212
61.350 13.181087
61.355 13.264243
61.360 13.89448
61.365 14.199052
61.370 14.468855
61.375 14.990699
61.380 15.394186
61.385 15.825736
61.390 15.938783
61.395 16.018833
61.400 15.919046
61.405 15.640429
61.410 15.202262
61.415 15.10765
61.420 15.219109
61.425 15.313711
61.430 15.206354
61.435 15.617792
61.440 16.3393
61.445 16.838261
61.450 16.634863
61.455 16.556963
61.460 16.176838
61.465 15.912519
61.470 15.494678
61.475 15.273716
61.480 15.376261
61.485 15.485519
61.490 15.73241
61.495 15.913901
61.500 16.141939
61.505 16.280811
61.510 15.944613
61.515 15.919575
61.520 15.838808
61.525 15.850398
61.530 15.73779
61.535 15.645678
61.540 15.390233
61.545 15.567388
61.550 15.44351
61.555 15.050677
61.560 14.426994
61.565 14.66461
61.570 14.909549
61.575 15.945187
61.580 15.742147
61.585 15.58233
61.590 16.180983
61.595 16.272516
61.600 15.860041
61.605 16.018566
61.610 15.830923
61.615 16.238661
61.620 16.300373
61.625 15.946097
61.630 16.029564
61.635 16.289312
61.640 15.641091
61.645 15.166539
61.650 14.932496
61.655 14.623392
61.660 14.453607
61.665 14.832912
61.670 14.521894
61.675 14.696228
61.680 14.919806
61.685 14.86934
61.690 15.081212
61.695 14.768426
61.700 14.61284
61.705 15.404135
61.710 15.68193
61.715 16.188745
61.720 16.134075
61.725 16.326588
61.730 17.067852
61.735 17.199884
61.740 16.817951
61.745 15.973413
61.750 15.664009
61.755 15.682043
61.760 15.54711
61.765 15.253946
61.770 15.105296
61.775 15.581446
61.780 16.168503
61.785 15.710411
61.790 15.57023
61.795 15.138654
61.800 14.876136
61.805 14.247631
61.810 13.799528
61.815 14.122949
61.820 14.82739
61.825 15.455631
61.830 16.25564
61.835 16.790594
61.840 17.014584
61.845 17.584347
61.850 17.729568
61.855 17.386473
61.860 17.234085
61.865 17.477373
61.870 17.819918
61.875 18.260073
61.880 18.027731
61.885 17.79479
61.890 17.617893
61.895 18.065569
61.900 17.94257
61.905 17.994354
61.910 17.880907
61.915 17.083334
61.920 17.105097
61.925 17.12088
61.930 16.344664
61.935 16.290468
61.940 16.05938
61.945 16.041883
61.950 16.032125
61.955 16.013929
61.960 15.961118
61.965 15.612489
61.970 15.019149
61.975 15.091319
61.980 15.557595
61.985 15.857144
61.990 15.655604
61.995 15.404655
62.000 15.924807
62.005 15.992044
62.010 15.365815
62.015 14.847946
62.020 14.974937
62.025 15.417727
62.030 15.668019
62.035 15.549674
62.040 15.544167
62.045 15.449199
62.050 15.552343
62.055 15.408952
62.060 15.649156
62.065 15.369392
62.070 15.054214
62.075 15.220826
62.080 15.584983
62.085 15.674785
62.090 15.910697
62.095 15.34133
62.100 14.966739
62.105 15.221545
62.110 15.12821
62.115 14.814629
62.120 14.444877
62.125 13.905343
62.130 14.511063
62.135 14.869502
62.140 15.10309
62.145 15.099741
62.150 15.281727
62.155 15.589434
62.160 15.854372
62.165 15.589885
62.170 16.46047
62.175 16.928709
62.180 17.191397
62.185 17.390413
62.190 16.864368
62.195 16.813913
62.200 16.658228
62.205 15.283522
62.210 14.430592
62.215 14.569506
62.220 13.882284
62.225 14.305982
62.230 14.451789
62.235 14.083696
62.240 14.48399
62.245 14.772909
62.250 14.5354
62.255 14.864853
62.260 14.718284
62.265 14.267316
62.270 15.037947
62.275 15.323349
62.280 15.170036
62.285 15.39597
62.290 16.058083
62.295 16.661247
62.300 17.057745
62.305 16.862366
62.310 16.980402
62.315 17.447662
62.320 17.794075
62.325 17.811069
62.330 17.568195
62.335 17.210211
62.340 17.473465
62.345 17.400471
62.350 16.615002
62.355 15.631434
62.360 14.990636
62.365 14.913413
62.370 15.122203
62.375 15.062924
62.380 15.112897
62.385 15.40693
62.390 15.761602
62.395 15.725032
62.400 15.542762
62.405 15.533503
62.410 15.512901
62.415 15.715243
62.420 15.833644
62.425 16.630039
62.430 17.401516
62.435 17.574646
62.440 17.811129
62.445 17.759773
62.450 17.282394
62.455 17.295277
62.460 17.046387
62.465 17.491291
62.470 17.660578
62.475 17.658199
62.480 17.725365
62.485 18.093172
62.490 18.390312
62.495 18.262358
62.500 17.521379
62.505 17.270403
62.510 17.083723
62.515 16.828869
62.520 16.647575
62.525 16.06374
62.530 15.460605
62.535 15.520399
62.540 15.684731
62.545 16.065718
62.550 16.418358
62.555 16.469522
62.560 16.452482
62.565 16.079346
62.570 16.203911
62.575 15.861185
62.580 15.649569
62.585 15.396723
62.590 15.372928
62.595 15.469113
62.600 16.101709
62.605 15.782138
62.610 15.781131
62.615 15.251117
62.620 14.705075
62.625 14.180423
62.630 14.037737
62.635 13.835711
62.640 13.568029
62.645 13.552904
62.650 14.013904
62.655 14.087928
62.660 14.907067
62.665 14.677444
62.670 14.853607
62.675 15.493383
62.680 15.845552
62.685 16.395447
62.690 16.779999
62.695 16.136831
62.700 16.289391
62.705 16.043282
62.710 15.805374
62.715 15.642279
62.720 14.986662
62.725 15.279763
62.730 15.822864
62.735 16.182615
62.740 16.602468
62.745 16.8904
62.750 16.934063
62.755 17.297806
62.760 17.488483
62.765 17.614883
62.770 17.581499
62.775 17.257881
62.780 16.946671
62.785 16.996405
62.790 17.018124
62.795 16.942991
62.800 16.515488
62.805 16.150171
62.810 16.230459
62.815 16.406467
62.820 16.260319
62.825 15.853765
62.830 15.379929
62.835 15.897375
62.840 16.143789
62.845 16.336189
62.850 16.226068
62.855 15.924489
62.860 16.304214
62.865 16.309195
62.870 15.768206
62.875 15.383005
62.880 14.784162
62.885 14.94388
62.890 15.292232
62.895 14.845529
62.900 15.243334
62.905 15.881111
62.910 16.559216
62.915 16.664082
62.920 15.927217
62.925 15.611563
62.930 16.196444
62.935 16.572161
62.940 16.577738
62.945 15.631087
62.950 15.565157
62.955 15.956992
62.960 15.9704
62.965 15.379153
62.970 14.752234
62.975 14.97116
62.980 15.764954
62.985 15.844552
62.990 16.087576
62.995 16.222549
63.000 16.629021
63.005 16.743538
63.010 16.101227
63.015 16.490963
63.020 16.774908
63.025 16.675566
63.030 16.718599
63.035 16.581438
63.040 16.565271
63.045 16.66934
63.050 15.99299
63.055 15.858224
63.060 15.715663
63.065 15.300983
63.070 15.244157
63.075 15.098573
63.080 15.206184
63.085 15.407353
63.090 15.181343
63.095 15.341704
63.100 15.624901
63.105 15.930611
63.110 15.928287
63.115 16.244812
63.120 16.641693
63.125 16.606758
63.130 16.987387
63.135 16.944841
63.140 16.685789
63.145 17.120264
63.150 17.021765
63.155 17.015316
63.160 16.824295
63.165 16.303324
63.170 16.117672
63.175 15.856087
63.180 15.539385
63.185 15.54429
63.190 15.527808
63.195 15.287756
63.200 15.508009
63.205 16.138433
63.210 16.172892
63.215 15.960093
63.220 16.115705
63.225 16.385847
63.230 16.844763
63.235 16.539331
63.240 16.010651
63.245 16.20521
63.250 16.33559
63.255 16.370747
63.260 16.413826
63.265 16.596048
63.270 16.574476
63.275 16.66712
63.280 16.598875
63.285 16.939898
63.290 16.377407
63.295 16.582876
63.300 16.62392
63.305 17.203995
63.310 18.054163
63.315 18.167776
63.320 18.093018
63.325 18.596569
63.330 18.674324
63.335 18.766928
63.340 18.494413
63.345 18.531124
63.350 18.860571
63.355 18.82518
63.360 18.883972
63.365 18.53344
63.370 18.578342
63.375 18.299767
63.380 17.565832
63.385 17.202925
63.390 16.92717
63.395 16.776384
63.400 16.996534
63.405 17.086626
63.410 17.014515
63.415 16.916615
63.420 16.571047
63.425 17.060093
63.430 16.547594
63.435 16.010033
63.440 16.262156
63.445 16.446348
63.450 16.612152
63.455 16.899796
63.460 16.697542
63.465 17.236523
63.470 17.577154
63.475 18.13378
63.480 18.43082
63.485 18.439234
63.490 18.542727
63.495 18.159229
63.500 18.03982
63.505 18.164389
63.510 17.505283
63.515 17.503651
63.520 17.019579
63.525 16.917206
63.530 17.47489
63.535 17.539845
63.540 17.475145
63.545 17.520441
63.550 16.899984
63.555 16.832737
63.560 16.71546
63.565 16.414534
63.570 16.177099
63.575 15.776242
63.580 15.471359
63.585 16.058905
63.590 16.875826
63.595 17.664196
63.600 17.450024
63.605 17.503012
63.610 17.207468
63.615 17.179419
63.620 17.349091
63.625 16.811741
63.630 16.316721
63.635 16.276224
63.640 16.546385
63.645 16.93124
63.650 17.483068
63.655 17.287474
63.660 17.472622
63.665 17.332706
63.670 17.304255
63.675 16.739697
63.680 16.908083
63.685 16.757879
63.690 16.861588
63.695 16.881191
63.700 16.798601
63.705 16.859018
63.710 16.979931
63.715 16.460657
63.720 16.012575
63.725 15.666038
63.730 15.771151
63.735 16.409153
63.740 16.386656
63.745 16.68162
63.750 17.889513
63.755 18.290846
63.760 18.681204
63.765 18.785372
63.770 17.875612
63.775 18.13747
63.780 18.335466
63.785 17.632376
63.790 17.726685
63.795 17.622486
63.800 17.160112
63.805 17.995991
63.810 18.506382
63.815 18.668974
63.820 18.683346
63.825 18.94865
63.830 19.246611
63.835 19.577246
63.840 19.436373
63.845 19.264738
63.850 19.206615
63.855 18.318306
63.860 17.969738
63.865 17.970129
63.870 17.83094
63.875 18.298986
63.880 17.909088
63.885 18.353897
63.890 19.438406
63.895 19.174095
63.900 19.056923
63.905 18.92528
63.910 18.438425
63.915 18.701551
63.920 18.731239
63.925 18.636963
63.930 19.050013
63.935 19.329302
63.940 19.48324
63.945 19.211063
63.950 18.916193
63.955 18.869133
63.960 18.929796
63.965 19.04236
63.970 19.234997
63.975 20.552795
63.980 21.421095
63.985 22.102421
63.990 22.276905
63.995 22.637032
64.000 23.365555
64.005 23.717316
64.010 23.031719
64.015 23.226141
64.020 23.043079
64.025 23.27379
64.030 23.245501
64.035 22.819841
64.040 22.738249
64.045 23.030149
64.050 23.365335
64.055 23.104555
64.060 22.868954
64.065 22.849754
64.070 23.679241
64.075 23.606586
64.080 23.561489
64.085 24.096445
64.090 24.460545
64.095 24.680391
64.100 25.884506
64.105 25.817255
64.110 26.322037
64.115 27.067099
64.120 27.282955
64.125 28.234442
64.130 29.036055
64.135 28.640718
64.140 28.733614
64.145 29.250273
64.150 29.927267
64.155 31.002634
64.160 30.899982
64.165 29.918451
64.170 29.627151
64.175 30.00971
64.180 29.666344
64.185 28.751534
64.190 28.338428
64.195 28.4506
64.200 29.634396
64.205 30.514585
64.210 30.68741
64.215 31.298246
64.220 32.211353
64.225 32.479317
64.230 32.90731
64.235 33.440098
64.240 34.410477
64.245 35.148743
64.250 35.72961
64.255 37.201797
64.260 37.780647
64.265 38.522125
64.270 38.95089
64.275 38.641731
64.280 38.788822
64.285 38.706306
64.290 38.998947
64.295 40.038204
64.300 40.572445
64.305 40.7584
64.310 41.025707
64.315 41.206234
64.320 41.286949
64.325 40.617966
64.330 40.119835
64.335 40.487125
64.340 41.441196
64.345 42.588627
64.350 43.148777
64.355 43.857769
64.360 44.3358
64.365 45.05896
64.370 45.143051
64.375 44.250515
64.380 43.874393
64.385 44.445801
64.390 44.125401
64.395 45.33987
64.400 45.32291
64.405 45.432217
64.410 46.129128
64.415 46.805626
64.420 47.304775
64.425 46.942211
64.430 46.751278
64.435 47.302479
64.440 47.680729
64.445 48.354408
64.450 48.527542
64.455 47.822014
64.460 48.745758
64.465 48.769444
64.470 48.961014
64.475 49.019402
64.480 48.207985
64.485 47.087727
64.490 47.486122
64.495 47.387455
64.500 46.146698
64.505 44.781269
64.510 43.5863
64.515 42.757889
64.520 42.209522
64.525 41.279381
64.530 40.113659
64.535 39.954296
64.540 39.900326
64.545 39.97393
64.550 39.713882
64.555 39.389427
64.560 38.851604
64.565 38.280701
64.570 37.402061
64.575 36.092113
64.580 34.864399
64.585 34.460716
64.590 33.798374
64.595 33.590496
64.600 33.335564
64.605 33.095325
64.610 32.733971
64.615 32.166191
64.620 31.736425
64.625 31.562
64.630 30.997831
64.635 30.507212
64.640 29.525808
64.645 29.805262
64.650 29.399828
64.655 28.487106
64.660 27.867634
64.665 27.531796
64.670 26.972336
64.675 26.472263
64.680 26.347044
64.685 26.752146
64.690 27.368158
64.695 27.308523
64.700 27.181328
64.705 27.366991
64.710 27.871086
64.715 26.934763
64.720 26.059578
64.725 25.3925
64.730 25.233309
64.735 25.197636
64.740 25.073904
64.745 24.061138
64.750 24.043768
64.755 23.777935
64.760 23.351259
64.765 23.169159
64.770 22.480824
64.775 22.165588
64.780 21.714689
64.785 21.326963
64.790 20.68611
64.795 20.836399
64.800 21.074923
64.805 21.083878
64.810 21.200926
64.815 21.547993
64.820 21.569456
64.825 22.180101
64.830 22.41217
64.835 22.245766
64.840 22.023619
64.845 21.388603
64.850 21.666578
64.855 21.704763
64.860 21.887081
64.865 21.67264
64.870 21.578592
64.875 22.433739
64.880 22.741896
64.885 21.845455
64.890 21.62134
64.895 21.086926
64.900 21.054119
64.905 21.269772
64.910 21.290844
64.915 21.469374
64.920 21.949959
64.925 22.005989
64.930 22.059032
64.935 21.654337
64.940 21.498281
64.945 21.484478
64.950 21.708761
64.955 21.826838
64.960 22.793411
64.965 23.486296
64.970 24.459318
64.975 24.404379
64.980 24.265587
64.985 23.753798
64.990 23.863657
64.995 23.837757
65.000 23.728991
65.005 23.376856
65.010 23.554468
65.015 23.87977
65.020 25.540577
65.025 26.317924
65.030 26.444046
65.035 26.520651
65.040 26.784443
65.045 27.219145
65.050 27.349493
65.055 27.176043
65.060 27.380577
65.065 28.019392
65.070 28.987343
65.075 29.302965
65.080 29.703856
65.085 29.628696
65.090 29.797256
65.095 30.219437
65.100 31.176096
65.105 31.052139
65.110 30.783278
65.115 31.033247
65.120 31.167728
65.125 30.77762
65.130 30.452763
65.135 29.835262
65.140 29.74962
65.145 30.682241
65.150 30.805592
65.155 31.177853
65.160 32.036877
65.165 32.751892
65.170 33.339722
65.175 33.780098
65.180 33.522179
65.185 33.575226
65.190 33.326569
65.195 33.578152
65.200 33.432674
65.205 32.647522
65.210 33.071327
65.215 33.811161
65.220 34.6334
65.225 35.246925
65.230 35.191559
65.235 35.196518
65.240 35.874912
65.245 35.837528
65.250 35.634449
65.255 35.175335
65.260 35.293102
65.265 35.232822
65.270 35.42548
65.275 35.333511
65.280 35.650215
65.285 35.330681
65.290 35.021908
65.295 35.258633
65.300 34.933441
65.305 34.848961
65.310 34.678638
65.315 33.990131
65.320 34.248993
65.325 34.747612
65.330 34.624226
65.335 35.787102
65.340 36.716461
65.345 36.576496
65.350 37.21682
65.355 37.263985
65.360 37.286304
65.365 37.411774
65.370 37.101227
65.375 36.076263
65.380 36.532974
65.385 36.625141
65.390 36.559086
65.395 36.243938
65.400 36.640106
65.405 36.613461
65.410 37.381657
65.415 36.959576
65.420 37.164864
65.425 37.557461
65.430 37.70647
65.435 37.351238
65.440 38.463291
65.445 38.643036
65.450 38.646545
65.455 37.851875
65.460 38.30188
65.465 38.45628
65.470 37.919128
65.475 37.939747
65.480 38.049316
65.485 38.446476
65.490 38.228825
65.495 37.936436
65.500 37.954006
65.505 37.289303
65.510 36.428097
65.515 35.555286
65.520 35.556377
65.525 35.474533
65.530 35.345089
65.535 35.399036
65.540 35.747524
65.545 35.213562
65.550 35.909676
65.555 35.82008
65.560 36.025196
65.565 35.884762
65.570 35.923897
65.575 36.301685
65.580 36.870972
65.585 36.885914
65.590 37.173443
65.595 36.942631
65.600 36.783939
65.605 36.40094
65.610 36.677639
65.615 36.63052
65.620 36.566738
65.625 35.904667
65.630 35.588219
65.635 36.262836
65.640 36.428036
65.645 35.969944
65.650 35.476536
65.655 35.224594
65.660 35.282955
65.665 35.174896
65.670 34.518555
65.675 35.375347
65.680 36.101242
65.685 36.451317
65.690 36.528389
65.695 36.637867
65.700 36.40963
65.705 36.564793
65.710 35.867371
65.715 34.764778
65.720 33.753845
65.725 33.369045
65.730 32.844242
65.735 32.96122
65.740 32.445583
65.745 32.721905
65.750 32.949562
65.755 33.066254
65.760 33.267792
65.765 33.493874
65.770 33.184654
65.775 32.901978
65.780 32.538063
65.785 32.594414
65.790 32.190563
65.795 32.254963
65.800 32.344307
65.805 32.11314
65.810 31.704882
65.815 30.649546
65.820 29.331825
65.825 29.490324
65.830 29.003752
65.835 28.021788
65.840 28.37579
65.845 28.776487
65.850 28.97014
65.855 29.29154
65.860 28.477077
65.865 28.027372
65.870 27.821184
65.875 26.826159
65.880 25.75782
65.885 25.722517
65.890 25.642933
65.895 26.025368
65.900 25.724316
65.905 26.020523
65.910 26.478903
65.915 26.88475
65.920 26.715767
65.925 25.975544
65.930 25.18313
65.935 25.072273
65.940 24.758554
65.945 24.19281
65.950 24.403181
65.955 24.475121
65.960 24.573343
65.965 24.956104
65.970 25.30225
65.975 25.152332
65.980 24.487976
65.985 23.73724
65.990 22.645161
65.995 22.371511
66.000 21.927107
66.005 22.369204
66.010 22.544058
66.015 23.383965
66.020 23.431026
66.025 23.621134
66.030 24.582787
66.035 25.011288
66.040 24.599157
66.045 24.558886
66.050 24.094822
66.055 23.655312
66.060 23.147646
66.065 21.900095
66.070 20.916325
66.075 20.4883
66.080 20.365921
66.085 19.745054
66.090 19.712095
66.095 19.796638
66.100 19.662027
66.105 19.256319
66.110 18.588926
66.115 18.323799
66.120 18.174435
66.125 18.241869
66.130 17.809395
66.135 17.741623
66.140 18.329062
66.145 18.655867
66.150 18.505604
66.155 18.483076
66.160 18.190968
66.165 18.547148
66.170 18.20599
66.175 18.057882
66.180 18.160093
66.185 18.728718
66.190 19.609198
66.195 19.458454
66.200 19.588902
66.205 19.576723
66.210 19.397751
66.215 19.290876
66.220 18.863522
66.225 18.629057
66.230 19.01235
66.235 19.12756
66.240 19.186323
66.245 19.507139
66.250 19.753994
66.255 19.734173
66.260 19.201061
66.265 18.491468
66.270 18.794346
66.275 19.157856
66.280 18.332911
66.285 17.63751
66.290 17.692968
66.295 18.560913
66.300 19.249922
66.305 18.37948
66.310 18.123411
66.315 18.731081
66.320 19.335175
66.325 19.114149
66.330 18.695555
66.335 18.82725
66.340 19.103748
66.345 19.306261
66.350 19.005091
66.355 18.560511
66.360 18.461502
66.365 18.133411
66.370 17.641148
66.375 17.290667
66.380 17.128145
66.385 17.201101
66.390 17.335039
66.395 17.39399
66.400 17.613188
66.405 17.699331
66.410 17.7819
66.415 17.864086
66.420 17.633877
66.425 17.455444
66.430 17.611488
66.435 17.755022
66.440 17.991199
66.445 18.578259
66.450 18.392859
66.455 18.521128
66.460 18.545385
66.465 18.636057
66.470 18.304989
66.475 17.845345
66.480 17.762484
66.485 18.350908
66.490 18.826689
66.495 18.833519
66.500 18.280325
66.505 18.201654
66.510 18.470188
66.515 18.029322
66.520 17.50882
66.525 16.884533
66.530 16.854639
66.535 16.984118
66.540 17.412411
66.545 17.13476
66.550 17.172129
66.555 16.994072
66.560 17.431477
66.565 17.472702
66.570 18.223152
66.575 18.464584
66.580 18.633932
66.585 18.554604
66.590 18.979208
66.595 19.582947
66.600 19.772692
66.605 19.835712
66.610 19.298372
66.615 19.27915
66.620 19.713135
66.625 19.824919
66.630 19.143698
66.635 18.842657
66.640 18.246185
66.645 18.417194
66.650 17.906473
66.655 17.438568
66.660 17.492147
66.665 17.194021
66.670 16.965881
66.675 17.004242
66.680 17.40243
66.685 17.485258
66.690 17.232109
66.695 16.802944
66.700 17.063759
66.705 16.756351
66.710 16.408716
66.715 16.678244
66.720 17.094728
66.725 17.047432
66.730 17.049305
66.735 17.36117
66.740 17.956743
66.745 17.985933
66.750 17.854256
66.755 18.119312
66.760 18.87145
66.765 18.998135
66.770 18.947111
66.775 18.905884
66.780 18.807236
66.785 18.583429
66.790 18.549515
66.795 18.538601
66.800 18.55094
66.805 18.896378
66.810 18.854635
66.815 19.050585
66.820 18.991022
66.825 18.646502
66.830 18.331903
66.835 18.195024
66.840 17.893141
66.845 17.955606
66.850 17.561033
66.855 17.631504
66.860 17.155264
66.865 17.046103
66.870 17.012156
66.875 16.788429
66.880 17.173225
66.885 17.603365
66.890 17.303104
66.895 17.99287
66.900 18.030312
66.905 18.167957
66.910 18.213308
66.915 17.785234
66.920 17.793234
66.925 18.511023
66.930 18.708138
66.935 18.303915
66.940 18.381155
66.945 18.61471
66.950 18.672228
66.955 18.617168
66.960 18.504683
66.965 18.345438
66.970 18.929565
66.975 18.768515
66.980 18.924442
66.985 19.084074
66.990 18.884314
66.995 18.851004
67.000 18.62512
67.005 18.467834
67.010 17.997904
67.015 18.100924
67.020 18.059361
67.025 18.390108
67.030 17.887753
67.035 17.367603
67.040 17.114571
67.045 17.171736
67.050 16.888145
67.055 16.415934
67.060 16.227571
67.065 16.21312
67.070 16.288006
67.075 16.404129
67.080 16.370575
67.085 16.450489
67.090 17.018631
67.095 17.385027
67.100 17.40583
67.105 17.62949
67.110 17.81937
67.115 17.769087
67.120 18.302809
67.125 18.539816
67.130 18.337124
67.135 18.676111
67.140 18.270884
67.145 18.143469
67.150 18.036263
67.155 17.024244
67.160 16.271742
67.165 16.256792
67.170 16.219515
67.175 17.37962
67.180 17.9991
67.185 18.101086
67.190 18.350574
67.195 18.384623
67.200 18.23609
67.205 18.340645
67.210 17.920208
67.215 17.448961
67.220 17.529663
67.225 17.588507
67.230 17.947346
67.235 18.26211
67.240 17.881065
67.245 18.006145
67.250 18.176805
67.255 18.218334
67.260 18.675621
67.265 18.620514
67.270 18.609579
67.275 19.177233
67.280 18.675468
67.285 18.731394
67.290 18.443123
67.295 18.185719
67.300 18.047773
67.305 17.638954
67.310 17.35235
67.315 17.286438
67.320 17.466629
67.325 17.321714
67.330 17.186644
67.335 17.450127
67.340 17.42938
67.345 17.153238
67.350 17.484787
67.355 17.617374
67.360 17.81522
67.365 17.272762
67.370 17.148607
67.375 16.848251
67.380 16.480604
67.385 16.213326
67.390 15.622025
67.395 15.668248
67.400 15.985995
67.405 16.292068
67.410 16.715572
67.415 17.213604
67.420 17.012112
67.425 17.365522
67.430 17.348818
67.435 17.558846
67.440 17.100887
67.445 16.478155
67.450 15.79961
67.455 16.040531
67.460 16.543135
67.465 16.720072
67.470 16.602091
67.475 16.793846
67.480 17.133211
67.485 17.763714
67.490 17.72361
67.495 17.279491
67.500 17.476177
67.505 17.604713
67.510 17.98107
67.515 18.345449
67.520 18.114933
67.525 18.467169
67.530 19.075693
67.535 18.268736
67.540 17.896372
67.545 17.485697
67.550 17.912735
67.555 17.929394
67.560 17.781794
67.565 17.415665
67.570 18.275818
67.575 18.6635
67.580 18.796743
67.585 18.634632
67.590 18.934662
67.595 18.814354
67.600 19.049158
67.605 18.706043
67.610 18.305664
67.615 17.968348
67.620 18.745615
67.625 18.825928
67.630 18.621492
67.635 18.414017
67.640 19.047445
67.645 19.75246
67.650 20.137789
67.655 19.3589
67.660 19.657362
67.665 19.895781
67.670 19.729958
67.675 18.606956
67.680 18.555557
67.685 18.327291
67.690 17.94602
67.695 18.138556
67.700 17.582138
67.705 16.890841
67.710 16.937374
67.715 16.437601
67.720 16.369686
67.725 16.214272
67.730 15.876158
67.735 16.474464
67.740 16.849331
67.745 17.49358
67.750 17.936066
67.755 18.011511
67.760 17.917147
67.765 18.399313
67.770 18.39245
67.775 18.854855
67.780 18.364149
67.785 18.075104
67.790 17.696701
67.795 18.36721
67.800 18.048452
67.805 17.563648
67.810 17.387352
67.815 17.111752
67.820 17.204979
67.825 17.470856
67.830 17.351912
67.835 17.09837
67.840 16.893818
67.845 16.703428
67.850 17.2127
67.855 17.39979
67.860 17.666327
67.865 17.79389
67.870 18.376116
67.875 19.341049
67.880 19.557873
67.885 19.204653
67.890 19.205856
67.895 18.686792
67.900 18.123035
67.905 18.117077
67.910 17.949051
67.915 18.273731
67.920 18.652973
67.925 18.665071
67.930 18.978605
67.935 18.666079
67.940 18.789289
67.945 19.123932
67.950 19.046267
67.955 19.429214
67.960 19.182617
67.965 19.336943
67.970 19.819874
67.975 19.82406
67.980 19.621046
67.985 19.630299
67.990 19.665438
67.995 19.603752
68.000 19.123255
68.005 18.744057
68.010 18.616869
68.015 18.980358
68.020 19.089214
68.025 19.020184
68.030 19.063263
68.035 18.808393
68.040 18.609171
68.045 18.212019
68.050 17.9181
68.055 17.888828
68.060 18.474346
68.065 18.99247
68.070 19.556652
68.075 19.663227
68.080 19.497698
68.085 19.265697
68.090 18.76458
68.095 17.74345
68.100 17.115437
68.105 16.559359
68.110 16.519985
68.115 16.525368
68.120 16.88047
68.125 17.137114
68.130 17.296068
68.135 17.558802
68.140 18.289656
68.145 18.506102
68.150 18.808992
68.155 19.382692
68.160 19.566978
68.165 19.794645
68.170 19.773275
68.175 19.871544
68.180 19.974033
68.185 19.830566
68.190 18.97611
68.195 19.248482
68.200 19.727995
68.205 19.940544
68.210 20.026203
68.215 20.405888
68.220 20.613689
68.225 21.127108
68.230 21.152042
68.235 21.078903
68.240 20.809063
68.245 20.896124
68.250 21.105303
68.255 20.927208
68.260 20.738462
68.265 20.960819
68.270 21.220783
68.275 21.77755
68.280 22.071905
68.285 21.722975
68.290 22.120014
68.295 22.309725
68.300 22.070688
68.305 21.704069
68.310 21.937323
68.315 22.095348
68.320 22.918291
68.325 23.486334
68.330 23.077421
68.335 23.473579
68.340 23.777864
68.345 23.999199
68.350 24.970074
68.355 24.711746
68.360 24.766415
68.365 25.75036
68.370 26.043802
68.375 25.963278
68.380 26.23447
68.385 25.77931
68.390 26.125219
68.395 26.178307
68.400 26.312428
68.405 26.802237
68.410 27.773134
68.415 27.565008
68.420 28.095358
68.425 28.209377
68.430 28.067961
68.435 28.444883
68.440 27.423361
68.445 27.246185
68.450 28.068998
68.455 28.296841
68.460 29.014626
68.465 29.237877
68.470 29.248198
68.475 29.680746
68.480 28.781509
68.485 28.088213
68.490 28.250572
68.495 28.910723
68.500 28.841492
68.505 28.766159
68.510 29.985237
68.515 31.294046
68.520 32.086754
68.525 31.809408
68.530 30.897671
68.535 31.859015
68.540 32.401379
68.545 32.291462
68.550 32.069267
68.555 31.374964
68.560 31.482021
68.565 31.610783
68.570 30.678892
68.575 30.370806
68.580 30.827688
68.585 31.015926
68.590 31.713303
68.595 31.096169
68.600 31.095312
68.605 31.104975
68.610 31.460123
68.615 31.077982
68.620 31.302509
68.625 31.721798
68.630 32.776424
68.635 33.793301
68.640 34.223221
68.645 34.031315
68.650 34.747364
68.655 35.019722
68.660 33.802402
68.665 33.207905
68.670 32.871693
68.675 33.149738
68.680 33.262138
68.685 32.939766
68.690 33.036198
68.695 34.547554
68.700 34.969097
68.705 34.678371
68.710 34.171669
68.715 33.673706
68.720 33.500271
68.725 33.910744
68.730 33.696217
68.735 34.136196
68.740 34.953159
68.745 35.163712
68.750 35.147926
68.755 34.732639
68.760 34.689838
68.765 34.792
68.770 35.157413
68.775 35.508915
68.780 35.555916
68.785 35.687977
68.790 36.46204
68.795 36.531246
68.800 36.27755
68.805 36.045437
68.810 35.617359
68.815 35.716957
68.820 35.962154
68.825 35.712166
68.830 35.495007
68.835 35.022549
68.840 34.484348
68.845 34.15786
68.850 34.048424
68.855 34.117073
68.860 34.081547
68.865 34.939739
68.870 35.711285
68.875 35.667625
68.880 35.621826
68.885 35.359215
68.890 34.755573
68.895 34.650986
68.900 34.553143
68.905 34.602142
68.910 34.506741
68.915 34.592564
68.920 34.322449
68.925 33.712955
68.930 32.165112
68.935 31.415844
68.940 30.359474
68.945 29.959389
68.950 29.233873
68.955 29.416897
68.960 30.257147
68.965 30.290991
68.970 30.416525
68.975 30.446289
68.980 30.849237
68.985 30.836056
68.990 30.539803
68.995 30.450863
69.000 30.721792
69.005 30.296881
69.010 30.330725
69.015 29.852118
69.020 30.069204
69.025 30.427711
69.030 29.994164
69.035 29.191292
69.040 29.124836
69.045 29.197792
69.050 29.610693
69.055 29.498568
69.060 29.038401
69.065 29.338625
69.070 29.813396
69.075 29.278397
69.080 28.459156
69.085 28.538061
69.090 28.506409
69.095 27.997318
69.100 27.92119
69.105 27.420185
69.110 27.143732
69.115 26.941679
69.120 26.312771
69.125 26.299715
69.130 26.409254
69.135 26.017952
69.140 25.439243
69.145 25.067743
69.150 24.529093
69.155 24.005476
69.160 22.955715
69.165 22.92276
69.170 22.620687
69.175 23.135113
69.180 23.76313
69.185 24.009714
69.190 24.305544
69.195 24.802166
69.200 24.973642
69.205 24.877607
69.210 24.838404
69.215 24.580069
69.220 24.488894
69.225 24.413977
69.230 23.407082
69.235 22.361238
69.240 22.156483
69.245 21.139465
69.250 20.442822
69.255 20.347609
69.260 20.059038
69.265 20.319466
69.270 21.518314
69.275 21.463383
69.280 21.146482
69.285 21.36278
69.290 21.190964
69.295 21.166695
69.300 21.402777
69.305 21.12142
69.310 22.010494
69.315 22.605562
69.320 22.231691
69.325 22.553484
69.330 22.914894
69.335 22.919432
69.340 22.649195
69.345 22.532923
69.350 22.642811
69.355 22.476744
69.360 21.943563
69.365 21.523615
69.370 20.986162
69.375 20.393526
69.380 19.433661
69.385 18.931736
69.390 19.473263
69.395 19.068697
69.400 18.653507
69.405 18.564857
69.410 18.029161
69.415 18.626385
69.420 18.968781
69.425 18.405823
69.430 18.774792
69.435 18.909096
69.440 18.668152
69.445 18.77626
69.450 18.375576
69.455 17.948618
69.460 17.735985
69.465 17.928583
69.470 18.189983
69.475 18.545908
69.480 18.402491
69.485 17.937935
69.490 17.967697
69.495 18.287277
69.500 18.111521
69.505 18.265511
69.510 18.590878
69.515 18.778866
69.520 18.839865
69.525 18.562603
69.530 18.166481
69.535 17.662504
69.540 16.847548
69.545 16.471155
69.550 16.660698
69.555 16.804266
69.560 16.874941
69.565 17.345352
69.570 18.120016
69.575 18.569065
69.580 18.623363
69.585 18.514326
69.590 18.426388
69.595 18.381577
69.600 18.135412
69.605 18.029535
69.610 17.824345
69.615 17.636806
69.620 17.425838
69.625 17.995806
69.630 18.229942
69.635 18.442766
69.640 18.095387
69.645 18.994717
69.650 19.21711
69.655 19.564913
69.660 19.189281
69.665 18.910931
69.670 18.768345
69.675 19.201265
69.680 18.50139
69.685 18.480587
69.690 17.841749
69.695 17.588184
69.700 17.657284
69.705 17.335281
69.710 16.882813
69.715 16.516994
69.720 16.408588
69.725 16.82621
69.730 17.337152
69.735 17.050396
69.740 17.496611
69.745 17.903137
69.750 18.321207
69.755 18.140881
69.760 18.156656
69.765 18.062553
69.770 18.30493
69.775 18.106358
69.780 18.596333
69.785 18.806683
69.790 19.283886
69.795 18.952847
69.800 18.77453
69.805 18.8125
69.810 18.948616
69.815 18.318134
69.820 18.184084
69.825 17.99299
69.830 17.981588
69.835 17.751696
69.840 17.030901
69.845 16.442448
69.850 16.718973
69.855 16.572969
69.860 16.624205
69.865 16.569788
69.870 16.694265
69.875 17.000914
69.880 17.511459
69.885 17.417345
69.890 17.638828
69.895 17.787851
69.900 17.845509
69.905 18.14192
69.910 18.069725
69.915 18.195616
69.920 18.527061
69.925 18.899794
69.930 19.165972
69.935 19.774796
69.940 20.383902
69.945 20.960455
69.950 20.66288
69.955 19.740303
69.960 19.479429
69.965 19.577629
69.970 19.371317
69.975 18.780687
69.980 17.611696
69.985 17.291382
69.990 17.755064
69.995 17.996082
70.000 17.685108
70.005 16.77599
70.010 16.986567
70.015 17.437824
70.020 17.779282
70.025 17.57622
70.030 17.463444
70.035 18.284779
70.040 18.43918
70.045 17.953632
70.050 17.931734
70.055 17.369398
70.060 17.043222
70.065 17.067707
70.070 16.565435
70.075 16.79495
70.080 17.286352
70.085 17.374945
70.090 17.461988
70.095 17.677589
70.100 17.696146
70.105 16.910892
70.110 16.866013
70.115 16.92935
70.120 16.786657
70.125 17.098394
70.130 17.233643
70.135 17.142731
70.140 17.177748
70.145 17.455246
70.150 17.899593
70.155 18.258347
70.160 17.614264
70.165 18.034609
70.170 18.131447
70.175 18.462831
70.180 17.91118
70.185 17.415255
70.190 17.444555
70.195 17.41164
70.200 16.609512
70.205 17.079807
70.210 17.609896
70.215 18.061209
70.220 17.777365
70.225 17.981892
70.230 18.343767
70.235 18.653585
70.240 18.477991
70.245 18.555128
70.250 18.748211
70.255 19.068834
70.260 18.577866
70.265 18.624819
70.270 18.480362
70.275 18.700993
70.280 18.034161
70.285 18.065338
70.290 17.85582
70.295 17.969645
70.300 18.149466
70.305 18.11021
70.310 17.905277
70.315 18.673166
70.320 18.263023
70.325 18.672119
70.330 18.70866
70.335 18.531208
70.340 18.82061
70.345 18.706259
70.350 18.290052
70.355 18.353848
70.360 18.594538
70.365 18.658693
70.370 18.369791
70.375 17.244051
70.380 17.040764
70.385 17.207954
70.390 17.208643
70.395 17.209137
70.400 17.617117
70.405 18.136364
70.410 18.595938
70.415 18.044508
70.420 17.366983
70.425 17.120516
70.430 17.040737
70.435 16.760788
70.440 17.27331
70.445 18.32
70.450 18.933521
70.455 19.345108
70.460 19.705469
70.465 19.378391
70.470 19.376572
70.475 18.645075
70.480 17.927769
70.485 17.585932
70.490 17.33975
70.495 17.325632
70.500 17.417196
70.505 16.802372
70.510 16.92285
70.515 17.441643
70.520 17.443766
70.525 17.537056
70.530 17.786795
70.535 17.634676
70.540 18.021215
70.545 17.674185
70.550 17.072069
70.555 17.359446
70.560 17.520157
70.565 17.197054
70.570 17.282623
70.575 17.47687
70.580 18.389425
70.585 18.988359
70.590 19.046383
70.595 18.882931
70.600 18.571625
70.605 18.646358
70.610 18.344511
70.615 18.439281
70.620 18.519705
70.625 18.756931
70.630 18.855789
70.635 19.662296
70.640 19.277924
70.645 19.050116
70.650 18.341261
70.655 18.849834
70.660 18.681932
70.665 18.321472
70.670 17.898621
70.675 18.220585
70.680 18.414986
70.685 18.72818
70.690 18.419607
70.695 18.08073
70.700 17.531925
70.705 16.980919
70.710 16.607288
70.715 16.563414
70.720 17.115448
70.725 16.877754
70.730 17.253138
70.735 17.469923
70.740 17.753458
70.745 17.278265
70.750 17.181408
70.755 16.622818
70.760 17.173826
70.765 16.731775
70.770 17.227674
70.775 17.387371
70.780 17.757874
70.785 17.456509
70.790 16.783733
70.795 16.518354
70.800 16.759493
70.805 16.479284
70.810 16.86924
70.815 16.412016
70.820 16.241653
70.825 16.878864
70.830 16.779133
70.835 17.185459
70.840 17.033125
70.845 17.125059
70.850 17.622686
70.855 17.770714
70.860 16.869186
70.865 16.777273
70.870 16.528709
70.875 16.741121
70.880 16.901052
70.885 17.348778
70.890 16.931477
70.895 17.291365
70.900 18.056541
70.905 18.333967
70.910 18.217842
70.915 18.160946
70.920 17.694611
70.925 17.983419
70.930 18.233574
70.935 17.471237
70.940 17.602453
70.945 17.854805
70.950 17.772093
70.955 18.298061
70.960 19.342991
70.965 19.392382
70.970 19.740133
70.975 19.594137
70.980 19.221388
70.985 19.298197
70.990 18.827858
70.995 18.088228
71.000 17.860376
71.005 17.834723
71.010 17.831968
71.015 17.922308
71.020 17.954664
71.025 18.566391
71.030 18.275221
71.035 18.350182
71.040 18.391314
71.045 18.443253
71.050 18.535158
71.055 18.306431
71.060 18.32658
71.065 18.324142
71.070 17.578745
71.075 17.024639
71.080 16.54731
71.085 16.540077
71.090 16.667864
71.095 16.18321
71.100 16.004951
71.105 16.059116
71.110 16.335012
71.115 16.677078
71.120 16.604471
71.125 16.407118
71.130 16.503061
71.135 16.927294
71.140 17.528614
71.145 17.430468
71.150 17.790625
71.155 17.826578
71.160 18.075064
71.165 18.765196
71.170 18.693777
71.175 18.965572
71.180 18.961523
71.185 18.764572
71.190 18.694513
71.195 18.142363
71.200 17.853559
71.205 18.10408
71.210 17.718079
71.215 17.586725
71.220 17.563438
71.225 17.783825
71.230 18.359068
71.235 17.677319
71.240 17.520393
71.245 18.49786
71.250 18.397589
71.255 18.032223
71.260 17.734825
71.265 18.145075
71.270 19.083462
71.275 18.967962
71.280 18.317806
71.285 18.693214
71.290 18.894608
71.295 18.325081
71.300 16.990103
71.305 16.392963
71.310 15.695218
71.315 15.437159
71.320 15.361413
71.325 15.690034
71.330 16.500252
71.335 17.616615
71.340 17.985331
71.345 18.467768
71.350 18.9786
71.355 18.870199
71.360 18.57707
71.365 17.65457
71.370 17.38982
71.375 16.904713
71.380 16.769375
71.385 17.215775
71.390 17.223534
71.395 17.180174
71.400 17.07305
71.405 17.061745
71.410 17.34992
71.415 17.397827
71.420 17.252903
71.425 17.353228
71.430 17.36973
71.435 17.70298
71.440 17.300476
71.445 16.995033
71.450 16.50942
71.455 16.360859
71.460 16.140606
71.465 16.502045
71.470 16.863554
71.475 17.029964
71.480 17.615082
71.485 17.539093
71.490 17.427029
71.495 17.670555
71.500 17.657364
71.505 17.959625
71.510 18.576603
71.515 18.542061
71.520 18.341291
71.525 18.474731
71.530 18.142202
71.535 17.332968
71.540 16.904068
71.545 16.64945
71.550 16.608095
71.555 16.701527
71.560 16.278986
71.565 16.488756
71.570 16.878195
71.575 16.839262
71.580 16.698721
71.585 16.637228
71.590 16.594006
71.595 17.312428
71.600 17.421932
71.605 16.990875
71.610 16.861238
71.615 16.932037
71.620 17.196758
71.625 17.514114
71.630 17.678135
71.635 17.745211
71.640 18.202908
71.645 18.324476
71.650 18.298906
71.655 18.072861
71.660 18.134396
71.665 17.580168
71.670 17.330904
71.675 17.023508
71.680 16.870962
71.685 16.950523
71.690 16.948645
71.695 16.721481
71.700 17.06584
71.705 17.225113
71.710 17.019442
71.715 17.342096
71.720 17.19862
71.725 17.365433
71.730 17.295469
71.735 17.658054
71.740 18.121647
71.745 18.341534
71.750 18.122299
71.755 18.551123
71.760 18.712698
71.765 18.736258
71.770 18.12746
71.775 18.411297
71.780 18.229563
71.785 18.054077
71.790 17.233883
71.795 17.140234
71.800 17.31357
71.805 17.324532
71.810 17.06245
71.815 17.805489
71.820 17.80649
71.825 17.829567
71.830 17.969524
71.835 17.634666
71.840 17.698318
71.845 17.797281
71.850 17.694456
71.855 18.002386
71.860 17.595999
71.865 17.478626
71.870 17.842556
71.875 19.255655
71.880 19.262812
71.885 19.050985
71.890 19.054039
71.895 18.913616
71.900 18.574921
71.905 17.850691
71.910 16.06171
71.915 15.698147
71.920 15.461136
71.925 15.595412
71.930 16.02132
71.935 16.188366
71.940 16.240938
71.945 16.689407
71.950 16.216816
71.955 15.808384
71.960 15.834885
71.965 15.601234
71.970 15.665709
71.975 15.789663
71.980 16.266253
71.985 16.5674
71.990 17.385702
71.995 17.433905
72.000 17.548677
72.005 17.903856
72.010 18.019293
72.015 18.803944
72.020 19.180481
72.025 18.864822
72.030 19.318632
72.035 19.242098
72.040 19.044872
72.045 19.363064
72.050 19.01013
72.055 18.920195
72.060 18.729725
72.065 18.443184
72.070 17.865814
72.075 17.130638
72.080 16.824982
72.085 16.315197
72.090 16.085855
72.095 15.879313
72.100 15.935913
72.105 16.513712
72.110 17.215071
72.115 17.138964
72.120 17.222431
72.125 17.222689
72.130 17.940851
72.135 18.434319
72.140 18.411531
72.145 18.083162
72.150 18.172848
72.155 19.101398
72.160 19.057476
72.165 18.242435
72.170 18.017349
72.175 17.138893
72.180 16.766253
72.185 16.220829
72.190 15.885422
72.195 16.277897
72.200 15.854016
72.205 16.448475
72.210 17.437023
72.215 17.209003
72.220 17.019224
72.225 16.941526
72.230 16.960909
72.235 17.26041
72.240 17.466078
72.245 17.234375
72.250 17.988312
72.255 18.232574
72.260 18.600407
72.265 18.934484
72.270 18.515131
72.275 18.380747
72.280 18.417809
72.285 18.450926
72.290 18.557329
72.295 18.590969
72.300 18.552021
72.305 18.512482
72.310 18.659166
72.315 19.01298
72.320 18.498335
72.325 18.597883
72.330 18.213491
72.335 18.327713
72.340 18.314615
72.345 17.876738
72.350 17.594782
72.355 17.699917
72.360 17.333832
72.365 17.127687
72.370 17.48695
72.375 17.766722
72.380 17.888672
72.385 17.557709
72.390 17.508739
72.395 17.273806
72.400 17.568058
72.405 16.685831
72.410 16.037428
72.415 16.414175
72.420 16.550478
72.425 16.573841
72.430 16.707193
72.435 16.329975
72.440 16.34433
72.445 16.677183
72.450 16.864868
72.455 16.869633
72.460 16.910519
72.465 17.000708
72.470 17.511143
72.475 17.448223
72.480 16.974657
72.485 16.302816
72.490 16.474815
72.495 16.555613
72.500 16.467321
72.505 16.491575
72.510 16.953136
72.515 17.267584
72.520 17.612555
72.525 17.493324
72.530 17.214504
72.535 17.009775
72.540 16.615339
72.545 16.280655
72.550 15.973758
72.555 16.528204
72.560 16.803354
72.565 17.36784
72.570 17.303246
72.575 17.984106
72.580 18.225677
72.585 18.125813
72.590 17.265867
72.595 16.834702
72.600 17.05447
72.605 17.495535
72.610 17.258522
72.615 16.943636
72.620 17.36195
72.625 17.547842
72.630 17.783693
72.635 17.308065
72.640 17.565012
72.645 17.183588
72.650 17.413668
72.655 17.325048
72.660 16.853598
72.665 16.650398
72.670 16.428547
72.675 16.504913
72.680 16.936357
72.685 17.226723
72.690 17.467459
72.695 17.710451
72.700 17.75593
72.705 17.604525
72.710 17.707239
72.715 17.668541
72.720 17.033817
72.725 16.601004
72.730 16.870523
72.735 17.079733
72.740 17.193998
72.745 17.402271
72.750 17.262657
72.755 17.42318
72.760 17.59734
72.765 17.804346
72.770 18.047655
72.775 17.484381
72.780 17.025394
72.785 16.950445
72.790 17.012115
72.795 16.316589
72.800 15.647043
72.805 15.765972
72.810 15.968357
72.815 16.101139
72.820 16.228367
72.825 16.237099
72.830 16.498819
72.835 16.911074
72.840 16.472216
72.845 16.475302
72.850 16.334879
72.855 16.07971
72.860 15.952975
72.865 15.512344
72.870 15.217338
72.875 15.048311
72.880 14.899556
72.885 15.267434
72.890 15.669712
72.895 16.221878
72.900 16.37011
72.905 16.623707
72.910 16.670176
72.915 16.621195
72.920 16.529732
72.925 16.191025
72.930 15.867997
72.935 15.698211
72.940 16.216675
72.945 16.197104
72.950 16.505859
72.955 16.400383
72.960 16.020771
72.965 16.139259
72.970 16.17766
72.975 16.155363
72.980 16.749975
72.985 16.583067
72.990 16.869474
72.995 17.14543
73.000 17.577902
