!@!!GADDS PLOTSO FILE: Chi integration type
!@!!Title/SampleName: map-bf
!@!!Comment: ?
!@!!User: Bruker Instrument Administrator
!@!!Site: University of Illinois Chicago
!@!!Frame: map-bf_01_000.gfrm
!@!!Wavelengths    1.54184   1.54056   1.54439
!@!!Frame angles: 2Theta: 63.000 Omega: 50.000 Phi: 0.000 Chi: 90.000
!@!!Integration range: 2Theta: 53.000 to 73.000  Gamma: -105.000 to -75.000
!@!!Integration method: bin normalized
!@!N
!@!SS
!@!M
!@!L 0.0 0.0 0.0 0.0
!@!XDegrees
!@!YCounts
53.000 7.999331
53.005 8.007523
53.010 7.831833
53.015 7.8315
53.020 7.919029
53.025 7.819271
53.030 8.148401
53.035 8.138982
53.040 8.361839
53.045 8.301135
53.050 8.275862
53.055 7.981114
53.060 8.198367
53.065 7.651652
53.070 7.297365
53.075 6.874976
53.080 7.033233
53.085 7.189303
53.090 7.780604
53.095 7.825958
53.100 8.075466
53.105 8.19118
53.110 8.410674
53.115 8.467871
53.120 8.214359
53.125 7.975565
53.130 7.608589
53.135 7.791966
53.140 7.959
53.145 7.996639
53.150 7.617789
53.155 7.621817
53.160 8.155471
53.165 8.122738
53.170 7.539856
53.175 7.457306
53.180 7.008789
53.185 7.257216
53.190 7.093771
53.195 7.095695
53.200 7.474422
53.205 7.645981
53.210 7.729577
53.215 8.160269
53.220 7.777053
53.225 7.66796
53.230 7.532377
53.235 7.725422
53.240 7.734911
53.245 7.564561
53.250 7.678315
53.255 7.948892
53.260 8.168076
53.265 7.859396
53.270 7.403143
53.275 7.440494
53.280 7.51574
53.285 7.885305
53.290 7.772329
53.295 7.280473
53.300 7.499955
53.305 7.738516
53.310 7.789242
53.315 7.580333
53.320 7.22789
53.325 7.511301
53.330 7.718986
53.335 7.723361
53.340 8.022335
53.345 8.147469
53.350 8.070097
53.355 8.27687
53.360 8.165426
53.365 8.103498
53.370 8.008499
53.375 7.922459
53.380 7.690751
53.385 7.717184
53.390 7.248807
53.395 7.617101
53.400 7.765544
53.405 7.752596
53.410 7.924793
53.415 8.082188
53.420 8.650028
53.425 8.820766
53.430 8.644702
53.435 8.588409
53.440 8.64341
53.445 9.208749
53.450 9.280606
53.455 8.567247
53.460 8.345797
53.465 8.160156
53.470 7.951914
53.475 7.385993
53.480 6.569655
53.485 6.481422
53.490 6.526302
53.495 6.518833
53.500 6.762645
53.505 7.278322
53.510 7.752337
53.515 8.015851
53.520 7.974935
53.525 8.498548
53.530 9.055816
53.535 9.027726
53.540 8.431828
53.545 8.208494
53.550 8.37811
53.555 8.506818
53.560 8.235394
53.565 7.905535
53.570 7.746762
53.575 8.08897
53.580 8.4444
53.585 8.608011
53.590 8.238068
53.595 8.800166
53.600 8.718514
53.605 9.070889
53.610 8.768237
53.615 8.176937
53.620 8.03138
53.625 8.154256
53.630 8.259731
53.635 8.554607
53.640 8.482168
53.645 8.583324
53.650 8.649287
53.655 9.059443
53.660 8.931036
53.665 8.238837
53.670 8.095678
53.675 8.210903
53.680 8.582957
53.685 8.580622
53.690 7.99233
53.695 8.268907
53.700 8.584091
53.705 8.596808
53.710 8.53238
53.715 8.297976
53.720 8.65309
53.725 8.937429
53.730 8.442897
53.735 8.337658
53.740 7.875654
53.745 7.735363
53.750 7.726839
53.755 7.681202
53.760 7.809825
53.765 8.516326
53.770 9.074837
53.775 9.675452
53.780 9.950266
53.785 9.845115
53.790 9.822794
53.795 9.509752
53.800 8.793853
53.805 8.264269
53.810 7.992629
53.815 8.240096
53.820 8.27091
53.825 8.46265
53.830 8.601772
53.835 8.882986
53.840 8.668033
53.845 8.465207
53.850 8.229051
53.855 8.520606
53.860 8.323947
53.865 8.181803
53.870 7.980721
53.875 8.526608
53.880 8.284859
53.885 7.979924
53.890 7.628654
53.895 7.633323
53.900 7.830314
53.905 8.426263
53.910 8.00218
53.915 8.345306
53.920 8.60503
53.925 8.841836
53.930 8.819209
53.935 8.574284
53.940 8.62381
53.945 8.795674
53.950 8.48357
53.955 8.254896
53.960 8.104116
53.965 8.231438
53.970 8.376922
53.975 8.305472
53.980 8.276999
53.985 8.310439
53.990 8.535238
53.995 8.791978
54.000 9.036768
54.005 9.180887
54.010 9.181466
54.015 9.609984
54.020 9.834476
54.025 9.637938
54.030 9.666552
54.035 9.087559
54.040 8.705812
54.045 8.276685
54.050 8.381019
54.055 8.337499
54.060 8.71137
54.065 8.733446
54.070 9.016281
54.075 9.441586
54.080 9.471787
54.085 9.462394
54.090 9.767394
54.095 9.73733
54.100 9.899631
54.105 9.889215
54.110 9.69287
54.115 9.953171
54.120 9.850642
54.125 9.544737
54.130 9.545031
54.135 9.741467
54.140 10.078601
54.145 10.122937
54.150 9.517431
54.155 9.366409
54.160 9.294954
54.165 8.888306
54.170 8.721788
54.175 8.778315
54.180 9.106661
54.185 9.348333
54.190 9.338662
54.195 9.537026
54.200 9.876468
54.205 9.995201
54.210 9.471856
54.215 9.214784
54.220 9.234773
54.225 9.587891
54.230 9.369094
54.235 8.874421
54.240 9.017288
54.245 9.20284
54.250 8.922078
54.255 8.753038
54.260 8.738285
54.265 8.740868
54.270 8.252595
54.275 8.242146
54.280 8.664781
54.285 9.237424
54.290 8.999518
54.295 8.661262
54.300 8.956803
54.305 9.226089
54.310 9.169854
54.315 9.020489
54.320 8.97153
54.325 9.48383
54.330 9.600682
54.335 10.03118
54.340 10.062972
54.345 10.001184
54.350 10.325696
54.355 10.28686
54.360 10.596295
54.365 10.466306
54.370 10.049352
54.375 9.880618
54.380 9.358117
54.385 9.115693
54.390 8.988875
54.395 8.164372
54.400 8.39989
54.405 8.430757
54.410 8.68397
54.415 8.785593
54.420 9.115359
54.425 9.116357
54.430 9.565689
54.435 9.095821
54.440 8.962708
54.445 9.21683
54.450 9.454698
54.455 9.415497
54.460 9.696944
54.465 9.772375
54.470 10.33693
54.475 10.222451
54.480 9.871105
54.485 9.685779
54.490 9.349708
54.495 8.900054
54.500 8.444156
54.505 8.026872
54.510 8.494142
54.515 8.602962
54.520 8.349737
54.525 8.25646
54.530 8.419155
54.535 8.689116
54.540 8.829473
54.545 8.620291
54.550 8.986513
54.555 9.364431
54.560 9.663359
54.565 9.803247
54.570 10.275706
54.575 10.535647
54.580 10.297087
54.585 10.064572
54.590 10.099143
54.595 9.911242
54.600 9.791099
54.605 9.430714
54.610 9.027815
54.615 9.125729
54.620 9.7198
54.625 9.808522
54.630 9.695684
54.635 9.664025
54.640 9.955136
54.645 10.403632
54.650 9.9426
54.655 9.76798
54.660 9.950233
54.665 10.428074
54.670 10.269934
54.675 10.163285
54.680 10.092406
54.685 9.957929
54.690 9.525115
54.695 9.430427
54.700 9.492313
54.705 9.494433
54.710 9.406787
54.715 9.415243
54.720 9.768075
54.725 9.972793
54.730 9.848303
54.735 9.64117
54.740 9.870678
54.745 9.587892
54.750 9.507498
54.755 9.188485
54.760 8.819043
54.765 8.991508
54.770 9.161933
54.775 8.881672
54.780 9.197969
54.785 9.5036
54.790 9.628487
54.795 9.996993
54.800 9.688875
54.805 9.329272
54.810 9.230682
54.815 8.90758
54.820 8.747722
54.825 9.040766
54.830 8.946901
54.835 9.156032
54.840 9.543802
54.845 9.658399
54.850 10.001087
54.855 10.302875
54.860 9.686827
54.865 9.51644
54.870 9.646305
54.875 9.375994
54.880 9.634803
54.885 9.845861
54.890 9.587528
54.895 9.948253
54.900 9.634785
54.905 9.408263
54.910 9.713909
54.915 9.801046
54.920 9.773638
54.925 10.346221
54.930 10.383156
54.935 10.524558
54.940 10.371505
54.945 10.018769
54.950 9.701277
54.955 9.373441
54.960 9.142831
54.965 9.530499
54.970 9.949341
54.975 10.388279
54.980 10.373487
54.985 10.239259
54.990 10.091372
54.995 9.885018
55.000 9.357093
55.005 8.9651
55.010 9.030597
55.015 9.676126
55.020 9.967735
55.025 10.257672
55.030 10.139166
55.035 10.642421
55.040 10.88842
55.045 10.323478
55.050 10.287507
55.055 10.228732
55.060 10.25269
55.065 10.666801
55.070 11.058082
55.075 11.347466
55.080 11.547423
55.085 11.273955
55.090 11.204784
55.095 10.895611
55.100 10.644343
55.105 10.327022
55.110 10.193835
55.115 10.189096
55.120 10.375867
55.125 10.927055
55.130 11.019749
55.135 10.776995
55.140 10.352155
55.145 10.775693
55.150 10.419601
55.155 9.978576
55.160 9.625861
55.165 9.640652
55.170 9.212193
55.175 9.002689
55.180 8.83008
55.185 9.212194
55.190 9.700412
55.195 9.902884
55.200 10.475883
55.205 11.006452
55.210 11.164866
55.215 10.973214
55.220 10.708391
55.225 10.183592
55.230 9.930581
55.235 9.653008
55.240 9.753812
55.245 10.0861
55.250 10.513412
55.255 10.697123
55.260 10.761744
55.265 10.744024
55.270 10.679841
55.275 10.256108
55.280 9.83884
55.285 9.663275
55.290 9.374303
55.295 9.382161
55.300 9.480085
55.305 9.615049
55.310 9.924459
55.315 9.981862
55.320 10.092632
55.325 10.525608
55.330 10.597808
55.335 10.357259
55.340 10.370607
55.345 10.458525
55.350 10.715319
55.355 10.855565
55.360 11.066942
55.365 11.496005
55.370 11.37956
55.375 11.084218
55.380 11.094664
55.385 10.995686
55.390 11.174932
55.395 11.126776
55.400 10.707203
55.405 11.45063
55.410 11.848782
55.415 11.713593
55.420 11.627236
55.425 10.891106
55.430 10.829256
55.435 11.497328
55.440 10.981893
55.445 10.316511
55.450 10.448681
55.455 10.338573
55.460 10.791338
55.465 10.463228
55.470 9.812287
55.475 9.956812
55.480 10.002616
55.485 9.503863
55.490 9.376005
55.495 9.571794
55.500 9.932511
55.505 10.300054
55.510 10.306666
55.515 10.334345
55.520 10.469571
55.525 9.987524
55.530 9.501419
55.535 9.570272
55.540 9.269239
55.545 9.548438
55.550 10.159777
55.555 10.703786
55.560 11.117045
55.565 10.955046
55.570 10.626122
55.575 10.676758
55.580 10.164298
55.585 9.550809
55.590 9.288295
55.595 9.786174
55.600 10.235381
55.605 10.432198
55.610 10.880377
55.615 10.947371
55.620 10.901074
55.625 10.866831
55.630 10.601004
55.635 10.526055
55.640 10.366319
55.645 10.074097
55.650 10.511688
55.655 10.710942
55.660 10.645998
55.665 10.728268
55.670 10.988996
55.675 11.152555
55.680 11.573503
55.685 11.787475
55.690 12.255715
55.695 12.119046
55.700 11.624769
55.705 11.517727
55.710 10.825094
55.715 10.593877
55.720 10.184935
55.725 10.036423
55.730 10.26352
55.735 10.307126
55.740 10.408094
55.745 10.725007
55.750 10.737136
55.755 10.77521
55.760 10.7453
55.765 10.734839
55.770 10.698784
55.775 10.315428
55.780 10.239454
55.785 10.100697
55.790 9.69597
55.795 9.733767
55.800 9.820553
55.805 9.812081
55.810 9.999295
55.815 10.706411
55.820 10.99121
55.825 11.087902
55.830 11.109818
55.835 11.358161
55.840 11.954521
55.845 12.464149
55.850 12.393579
55.855 12.870984
55.860 13.029174
55.865 12.995984
55.870 12.696648
55.875 12.370436
55.880 11.973061
55.885 11.522596
55.890 11.345698
55.895 11.559665
55.900 11.333028
55.905 11.388886
55.910 11.538917
55.915 11.72875
55.920 11.870939
55.925 11.489704
55.930 11.218407
55.935 11.556745
55.940 11.554913
55.945 11.431632
55.950 11.450878
55.955 11.670899
55.960 11.940155
55.965 12.03126
55.970 11.913291
55.975 11.728355
55.980 11.837059
55.985 11.202271
55.990 10.328921
55.995 10.126874
56.000 9.969357
56.005 10.12195
56.010 10.429598
56.015 10.111962
56.020 11.023486
56.025 11.304413
56.030 11.517232
56.035 11.585424
56.040 10.994362
56.045 10.532709
56.050 9.882957
56.055 9.454367
56.060 9.654096
56.065 9.713302
56.070 10.230729
56.075 10.965149
56.080 11.135339
56.085 11.518126
56.090 11.259581
56.095 11.315453
56.100 11.331389
56.105 11.188639
56.110 10.766353
56.115 11.292975
56.120 11.85749
56.125 12.425024
56.130 12.280748
56.135 12.656579
56.140 12.755409
56.145 13.008664
56.150 12.487933
56.155 12.093288
56.160 12.184472
56.165 12.002776
56.170 11.196371
56.175 10.953438
56.180 10.454073
56.185 10.120527
56.190 10.505467
56.195 10.193295
56.200 10.402077
56.205 10.644336
56.210 10.994581
56.215 11.912624
56.220 12.36201
56.225 12.171605
56.230 12.009617
56.235 12.373008
56.240 13.009167
56.245 13.211877
56.250 13.411332
56.255 13.399289
56.260 13.346994
56.265 13.508427
56.270 12.934881
56.275 12.156824
56.280 11.339333
56.285 10.526491
56.290 10.325305
56.295 10.030256
56.300 9.849833
56.305 9.930214
56.310 10.428691
56.315 10.958095
56.320 11.147161
56.325 11.247419
56.330 11.728879
56.335 12.204975
56.340 12.186305
56.345 12.219602
56.350 12.349453
56.355 12.583364
56.360 12.820873
56.365 12.182077
56.370 12.438783
56.375 12.169278
56.380 11.485424
56.385 10.908325
56.390 10.877228
56.395 10.832431
56.400 11.188786
56.405 11.019443
56.410 11.380183
56.415 11.674611
56.420 12.062793
56.425 12.494307
56.430 12.878709
56.435 12.783404
56.440 12.471412
56.445 12.112566
56.450 11.589594
56.455 11.219053
56.460 10.682129
56.465 10.243059
56.470 9.99756
56.475 9.863846
56.480 10.421204
56.485 10.974939
56.490 11.257796
56.495 11.374838
56.500 11.631516
56.505 12.243156
56.510 12.444725
56.515 12.347164
56.520 12.113775
56.525 11.875213
56.530 11.558542
56.535 11.474466
56.540 10.981063
56.545 10.984106
56.550 11.542495
56.555 11.135865
56.560 10.920511
56.565 11.129629
56.570 11.179277
56.575 11.49081
56.580 11.248481
56.585 11.179464
56.590 11.774544
56.595 11.883312
56.600 11.552321
56.605 10.991304
56.610 10.681979
56.615 10.385016
56.620 10.444402
56.625 10.103923
56.630 10.298717
56.635 10.682863
56.640 11.118713
56.645 11.646323
56.650 11.573869
56.655 11.925304
56.660 12.669484
56.665 12.641912
56.670 12.796379
56.675 12.80096
56.680 12.808042
56.685 13.058511
56.690 12.762701
56.695 12.425672
56.700 12.609483
56.705 12.314069
56.710 12.234881
56.715 12.568242
56.720 12.493672
56.725 12.740707
56.730 12.986769
56.735 13.16181
56.740 13.912755
56.745 14.494088
56.750 14.795163
56.755 14.768188
56.760 14.608636
56.765 14.62181
56.770 14.166185
56.775 13.089097
56.780 11.932688
56.785 11.455831
56.790 10.973042
56.795 10.952433
56.800 10.804654
56.805 11.505961
56.810 12.230606
56.815 12.336504
56.820 12.283626
56.825 12.345944
56.830 12.075594
56.835 12.225617
56.840 11.896979
56.845 11.803555
56.850 12.104563
56.855 12.635653
56.860 12.84222
56.865 12.840525
56.870 12.687546
56.875 12.568734
56.880 12.7193
56.885 12.38545
56.890 11.800536
56.895 11.953989
56.900 11.96941
56.905 11.838285
56.910 11.635619
56.915 11.584728
56.920 11.746349
56.925 12.260674
56.930 12.455162
56.935 12.051646
56.940 11.611049
56.945 11.524253
56.950 11.019555
56.955 11.056587
56.960 11.047001
56.965 10.909907
56.970 11.317038
56.975 11.557225
56.980 11.622107
56.985 11.661538
56.990 11.399023
56.995 11.293537
57.000 11.644928
57.005 11.847528
57.010 12.292316
57.015 13.167069
57.020 13.429034
57.025 13.340986
57.030 12.983879
57.035 12.917504
57.040 12.702658
57.045 12.368747
57.050 11.860389
57.055 11.763959
57.060 11.768712
57.065 11.676265
57.070 11.345787
57.075 11.805138
57.080 11.967342
57.085 11.799503
57.090 11.435119
57.095 11.929642
57.100 12.368625
57.105 12.103333
57.110 11.609369
57.115 11.594605
57.120 12.247404
57.125 12.841326
57.130 12.444798
57.135 12.128711
57.140 12.580167
57.145 12.537011
57.150 12.57105
57.155 12.451367
57.160 12.422762
57.165 12.738935
57.170 12.680025
57.175 13.186563
57.180 13.665879
57.185 13.346987
57.190 12.981228
57.195 12.446465
57.200 12.155282
57.205 12.115005
57.210 11.184593
57.215 11.078812
57.220 11.133267
57.225 11.217516
57.230 11.389769
57.235 11.106022
57.240 10.849016
57.245 11.087522
57.250 11.039014
57.255 11.463741
57.260 11.579436
57.265 11.498229
57.270 11.989799
57.275 12.258635
57.280 12.331549
57.285 12.248707
57.290 12.144897
57.295 12.657049
57.300 13.143651
57.305 13.090787
57.310 13.062531
57.315 12.831771
57.320 13.038764
57.325 13.075463
57.330 12.944637
57.335 12.700742
57.340 12.479287
57.345 12.823581
57.350 12.983135
57.355 13.021222
57.360 12.588563
57.365 12.142203
57.370 12.113581
57.375 12.134946
57.380 12.026891
57.385 12.228745
57.390 12.0582
57.395 12.172443
57.400 12.544725
57.405 12.361135
57.410 12.617329
57.415 12.747591
57.420 12.390974
57.425 12.451717
57.430 12.968964
57.435 13.056612
57.440 13.623113
57.445 13.617484
57.450 14.122768
57.455 14.699215
57.460 14.982846
57.465 14.782063
57.470 14.679614
57.475 14.704348
57.480 14.163068
57.485 13.804396
57.490 13.399398
57.495 13.083091
57.500 13.447495
57.505 13.45532
57.510 12.804727
57.515 12.973818
57.520 12.849088
57.525 12.655157
57.530 12.412112
57.535 12.014814
57.540 11.533247
57.545 11.847729
57.550 12.007457
57.555 12.044407
57.560 12.111052
57.565 12.143101
57.570 12.374617
57.575 12.652763
57.580 12.700049
57.585 12.776551
57.590 12.890767
57.595 13.164255
57.600 13.511761
57.605 13.527997
57.610 13.960294
57.615 14.052986
57.620 13.974536
57.625 13.70566
57.630 13.94577
57.635 13.726872
57.640 13.15159
57.645 12.72555
57.650 12.725136
57.655 12.437972
57.660 11.926974
57.665 11.179118
57.670 11.039494
57.675 11.345688
57.680 11.306462
57.685 11.018274
57.690 11.317684
57.695 11.923108
57.700 12.138979
57.705 12.728415
57.710 13.095671
57.715 13.075141
57.720 13.296411
57.725 13.514228
57.730 13.700113
57.735 13.796433
57.740 13.791565
57.745 13.910515
57.750 14.316555
57.755 14.524841
57.760 14.178972
57.765 14.13138
57.770 13.699354
57.775 13.172839
57.780 13.069077
57.785 13.12985
57.790 13.381941
57.795 13.786454
57.800 14.048534
57.805 13.969545
57.810 14.050392
57.815 14.084838
57.820 13.968726
57.825 13.625428
57.830 13.746114
57.835 13.290361
57.840 13.130977
57.845 13.390045
57.850 13.787339
57.855 13.844377
57.860 13.516476
57.865 13.320918
57.870 14.001479
57.875 14.686114
57.880 14.423369
57.885 14.07749
57.890 14.116316
57.895 14.338024
57.900 14.922615
57.905 15.210503
57.910 14.995462
57.915 15.343565
57.920 15.268198
57.925 15.334464
57.930 15.694029
57.935 14.995888
57.940 13.993155
57.945 13.712887
57.950 13.558181
57.955 13.822765
57.960 13.777278
57.965 13.743894
57.970 14.217876
57.975 14.594412
57.980 14.857738
57.985 14.619303
57.990 13.985271
57.995 14.030774
58.000 14.109141
58.005 14.181919
58.010 14.51444
58.015 15.0839
58.020 15.586859
58.025 16.012119
58.030 16.299135
58.035 16.350687
58.040 16.334799
58.045 16.662344
58.050 16.515636
58.055 15.979975
58.060 15.976542
58.065 15.649593
58.070 16.095863
58.075 15.949977
58.080 15.20374
58.085 15.069922
58.090 15.097663
58.095 15.087918
58.100 15.270821
58.105 15.060853
58.110 15.233678
58.115 15.864727
58.120 16.231684
58.125 16.750435
58.130 16.752083
58.135 16.414433
58.140 16.342371
58.145 15.974118
58.150 15.577879
58.155 15.212779
58.160 15.031164
58.165 14.801598
58.170 14.619096
58.175 14.672808
58.180 14.901491
58.185 14.673285
58.190 14.860729
58.195 15.047117
58.200 15.407009
58.205 15.289729
58.210 15.464555
58.215 15.917163
58.220 16.05731
58.225 16.425833
58.230 16.22979
58.235 15.974824
58.240 15.953319
58.245 15.282051
58.250 15.335739
58.255 15.146664
58.260 14.984053
58.265 14.931979
58.270 15.154718
58.275 15.748698
58.280 16.314714
58.285 15.91113
58.290 16.061314
58.295 15.865162
58.300 16.386221
58.305 16.529612
58.310 16.642807
58.315 16.774656
58.320 17.602053
58.325 17.743298
58.330 17.582151
58.335 17.414154
58.340 16.88446
58.345 16.843029
58.350 16.94829
58.355 16.555908
58.360 16.613228
58.365 16.681683
58.370 17.145426
58.375 17.474104
58.380 17.511543
58.385 17.601044
58.390 18.321386
58.395 18.575279
58.400 18.65613
58.405 18.547924
58.410 18.964951
58.415 18.855421
58.420 18.865541
58.425 18.956642
58.430 19.31081
58.435 19.645124
58.440 20.448982
58.445 21.043612
58.450 21.863079
58.455 22.683525
58.460 23.209339
58.465 23.320122
58.470 23.565813
58.475 23.1647
58.480 23.11409
58.485 23.06979
58.490 22.496246
58.495 22.569353
58.500 23.152775
58.505 23.586584
58.510 24.41301
58.515 25.101648
58.520 25.203182
58.525 26.373444
58.530 26.376669
58.535 26.153795
58.540 25.838034
58.545 25.14559
58.550 24.776985
58.555 25.245718
58.560 25.638477
58.565 26.873901
58.570 28.311274
58.575 29.292006
58.580 29.54781
58.585 29.824713
58.590 30.934984
58.595 31.17865
58.600 31.044765
58.605 30.519257
58.610 31.425278
58.615 32.584286
58.620 33.317513
58.625 33.827652
58.630 34.083591
58.635 34.034729
58.640 33.925789
58.645 33.177189
58.650 33.433353
58.655 33.131046
58.660 32.62265
58.665 33.010719
58.670 34.021378
58.675 34.70718
58.680 35.942028
58.685 35.842945
58.690 36.524471
58.695 36.376507
58.700 36.17598
58.705 35.120575
58.710 35.521713
58.715 35.382809
58.720 34.749325
58.725 34.555244
58.730 34.783276
58.735 34.143768
58.740 34.416843
58.745 33.905937
58.750 33.281769
58.755 33.461456
58.760 33.273224
58.765 32.488705
58.770 32.393902
58.775 31.684114
58.780 31.285034
58.785 30.616262
58.790 30.132395
58.795 30.142488
58.800 29.502569
58.805 29.594877
58.810 29.706484
58.815 29.26342
58.820 29.577772
58.825 29.623344
58.830 28.978823
58.835 29.314083
58.840 28.974989
58.845 28.521835
58.850 27.945589
58.855 27.565109
58.860 27.098331
58.865 26.828413
58.870 25.246468
58.875 23.830578
58.880 23.323421
58.885 23.081987
58.890 22.689293
58.895 22.476719
58.900 22.03475
58.905 22.378828
58.910 23.067373
58.915 23.44997
58.920 23.160563
58.925 22.410538
58.930 21.864161
58.935 21.516827
58.940 21.534424
58.945 20.889402
58.950 20.360973
58.955 20.0784
58.960 20.003063
58.965 20.177422
58.970 20.456299
58.975 19.845154
58.980 19.687429
58.985 20.237104
58.990 21.445362
58.995 21.178755
59.000 20.017721
59.005 19.40863
59.010 20.045214
59.015 19.904549
59.020 19.22085
59.025 17.857727
59.030 17.757904
59.035 18.054104
59.040 17.690395
59.045 16.338053
59.050 15.99509
59.055 16.134535
59.060 16.305815
59.065 16.243998
59.070 16.278234
59.075 16.67774
59.080 17.386023
59.085 17.179707
59.090 16.457451
59.095 16.129963
59.100 16.449169
59.105 16.436256
59.110 16.127085
59.115 15.48798
59.120 15.15649
59.125 15.395643
59.130 14.979211
59.135 14.56949
59.140 14.550969
59.145 14.543788
59.150 14.373958
59.155 14.456933
59.160 14.691775
59.165 15.371075
59.170 15.584209
59.175 15.525611
59.180 15.221925
59.185 15.598618
59.190 15.523266
59.195 15.25734
59.200 14.739887
59.205 14.449702
59.210 14.874224
59.215 14.47716
59.220 14.234894
59.225 14.239334
59.230 14.924144
59.235 15.151503
59.240 15.012128
59.245 14.758244
59.250 15.326226
59.255 15.754471
59.260 15.232519
59.265 14.186152
59.270 14.139354
59.275 14.477737
59.280 14.354392
59.285 14.027422
59.290 13.708416
59.295 14.220488
59.300 14.658125
59.305 14.683552
59.310 14.19964
59.315 14.450786
59.320 14.826913
59.325 14.674283
59.330 14.378794
59.335 14.177927
59.340 13.647705
59.345 13.685857
59.350 13.328685
59.355 13.50667
59.360 13.728731
59.365 13.536107
59.370 13.450379
59.375 13.369917
59.380 12.935754
59.385 12.842772
59.390 12.201892
59.395 11.932981
59.400 12.001696
59.405 12.245071
59.410 12.890189
59.415 13.620286
59.420 13.89108
59.425 13.956881
59.430 14.679259
59.435 15.09578
59.440 15.213968
59.445 15.355205
59.450 15.279363
59.455 15.266044
59.460 15.598365
59.465 15.182427
59.470 15.111648
59.475 15.269022
59.480 15.579656
59.485 15.762181
59.490 15.661867
59.495 15.009936
59.500 15.060762
59.505 14.991711
59.510 14.486926
59.515 13.916987
59.520 14.1092
59.525 14.523157
59.530 15.132691
59.535 15.460121
59.540 14.970364
59.545 14.903354
59.550 15.018955
59.555 14.718551
59.560 14.277994
59.565 14.143528
59.570 13.365452
59.575 13.72124
59.580 13.916633
59.585 13.657385
59.590 14.007685
59.595 14.460757
59.600 14.60693
59.605 15.228669
59.610 15.221176
59.615 15.685324
59.620 15.761662
59.625 16.195415
59.630 16.412758
59.635 16.498093
59.640 16.715689
59.645 16.52178
59.650 16.552488
59.655 16.390455
59.660 15.547686
59.665 14.753678
59.670 14.011636
59.675 13.872176
59.680 14.084077
59.685 13.997841
59.690 14.015697
59.695 14.20312
59.700 14.960621
59.705 15.30036
59.710 14.930734
59.715 14.742551
59.720 14.553964
59.725 14.741735
59.730 14.552184
59.735 14.171223
59.740 14.415469
59.745 14.332939
59.750 14.100813
59.755 14.155645
59.760 13.721538
59.765 13.492402
59.770 13.54441
59.775 13.369866
59.780 13.591158
59.785 14.142171
59.790 14.385442
59.795 14.858375
59.800 14.891798
59.805 14.474324
59.810 14.508402
59.815 14.664764
59.820 14.611012
59.825 14.398962
59.830 14.072774
59.835 14.54118
59.840 15.025195
59.845 15.053361
59.850 14.873398
59.855 14.397582
59.860 14.556396
59.865 14.942711
59.870 14.571112
59.875 14.184894
59.880 14.237855
59.885 14.009007
59.890 14.337266
59.895 14.238576
59.900 14.024157
59.905 13.709718
59.910 13.672424
59.915 14.211115
59.920 14.89515
59.925 14.818746
59.930 14.692897
59.935 14.575162
59.940 14.304381
59.945 14.043615
59.950 13.764556
59.955 13.52243
59.960 13.843674
59.965 14.428656
59.970 14.613396
59.975 14.955569
59.980 14.646547
59.985 14.811248
59.990 14.98279
59.995 14.691598
60.000 14.202828
60.005 13.883607
60.010 14.379518
60.015 15.237633
60.020 14.615228
60.025 13.779535
60.030 13.147158
60.035 13.055336
60.040 13.443301
60.045 13.307875
60.050 12.822584
60.055 13.186166
60.060 13.754679
60.065 14.087461
60.070 14.121122
60.075 13.800033
60.080 13.135881
60.085 13.197561
60.090 12.969184
60.095 12.635431
60.100 12.907424
60.105 13.323792
60.110 14.060593
60.115 14.299657
60.120 14.602933
60.125 15.146023
60.130 15.476502
60.135 15.380777
60.140 15.021045
60.145 14.629045
60.150 15.111295
60.155 14.936424
60.160 14.175101
60.165 13.689916
60.170 13.528481
60.175 13.620808
60.180 13.895539
60.185 14.051198
60.190 14.134057
60.195 14.717507
60.200 14.810209
60.205 15.534389
60.210 15.405169
60.215 15.243198
60.220 14.315255
60.225 14.16662
60.230 14.265088
60.235 14.474937
60.240 14.046948
60.245 14.159161
60.250 14.125508
60.255 14.880219
60.260 14.402136
60.265 13.747101
60.270 13.904136
60.275 13.662673
60.280 13.423577
60.285 13.534339
60.290 12.755413
60.295 12.911745
60.300 13.83577
60.305 14.179631
60.310 14.645918
60.315 14.810105
60.320 14.91254
60.325 16.177273
60.330 16.408714
60.335 15.816898
60.340 15.262957
60.345 14.521282
60.350 13.885437
60.355 13.404118
60.360 13.090334
60.365 12.661128
60.370 12.610822
60.375 12.76798
60.380 13.218635
60.385 13.489764
60.390 13.881483
60.395 14.065907
60.400 14.427762
60.405 14.52226
60.410 14.957516
60.415 15.041821
60.420 15.322832
60.425 14.79302
60.430 14.365386
60.435 14.700601
60.440 14.505346
60.445 14.274058
60.450 14.845394
60.455 15.218827
60.460 15.545309
60.465 15.689072
60.470 15.890326
60.475 15.645041
60.480 15.01661
60.485 14.417974
60.490 14.211128
60.495 14.312831
60.500 14.643682
60.505 14.081656
60.510 14.882666
60.515 15.404065
60.520 15.486251
60.525 15.548515
60.530 15.378346
60.535 14.831735
60.540 14.378175
60.545 13.793079
60.550 13.585477
60.555 12.980875
60.560 12.522381
60.565 12.491231
60.570 12.808336
60.575 13.576386
60.580 13.545417
60.585 14.176669
60.590 14.933651
60.595 15.144794
60.600 14.897989
60.605 14.856078
60.610 14.530747
60.615 14.521442
60.620 14.415707
60.625 14.603244
60.630 14.697196
60.635 14.876054
60.640 14.10483
60.645 13.871802
60.650 13.708349
60.655 13.247704
60.660 13.008462
60.665 12.890909
60.670 13.126711
60.675 13.968024
60.680 14.183453
60.685 14.273839
60.690 13.73503
60.695 13.188293
60.700 13.053699
60.705 13.139705
60.710 13.194173
60.715 13.388155
60.720 13.439672
60.725 13.89549
60.730 14.388899
60.735 14.777663
60.740 14.698992
60.745 14.552538
60.750 14.615784
60.755 15.037657
60.760 15.075571
60.765 15.287786
60.770 15.309533
60.775 15.691827
60.780 15.799609
60.785 15.853492
60.790 16.001215
60.795 16.191265
60.800 16.06249
60.805 15.55611
60.810 15.385928
60.815 15.277748
60.820 15.139701
60.825 15.143776
60.830 15.401255
60.835 15.261602
60.840 15.706795
60.845 16.41214
60.850 16.480913
60.855 16.143717
60.860 15.554784
60.865 15.338517
60.870 15.291509
60.875 14.935905
60.880 14.066676
60.885 14.023394
60.890 14.531247
60.895 14.821624
60.900 14.604
60.905 14.273585
60.910 13.845153
60.915 13.798515
60.920 13.99887
60.925 13.669497
60.930 13.626
60.935 13.973242
60.940 14.213124
60.945 14.47108
60.950 14.327653
60.955 14.491359
60.960 14.87132
60.965 15.288222
60.970 15.629498
60.975 15.749917
60.980 16.001448
60.985 16.439131
60.990 16.044518
60.995 15.850959
61.000 15.765587
61.005 15.423919
61.010 15.150431
61.015 14.819092
61.020 14.422276
61.025 14.284978
61.030 14.209806
61.035 13.951372
61.040 13.754586
61.045 14.033701
61.050 13.955829
61.055 13.840065
61.060 13.736025
61.065 13.817462
61.070 13.770131
61.075 13.613083
61.080 13.939863
61.085 14.087384
61.090 14.142029
61.095 14.24518
61.100 13.728985
61.105 13.776186
61.110 13.893858
61.115 13.626401
61.120 13.474464
61.125 13.879095
61.130 14.000856
61.135 14.094687
61.140 13.874896
61.145 13.736932
61.150 13.641669
61.155 14.130079
61.160 13.773808
61.165 13.72924
61.170 14.030418
61.175 14.239517
61.180 14.317672
61.185 14.243128
61.190 13.94787
61.195 13.769068
61.200 14.007277
61.205 14.100759
61.210 14.524291
61.215 14.973075
61.220 15.123847
61.225 14.900887
61.230 15.753336
61.235 15.335004
61.240 14.925721
61.245 14.310373
61.250 13.789215
61.255 13.905663
61.260 14.357893
61.265 14.262051
61.270 14.40243
61.275 14.685435
61.280 15.118347
61.285 15.419759
61.290 15.482296
61.295 15.770398
61.300 16.183573
61.305 16.016455
61.310 15.803646
61.315 15.823713
61.320 15.898865
61.325 15.893059
61.330 15.520029
61.335 15.274831
61.340 15.918958
61.345 16.225727
61.350 16.142025
61.355 16.034781
61.360 16.274876
61.365 16.771866
61.370 16.976681
61.375 16.553995
61.380 16.38414
61.385 16.51733
61.390 16.447083
61.395 16.082129
61.400 15.759776
61.405 15.284777
61.410 15.422937
61.415 15.545384
61.420 15.151758
61.425 14.934941
61.430 14.812041
61.435 14.493009
61.440 14.153909
61.445 13.885032
61.450 14.211191
61.455 14.903882
61.460 14.888033
61.465 14.725165
61.470 14.770817
61.475 15.153904
61.480 15.115425
61.485 14.924439
61.490 14.529746
61.495 14.843024
61.500 15.495044
61.505 15.448428
61.510 15.27346
61.515 15.210856
61.520 14.851916
61.525 14.965075
61.530 15.158965
61.535 14.992229
61.540 14.940246
61.545 15.22176
61.550 15.22198
61.555 15.806858
61.560 15.836724
61.565 15.035398
61.570 15.260367
61.575 15.840144
61.580 15.995723
61.585 15.877576
61.590 15.464635
61.595 15.694603
61.600 16.369596
61.605 16.5226
61.610 16.899916
61.615 17.074701
61.620 17.198935
61.625 17.17701
61.630 17.054432
61.635 16.836327
61.640 16.457546
61.645 15.566621
61.650 15.518295
61.655 15.630037
61.660 15.790105
61.665 15.55183
61.670 14.78014
61.675 14.057785
61.680 14.098055
61.685 14.193653
61.690 14.283562
61.695 14.059036
61.700 14.671207
61.705 15.560679
61.710 16.065968
61.715 16.103119
61.720 15.90994
61.725 15.551859
61.730 15.258832
61.735 14.259794
61.740 13.913376
61.745 13.718209
61.750 13.548493
61.755 13.899081
61.760 14.439078
61.765 14.961104
61.770 15.477877
61.775 15.350221
61.780 15.411833
61.785 15.225702
61.790 14.800335
61.795 14.803245
61.800 14.627649
61.805 14.552465
61.810 14.932078
61.815 14.88599
61.820 14.721952
61.825 15.238044
61.830 15.59376
61.835 16.170259
61.840 16.571434
61.845 16.079079
61.850 16.014217
61.855 16.829487
61.860 16.709862
61.865 16.754135
61.870 16.77281
61.875 16.716188
61.880 17.505867
61.885 17.640961
61.890 17.455479
61.895 17.408804
61.900 17.321434
61.905 16.842854
61.910 16.554836
61.915 16.579121
61.920 16.834141
61.925 16.299448
61.930 15.86304
61.935 15.940211
61.940 16.198885
61.945 16.648148
61.950 16.759058
61.955 16.922438
61.960 16.916382
61.965 16.899849
61.970 16.389797
61.975 16.313007
61.980 15.613381
61.985 15.100243
61.990 14.75924
61.995 14.777786
62.000 15.062909
62.005 15.626196
62.010 15.854403
62.015 15.7427
62.020 15.054481
62.025 14.559287
62.030 13.995296
62.035 13.944818
62.040 13.794434
62.045 13.47115
62.050 13.983221
62.055 14.356954
62.060 14.631698
62.065 14.716371
62.070 14.322149
62.075 14.089848
62.080 14.527439
62.085 14.200574
62.090 14.543727
62.095 14.993593
62.100 15.097979
62.105 15.338806
62.110 15.123254
62.115 15.236115
62.120 15.146575
62.125 15.2417
62.130 15.375043
62.135 15.933133
62.140 15.753386
62.145 15.909565
62.150 16.039452
62.155 16.414438
62.160 16.14463
62.165 16.584448
62.170 16.892891
62.175 17.469143
62.180 17.71645
62.185 17.23938
62.190 17.195623
62.195 17.363037
62.200 17.386654
62.205 17.172935
62.210 16.459644
62.215 15.973523
62.220 16.299448
62.225 16.563686
62.230 16.137741
62.235 15.394082
62.240 14.702431
62.245 14.4342
62.250 14.535685
62.255 14.159844
62.260 13.793199
62.265 14.162657
62.270 14.43555
62.275 14.765788
62.280 15.378271
62.285 15.491292
62.290 15.833961
62.295 16.44389
62.300 16.28364
62.305 16.002958
62.310 15.732066
62.315 15.103565
62.320 15.209762
62.325 14.433053
62.330 13.921307
62.335 14.001541
62.340 14.528017
62.345 14.556669
62.350 14.94368
62.355 15.413202
62.360 16.221313
62.365 16.760197
62.370 16.540585
62.375 16.273581
62.380 16.397635
62.385 16.336922
62.390 15.956378
62.395 15.855533
62.400 15.562272
62.405 16.196005
62.410 16.450531
62.415 16.905264
62.420 17.024757
62.425 17.009554
62.430 17.294823
62.435 17.573921
62.440 17.018404
62.445 17.268509
62.450 17.610682
62.455 17.601206
62.460 17.578295
62.465 17.633881
62.470 17.707283
62.475 17.968487
62.480 18.244989
62.485 17.714912
62.490 17.540461
62.495 17.654179
62.500 17.510489
62.505 17.562292
62.510 17.282427
62.515 16.839874
62.520 17.013578
62.525 17.231598
62.530 16.810368
62.535 16.084515
62.540 15.906811
62.545 16.040606
62.550 16.054813
62.555 16.103907
62.560 15.760716
62.565 15.520485
62.570 15.944515
62.575 15.993058
62.580 15.694633
62.585 15.28322
62.590 15.050645
62.595 14.738243
62.600 14.712225
62.605 13.863118
62.610 13.462555
62.615 13.743336
62.620 13.744216
62.625 13.892875
62.630 14.234293
62.635 14.706848
62.640 14.9178
62.645 14.866522
62.650 14.75964
62.655 15.360045
62.660 15.848968
62.665 15.924537
62.670 15.683678
62.675 16.108509
62.680 16.229895
62.685 16.232773
62.690 15.702701
62.695 15.411499
62.700 15.157975
62.705 15.218235
62.710 15.737976
62.715 16.204531
62.720 16.719873
62.725 16.902506
62.730 16.905127
62.735 17.823746
62.740 18.285707
62.745 17.98794
62.750 17.732639
62.755 17.320107
62.760 17.069498
62.765 17.269186
62.770 16.754793
62.775 16.640276
62.780 17.017935
62.785 17.120649
62.790 17.075592
62.795 16.567455
62.800 15.79035
62.805 16.087263
62.810 16.328756
62.815 16.171532
62.820 15.941481
62.825 16.138525
62.830 16.96018
62.835 17.544441
62.840 17.024927
62.845 16.579456
62.850 16.921616
62.855 16.59079
62.860 16.293695
62.865 15.460364
62.870 15.299351
62.875 16.010345
62.880 16.104748
62.885 15.477561
62.890 15.949539
62.895 16.185349
62.900 16.982018
62.905 16.820375
62.910 16.329054
62.915 16.499086
62.920 16.606678
62.925 16.33795
62.930 16.064295
62.935 16.355015
62.940 16.623798
62.945 16.356987
62.950 15.880352
62.955 15.882431
62.960 16.181675
62.965 15.906182
62.970 15.928267
62.975 15.819871
62.980 16.150692
62.985 16.125772
62.990 16.345543
62.995 16.948391
63.000 17.745522
63.005 16.802488
63.010 16.322792
63.015 16.227224
63.020 16.264994
63.025 15.906578
63.030 15.201189
63.035 14.926043
63.040 15.748296
63.045 16.589804
63.050 16.763824
63.055 16.890678
63.060 16.825922
63.065 17.094212
63.070 17.283865
63.075 17.401442
63.080 17.371784
63.085 17.645506
63.090 17.61408
63.095 18.022457
63.100 17.684294
63.105 17.480225
63.110 16.805801
63.115 16.684425
63.120 16.747681
63.125 17.104088
63.130 17.029421
63.135 17.531639
63.140 17.534214
63.145 18.056456
63.150 17.88689
63.155 17.513456
63.160 17.405556
63.165 17.566036
63.170 16.853436
63.175 16.553892
63.180 15.932764
63.185 15.742378
63.190 16.389427
63.195 16.258396
63.200 15.889622
63.205 15.805954
63.210 16.113569
63.215 16.059549
63.220 15.994597
63.225 15.440288
63.230 14.877934
63.235 15.016793
63.240 15.116772
63.245 14.680927
63.250 14.328859
63.255 14.160421
63.260 14.333247
63.265 14.83898
63.270 15.155652
63.275 15.411666
63.280 15.750504
63.285 16.965309
63.290 17.310417
63.295 17.399834
63.300 17.367411
63.305 17.414244
63.310 17.332218
63.315 17.642811
63.320 17.233862
63.325 17.267651
63.330 17.588348
63.335 17.385042
63.340 17.01436
63.345 16.555435
63.350 16.134491
63.355 16.39785
63.360 16.524435
63.365 16.13718
63.370 15.630987
63.375 16.272781
63.380 16.943235
63.385 17.412445
63.390 17.638901
63.395 17.459349
63.400 17.255201
63.405 17.035994
63.410 16.764757
63.415 16.760256
63.420 16.451916
63.425 15.949393
63.430 16.095413
63.435 16.468277
63.440 17.207098
63.445 17.318394
63.450 17.259087
63.455 17.286774
63.460 17.574179
63.465 17.669323
63.470 18.166489
63.475 18.086384
63.480 17.751862
63.485 17.927437
63.490 17.8409
63.495 17.26408
63.500 16.968447
63.505 17.124743
63.510 16.980021
63.515 17.157438
63.520 17.067177
63.525 17.223379
63.530 16.924425
63.535 16.975058
63.540 16.32522
63.545 16.423883
63.550 15.851258
63.555 15.692054
63.560 15.715141
63.565 16.005688
63.570 15.292426
63.575 15.296707
63.580 15.472058
63.585 15.610393
63.590 15.188375
63.595 15.827224
63.600 16.027962
63.605 16.690205
63.610 16.692011
63.615 16.749815
63.620 17.150635
63.625 17.179022
63.630 16.921627
63.635 16.989056
63.640 17.063065
63.645 17.118746
63.650 17.281162
63.655 17.222658
63.660 17.350197
63.665 16.805285
63.670 17.162394
63.675 17.27844
63.680 17.48843
63.685 17.534445
63.690 17.701572
63.695 18.028072
63.700 18.30442
63.705 18.393501
63.710 18.597891
63.715 18.634033
63.720 18.588213
63.725 18.447786
63.730 18.286352
63.735 17.846331
63.740 17.14455
63.745 16.598066
63.750 16.129082
63.755 15.521428
63.760 15.378041
63.765 15.82348
63.770 15.617549
63.775 15.423431
63.780 15.154339
63.785 15.191419
63.790 15.595659
63.795 15.446701
63.800 14.55378
63.805 14.613138
63.810 14.685579
63.815 15.17952
63.820 15.313469
63.825 15.736822
63.830 16.347506
63.835 17.25
63.840 17.193157
63.845 17.119942
63.850 16.784672
63.855 17.049988
63.860 16.656023
63.865 16.036129
63.870 15.44518
63.875 15.692752
63.880 16.271584
63.885 16.71312
63.890 17.01683
63.895 17.001547
63.900 17.296175
63.905 17.217625
63.910 17.011606
63.915 17.435345
63.920 17.573433
63.925 17.486906
63.930 17.642008
63.935 17.82534
63.940 18.104664
63.945 18.403336
63.950 18.546347
63.955 19.077354
63.960 19.550714
63.965 19.687143
63.970 19.736223
63.975 19.447857
63.980 19.889879
63.985 19.759438
63.990 19.039625
63.995 18.771986
64.000 18.834993
64.005 19.589716
64.010 20.048153
64.015 19.654633
64.020 20.009443
64.025 20.303057
64.030 20.232925
64.035 20.622158
64.040 20.476408
64.045 20.792467
64.050 21.824619
64.055 21.792606
64.060 21.675161
64.065 21.323009
64.070 21.142876
64.075 21.089787
64.080 20.816994
64.085 20.744549
64.090 21.173611
64.095 21.368811
64.100 22.435059
64.105 22.395718
64.110 22.402704
64.115 22.684584
64.120 22.384315
64.125 22.552876
64.130 22.254719
64.135 21.87108
64.140 22.533297
64.145 23.053286
64.150 22.925772
64.155 23.291548
64.160 23.760443
64.165 24.584356
64.170 25.101894
64.175 25.43874
64.180 26.275352
64.185 26.944462
64.190 27.062923
64.195 27.17622
64.200 27.404121
64.205 27.485838
64.210 27.976206
64.215 28.06484
64.220 28.109221
64.225 28.848644
64.230 28.858608
64.235 29.36076
64.240 29.947048
64.245 30.351866
64.250 30.358706
64.255 31.991726
64.260 32.633186
64.265 33.300247
64.270 34.191715
64.275 34.627583
64.280 34.673019
64.285 35.538441
64.290 35.042984
64.295 35.375168
64.300 36.37233
64.305 36.973991
64.310 36.66708
64.315 37.003952
64.320 37.724327
64.325 39.416836
64.330 40.539455
64.335 40.750126
64.340 41.304901
64.345 42.865303
64.350 43.417229
64.355 43.895214
64.360 44.072491
64.365 44.431713
64.370 45.207821
64.375 45.298672
64.380 45.268909
64.385 46.027142
64.390 46.54541
64.395 47.346836
64.400 47.278633
64.405 47.341038
64.410 47.68539
64.415 48.192574
64.420 48.315914
64.425 48.703445
64.430 48.586353
64.435 49.923481
64.440 51.090816
64.445 51.881268
64.450 51.91325
64.455 51.344334
64.460 51.236717
64.465 51.540852
64.470 50.911785
64.475 50.33646
64.480 49.752674
64.485 49.349354
64.490 49.478394
64.495 49.220821
64.500 47.941772
64.505 46.883869
64.510 46.340027
64.515 46.073544
64.520 45.836708
64.525 46.016247
64.530 45.652832
64.535 46.004478
64.540 45.891174
64.545 45.037563
64.550 44.788067
64.555 44.894848
64.560 44.23489
64.565 44.296581
64.570 43.703499
64.575 42.60836
64.580 42.100872
64.585 41.300339
64.590 40.605976
64.595 40.256836
64.600 39.315552
64.605 38.999649
64.610 38.8181
64.615 38.28368
64.620 37.963646
64.625 37.155468
64.630 36.464664
64.635 36.416103
64.640 35.568264
64.645 35.886555
64.650 35.22023
64.655 34.378349
64.660 34.365707
64.665 33.674644
64.670 32.580978
64.675 31.830456
64.680 32.000332
64.685 32.635822
64.690 32.538857
64.695 31.776789
64.700 31.893021
64.705 32.140095
64.710 32.12249
64.715 30.894457
64.720 29.856972
64.725 29.455973
64.730 29.241184
64.735 28.45854
64.740 27.497242
64.745 26.575918
64.750 26.680006
64.755 26.262321
64.760 25.848673
64.765 25.766535
64.770 25.512629
64.775 25.536247
64.780 25.192801
64.785 24.326361
64.790 23.761141
64.795 23.440502
64.800 23.342426
64.805 23.285902
64.810 23.37009
64.815 23.757038
64.820 23.428759
64.825 24.204586
64.830 24.263088
64.835 24.025064
64.840 23.863111
64.845 23.792206
64.850 22.813442
64.855 23.403559
64.860 22.650391
64.865 22.093601
64.870 22.244967
64.875 22.4877
64.880 21.856571
64.885 22.323402
64.890 21.533798
64.895 21.110765
64.900 21.443605
64.905 21.608152
64.910 21.844322
64.915 22.055956
64.920 22.108189
64.925 22.539139
64.930 23.085123
64.935 23.212172
64.940 22.672857
64.945 22.323009
64.950 22.795721
64.955 23.04394
64.960 23.208794
64.965 24.23283
64.970 24.450462
64.975 24.942217
64.980 25.042471
64.985 24.630775
64.990 25.01561
64.995 25.828836
65.000 26.124722
65.005 26.677855
65.010 27.138908
65.015 28.201395
65.020 29.612103
65.025 30.259951
65.030 30.815159
65.035 30.790199
65.040 30.908228
65.045 31.230761
65.050 31.604855
65.055 31.314747
65.060 31.111147
65.065 30.946516
65.070 31.405367
65.075 31.302608
65.080 31.705128
65.085 31.698862
65.090 32.527157
65.095 33.579323
65.100 34.121086
65.105 34.605606
65.110 35.223824
65.115 35.532692
65.120 35.869156
65.125 36.332298
65.130 36.515064
65.135 37.054337
65.140 37.428013
65.145 37.493187
65.150 37.965458
65.155 37.845901
65.160 37.374275
65.165 37.073582
65.170 36.413151
65.175 35.488518
65.180 35.202656
65.185 34.939571
65.190 35.639805
65.195 36.822025
65.200 37.130436
65.205 38.088467
65.210 39.122921
65.215 39.48103
65.220 39.822662
65.225 39.575489
65.230 38.441654
65.235 38.450275
65.240 38.471966
65.245 38.64933
65.250 38.656803
65.255 38.102676
65.260 37.477768
65.265 38.183907
65.270 38.406403
65.275 37.97691
65.280 37.438633
65.285 37.314907
65.290 37.436928
65.295 37.684212
65.300 37.317745
65.305 36.675144
65.310 36.514999
65.315 36.453728
65.320 36.74556
65.325 37.160244
65.330 36.647915
65.335 37.3074
65.340 37.894936
65.345 37.830849
65.350 37.675438
65.355 37.32415
65.360 37.616123
65.365 37.834877
65.370 37.757751
65.375 37.583687
65.380 39.087673
65.385 40.020809
65.390 40.005836
65.395 40.185352
65.400 39.696724
65.405 39.08709
65.410 39.224342
65.415 38.920696
65.420 38.783646
65.425 38.731403
65.430 38.836994
65.435 39.627773
65.440 40.406479
65.445 40.30299
65.450 39.615223
65.455 39.51939
65.460 40.129818
65.465 40.33675
65.470 39.872379
65.475 38.476189
65.480 38.246738
65.485 38.079716
65.490 37.834419
65.495 37.055798
65.500 36.83992
65.505 37.09169
65.510 37.685234
65.515 37.884815
65.520 37.443485
65.525 37.133633
65.530 37.164673
65.535 36.710369
65.540 36.518921
65.545 36.80323
65.550 36.973686
65.555 37.1651
65.560 37.219715
65.565 36.500523
65.570 36.319721
65.575 36.378281
65.580 36.176273
65.585 35.523697
65.590 35.16235
65.595 34.901459
65.600 35.416924
65.605 35.496193
65.610 35.082199
65.615 34.687962
65.620 34.824226
65.625 34.949642
65.630 34.797905
65.635 34.373383
65.640 34.622795
65.645 34.732597
65.650 34.047901
65.655 33.249096
65.660 32.595543
65.665 32.542805
65.670 32.201996
65.675 31.808086
65.680 31.565128
65.685 31.674412
65.690 31.90847
65.695 31.827599
65.700 31.705906
65.705 31.89411
65.710 31.638929
65.715 31.304047
65.720 31.417101
65.725 31.192331
65.730 31.182711
65.735 30.233885
65.740 30.065514
65.745 29.698322
65.750 28.433447
65.755 27.717922
65.760 27.559267
65.765 27.515589
65.770 28.277781
65.775 28.409395
65.780 28.748125
65.785 28.884872
65.790 28.611986
65.795 28.403137
65.800 28.515322
65.805 27.846981
65.810 27.139843
65.815 26.934963
65.820 26.659782
65.825 26.432076
65.830 26.000679
65.835 25.466789
65.840 25.134584
65.845 24.44405
65.850 23.842543
65.855 23.698347
65.860 23.163109
65.865 23.004599
65.870 23.278276
65.875 23.270901
65.880 23.843531
65.885 24.097874
65.890 24.358568
65.895 24.330952
65.900 23.938709
65.905 23.251238
65.910 23.00948
65.915 23.188404
65.920 22.762972
65.925 21.857267
65.930 21.977995
65.935 22.207968
65.940 21.694536
65.945 21.398727
65.950 20.535667
65.955 20.729176
65.960 20.739159
65.965 20.397501
65.970 20.404881
65.975 20.508139
65.980 20.970387
65.985 21.010954
65.990 21.237926
65.995 21.766312
66.000 22.029325
66.005 21.614489
66.010 21.022943
66.015 20.250635
66.020 19.994425
66.025 19.250259
66.030 18.865717
66.035 18.60043
66.040 18.898081
66.045 19.351608
66.050 19.492985
66.055 19.050718
66.060 18.524925
66.065 17.838785
66.070 17.647955
66.075 17.475103
66.080 17.570236
66.085 17.401184
66.090 17.933771
66.095 18.555319
66.100 19.325533
66.105 19.737093
66.110 19.738832
66.115 19.554623
66.120 19.471218
66.125 19.32147
66.130 19.625847
66.135 19.317951
66.140 18.270489
66.145 17.903683
66.150 18.3699
66.155 18.977505
66.160 19.195782
66.165 19.506636
66.170 19.647692
66.175 20.232075
66.180 20.93852
66.185 20.829088
66.190 20.00053
66.195 19.678123
66.200 19.392813
66.205 19.531973
66.210 19.689384
66.215 19.276987
66.220 19.521803
66.225 19.637409
66.230 19.313065
66.235 18.900204
66.240 18.321564
66.245 18.171341
66.250 18.411215
66.255 17.957199
66.260 18.230724
66.265 18.936962
66.270 19.195648
66.275 19.12224
66.280 18.761902
66.285 18.645546
66.290 18.608747
66.295 17.983297
66.300 17.379101
66.305 17.313536
66.310 16.979092
66.315 17.745934
66.320 17.888165
66.325 17.695723
66.330 17.763769
66.335 17.289452
66.340 17.109467
66.345 17.336311
66.350 16.830458
66.355 16.99511
66.360 17.284161
66.365 17.446159
66.370 18.227213
66.375 18.143305
66.380 18.588345
66.385 18.423462
66.390 18.032284
66.395 17.863756
66.400 18.274752
66.405 17.79674
66.410 18.081572
66.415 17.976601
66.420 17.794123
66.425 18.33337
66.430 18.520456
66.435 18.050428
66.440 18.168419
66.445 17.944052
66.450 17.959906
66.455 17.888424
66.460 17.571436
66.465 17.292778
66.470 17.753714
66.475 17.912207
66.480 18.161194
66.485 17.513433
66.490 17.512924
66.495 17.405113
66.500 17.363205
66.505 17.274677
66.510 16.953957
66.515 17.207874
66.520 17.988319
66.525 18.315062
66.530 18.461866
66.535 18.417484
66.540 18.347517
66.545 18.25536
66.550 18.120077
66.555 17.873709
66.560 17.739998
66.565 18.218561
66.570 18.632612
66.575 18.554882
66.580 18.966127
66.585 19.290667
66.590 19.758442
66.595 19.973801
66.600 20.135567
66.605 19.613878
66.610 19.732986
66.615 19.736414
66.620 18.875078
66.625 18.384409
66.630 18.140303
66.635 17.718615
66.640 17.655184
66.645 17.298304
66.650 16.859848
66.655 16.664747
66.660 16.11993
66.665 16.095955
66.670 15.964005
66.675 16.197647
66.680 16.85998
66.685 17.094261
66.690 17.063416
66.695 17.216675
66.700 16.527628
66.705 16.511183
66.710 16.76012
66.715 15.915491
66.720 16.243015
66.725 16.304375
66.730 15.798207
66.735 16.34882
66.740 16.273241
66.745 15.937091
66.750 16.535847
66.755 16.579161
66.760 16.677826
66.765 17.500322
66.770 17.764313
66.775 17.927467
66.780 18.262691
66.785 18.052717
66.790 17.757961
66.795 18.053368
66.800 17.59234
66.805 16.943672
66.810 16.938839
66.815 16.427792
66.820 16.308815
66.825 16.579821
66.830 16.383823
66.835 16.738272
66.840 16.691422
66.845 16.562353
66.850 16.568655
66.855 16.466415
66.860 16.225834
66.865 16.174601
66.870 16.133932
66.875 16.078642
66.880 15.891737
66.885 16.060394
66.890 16.199755
66.895 16.37533
66.900 16.816696
66.905 16.566185
66.910 16.684752
66.915 16.787718
66.920 16.792973
66.925 16.642408
66.930 16.711418
66.935 16.202894
66.940 16.11961
66.945 16.706306
66.950 17.084297
66.955 17.184216
66.960 17.172693
66.965 16.724388
66.970 16.896149
66.975 17.215446
66.980 17.313158
66.985 17.524981
66.990 17.225004
66.995 17.26532
67.000 17.606115
67.005 17.879658
67.010 17.79014
67.015 16.995548
67.020 16.456905
67.025 17.216415
67.030 17.898945
67.035 17.638433
67.040 17.228086
67.045 17.198603
67.050 17.485868
67.055 17.575609
67.060 17.424452
67.065 17.258459
67.070 17.301729
67.075 17.907063
67.080 18.340357
67.085 18.261189
67.090 18.197481
67.095 17.835625
67.100 17.491854
67.105 17.709248
67.110 17.188042
67.115 16.975286
67.120 17.179367
67.125 17.322241
67.130 17.318125
67.135 17.2514
67.140 17.110907
67.145 17.103617
67.150 17.260805
67.155 17.227667
67.160 17.145012
67.165 17.231277
67.170 17.345316
67.175 17.581818
67.180 17.85363
67.185 17.819363
67.190 18.211731
67.195 18.349003
67.200 18.10923
67.205 17.860964
67.210 17.665428
67.215 17.214405
67.220 16.583679
67.225 15.969444
67.230 16.048391
67.235 16.340269
67.240 16.317284
67.245 15.994692
67.250 16.325468
67.255 16.794266
67.260 16.709309
67.265 16.753416
67.270 16.80114
67.275 17.154161
67.280 17.62483
67.285 17.717712
67.290 17.848961
67.295 18.122126
67.300 17.64839
67.305 17.423201
67.310 17.339958
67.315 16.842848
67.320 16.988905
67.325 16.799749
67.330 16.472574
67.335 16.403448
67.340 16.390135
67.345 16.467175
67.350 16.795614
67.355 16.803097
67.360 16.711855
67.365 17.190781
67.370 17.729004
67.375 18.038956
67.380 18.18877
67.385 17.994434
67.390 17.669504
67.395 17.592396
67.400 17.229885
67.405 17.000904
67.410 16.778534
67.415 15.957298
67.420 15.969485
67.425 15.932411
67.430 16.27585
67.435 16.755644
67.440 16.458757
67.445 16.773855
67.450 17.058945
67.455 16.891005
67.460 17.165598
67.465 17.520002
67.470 17.519207
67.475 17.159859
67.480 17.22777
67.485 17.369553
67.490 17.643967
67.495 17.708532
67.500 17.079363
67.505 17.49802
67.510 18.125769
67.515 17.960499
67.520 18.307758
67.525 17.613577
67.530 17.358814
67.535 17.620975
67.540 17.385342
67.545 17.40641
67.550 17.624556
67.555 17.702147
67.560 18.118141
67.565 18.55385
67.570 18.567381
67.575 18.881432
67.580 18.670858
67.585 18.182146
67.590 18.376362
67.595 18.395243
67.600 18.084763
67.605 18.314653
67.610 18.459574
67.615 19.03336
67.620 19.210411
67.625 19.419907
67.630 19.950388
67.635 20.175369
67.640 19.663342
67.645 19.050148
67.650 18.705938
67.655 18.406128
67.660 17.648945
67.665 17.12467
67.670 17.077349
67.675 17.32637
67.680 17.408112
67.685 17.278944
67.690 17.995632
67.695 17.736603
67.700 17.319515
67.705 16.73917
67.710 16.971117
67.715 17.095774
67.720 16.765001
67.725 16.480333
67.730 17.16107
67.735 17.484892
67.740 18.354771
67.745 18.118353
67.750 18.08927
67.755 18.303038
67.760 18.585482
67.765 18.55171
67.770 18.586006
67.775 17.958733
67.780 18.035318
67.785 17.974272
67.790 17.750191
67.795 17.054426
67.800 17.342422
67.805 17.152653
67.810 16.795208
67.815 16.724237
67.820 16.786222
67.825 16.862253
67.830 16.875608
67.835 16.118519
67.840 15.805447
67.845 16.377275
67.850 15.969782
67.855 16.349365
67.860 16.554783
67.865 16.931356
67.870 17.645346
67.875 17.572008
67.880 17.59461
67.885 17.684248
67.890 17.176657
67.895 17.144619
67.900 17.141325
67.905 17.58964
67.910 18.179771
67.915 18.025448
67.920 17.868715
67.925 17.729055
67.930 17.634888
67.935 17.883244
67.940 18.041668
67.945 18.090893
67.950 18.379316
67.955 18.85268
67.960 18.900633
67.965 18.763357
67.970 18.467165
67.975 17.960745
67.980 18.002449
67.985 17.95661
67.990 17.947256
67.995 18.109356
68.000 18.22312
68.005 17.689442
68.010 17.688807
68.015 17.790337
68.020 17.547163
68.025 17.852419
68.030 17.766975
68.035 17.745251
68.040 18.429064
68.045 18.423903
68.050 18.336132
68.055 18.727646
68.060 18.775291
68.065 18.992111
68.070 18.961359
68.075 18.645046
68.080 18.788754
68.085 18.039127
68.090 17.776155
68.095 17.553587
68.100 18.198868
68.105 19.107244
68.110 19.433323
68.115 19.586731
68.120 19.995054
68.125 20.102257
68.130 20.323698
68.135 20.099463
68.140 19.810986
68.145 19.850832
68.150 19.834694
68.155 20.109007
68.160 20.104321
68.165 19.734325
68.170 20.225512
68.175 19.714712
68.180 19.55505
68.185 20.0313
68.190 20.327044
68.195 20.715679
68.200 20.716455
68.205 20.865116
68.210 21.018541
68.215 21.288328
68.220 20.714075
68.225 20.576109
68.230 20.491673
68.235 20.099554
68.240 19.919632
68.245 20.678946
68.250 20.74169
68.255 20.807789
68.260 21.149828
68.265 21.890999
68.270 22.366367
68.275 22.505234
68.280 22.182823
68.285 21.787882
68.290 21.850857
68.295 21.448492
68.300 21.413261
68.305 22.010704
68.310 22.279676
68.315 22.833624
68.320 23.549652
68.325 24.151396
68.330 24.690182
68.335 24.557817
68.340 24.689569
68.345 25.809658
68.350 26.318493
68.355 26.728859
68.360 27.456818
68.365 28.223783
68.370 28.922262
68.375 28.920895
68.380 28.790907
68.385 29.324484
68.390 29.326542
68.395 29.118168
68.400 29.735662
68.405 29.541595
68.410 29.757294
68.415 30.246571
68.420 31.837366
68.425 33.097183
68.430 32.874458
68.435 32.420948
68.440 32.523369
68.445 32.615719
68.450 32.444187
68.455 31.647614
68.460 31.762182
68.465 32.421448
68.470 32.817543
68.475 32.573261
68.480 32.157623
68.485 31.997555
68.490 31.765919
68.495 31.80039
68.500 32.066376
68.505 32.356728
68.510 32.794872
68.515 33.180397
68.520 33.695061
68.525 33.775204
68.530 34.069775
68.535 33.199398
68.540 33.597595
68.545 33.766388
68.550 33.814976
68.555 34.292885
68.560 35.298668
68.565 35.025948
68.570 36.24902
68.575 36.716167
68.580 36.832432
68.585 37.092258
68.590 37.300919
68.595 36.281925
68.600 36.143188
68.605 35.758572
68.610 35.661613
68.615 35.502892
68.620 35.57444
68.625 35.915218
68.630 36.198154
68.635 35.570717
68.640 35.331627
68.645 35.62431
68.650 36.096031
68.655 35.236629
68.660 34.294739
68.665 34.581543
68.670 35.306675
68.675 35.424351
68.680 34.797462
68.685 34.288216
68.690 35.124397
68.695 35.261822
68.700 34.823391
68.705 34.695675
68.710 33.834995
68.715 33.821095
68.720 34.14761
68.725 33.708294
68.730 33.746983
68.735 33.786533
68.740 33.571964
68.745 33.89043
68.750 34.046013
68.755 34.228626
68.760 33.914894
68.765 33.733818
68.770 33.861237
68.775 33.780487
68.780 32.841373
68.785 32.352287
68.790 31.690718
68.795 32.14291
68.800 31.744944
68.805 31.737835
68.810 32.410789
68.815 32.692509
68.820 32.442589
68.825 32.229202
68.830 31.343393
68.835 31.988796
68.840 31.302254
68.845 31.573278
68.850 31.976015
68.855 32.594395
68.860 33.064358
68.865 33.406319
68.870 32.274773
68.875 31.941648
68.880 31.217037
68.885 31.005392
68.890 30.972052
68.895 31.022097
68.900 30.795662
68.905 30.969841
68.910 30.901821
68.915 31.258245
68.920 31.177237
68.925 30.857533
68.930 30.451359
68.935 29.842339
68.940 29.985815
68.945 29.830297
68.950 29.736736
68.955 29.431091
68.960 28.819853
68.965 28.913879
68.970 29.242138
68.975 28.7034
68.980 28.360451
68.985 28.112696
68.990 28.008474
68.995 27.453157
69.000 27.46653
69.005 27.711763
69.010 27.686363
69.015 27.362938
69.020 26.306168
69.025 26.444532
69.030 26.586939
69.035 26.255699
69.040 25.292223
69.045 25.547979
69.050 25.801767
69.055 25.623898
69.060 25.219891
69.065 25.010637
69.070 24.306643
69.075 24.290054
69.080 23.758064
69.085 24.146774
69.090 24.806517
69.095 25.313185
69.100 25.704554
69.105 26.364796
69.110 26.264639
69.115 26.104258
69.120 25.534134
69.125 24.943892
69.130 24.293436
69.135 23.942419
69.140 23.113508
69.145 22.896877
69.150 22.18578
69.155 21.384129
69.160 20.191999
69.165 19.821129
69.170 19.777016
69.175 20.050468
69.180 20.023005
69.185 20.436047
69.190 21.251699
69.195 21.56674
69.200 21.355688
69.205 20.913555
69.210 20.697609
69.215 21.204376
69.220 21.651131
69.225 21.614626
69.230 21.557339
69.235 21.541119
69.240 21.461315
69.245 20.676418
69.250 20.193491
69.255 19.326918
69.260 19.02718
69.265 18.910856
69.270 18.368958
69.275 18.032713
69.280 18.329359
69.285 18.47937
69.290 18.777491
69.295 19.533823
69.300 20.481804
69.305 20.87245
69.310 21.048246
69.315 20.277061
69.320 19.450924
69.325 18.989883
69.330 18.844116
69.335 18.352716
69.340 18.272373
69.345 18.261702
69.350 18.709681
69.355 19.041592
69.360 19.705359
69.365 19.696455
69.370 19.632862
69.375 19.466152
69.380 19.488075
69.385 19.214199
69.390 19.292608
69.395 18.702854
69.400 18.604187
69.405 18.221027
69.410 17.982758
69.415 18.014004
69.420 18.178759
69.425 18.352728
69.430 18.3337
69.435 18.324013
69.440 18.788216
69.445 18.867792
69.450 19.004982
69.455 18.387135
69.460 17.808062
69.465 17.330235
69.470 17.453529
69.475 17.519115
69.480 18.304773
69.485 17.700603
69.490 17.645157
69.495 17.565819
69.500 17.886793
69.505 18.191654
69.510 17.729019
69.515 17.478916
69.520 18.186174
69.525 18.280569
69.530 18.108706
69.535 17.820942
69.540 17.492235
69.545 17.668722
69.550 17.576061
69.555 17.842327
69.560 18.056673
69.565 18.28849
69.570 18.987904
69.575 19.107935
69.580 19.065495
69.585 18.665087
69.590 17.834301
69.595 17.789946
69.600 17.451662
69.605 16.70816
69.610 16.652996
69.615 16.856312
69.620 17.212608
69.625 17.437263
69.630 17.725887
69.635 17.877954
69.640 18.040886
69.645 18.157707
69.650 17.494852
69.655 17.171867
69.660 17.792627
69.665 17.655115
69.670 17.823635
69.675 17.70521
69.680 17.697582
69.685 18.250666
69.690 18.889164
69.695 18.789717
69.700 19.267721
69.705 19.223421
69.710 19.348976
69.715 19.822132
69.720 19.582472
69.725 19.10722
69.730 18.576843
69.735 18.384096
69.740 18.060135
69.745 17.799459
69.750 17.271225
69.755 17.485615
69.760 17.258726
69.765 17.191929
69.770 17.111113
69.775 17.269695
69.780 16.804214
69.785 16.749268
69.790 16.394506
69.795 16.600351
69.800 16.486002
69.805 16.687252
69.810 17.073416
69.815 17.556911
69.820 17.323906
69.825 17.590277
69.830 17.708982
69.835 17.684626
69.840 17.656971
69.845 17.705652
69.850 18.262058
69.855 18.461824
69.860 18.285332
69.865 18.242886
69.870 18.180418
69.875 18.491898
69.880 18.322046
69.885 17.881664
69.890 18.162712
69.895 17.963419
69.900 17.690613
69.905 17.630764
69.910 16.982622
69.915 16.574316
69.920 16.441853
69.925 16.132759
69.930 15.484531
69.935 15.799559
69.940 15.798772
69.945 16.074888
69.950 15.827806
69.955 15.899947
69.960 16.169632
69.965 16.76944
69.970 16.587574
69.975 16.307671
69.980 16.788706
69.985 17.192442
69.990 17.255219
69.995 17.482088
70.000 17.934427
70.005 18.213818
70.010 18.526674
70.015 18.362419
70.020 18.063433
70.025 17.913452
70.030 17.36404
70.035 17.148052
70.040 17.258606
70.045 17.019413
70.050 16.963572
70.055 17.378254
70.060 17.57029
70.065 17.284109
70.070 17.069904
70.075 17.179108
70.080 17.162628
70.085 17.323902
70.090 17.13357
70.095 17.30662
70.100 18.167797
70.105 18.309059
70.110 18.084234
70.115 17.69171
70.120 17.635183
70.125 17.490725
70.130 17.589075
70.135 17.507713
70.140 17.502644
70.145 18.53294
70.150 18.945669
70.155 19.053272
70.160 19.14213
70.165 19.116432
70.170 18.935349
70.175 18.625841
70.180 18.05298
70.185 18.095154
70.190 18.005489
70.195 18.059525
70.200 17.956278
70.205 17.943247
70.210 17.360348
70.215 17.100491
70.220 16.80427
70.225 16.700787
70.230 16.299253
70.235 15.84749
70.240 15.286476
70.245 15.856794
70.250 15.86495
70.255 16.058596
70.260 16.181059
70.265 16.522272
70.270 17.129587
70.275 18.225468
70.280 17.98719
70.285 17.650587
70.290 17.784533
70.295 17.843237
70.300 17.557621
70.305 17.814734
70.310 17.398251
70.315 17.743513
70.320 18.140207
70.325 18.069271
70.330 18.063425
70.335 18.151976
70.340 17.623747
70.345 17.942541
70.350 18.120543
70.355 18.181816
70.360 18.501539
70.365 18.190435
70.370 18.152313
70.375 17.854359
70.380 17.579714
70.385 17.795601
70.390 17.535107
70.395 17.282591
70.400 17.155069
70.405 17.017025
70.410 16.872822
70.415 16.683916
70.420 16.222784
70.425 16.389036
70.430 16.308575
70.435 16.826221
70.440 17.191891
70.445 17.268623
70.450 17.413614
70.455 17.634176
70.460 17.68778
70.465 17.607153
70.470 17.174934
70.475 16.894566
70.480 17.469114
70.485 17.632841
70.490 17.473568
70.495 17.878748
70.500 18.699186
70.505 19.019213
70.510 19.305391
70.515 19.130798
70.520 19.070885
70.525 18.892485
70.530 19.170771
70.535 18.723213
70.540 18.726194
70.545 18.389933
70.550 18.265493
70.555 18.765392
70.560 18.729469
70.565 18.001877
70.570 18.103462
70.575 18.08032
70.580 17.52043
70.585 17.010687
70.590 16.60854
70.595 16.369926
70.600 16.426018
70.605 16.537426
70.610 16.806026
70.615 17.882086
70.620 18.238844
70.625 18.040409
70.630 18.154861
70.635 18.186159
70.640 18.588146
70.645 18.731838
70.650 18.321484
70.655 18.393478
70.660 18.752197
70.665 18.684141
70.670 18.114201
70.675 17.590014
70.680 17.630568
70.685 17.537876
70.690 17.638647
70.695 17.304882
70.700 18.114164
70.705 18.602715
70.710 18.723797
70.715 18.907047
70.720 19.795895
70.725 19.592064
70.730 19.466175
70.735 18.722677
70.740 18.106976
70.745 18.122139
70.750 17.343779
70.755 16.258358
70.760 16.417761
70.765 16.828928
70.770 17.022417
70.775 17.082085
70.780 16.801207
70.785 16.769886
70.790 17.080952
70.795 16.603874
70.800 16.653816
70.805 16.472593
70.810 16.488134
70.815 16.896379
70.820 17.590687
70.825 17.269104
70.830 17.402304
70.835 17.163246
70.840 17.053335
70.845 16.979853
70.850 16.745636
70.855 16.562004
70.860 16.708031
70.865 16.94953
70.870 17.067129
70.875 17.353897
70.880 17.860563
70.885 17.993095
70.890 17.47628
70.895 17.435806
70.900 17.308468
70.905 17.432381
70.910 17.291534
70.915 17.2936
70.920 17.461712
70.925 18.51063
70.930 18.803139
70.935 19.487391
70.940 20.043898
70.945 20.434484
70.950 20.317585
70.955 20.06127
70.960 19.31115
70.965 18.805538
70.970 18.063395
70.975 18.05423
70.980 17.740953
70.985 16.696321
70.990 16.341364
70.995 16.092377
71.000 15.903551
71.005 15.427979
71.010 14.991788
71.015 15.266062
71.020 16.027597
71.025 17.275642
71.030 17.770826
71.035 17.962637
71.040 17.987242
71.045 17.942961
71.050 18.336086
71.055 18.605
71.060 17.924625
71.065 18.286913
71.070 18.339491
71.075 18.333542
71.080 17.935863
71.085 17.402882
71.090 17.744211
71.095 17.792774
71.100 17.662891
71.105 18.113832
71.110 18.174828
71.115 18.541245
71.120 18.517179
71.125 18.127357
71.130 18.076571
71.135 17.914129
71.140 17.851774
71.145 17.949949
71.150 17.602495
71.155 17.79421
71.160 17.281824
71.165 17.19083
71.170 17.530714
71.175 17.04907
71.180 17.299789
71.185 17.536545
71.190 17.246389
71.195 18.097473
71.200 18.468311
71.205 18.052877
71.210 18.119692
71.215 17.736164
71.220 17.88847
71.225 17.44478
71.230 16.537447
71.235 15.974816
71.240 16.254187
71.245 16.591293
71.250 17.014385
71.255 17.025593
71.260 17.143032
71.265 17.316725
71.270 18.126247
71.275 18.15321
71.280 18.358391
71.285 17.966446
71.290 18.039385
71.295 18.523727
71.300 18.921692
71.305 18.161396
71.310 17.687271
71.315 17.63998
71.320 17.915686
71.325 17.785282
71.330 17.454069
71.335 16.620134
71.340 16.771812
71.345 17.122986
71.350 17.186796
71.355 16.98679
71.360 16.686108
71.365 16.566149
71.370 16.681286
71.375 16.879124
71.380 16.854534
71.385 16.339794
71.390 16.358381
71.395 16.493414
71.400 16.917303
71.405 17.326313
71.410 17.376522
71.415 17.346676
71.420 17.645306
71.425 17.679485
71.430 17.93832
71.435 17.521198
71.440 16.904554
71.445 16.62907
71.450 17.038218
71.455 16.957687
71.460 17.150143
71.465 17.91301
71.470 18.382097
71.475 18.48641
71.480 18.314177
71.485 18.504028
71.490 18.362434
71.495 17.710312
71.500 17.156368
71.505 17.22909
71.510 17.48802
71.515 17.200052
71.520 17.288454
71.525 17.627899
71.530 17.43692
71.535 17.007517
71.540 16.962292
71.545 17.475067
71.550 17.591213
71.555 17.552696
71.560 17.481764
71.565 17.799171
71.570 17.677139
71.575 17.425726
71.580 16.52314
71.585 15.912473
71.590 16.185652
71.595 16.516142
71.600 16.585344
71.605 16.789934
71.610 16.679169
71.615 17.401474
71.620 17.779196
71.625 17.336941
71.630 17.41914
71.635 17.730034
71.640 17.885294
71.645 18.111706
71.650 17.960222
71.655 17.632261
71.660 17.625755
71.665 17.002501
71.670 16.661909
71.675 16.905899
71.680 16.544239
71.685 16.373259
71.690 16.975391
71.695 17.01594
71.700 16.893641
71.705 16.774977
71.710 16.313448
71.715 16.567165
71.720 16.785065
71.725 16.647871
71.730 16.999647
71.735 17.326487
71.740 17.553314
71.745 17.870323
71.750 18.255911
71.755 18.554735
71.760 17.929363
71.765 17.740082
71.770 18.009422
71.775 18.031277
71.780 17.950027
71.785 17.156219
71.790 16.580553
71.795 16.968967
71.800 17.438234
71.805 17.551527
71.810 17.436516
71.815 17.003839
71.820 17.26738
71.825 17.758184
71.830 17.590765
71.835 17.339031
71.840 17.215124
71.845 17.217724
71.850 17.67061
71.855 17.540665
71.860 17.357616
71.865 17.606634
71.870 17.240396
71.875 17.919825
71.880 18.009136
71.885 17.974545
71.890 18.363369
71.895 18.270573
71.900 17.802616
71.905 17.516853
71.910 17.277
71.915 17.652994
71.920 17.660725
71.925 17.188383
71.930 17.281956
71.935 17.588144
71.940 18.260601
71.945 18.144554
71.950 17.599297
71.955 17.701977
71.960 17.856491
71.965 18.002817
71.970 17.62096
71.975 16.362062
71.980 16.444975
71.985 16.758615
71.990 17.065693
71.995 16.391619
72.000 16.232975
72.005 16.390974
72.010 16.951035
72.015 16.618593
72.020 16.126436
72.025 16.201338
72.030 16.817446
72.035 17.222937
72.040 17.450315
72.045 17.502657
72.050 17.178078
72.055 16.708904
72.060 16.302956
72.065 15.804597
72.070 15.196748
72.075 14.605408
72.080 15.058935
72.085 15.803389
72.090 16.131725
72.095 16.061899
72.100 16.552073
72.105 17.49151
72.110 17.56632
72.115 16.895346
72.120 17.70517
72.125 18.233721
72.130 18.226786
72.135 18.070711
72.140 17.922832
72.145 18.222919
72.150 18.345268
72.155 17.661045
72.160 18.036184
72.165 18.687681
72.170 18.780445
72.175 18.560879
72.180 18.354795
72.185 18.344168
72.190 17.861385
72.195 17.112154
72.200 16.45442
72.205 16.15983
72.210 16.435328
72.215 16.510845
72.220 16.201073
72.225 15.851635
72.230 15.823681
72.235 15.984151
72.240 16.266323
72.245 16.576105
72.250 17.502934
72.255 17.961924
72.260 18.521515
72.265 18.703461
72.270 18.680813
72.275 18.784666
72.280 18.152161
72.285 17.920982
72.290 18.543102
72.295 18.295547
72.300 17.947517
72.305 17.556715
72.310 17.357378
72.315 17.413168
72.320 17.440914
72.325 17.492455
72.330 18.140842
72.335 18.321348
72.340 18.833279
72.345 18.734385
72.350 17.895538
72.355 16.870897
72.360 16.958946
72.365 16.51185
72.370 16.780588
72.375 16.780399
72.380 17.069344
72.385 17.733295
72.390 17.484728
72.395 17.578306
72.400 17.784595
72.405 17.255821
72.410 16.887728
72.415 17.200171
72.420 17.381529
72.425 17.607004
72.430 17.098688
72.435 16.808504
72.440 17.258076
72.445 17.084221
72.450 16.262825
72.455 16.395544
72.460 16.373701
72.465 16.531773
72.470 16.132696
72.475 15.777551
72.480 16.602581
72.485 16.856228
72.490 16.763613
72.495 16.02622
72.500 16.387457
72.505 17.041941
72.510 17.091219
72.515 17.263235
72.520 17.909945
72.525 18.476709
72.530 18.720669
72.535 18.560158
72.540 19.035107
72.545 18.191122
72.550 17.772924
72.555 17.017332
72.560 17.21524
72.565 17.265951
72.570 16.604326
72.575 16.754658
72.580 17.209806
72.585 16.946342
72.590 16.569904
72.595 16.932167
72.600 17.181843
72.605 17.459316
72.610 17.465273
72.615 17.709719
72.620 18.705849
72.625 18.341097
72.630 17.687559
72.635 17.459053
72.640 16.941458
72.645 16.863008
72.650 16.328712
72.655 15.805013
72.660 16.340076
72.665 16.372225
72.670 16.299927
72.675 16.245253
72.680 16.120621
72.685 16.134745
72.690 15.984733
72.695 16.285797
72.700 16.963396
72.705 17.224661
72.710 17.289309
72.715 17.169773
72.720 17.263506
72.725 17.600796
72.730 16.846464
72.735 15.951214
72.740 16.158693
72.745 16.242439
72.750 16.189562
72.755 16.133411
72.760 15.886965
72.765 16.564857
72.770 16.937689
72.775 16.804995
72.780 17.079254
72.785 17.131212
72.790 16.897446
72.795 16.195042
72.800 15.817706
72.805 15.666079
72.810 15.686797
72.815 15.185271
72.820 15.006801
72.825 15.465815
72.830 16.072355
72.835 16.070808
72.840 16.031719
72.845 16.112314
72.850 16.335543
72.855 16.313595
72.860 15.785819
72.865 15.825177
72.870 16.045792
72.875 16.133276
72.880 15.876363
72.885 16.054176
72.890 16.2026
72.895 16.616016
72.900 16.423748
72.905 15.822556
72.910 15.529584
72.915 15.526451
72.920 15.817684
72.925 15.657332
72.930 15.176262
72.935 15.878137
72.940 16.483112
72.945 16.969824
72.950 16.592028
72.955 16.64212
72.960 17.401672
72.965 17.236906
72.970 16.765432
72.975 16.694513
72.980 17.037064
72.985 16.969032
72.990 16.486771
72.995 15.9562
73.000 16.205351
