!@!!GADDS PLOTSO FILE: Chi integration type
!@!!Title/SampleName: map-dd
!@!!Comment: ?
!@!!User: Bruker Instrument Administrator
!@!!Site: University of Illinois Chicago
!@!!Frame: map-dd_01_000.gfrm
!@!!Wavelengths    1.54184   1.54056   1.54439
!@!!Frame angles: 2Theta: 63.000 Omega: 50.000 Phi: 0.000 Chi: 90.000
!@!!Integration range: 2Theta: 53.000 to 73.000  Gamma: -105.000 to -75.000
!@!!Integration method: bin normalized
!@!N
!@!SS
!@!M
!@!L 0.0 0.0 0.0 0.0
!@!XDegrees
!@!YCounts
53.000 9.26038
53.005 8.955824
53.010 9.078302
53.015 8.716951
53.020 8.718269
53.025 8.22288
53.030 8.221348
53.035 8.451686
53.040 8.692708
53.045 8.961771
53.050 9.040229
53.055 8.959224
53.060 9.027248
53.065 8.586669
53.070 8.585387
53.075 8.235591
53.080 8.268746
53.085 8.181974
53.090 8.418591
53.095 8.556323
53.100 8.799203
53.105 9.270382
53.110 9.256746
53.115 9.025643
53.120 8.763925
53.125 8.293958
53.130 8.618927
53.135 8.133554
53.140 7.802936
53.145 8.03636
53.150 8.491132
53.155 8.794905
53.160 9.143942
53.165 9.016903
53.170 9.065638
53.175 8.823726
53.180 8.240616
53.185 7.783742
53.190 7.518133
53.195 7.409675
53.200 7.799645
53.205 8.249962
53.210 8.628174
53.215 9.293668
53.220 9.583958
53.225 9.396936
53.230 9.441138
53.235 9.082273
53.240 9.114092
53.245 9.110422
53.250 9.174267
53.255 9.290421
53.260 9.557793
53.265 9.571537
53.270 9.805561
53.275 9.896406
53.280 10.1699
53.285 10.061082
53.290 10.115289
53.295 10.012581
53.300 9.992544
53.305 9.53888
53.310 9.126417
53.315 8.910221
53.320 8.53298
53.325 8.357408
53.330 8.159579
53.335 8.138661
53.340 8.146761
53.345 8.059347
53.350 7.905292
53.355 8.233064
53.360 7.831534
53.365 7.889757
53.370 7.923413
53.375 7.895538
53.380 8.06533
53.385 8.776883
53.390 9.004424
53.395 9.07747
53.400 8.813641
53.405 8.896497
53.410 9.139832
53.415 9.365355
53.420 8.984171
53.425 8.86616
53.430 9.33091
53.435 9.89064
53.440 10.181255
53.445 10.190071
53.450 10.021471
53.455 10.205227
53.460 10.019897
53.465 9.957286
53.470 9.676579
53.475 9.300956
53.480 8.93255
53.485 8.79927
53.490 8.703514
53.495 8.774743
53.500 8.746351
53.505 8.846773
53.510 9.370337
53.515 9.642351
53.520 10.177692
53.525 10.647531
53.530 10.714491
53.535 10.692924
53.540 10.368249
53.545 9.966778
53.550 9.914357
53.555 9.288464
53.560 8.916648
53.565 8.82132
53.570 8.548307
53.575 8.585035
53.580 8.555815
53.585 8.453086
53.590 8.874901
53.595 9.091204
53.600 8.826623
53.605 9.006727
53.610 9.354774
53.615 9.412753
53.620 9.632961
53.625 9.662018
53.630 9.921143
53.635 10.035055
53.640 9.975622
53.645 10.114539
53.650 10.357586
53.655 10.055836
53.660 9.990767
53.665 9.983644
53.670 10.394775
53.675 10.003675
53.680 9.469031
53.685 9.371784
53.690 9.373024
53.695 9.365846
53.700 9.438916
53.705 9.562348
53.710 9.289054
53.715 9.141836
53.720 9.100218
53.725 8.906574
53.730 8.774433
53.735 8.800564
53.740 8.828953
53.745 9.295879
53.750 9.436021
53.755 9.775345
53.760 10.23306
53.765 10.326968
53.770 10.256708
53.775 10.138863
53.780 10.420185
53.785 10.377962
53.790 10.417169
53.795 10.258483
53.800 10.384685
53.805 10.357647
53.810 9.921379
53.815 9.320671
53.820 9.230648
53.825 9.494859
53.830 9.955214
53.835 9.906349
53.840 10.142484
53.845 10.618519
53.850 11.143841
53.855 11.304025
53.860 11.600864
53.865 11.577925
53.870 11.883327
53.875 11.992694
53.880 11.85208
53.885 11.579946
53.890 11.122894
53.895 9.98211
53.900 9.48979
53.905 9.197025
53.910 9.68495
53.915 10.19324
53.920 9.987246
53.925 9.634164
53.930 9.688708
53.935 10.142469
53.940 10.036227
53.945 9.60303
53.950 9.584155
53.955 9.945462
53.960 10.335642
53.965 10.521051
53.970 10.159117
53.975 10.198262
53.980 9.812341
53.985 9.878227
53.990 10.230622
53.995 10.960361
54.000 10.693073
54.005 10.786656
54.010 10.997778
54.015 11.292506
54.020 11.19904
54.025 10.944896
54.030 10.967266
54.035 11.111276
54.040 11.276915
54.045 11.279661
54.050 10.879419
54.055 11.276288
54.060 10.920026
54.065 10.266952
54.070 10.309179
54.075 9.956802
54.080 10.2776
54.085 10.642271
54.090 10.829531
54.095 11.079374
54.100 11.109971
54.105 10.747924
54.110 10.738478
54.115 10.399917
54.120 10.01076
54.125 9.894724
54.130 9.55822
54.135 9.670316
54.140 10.064083
54.145 10.08884
54.150 10.187616
54.155 10.094904
54.160 10.478387
54.165 10.887352
54.170 11.189237
54.175 11.088231
54.180 11.340791
54.185 11.284578
54.190 11.104274
54.195 11.133753
54.200 10.577456
54.205 10.697799
54.210 10.871562
54.215 10.694988
54.220 10.659662
54.225 10.764577
54.230 10.638713
54.235 11.27188
54.240 10.677888
54.245 10.281152
54.250 10.33439
54.255 10.544659
54.260 10.375791
54.265 9.88783
54.270 9.612513
54.275 9.584812
54.280 9.560887
54.285 9.682256
54.290 9.475959
54.295 9.658381
54.300 9.879045
54.305 10.128417
54.310 10.480289
54.315 10.702938
54.320 11.181435
54.325 11.539919
54.330 11.552635
54.335 11.796911
54.340 11.736423
54.345 11.847455
54.350 11.840441
54.355 11.269105
54.360 10.65172
54.365 10.562396
54.370 10.384416
54.375 10.153965
54.380 9.572126
54.385 9.015801
54.390 9.333618
54.395 9.991938
54.400 10.198457
54.405 10.499328
54.410 10.924451
54.415 10.955839
54.420 11.194969
54.425 11.10997
54.430 10.691782
54.435 10.079341
54.440 9.690765
54.445 9.613393
54.450 9.567822
54.455 9.325566
54.460 9.089128
54.465 9.122818
54.470 9.443731
54.475 9.484807
54.480 9.540423
54.485 9.769711
54.490 10.160557
54.495 10.254668
54.500 10.373318
54.505 10.409705
54.510 10.619381
54.515 10.388401
54.520 10.364448
54.525 9.992705
54.530 9.679184
54.535 9.49507
54.540 9.199046
54.545 9.086739
54.550 9.541418
54.555 9.399407
54.560 9.705991
54.565 9.995065
54.570 10.426673
54.575 10.995398
54.580 11.586808
54.585 11.88045
54.590 11.784514
54.595 11.970612
54.600 12.114354
54.605 12.029532
54.610 11.572489
54.615 11.06726
54.620 11.277392
54.625 11.509219
54.630 10.931349
54.635 10.463582
54.640 10.247499
54.645 10.430307
54.650 10.047379
54.655 9.876427
54.660 10.247674
54.665 10.814807
54.670 11.205576
54.675 11.460988
54.680 11.819572
54.685 12.360677
54.690 12.391074
54.695 12.560967
54.700 12.526853
54.705 12.442183
54.710 11.99722
54.715 11.940839
54.720 11.714622
54.725 11.375113
54.730 10.99955
54.735 10.585859
54.740 10.93294
54.745 11.688914
54.750 11.661641
54.755 11.813651
54.760 12.140798
54.765 12.170631
54.770 12.537182
54.775 12.231273
54.780 11.42805
54.785 10.903501
54.790 10.285047
54.795 9.478716
54.800 9.169138
54.805 8.793839
54.810 8.855783
54.815 9.010165
54.820 9.219953
54.825 9.956969
54.830 10.080338
54.835 9.846611
54.840 9.878635
54.845 9.90454
54.850 9.893934
54.855 9.417706
54.860 9.342205
54.865 9.746882
54.870 10.457393
54.875 10.70286
54.880 10.964393
54.885 11.156624
54.890 11.798141
54.895 11.796691
54.900 11.781274
54.905 11.389553
54.910 11.302699
54.915 11.548635
54.920 11.536152
54.925 11.526155
54.930 11.685328
54.935 11.898429
54.940 12.349602
54.945 12.362916
54.950 12.442406
54.955 12.237483
54.960 11.981188
54.965 11.998837
54.970 11.839444
54.975 11.417154
54.980 11.151178
54.985 10.961363
54.990 10.96326
54.995 10.988377
55.000 10.575089
55.005 10.494579
55.010 10.684463
55.015 10.764424
55.020 10.633813
55.025 10.555423
55.030 10.7609
55.035 10.987496
55.040 10.903713
55.045 10.873674
55.050 10.584527
55.055 10.909166
55.060 11.546347
55.065 11.433584
55.070 11.505247
55.075 11.273228
55.080 11.327652
55.085 11.685618
55.090 12.01098
55.095 12.039976
55.100 12.627145
55.105 12.401971
55.110 12.207786
55.115 11.888969
55.120 11.767764
55.125 11.310601
55.130 10.895439
55.135 10.946528
55.140 11.162335
55.145 11.285581
55.150 11.487847
55.155 11.30275
55.160 11.107788
55.165 11.130602
55.170 10.821634
55.175 11.10392
55.180 11.255385
55.185 11.149888
55.190 11.050977
55.195 11.492883
55.200 11.328971
55.205 11.946973
55.210 12.101389
55.215 12.01582
55.220 12.738734
55.225 13.098289
55.230 13.128131
55.235 12.958225
55.240 12.325664
55.245 12.482791
55.250 12.417521
55.255 11.580118
55.260 11.3956
55.265 11.096814
55.270 10.968228
55.275 10.806005
55.280 10.534554
55.285 10.549029
55.290 10.484333
55.295 10.344819
55.300 10.411783
55.305 10.219368
55.310 10.27609
55.315 10.500818
55.320 11.093104
55.325 11.643272
55.330 12.109802
55.335 12.507941
55.340 12.964278
55.345 13.193138
55.350 13.27828
55.355 12.287973
55.360 11.687349
55.365 11.379003
55.370 11.796372
55.375 11.955167
55.380 11.870418
55.385 11.472487
55.390 11.684171
55.395 12.076751
55.400 11.997912
55.405 11.778546
55.410 11.531288
55.415 11.142977
55.420 11.722077
55.425 11.609628
55.430 11.346751
55.435 11.194331
55.440 11.495206
55.445 11.743969
55.450 11.897297
55.455 11.648174
55.460 12.094228
55.465 12.428213
55.470 13.017822
55.475 12.951281
55.480 12.940473
55.485 13.133393
55.490 13.2704
55.495 13.206427
55.500 13.072318
55.505 12.87901
55.510 12.534972
55.515 12.358911
55.520 11.999282
55.525 11.911208
55.530 11.295244
55.535 10.683615
55.540 10.569618
55.545 10.486971
55.550 10.882801
55.555 11.352011
55.560 11.443327
55.565 11.861787
55.570 11.849178
55.575 11.747684
55.580 11.772932
55.585 11.744051
55.590 11.503497
55.595 11.696014
55.600 11.655858
55.605 11.771255
55.610 11.648397
55.615 11.33572
55.620 11.259567
55.625 11.482943
55.630 11.617195
55.635 11.743823
55.640 11.661816
55.645 11.763205
55.650 11.682904
55.655 11.62928
55.660 11.520725
55.665 11.217608
55.670 11.505787
55.675 11.259401
55.680 11.319982
55.685 11.515562
55.690 11.147774
55.695 10.878362
55.700 10.911355
55.705 10.516685
55.710 10.734926
55.715 10.989731
55.720 11.505076
55.725 11.991207
55.730 12.069019
55.735 11.893227
55.740 12.470016
55.745 12.942368
55.750 13.078259
55.755 12.554915
55.760 12.500704
55.765 12.746297
55.770 13.803843
55.775 13.833646
55.780 13.845872
55.785 13.96578
55.790 14.261225
55.795 14.404082
55.800 14.244414
55.805 12.904837
55.810 13.096988
55.815 12.820511
55.820 12.705109
55.825 12.602428
55.830 12.364538
55.835 12.152597
55.840 12.873047
55.845 12.770785
55.850 12.495236
55.855 12.181449
55.860 12.061408
55.865 12.58497
55.870 13.070417
55.875 12.324945
55.880 12.328045
55.885 12.864902
55.890 13.125383
55.895 12.907875
55.900 12.57847
55.905 12.340163
55.910 12.603527
55.915 12.094506
55.920 11.389072
55.925 11.533284
55.930 11.611209
55.935 11.680397
55.940 12.008685
55.945 12.364166
55.950 12.831161
55.955 12.892889
55.960 12.96272
55.965 13.048489
55.970 13.138009
55.975 12.853763
55.980 12.341912
55.985 12.076852
55.990 12.500676
55.995 12.409062
56.000 12.046368
56.005 12.147692
56.010 12.103468
56.015 11.94136
56.020 11.99804
56.025 12.237494
56.030 12.658995
56.035 12.8332
56.040 12.933601
56.045 13.168312
56.050 13.489703
56.055 13.541268
56.060 13.084993
56.065 13.17125
56.070 13.257876
56.075 12.915955
56.080 13.100618
56.085 13.220907
56.090 12.974375
56.095 13.314521
56.100 13.2172
56.105 13.126109
56.110 12.790758
56.115 12.245202
56.120 12.341322
56.125 12.347416
56.130 11.819715
56.135 11.514609
56.140 11.583439
56.145 11.821514
56.150 11.729388
56.155 12.061773
56.160 12.125529
56.165 12.31326
56.170 12.501826
56.175 12.45255
56.180 12.628818
56.185 12.600298
56.190 11.860733
56.195 11.729184
56.200 11.497388
56.205 11.223569
56.210 11.221433
56.215 11.445217
56.220 11.751478
56.225 12.110097
56.230 12.582176
56.235 13.222076
56.240 13.56294
56.245 13.679605
56.250 13.753392
56.255 13.640897
56.260 13.946901
56.265 13.37173
56.270 13.266197
56.275 13.185495
56.280 12.780956
56.285 12.907843
56.290 12.896688
56.295 12.80628
56.300 13.066044
56.305 12.88561
56.310 13.227021
56.315 13.541969
56.320 13.602859
56.325 13.811196
56.330 13.944301
56.335 13.974482
56.340 13.846984
56.345 13.613938
56.350 13.143826
56.355 13.00289
56.360 13.284212
56.365 13.182611
56.370 13.183437
56.375 13.075054
56.380 13.261832
56.385 14.383913
56.390 14.332436
56.395 13.769732
56.400 13.841521
56.405 13.710714
56.410 13.742065
56.415 13.522461
56.420 12.991964
56.425 12.833749
56.430 13.040449
56.435 12.994004
56.440 12.9913
56.445 13.282716
56.450 13.356274
56.455 13.004683
56.460 13.153564
56.465 13.073677
56.470 13.027677
56.475 13.212838
56.480 13.161994
56.485 13.05254
56.490 13.702136
56.495 13.898559
56.500 14.2319
56.505 14.294231
56.510 14.274932
56.515 14.341011
56.520 14.234698
56.525 13.775445
56.530 13.624581
56.535 14.062127
56.540 14.590854
56.545 14.550493
56.550 14.659197
56.555 14.897511
56.560 15.152611
56.565 14.240614
56.570 13.530059
56.575 12.952911
56.580 12.539491
56.585 11.930094
56.590 11.441127
56.595 11.864717
56.600 12.356634
56.605 12.455997
56.610 13.23928
56.615 13.4285
56.620 13.296153
56.625 13.521247
56.630 13.444024
56.635 13.435375
56.640 12.848173
56.645 12.12316
56.650 12.382739
56.655 12.774908
56.660 13.191139
56.665 13.431348
56.670 13.12257
56.675 13.869781
56.680 14.143449
56.685 14.515231
56.690 14.414615
56.695 14.235626
56.700 14.123628
56.705 14.160377
56.710 14.034246
56.715 13.762943
56.720 14.029872
56.725 14.198065
56.730 13.481007
56.735 12.952641
56.740 13.532099
56.745 13.868407
56.750 14.03357
56.755 13.367528
56.760 13.584068
56.765 14.327332
56.770 14.659863
56.775 14.228746
56.780 14.229755
56.785 14.210374
56.790 14.262334
56.795 13.92486
56.800 13.604915
56.805 13.788423
56.810 13.640766
56.815 13.127711
56.820 13.264633
56.825 13.866548
56.830 13.659377
56.835 13.402223
56.840 13.115488
56.845 13.056887
56.850 13.18337
56.855 13.023611
56.860 12.808794
56.865 13.253343
56.870 14.070579
56.875 14.828535
56.880 15.29328
56.885 15.528657
56.890 15.148557
56.895 15.100366
56.900 15.395051
56.905 15.057794
56.910 15.051209
56.915 15.151335
56.920 15.149282
56.925 15.36473
56.930 15.177686
56.935 14.446614
56.940 14.203342
56.945 13.467132
56.950 13.20201
56.955 13.342733
56.960 13.764234
56.965 13.828815
56.970 13.449091
56.975 13.841289
56.980 14.39755
56.985 14.657355
56.990 14.434299
56.995 14.196393
57.000 14.778673
57.005 15.347233
57.010 14.517377
57.015 13.832338
57.020 13.598898
57.025 13.581296
57.030 12.971599
57.035 12.401074
57.040 12.473593
57.045 12.411077
57.050 12.496799
57.055 12.474665
57.060 12.468575
57.065 12.765213
57.070 12.804772
57.075 12.777453
57.080 13.175302
57.085 13.254573
57.090 13.171902
57.095 12.760044
57.100 12.572054
57.105 12.232117
57.110 12.392005
57.115 12.113565
57.120 12.096112
57.125 12.497518
57.130 12.936104
57.135 13.393157
57.140 13.448259
57.145 13.62686
57.150 14.237783
57.155 14.415865
57.160 14.1811
57.165 13.955422
57.170 13.774089
57.175 14.316189
57.180 14.901728
57.185 15.060158
57.190 14.774572
57.195 15.088598
57.200 15.520241
57.205 15.078607
57.210 14.66763
57.215 13.365447
57.220 12.914712
57.225 13.416157
57.230 12.938621
57.235 12.853284
57.240 13.037555
57.245 12.627786
57.250 12.967609
57.255 12.912797
57.260 12.864541
57.265 13.034686
57.270 13.174741
57.275 13.308577
57.280 14.066385
57.285 14.163102
57.290 14.711531
57.295 15.125068
57.300 14.85667
57.305 14.800934
57.310 14.579926
57.315 13.832864
57.320 13.65632
57.325 12.504554
57.330 12.437722
57.335 12.984259
57.340 13.042236
57.345 13.142506
57.350 13.483395
57.355 13.780544
57.360 14.009613
57.365 13.49736
57.370 13.098802
57.375 13.323671
57.380 13.516304
57.385 13.166636
57.390 12.971663
57.395 13.190549
57.400 13.616572
57.405 13.778296
57.410 13.931084
57.415 14.607305
57.420 14.791878
57.425 14.881934
57.430 14.796966
57.435 14.914837
57.440 14.966242
57.445 14.63085
57.450 14.201699
57.455 14.797675
57.460 15.017796
57.465 14.807572
57.470 14.430788
57.475 14.26132
57.480 14.144349
57.485 14.275673
57.490 13.803433
57.495 13.75017
57.500 13.785096
57.505 14.071858
57.510 14.285883
57.515 13.899846
57.520 13.806487
57.525 13.928421
57.530 13.760438
57.535 13.523114
57.540 13.382781
57.545 13.760038
57.550 14.261985
57.555 13.836615
57.560 13.897481
57.565 14.508222
57.570 14.626432
57.575 14.67997
57.580 14.105996
57.585 14.044049
57.590 14.554737
57.595 14.48415
57.600 14.177531
57.605 14.353502
57.610 13.772717
57.615 14.001928
57.620 13.849304
57.625 13.625057
57.630 14.241786
57.635 13.87659
57.640 13.774089
57.645 13.948603
57.650 14.16984
57.655 14.65177
57.660 14.866996
57.665 14.901452
57.670 14.797992
57.675 14.692613
57.680 14.575669
57.685 14.015581
57.690 13.679405
57.695 13.517099
57.700 13.583531
57.705 14.025657
57.710 14.745944
57.715 15.12358
57.720 15.29929
57.725 14.90839
57.730 14.595028
57.735 14.265038
57.740 14.121082
57.745 13.493074
57.750 13.394135
57.755 13.807884
57.760 14.719928
57.765 14.985105
57.770 14.494394
57.775 14.328164
57.780 14.473929
57.785 14.240115
57.790 14.041841
57.795 13.319505
57.800 13.283242
57.805 13.60548
57.810 13.791749
57.815 14.429205
57.820 14.725755
57.825 14.581849
57.830 14.520775
57.835 14.654188
57.840 14.664942
57.845 14.942768
57.850 14.43138
57.855 14.281646
57.860 14.237585
57.865 14.442281
57.870 14.493395
57.875 14.589522
57.880 14.460807
57.885 14.513515
57.890 14.500451
57.895 14.493015
57.900 14.785391
57.905 14.455107
57.910 14.606222
57.915 14.685498
57.920 15.008778
57.925 15.54642
57.930 15.584065
57.935 15.220779
57.940 15.459469
57.945 15.733995
57.950 15.833161
57.955 15.478121
57.960 14.852201
57.965 14.527414
57.970 14.885817
57.975 14.727009
57.980 14.536226
57.985 14.612025
57.990 15.036077
57.995 15.712344
58.000 16.065672
58.005 15.952318
58.010 15.674439
58.015 15.347767
58.020 15.28042
58.025 14.927037
58.030 14.6617
58.035 14.686368
58.040 14.687094
58.045 15.139608
58.050 14.961543
58.055 14.991293
58.060 14.947028
58.065 15.296868
58.070 15.295046
58.075 15.114888
58.080 15.057355
58.085 15.013426
58.090 15.122774
58.095 14.891303
58.100 14.843301
58.105 15.431899
58.110 15.577529
58.115 15.370127
58.120 15.153519
58.125 15.152687
58.130 14.990002
58.135 14.454607
58.140 14.044693
58.145 14.347077
58.150 14.580716
58.155 14.57296
58.160 14.886354
58.165 14.964796
58.170 15.245357
58.175 15.363025
58.180 15.443075
58.185 15.509005
58.190 15.526763
58.195 15.054297
58.200 15.262735
58.205 15.019615
58.210 14.762044
58.215 14.608943
58.220 14.747468
58.225 14.759918
58.230 14.611019
58.235 14.607617
58.240 14.82214
58.245 14.58932
58.250 13.850976
58.255 13.852126
58.260 13.72368
58.265 13.627757
58.270 13.07205
58.275 12.859076
58.280 13.080647
58.285 13.678215
58.290 14.007927
58.295 14.688013
58.300 15.092869
58.305 15.129273
58.310 14.769955
58.315 14.097945
58.320 14.154627
58.325 13.578789
58.330 12.973753
58.335 13.347314
58.340 13.566697
58.345 14.441809
58.350 15.540708
58.355 15.794935
58.360 16.093731
58.365 17.018593
58.370 16.62162
58.375 16.613388
58.380 16.554365
58.385 16.099638
58.390 15.219232
58.395 15.172361
58.400 14.550389
58.405 15.053601
58.410 15.018089
58.415 14.706427
58.420 15.239938
58.425 15.449623
58.430 15.561918
58.435 15.611116
58.440 15.407772
58.445 16.080355
58.450 15.84202
58.455 15.236263
58.460 15.433537
58.465 15.821527
58.470 15.945667
58.475 15.622274
58.480 15.037397
58.485 15.357483
58.490 15.79312
58.495 15.987436
58.500 15.472358
58.505 15.741855
58.510 15.948054
58.515 16.588581
58.520 16.814613
58.525 17.351189
58.530 17.489819
58.535 17.702778
58.540 17.369411
58.545 17.02453
58.550 16.089098
58.555 15.75954
58.560 15.197725
58.565 15.095868
58.570 14.993689
58.575 14.92302
58.580 14.578977
58.585 14.871919
58.590 14.678765
58.595 14.546212
58.600 14.221702
58.605 14.356223
58.610 14.562993
58.615 14.746131
58.620 14.714236
58.625 14.665467
58.630 14.699246
58.635 14.66607
58.640 15.317978
58.645 15.45537
58.650 15.322153
58.655 15.700931
58.660 16.292534
58.665 16.582823
58.670 16.263592
58.675 15.865968
58.680 15.927387
58.685 16.261885
58.690 16.097551
58.695 15.847965
58.700 15.587831
58.705 16.02405
58.710 16.023081
58.715 16.251795
58.720 16.057482
58.725 16.599201
58.730 16.816397
58.735 17.017466
58.740 16.770405
58.745 16.499208
58.750 16.44849
58.755 16.608368
58.760 15.790756
58.765 15.297573
58.770 14.89917
58.775 15.109549
58.780 15.564114
58.785 15.316275
58.790 14.96742
58.795 15.132042
58.800 15.025709
58.805 15.507452
58.810 15.216724
58.815 14.515632
58.820 14.477484
58.825 14.693032
58.830 15.03779
58.835 15.364282
58.840 15.409513
58.845 15.368426
58.850 15.207701
58.855 14.858428
58.860 14.779333
58.865 14.689102
58.870 14.204312
58.875 13.562068
58.880 13.54635
58.885 13.799952
58.890 14.052457
58.895 14.163969
58.900 14.118222
58.905 14.640517
58.910 14.829755
58.915 14.411424
58.920 14.273778
58.925 14.821882
58.930 14.837459
58.935 15.229877
58.940 14.989565
58.945 15.405864
58.950 15.929851
58.955 16.044348
58.960 15.922089
58.965 16.291075
58.970 16.078817
58.975 16.637447
58.980 16.793694
58.985 16.923922
58.990 17.265827
58.995 17.033134
59.000 16.423145
59.005 16.128624
59.010 15.50782
59.015 15.249796
59.020 15.005079
59.025 14.767104
59.030 15.103241
59.035 15.354518
59.040 15.701246
59.045 16.506821
59.050 16.751734
59.055 17.196146
59.060 17.366915
59.065 17.230482
59.070 17.612144
59.075 18.529699
59.080 18.666119
59.085 18.34988
59.090 18.357243
59.095 18.158455
59.100 18.147041
59.105 17.932798
59.110 17.051098
59.115 16.841564
59.120 16.886183
59.125 16.943027
59.130 17.448748
59.135 16.765081
59.140 16.159473
59.145 15.794591
59.150 16.195538
59.155 16.375744
59.160 16.367348
59.165 16.077734
59.170 16.268242
59.175 16.798641
59.180 17.361279
59.185 16.865065
59.190 17.029667
59.195 17.162432
59.200 17.4491
59.205 17.868038
59.210 17.735151
59.215 17.735956
59.220 18.140505
59.225 18.149622
59.230 17.872587
59.235 17.903097
59.240 18.252356
59.245 18.242056
59.250 17.805492
59.255 17.081726
59.260 16.93671
59.265 17.112534
59.270 16.848261
59.275 16.776361
59.280 17.20903
59.285 17.378675
59.290 17.764675
59.295 17.939939
59.300 17.774755
59.305 17.490503
59.310 17.058882
59.315 17.120358
59.320 17.733137
59.325 18.222052
59.330 18.846203
59.335 19.037022
59.340 19.481421
59.345 19.712179
59.350 19.076857
59.355 18.522026
59.360 18.368975
59.365 17.503824
59.370 17.466862
59.375 17.569401
59.380 17.642031
59.385 17.976143
59.390 17.94313
59.395 17.906651
59.400 18.45479
59.405 18.597641
59.410 18.419756
59.415 18.390282
59.420 18.783308
59.425 18.869732
59.430 18.749781
59.435 18.413157
59.440 18.117367
59.445 17.676481
59.450 17.28791
59.455 17.277216
59.460 17.284372
59.465 17.766817
59.470 17.950447
59.475 18.248981
59.480 18.817719
59.485 19.369497
59.490 19.900003
59.495 20.37175
59.500 20.253626
59.505 19.89452
59.510 19.842545
59.515 19.843956
59.520 19.470568
59.525 19.257353
59.530 18.851038
59.535 18.189518
59.540 18.052374
59.545 18.007296
59.550 18.585722
59.555 18.982672
59.560 18.32618
59.565 18.023455
59.570 17.95575
59.575 18.677027
59.580 19.071182
59.585 18.611292
59.590 18.178394
59.595 18.442602
59.600 18.893208
59.605 19.37529
59.610 19.267197
59.615 18.971977
59.620 19.169806
59.625 19.749226
59.630 20.23649
59.635 20.970457
59.640 21.83341
59.645 22.120718
59.650 21.865122
59.655 22.178366
59.660 22.205057
59.665 21.940218
59.670 21.259651
59.675 20.446024
59.680 20.447971
59.685 20.579802
59.690 20.635403
59.695 20.517092
59.700 21.222494
59.705 21.259268
59.710 21.127304
59.715 20.87882
59.720 21.042889
59.725 20.932558
59.730 21.02413
59.735 21.108942
59.740 21.482956
59.745 21.753294
59.750 21.864277
59.755 21.926332
59.760 22.266645
59.765 21.776335
59.770 21.452051
59.775 21.643969
59.780 22.075743
59.785 21.977621
59.790 21.617682
59.795 21.002604
59.800 21.428469
59.805 20.743341
59.810 20.621168
59.815 21.0655
59.820 21.873251
59.825 22.179468
59.830 22.771643
59.835 22.876045
59.840 23.588709
59.845 23.422413
59.850 21.913406
59.855 20.990702
59.860 20.684464
59.865 20.1966
59.870 19.86865
59.875 19.686707
59.880 19.954205
59.885 20.680681
59.890 21.291302
59.895 21.147028
59.900 21.201372
59.905 20.956482
59.910 20.84763
59.915 20.93075
59.920 21.467703
59.925 21.901365
59.930 22.838423
59.935 22.95097
59.940 24.064405
59.945 24.543425
59.950 24.639139
59.955 24.409109
59.960 23.432915
59.965 23.33782
59.970 23.243774
59.975 22.327539
59.980 22.01185
59.985 21.661106
59.990 21.335674
59.995 21.188789
60.000 20.701433
60.005 20.530075
60.010 20.9631
60.015 20.640949
60.020 21.17697
60.025 21.489328
60.030 21.784826
60.035 22.374893
60.040 23.016705
60.045 23.041922
60.050 23.346571
60.055 22.546949
60.060 22.532267
60.065 22.5742
60.070 22.715303
60.075 23.112349
60.080 23.230911
60.085 23.466953
60.090 23.449678
60.095 22.905857
60.100 22.734386
60.105 22.214455
60.110 21.690742
60.115 21.796391
60.120 21.544949
60.125 21.456783
60.130 21.674408
60.135 21.439587
60.140 21.708029
60.145 21.752039
60.150 21.607294
60.155 22.42432
60.160 22.937229
60.165 23.162035
60.170 23.205322
60.175 22.458815
60.180 22.00742
60.185 21.762661
60.190 21.098139
60.195 20.538425
60.200 20.34272
60.205 20.296463
60.210 20.579754
60.215 20.710796
60.220 19.93601
60.225 20.128191
60.230 20.250797
60.235 20.437826
60.240 20.996262
60.245 21.172909
60.250 21.086926
60.255 21.057905
60.260 20.467829
60.265 20.228024
60.270 20.0504
60.275 18.653431
60.280 18.362631
60.285 18.300442
60.290 19.03438
60.295 19.132507
60.300 19.419346
60.305 19.341208
60.310 19.628349
60.315 19.659328
60.320 19.91304
60.325 19.128633
60.330 19.577106
60.335 19.490442
60.340 19.832005
60.345 20.630903
60.350 20.851793
60.355 21.228251
60.360 21.595266
60.365 21.19734
60.370 21.240433
60.375 20.898737
60.380 21.329908
60.385 20.973631
60.390 20.352884
60.395 20.685556
60.400 20.436844
60.405 20.39942
60.410 20.915379
60.415 20.280619
60.420 20.447809
60.425 20.620468
60.430 20.268465
60.435 20.410524
60.440 20.142775
60.445 19.038294
60.450 18.869055
60.455 19.091381
60.460 18.901918
60.465 18.773056
60.470 19.23241
60.475 19.904531
60.480 19.977373
60.485 19.269703
60.490 18.408794
60.495 18.104322
60.500 18.430119
60.505 18.302313
60.510 17.912996
60.515 18.41177
60.520 18.629923
60.525 19.040007
60.530 18.756493
60.535 18.376389
60.540 18.178062
60.545 18.018047
60.550 18.395758
60.555 18.896255
60.560 18.71402
60.565 18.859655
60.570 18.53031
60.575 18.521719
60.580 18.395981
60.585 18.536003
60.590 18.31909
60.595 18.60881
60.600 18.695763
60.605 18.623699
60.610 18.539736
60.615 18.620802
60.620 17.956356
60.625 18.184883
60.630 18.113205
60.635 18.430073
60.640 18.810461
60.645 19.742123
60.650 19.520283
60.655 19.475052
60.660 19.178156
60.665 18.937868
60.670 18.829763
60.675 18.522644
60.680 17.774614
60.685 17.670527
60.690 17.797049
60.695 17.948576
60.700 18.189581
60.705 17.900019
60.710 17.327
60.715 17.15066
60.720 17.804186
60.725 18.301386
60.730 18.36302
60.735 18.478445
60.740 18.911629
60.745 18.930874
60.750 18.586994
60.755 17.997887
60.760 17.78681
60.765 18.551037
60.770 18.850212
60.775 18.350723
60.780 19.207363
60.785 19.396568
60.790 18.954401
60.795 18.699877
60.800 17.892645
60.805 17.34409
60.810 17.583838
60.815 17.272076
60.820 17.817797
60.825 18.269938
60.830 18.102156
60.835 18.090305
60.840 17.982801
60.845 18.374735
60.850 18.77198
60.855 18.673128
60.860 18.647684
60.865 18.430075
60.870 18.49119
60.875 19.042843
60.880 18.820257
60.885 18.544813
60.890 18.630711
60.895 18.529482
60.900 18.740448
60.905 18.903027
60.910 18.613287
60.915 18.572775
60.920 18.525043
60.925 17.735582
60.930 17.6422
60.935 18.067093
60.940 18.352768
60.945 17.889517
60.950 17.906778
60.955 17.603033
60.960 18.089659
60.965 18.381777
60.970 17.73481
60.975 17.46081
60.980 17.74262
60.985 17.334011
60.990 17.169411
60.995 16.729683
61.000 16.590103
61.005 16.844538
61.010 17.139746
61.015 17.441244
61.020 17.572027
61.025 17.993275
61.030 18.049868
61.035 18.304174
61.040 17.736139
61.045 17.22287
61.050 17.25806
61.055 17.528646
61.060 17.589418
61.065 17.316311
61.070 17.166742
61.075 17.48168
61.080 17.516401
61.085 17.350222
61.090 17.263874
61.095 17.242058
61.100 17.670856
61.105 17.980583
61.110 18.164841
61.115 18.290749
61.120 18.133205
61.125 17.470854
61.130 17.212679
61.135 17.528835
61.140 17.305418
61.145 17.567722
61.150 17.425423
61.155 17.607027
61.160 18.634628
61.165 19.131876
61.170 19.042234
61.175 18.783476
61.180 18.131746
61.185 17.418997
61.190 17.471865
61.195 17.422998
61.200 17.555134
61.205 17.44857
61.210 17.059425
61.215 17.568933
61.220 18.50271
61.225 18.696196
61.230 18.016329
61.235 17.071011
61.240 16.519836
61.245 16.689625
61.250 16.378819
61.255 16.312735
61.260 16.299171
61.265 16.666784
61.270 17.525341
61.275 18.220455
61.280 18.620705
61.285 18.621027
61.290 18.283392
61.295 18.150991
61.300 18.347784
61.305 17.79138
61.310 17.744755
61.315 17.42996
61.320 17.234896
61.325 17.492638
61.330 17.368364
61.335 17.226273
61.340 17.068897
61.345 16.353289
61.350 16.684212
61.355 17.049955
61.360 17.144449
61.365 16.558037
61.370 15.953267
61.375 15.621221
61.380 15.766429
61.385 15.697068
61.390 15.70021
61.395 15.390929
61.400 15.954891
61.405 16.9062
61.410 18.074846
61.415 17.828894
61.420 17.400288
61.425 17.108416
61.430 17.194084
61.435 17.137323
61.440 16.526596
61.445 15.67022
61.450 15.750539
61.455 15.616382
61.460 15.700313
61.465 15.72508
61.470 15.783545
61.475 16.176077
61.480 16.281094
61.485 16.134315
61.490 16.608297
61.495 16.778696
61.500 16.79051
61.505 16.856022
61.510 16.565611
61.515 16.685778
61.520 17.013166
61.525 16.572836
61.530 16.407047
61.535 16.252769
61.540 16.140274
61.545 16.350225
61.550 16.957497
61.555 17.681126
61.560 18.196413
61.565 18.307955
61.570 18.396441
61.575 19.24305
61.580 19.700451
61.585 19.912434
61.590 19.494076
61.595 19.251226
61.600 19.348545
61.605 19.343857
61.610 18.57914
61.615 17.944557
61.620 17.942322
61.625 17.908312
61.630 18.010809
61.635 18.187702
61.640 18.565702
61.645 18.998602
61.650 19.043194
61.655 18.797821
61.660 19.014563
61.665 18.713688
61.670 18.185843
61.675 17.806084
61.680 17.446032
61.685 16.604967
61.690 15.900449
61.695 15.838105
61.700 16.27697
61.705 16.340107
61.710 16.249752
61.715 15.712072
61.720 16.016607
61.725 16.584728
61.730 16.574146
61.735 16.215982
61.740 16.280794
61.745 16.154066
61.750 16.28347
61.755 16.517239
61.760 16.170197
61.765 16.013153
61.770 16.426245
61.775 16.505939
61.780 16.50634
61.785 16.637011
61.790 16.262835
61.795 16.370411
61.800 16.299831
61.805 16.002939
61.810 15.646261
61.815 15.757627
61.820 16.835033
61.825 17.487486
61.830 17.471634
61.835 17.415533
61.840 17.475504
61.845 17.327824
61.850 17.350533
61.855 16.93832
61.860 16.920439
61.865 17.287626
61.870 18.15521
61.875 18.364759
61.880 18.627415
61.885 18.695595
61.890 18.378517
61.895 17.896194
61.900 17.505236
61.905 16.678543
61.910 16.763939
61.915 16.881714
61.920 16.641594
61.925 16.70108
61.930 16.855799
61.935 16.701469
61.940 16.935154
61.945 16.603693
61.950 16.091934
61.955 15.978322
61.960 16.222794
61.965 15.850897
61.970 15.585913
61.975 15.536253
61.980 15.451092
61.985 15.970163
61.990 15.85994
61.995 15.691331
62.000 16.243259
62.005 16.731184
62.010 16.861313
62.015 16.990789
62.020 16.84071
62.025 16.384525
62.030 16.158279
62.035 15.812175
62.040 15.612085
62.045 15.69968
62.050 16.149626
62.055 16.447971
62.060 17.039007
62.065 17.097301
62.070 17.383381
62.075 17.473587
62.080 17.281723
62.085 16.628063
62.090 16.693796
62.095 17.012295
62.100 17.339794
62.105 17.074486
62.110 16.659063
62.115 16.610205
62.120 16.889158
62.125 16.49132
62.130 15.865036
62.135 15.60204
62.140 15.825644
62.145 16.125317
62.150 16.045843
62.155 16.208061
62.160 16.530575
62.165 17.161612
62.170 17.573982
62.175 17.595987
62.180 17.102295
62.185 17.028458
62.190 17.266539
62.195 17.221737
62.200 16.702938
62.205 16.781212
62.210 17.021358
62.215 17.422956
62.220 17.795097
62.225 17.304665
62.230 16.948057
62.235 16.880608
62.240 16.778721
62.245 16.666466
62.250 16.857895
62.255 16.530441
62.260 16.129654
62.265 16.205116
62.270 16.5268
62.275 16.822409
62.280 16.954966
62.285 17.020853
62.290 17.172142
62.295 17.699583
62.300 17.50881
62.305 16.903948
62.310 16.350536
62.315 16.108097
62.320 15.853064
62.325 15.644475
62.330 15.45267
62.335 15.694246
62.340 15.442824
62.345 15.393641
62.350 15.469548
62.355 15.697946
62.360 15.917225
62.365 16.113718
62.370 16.574827
62.375 17.115484
62.380 17.71442
62.385 18.404421
62.390 18.247931
62.395 18.410885
62.400 18.952789
62.405 18.870441
62.410 18.788441
62.415 18.290913
62.420 17.594894
62.425 17.207441
62.430 17.109718
62.435 16.391415
62.440 16.052284
62.445 16.30352
62.450 16.705725
62.455 17.135246
62.460 17.463335
62.465 17.708302
62.470 18.106701
62.475 18.541746
62.480 17.908485
62.485 17.783575
62.490 17.668026
62.495 18.114122
62.500 18.23662
62.505 18.338842
62.510 18.143906
62.515 18.399725
62.520 17.816689
62.525 17.737186
62.530 17.106262
62.535 16.857155
62.540 16.714918
62.545 17.145578
62.550 17.491293
62.555 17.938932
62.560 17.866617
62.565 17.824362
62.570 17.423527
62.575 16.942678
62.580 16.21327
62.585 15.930757
62.590 15.844163
62.595 16.380947
62.600 16.675495
62.605 16.572868
62.610 16.93552
62.615 17.323612
62.620 16.769575
62.625 16.051605
62.630 15.466856
62.635 15.515345
62.640 15.550098
62.645 15.512111
62.650 15.44127
62.655 16.180641
62.660 16.639761
62.665 16.418396
62.670 16.842793
62.675 17.4538
62.680 17.707287
62.685 17.638954
62.690 17.564623
62.695 17.681257
62.700 17.804121
62.705 17.06316
62.710 17.02371
62.715 16.883734
62.720 16.723125
62.725 16.57622
62.730 17.055231
62.735 17.948702
62.740 17.925259
62.745 17.709822
62.750 18.199081
62.755 19.294336
62.760 19.216763
62.765 18.711866
62.770 18.186533
62.775 18.724436
62.780 18.67379
62.785 17.901342
62.790 17.53417
62.795 17.996529
62.800 18.502813
62.805 18.325111
62.810 18.071262
62.815 18.489674
62.820 19.180073
62.825 19.14333
62.830 19.315334
62.835 18.834927
62.840 18.534161
62.845 18.430021
62.850 18.272339
62.855 18.180025
62.860 18.03776
62.865 17.553459
62.870 17.463905
62.875 17.779358
62.880 17.738241
62.885 17.139751
62.890 16.471468
62.895 16.094669
62.900 16.131876
62.905 16.68642
62.910 16.680244
62.915 16.222872
62.920 16.265987
62.925 16.635962
62.930 16.773485
62.935 17.176947
62.940 16.39432
62.945 16.013641
62.950 16.149345
62.955 16.16449
62.960 15.662863
62.965 15.697711
62.970 15.969048
62.975 16.766134
62.980 17.25445
62.985 17.169798
62.990 17.761589
62.995 18.276533
63.000 18.137056
63.005 17.653484
63.010 17.967926
63.015 18.202768
63.020 18.445938
63.025 18.412073
63.030 18.301605
63.035 18.721855
63.040 19.278521
63.045 19.077684
63.050 18.921738
63.055 18.934452
63.060 18.662617
63.065 18.724655
63.070 18.285128
63.075 17.408646
63.080 17.008263
63.085 16.567585
63.090 16.500956
63.095 16.053055
63.100 16.058067
63.105 16.598627
63.110 16.45826
63.115 17.071529
63.120 17.944983
63.125 18.404402
63.130 19.147999
63.135 18.880957
63.140 18.427502
63.145 18.210981
63.150 17.556864
63.155 16.979765
63.160 16.750717
63.165 16.122211
63.170 15.78332
63.175 15.622418
63.180 16.123358
63.185 16.297003
63.190 16.13468
63.195 15.605482
63.200 16.108355
63.205 16.830198
63.210 16.973866
63.215 16.833256
63.220 16.804302
63.225 17.725935
63.230 17.796316
63.235 17.775227
63.240 17.247448
63.245 17.016474
63.250 17.222486
63.255 17.676699
63.260 17.411108
63.265 17.606995
63.270 17.799265
63.275 18.532703
63.280 19.266903
63.285 19.346039
63.290 19.149982
63.295 19.032034
63.300 19.011127
63.305 18.821672
63.310 18.370329
63.315 18.203794
63.320 17.359541
63.325 16.915684
63.330 16.950369
63.335 17.022734
63.340 16.959009
63.345 16.722155
63.350 16.802092
63.355 17.098272
63.360 17.403885
63.365 17.737637
63.370 18.140892
63.375 18.56938
63.380 18.710722
63.385 18.72093
63.390 19.088413
63.395 18.835306
63.400 18.24988
63.405 17.625916
63.410 17.015942
63.415 17.17304
63.420 17.745285
63.425 18.045502
63.430 18.441269
63.435 18.859873
63.440 18.759789
63.445 18.7756
63.450 18.708294
63.455 18.25246
63.460 17.960823
63.465 17.566906
63.470 17.693375
63.475 18.313843
63.480 18.999685
63.485 19.034554
63.490 18.997931
63.495 18.778709
63.500 19.092867
63.505 19.066553
63.510 18.317747
63.515 17.488806
63.520 17.093397
63.525 16.18672
63.530 16.085638
63.535 16.495626
63.540 16.76446
63.545 17.087429
63.550 16.967356
63.555 17.36558
63.560 18.182636
63.565 18.585741
63.570 18.437485
63.575 18.699528
63.580 18.528372
63.585 18.776266
63.590 19.064329
63.595 19.249281
63.600 18.522789
63.605 17.553335
63.610 17.202679
63.615 17.946999
63.620 18.63736
63.625 18.071558
63.630 17.756964
63.635 18.308613
63.640 18.480211
63.645 18.503414
63.650 18.097029
63.655 17.3701
63.660 17.610693
63.665 17.431139
63.670 17.518677
63.675 17.528646
63.680 17.303087
63.685 17.617313
63.690 17.551296
63.695 16.968878
63.700 16.983875
63.705 16.963135
63.710 16.82542
63.715 17.059435
63.720 16.935425
63.725 17.430799
63.730 17.768843
63.735 17.844238
63.740 17.52
63.745 17.855755
63.750 18.082809
63.755 17.952257
63.760 18.209108
63.765 18.353874
63.770 18.571432
63.775 19.109127
63.780 18.844782
63.785 18.523037
63.790 18.311031
63.795 17.966333
63.800 17.905186
63.805 17.638954
63.810 17.903265
63.815 17.819496
63.820 17.539795
63.825 17.616674
63.830 17.399815
63.835 17.200794
63.840 17.264627
63.845 17.009016
63.850 17.724203
63.855 17.787634
63.860 17.590715
63.865 17.991308
63.870 18.495737
63.875 18.290201
63.880 17.893633
63.885 17.39542
63.890 17.654377
63.895 18.040754
63.900 18.050791
63.905 17.953888
63.910 17.831751
63.915 17.84474
63.920 17.665289
63.925 17.726721
63.930 17.905188
63.935 18.06847
63.940 17.603357
63.945 17.202845
63.950 16.822222
63.955 17.485628
63.960 17.888968
63.965 17.922352
63.970 17.506327
63.975 17.658686
63.980 18.54423
63.985 19.265841
63.990 18.847328
63.995 18.381031
64.000 18.282814
64.005 18.416601
64.010 18.71104
64.015 18.704941
64.020 18.581892
64.025 18.684387
64.030 18.929813
64.035 18.463734
64.040 18.624622
64.045 18.86203
64.050 19.324234
64.055 19.521589
64.060 19.624998
64.065 19.581141
64.070 19.911158
64.075 20.176937
64.080 20.114046
64.085 19.468853
64.090 19.245659
64.095 19.278374
64.100 18.850058
64.105 18.750446
64.110 18.352724
64.115 17.958176
64.120 18.097143
64.125 18.12335
64.130 18.295279
64.135 19.25852
64.140 19.227604
64.145 19.456673
64.150 19.301592
64.155 19.018887
64.160 18.744459
64.165 18.480764
64.170 18.099957
64.175 17.988642
64.180 18.01193
64.185 18.530239
64.190 18.527349
64.195 18.532305
64.200 18.389643
64.205 18.306152
64.210 18.389168
64.215 18.443398
64.220 18.537346
64.225 18.660021
64.230 18.946577
64.235 18.653357
64.240 18.983578
64.245 19.177633
64.250 18.856993
64.255 18.608351
64.260 18.805727
64.265 18.976494
64.270 19.386377
64.275 18.541759
64.280 18.136377
64.285 18.291759
64.290 19.448769
64.295 19.346743
64.300 19.46595
64.305 19.278173
64.310 19.509747
64.315 19.909704
64.320 19.925333
64.325 19.067608
64.330 19.231968
64.335 18.380344
64.340 17.718725
64.345 18.092995
64.350 18.145948
64.355 18.368681
64.360 17.592775
64.365 17.502365
64.370 18.332666
64.375 18.880409
64.380 18.868521
64.385 18.932312
64.390 18.65176
64.395 19.325045
64.400 19.367598
64.405 19.387331
64.410 19.463209
64.415 19.185854
64.420 19.063433
64.425 18.684772
64.430 18.562271
64.435 18.515438
64.440 18.386894
64.445 18.193163
64.450 17.943605
64.455 18.285887
64.460 18.854326
64.465 19.414976
64.470 19.424242
64.475 19.687578
64.480 19.89115
64.485 20.586288
64.490 20.706198
64.495 21.074278
64.500 21.132694
64.505 21.252987
64.510 21.25004
64.515 21.444096
64.520 21.334465
64.525 20.593435
64.530 20.301121
64.535 20.280195
64.540 20.439997
64.545 20.435833
64.550 20.132002
64.555 19.898392
64.560 20.375443
64.565 20.126425
64.570 19.851885
64.575 19.704117
64.580 19.219704
64.585 18.800644
64.590 19.104517
64.595 19.594475
64.600 20.088804
64.605 20.321972
64.610 20.268124
64.615 21.05204
64.620 21.467461
64.625 20.809475
64.630 20.584089
64.635 20.704655
64.640 20.847414
64.645 21.209423
64.650 20.929276
64.655 21.047234
64.660 21.809925
64.665 21.626328
64.670 21.281038
64.675 20.917854
64.680 20.273533
64.685 20.07822
64.690 20.051929
64.695 19.560951
64.700 19.183119
64.705 18.791964
64.710 18.578558
64.715 19.028721
64.720 19.155453
64.725 18.826433
64.730 19.386932
64.735 20.007221
64.740 20.597162
64.745 20.424898
64.750 20.092224
64.755 19.960382
64.760 19.945261
64.765 19.417284
64.770 18.855314
64.775 19.168728
64.780 19.012566
64.785 19.391302
64.790 19.293451
64.795 19.349844
64.800 20.035683
64.805 20.80723
64.810 20.931458
64.815 21.484921
64.820 22.115803
64.825 22.564943
64.830 22.876797
64.835 22.635921
64.840 22.248667
64.845 22.198336
64.850 22.127674
64.855 21.113508
64.860 20.618816
64.865 20.304039
64.870 20.198347
64.875 20.102232
64.880 19.689796
64.885 19.526978
64.890 20.155457
64.895 21.09837
64.900 21.630875
64.905 22.082581
64.910 22.564844
64.915 22.799276
64.920 22.854601
64.925 22.567751
64.930 22.573803
64.935 22.79767
64.940 22.617432
64.945 22.378613
64.950 22.348818
64.955 22.459152
64.960 22.681934
64.965 21.893328
64.970 21.291361
64.975 21.143169
64.980 21.068306
64.985 21.133099
64.990 21.463285
64.995 21.644472
65.000 21.969765
65.005 22.720945
65.010 22.535639
65.015 22.556665
65.020 23.555429
65.025 23.220259
65.030 23.433676
65.035 23.272219
65.040 22.822309
65.045 23.088818
65.050 22.989845
65.055 22.335703
65.060 22.958113
65.065 22.995708
65.070 23.356176
65.075 23.380022
65.080 23.442165
65.085 24.170431
65.090 24.413454
65.095 24.271564
65.100 23.526688
65.105 23.272991
65.110 22.77467
65.115 22.605574
65.120 22.691473
65.125 22.985071
65.130 23.330311
65.135 24.143549
65.140 24.491251
65.145 25.24906
65.150 25.327665
65.155 25.281693
65.160 24.857828
65.165 24.559425
65.170 24.205055
65.175 24.52051
65.180 24.673325
65.185 24.899059
65.190 25.093441
65.195 25.073259
65.200 24.806038
65.205 24.910635
65.210 23.807379
65.215 23.343353
65.220 23.109438
65.225 22.543526
65.230 22.598431
65.235 23.079912
65.240 23.22135
65.245 24.041939
65.250 24.50807
65.255 24.050539
65.260 24.291637
65.265 24.064667
65.270 23.373692
65.275 23.108406
65.280 22.938755
65.285 23.060293
65.290 23.257896
65.295 23.979361
65.300 24.314032
65.305 24.6696
65.310 24.556019
65.315 24.027998
65.320 24.228914
65.325 24.076256
65.330 23.322954
65.335 23.390854
65.340 23.469273
65.345 23.447302
65.350 23.451799
65.355 23.279808
65.360 23.831493
65.365 24.471981
65.370 24.020433
65.375 23.808676
65.380 23.473223
65.385 23.437809
65.390 23.667015
65.395 23.435549
65.400 23.111216
65.405 23.996506
65.410 24.560638
65.415 25.659906
65.420 26.150871
65.425 26.176027
65.430 26.351246
65.435 25.975813
65.440 25.454136
65.445 25.707319
65.450 25.65999
65.455 25.506527
65.460 25.315958
65.465 25.380568
65.470 25.175663
65.475 25.299915
65.480 25.121065
65.485 24.369608
65.490 24.426279
65.495 23.922516
65.500 23.501627
65.505 23.703455
65.510 24.66975
65.515 24.833094
65.520 25.146635
65.525 25.183662
65.530 25.921452
65.535 26.789013
65.540 27.116789
65.545 26.6845
65.550 26.691624
65.555 27.173801
65.560 27.361576
65.565 27.211739
65.570 27.131985
65.575 27.206072
65.580 28.098658
65.585 28.74334
65.590 28.59083
65.595 28.236704
65.600 28.455538
65.605 28.305807
65.610 28.641989
65.615 28.244316
65.620 28.105259
65.625 28.267466
65.630 28.226665
65.635 28.740385
65.640 28.571545
65.645 28.885538
65.650 28.97637
65.655 29.384529
65.660 30.021309
65.665 31.351574
65.670 32.18465
65.675 33.065083
65.680 34.009541
65.685 34.245754
65.690 34.885849
65.695 35.065594
65.700 34.700939
65.705 34.088188
65.710 34.142139
65.715 33.142857
65.720 32.61256
65.725 31.816742
65.730 31.954567
65.735 32.357166
65.740 31.924599
65.745 31.646109
65.750 31.19305
65.755 32.182587
65.760 32.596664
65.765 32.02969
65.770 32.401535
65.775 32.998165
65.780 33.288483
65.785 34.655857
65.790 34.410519
65.795 34.407631
65.800 34.350792
65.805 33.989861
65.810 33.695389
65.815 34.095924
65.820 35.029663
65.825 36.179409
65.830 36.770954
65.835 37.347797
65.840 38.337864
65.845 38.79763
65.850 38.728317
65.855 38.513302
65.860 38.402771
65.865 38.308514
65.870 38.022839
65.875 37.547279
65.880 38.046799
65.885 38.349121
65.890 38.438694
65.895 37.512943
65.900 36.733154
65.905 36.936878
65.910 36.748768
65.915 36.199486
65.920 36.27034
65.925 35.259075
65.930 36.48671
65.935 38.06358
65.940 38.13707
65.945 38.880505
65.950 40.128048
65.955 39.885288
65.960 41.795834
65.965 42.440678
65.970 42.31488
65.975 42.283573
65.980 41.556896
65.985 40.800591
65.990 41.616924
65.995 40.96563
66.000 40.271198
66.005 39.993065
66.010 40.727219
66.015 41.569187
66.020 41.453011
66.025 40.39185
66.030 39.302834
66.035 39.089985
66.040 39.698616
66.045 39.50489
66.050 38.952366
66.055 39.188953
66.060 39.812069
66.065 40.317566
66.070 40.295872
66.075 39.934139
66.080 39.787109
66.085 39.144974
66.090 39.270077
66.095 39.067402
66.100 39.133816
66.105 38.474663
66.110 38.139137
66.115 37.959782
66.120 38.812691
66.125 38.327442
66.130 38.437305
66.135 38.896183
66.140 39.530193
66.145 39.740883
66.150 40.21307
66.155 39.723152
66.160 39.837029
66.165 39.128639
66.170 38.986435
66.175 38.617104
66.180 37.937038
66.185 37.533024
66.190 37.803089
66.195 37.71664
66.200 37.821003
66.205 37.484531
66.210 38.077702
66.215 38.123611
66.220 38.940395
66.225 38.595272
66.230 38.955669
66.235 38.918392
66.240 38.301159
66.245 37.997757
66.250 37.905567
66.255 37.431374
66.260 37.348965
66.265 37.762337
66.270 37.565865
66.275 37.354294
66.280 37.395699
66.285 37.241005
66.290 36.399464
66.295 36.396698
66.300 35.926785
66.305 35.452694
66.310 34.938038
66.315 34.753365
66.320 34.605312
66.325 34.254982
66.330 33.469685
66.335 33.125477
66.340 34.227325
66.345 34.352814
66.350 34.385544
66.355 34.500248
66.360 35.446228
66.365 35.325069
66.370 34.631866
66.375 33.170307
66.380 32.946999
66.385 32.405216
66.390 31.758972
66.395 31.628675
66.400 32.271126
66.405 32.428123
66.410 33.31871
66.415 33.458401
66.420 33.09251
66.425 33.330391
66.430 32.748882
66.435 32.466095
66.440 33.082386
66.445 32.439381
66.450 31.822308
66.455 31.649609
66.460 31.621801
66.465 31.800817
66.470 31.199499
66.475 30.999636
66.480 30.410204
66.485 30.33683
66.490 30.213543
66.495 29.829496
66.500 29.409367
66.505 28.899622
66.510 28.108335
66.515 28.849201
66.520 28.662182
66.525 28.398085
66.530 28.299271
66.535 28.633537
66.540 29.193106
66.545 29.047676
66.550 28.374544
66.555 27.874186
66.560 27.891993
66.565 28.198605
66.570 28.225119
66.575 28.310665
66.580 27.279018
66.585 27.01708
66.590 27.354736
66.595 27.281586
66.600 26.502626
66.605 26.065081
66.610 26.072105
66.615 27.228605
66.620 27.236006
66.625 26.315077
66.630 25.992798
66.635 26.128927
66.640 26.028299
66.645 25.433855
66.650 24.741169
66.655 24.920708
66.660 25.407305
66.665 25.13335
66.670 25.211828
66.675 25.227636
66.680 25.55213
66.685 25.656645
66.690 25.265774
66.695 24.651604
66.700 25.235235
66.705 24.531521
66.710 24.242357
66.715 24.019794
66.720 23.34639
66.725 23.451876
66.730 23.668652
66.735 23.04353
66.740 22.936832
66.745 22.864288
66.750 23.157372
66.755 23.412304
66.760 23.544231
66.765 23.348438
66.770 24.245396
66.775 24.928988
66.780 25.033054
66.785 24.513504
66.790 24.100281
66.795 23.945049
66.800 23.796522
66.805 22.856724
66.810 22.069206
66.815 22.074064
66.820 21.899662
66.825 22.223785
66.830 22.211184
66.835 21.887928
66.840 21.848846
66.845 22.168045
66.850 22.606615
66.855 22.556656
66.860 22.571972
66.865 22.530544
66.870 23.16568
66.875 23.567114
66.880 23.131695
66.885 22.897142
66.890 23.302414
66.895 23.352894
66.900 22.883276
66.905 22.129242
66.910 22.025797
66.915 21.903805
66.920 22.208462
66.925 21.978359
66.930 21.670149
66.935 22.822889
66.940 23.307987
66.945 23.611059
66.950 23.329269
66.955 22.599731
66.960 22.623236
66.965 22.608393
66.970 22.064991
66.975 22.003578
66.980 20.908724
66.985 20.870625
66.990 21.062138
66.995 21.314377
67.000 20.882139
67.005 21.034592
67.010 21.050905
67.015 21.661943
67.020 21.553986
67.025 21.333183
67.030 21.293688
67.035 21.805779
67.040 21.752108
67.045 21.933323
67.050 21.570381
67.055 21.929985
67.060 22.265415
67.065 22.413801
67.070 22.526953
67.075 22.991987
67.080 22.745375
67.085 22.863447
67.090 22.414646
67.095 21.645393
67.100 21.186926
67.105 21.01766
67.110 20.679651
67.115 20.78014
67.120 20.891634
67.125 20.680536
67.130 21.013819
67.135 21.213699
67.140 21.215755
67.145 21.322153
67.150 21.738113
67.155 22.340685
67.160 22.570244
67.165 22.323341
67.170 21.988667
67.175 21.76038
67.180 21.210791
67.185 20.870615
67.190 20.856085
67.195 20.693476
67.200 20.775091
67.205 20.831078
67.210 20.853945
67.215 20.799963
67.220 20.766516
67.225 20.75783
67.230 21.200863
67.235 21.108831
67.240 20.953077
67.245 20.509968
67.250 20.381365
67.255 20.904869
67.260 20.733196
67.265 20.656248
67.270 20.554647
67.275 20.277065
67.280 20.877769
67.285 21.191996
67.290 20.322708
67.295 20.411476
67.300 20.498169
67.305 21.097475
67.310 21.251017
67.315 20.982021
67.320 21.402035
67.325 21.746302
67.330 22.004818
67.335 21.591848
67.340 21.496246
67.345 21.501501
67.350 21.780272
67.355 21.735207
67.360 21.932514
67.365 22.152084
67.370 22.277281
67.375 21.801262
67.380 22.316946
67.385 22.16728
67.390 21.405426
67.395 20.706741
67.400 20.379379
67.405 20.191545
67.410 19.900709
67.415 18.706583
67.420 18.018898
67.425 18.100725
67.430 18.735044
67.435 19.480806
67.440 19.612379
67.445 19.943375
67.450 20.802523
67.455 20.941334
67.460 20.942625
67.465 20.356152
67.470 19.225525
67.475 19.177795
67.480 19.456009
67.485 19.514002
67.490 19.591621
67.495 19.280479
67.500 19.96439
67.505 20.366312
67.510 20.545883
67.515 20.847212
67.520 21.072929
67.525 21.486565
67.530 21.33177
67.535 21.414574
67.540 21.655781
67.545 21.513998
67.550 21.126175
67.555 21.185398
67.560 21.174044
67.565 21.495546
67.570 21.163588
67.575 20.896545
67.580 20.716995
67.585 21.608412
67.590 21.589825
67.595 21.256041
67.600 20.480444
67.605 20.203627
67.610 20.36714
67.615 20.325737
67.620 19.952667
67.625 19.86532
67.630 20.555416
67.635 21.080566
67.640 21.416561
67.645 21.611925
67.650 21.48885
67.655 20.310175
67.660 20.372843
67.665 19.96722
67.670 19.732059
67.675 19.576286
67.680 19.201246
67.685 19.652922
67.690 20.380861
67.695 20.811361
67.700 20.982389
67.705 20.653425
67.710 20.426794
67.715 20.530773
67.720 20.875101
67.725 20.882032
67.730 20.377419
67.735 20.223076
67.740 20.513697
67.745 20.426626
67.750 20.084146
67.755 19.22473
67.760 19.316896
67.765 18.863966
67.770 18.954031
67.775 19.066975
67.780 19.777502
67.785 19.926874
67.790 19.905502
67.795 19.992817
67.800 20.294508
67.805 20.743414
67.810 20.960632
67.815 21.077768
67.820 21.630791
67.825 21.891878
67.830 21.947149
67.835 21.813576
67.840 21.211977
67.845 21.216177
67.850 20.821917
67.855 20.425056
67.860 20.18722
67.865 19.870394
67.870 20.758566
67.875 21.119802
67.880 20.713415
67.885 20.324724
67.890 20.561855
67.895 21.056055
67.900 20.941284
67.905 20.410275
67.910 20.225323
67.915 20.315111
67.920 20.429249
67.925 20.510242
67.930 20.678555
67.935 21.416927
67.940 22.222464
67.945 21.937965
67.950 22.332592
67.955 22.853308
67.960 22.487917
67.965 22.520695
67.970 22.095146
67.975 21.502142
67.980 22.076384
67.985 22.185501
67.990 21.97547
67.995 21.779371
68.000 21.262054
68.005 21.258259
68.010 21.627497
68.015 21.235785
68.020 20.827702
68.025 20.908794
68.030 21.316072
68.035 21.520475
68.040 21.23122
68.045 21.044214
68.050 21.263411
68.055 21.298321
68.060 21.919024
68.065 22.005198
68.070 22.215075
68.075 22.729353
68.080 22.654345
68.085 22.58651
68.090 22.492123
68.095 22.123722
68.100 22.115002
68.105 21.898556
68.110 21.275
68.115 20.91651
68.120 20.58267
68.125 20.365274
68.130 19.98785
68.135 19.639397
68.140 19.112875
68.145 19.184513
68.150 19.608019
68.155 20.236225
68.160 20.147028
68.165 19.748524
68.170 19.763144
68.175 20.802288
68.180 20.817099
68.185 20.670403
68.190 20.741743
68.195 20.997736
68.200 21.561321
68.205 21.795128
68.210 22.016888
68.215 22.504564
68.220 22.745937
68.225 22.298374
68.230 21.844006
68.235 21.664406
68.240 21.559227
68.245 20.271509
68.250 19.337988
68.255 19.180138
68.260 19.377888
68.265 19.823158
68.270 19.691996
68.275 19.691057
68.280 19.797895
68.285 20.06703
68.290 19.835335
68.295 19.976385
68.300 20.468033
68.305 20.585342
68.310 20.66044
68.315 21.494589
68.320 21.345675
68.325 21.493584
68.330 21.05443
68.335 20.482574
68.340 19.996998
68.345 19.740816
68.350 19.511501
68.355 19.471745
68.360 19.116602
68.365 19.609837
68.370 19.558952
68.375 20.244099
68.380 20.305601
68.385 20.231041
68.390 20.926624
68.395 21.220024
68.400 20.761038
68.405 20.817169
68.410 20.690752
68.415 21.028023
68.420 20.645077
68.425 20.27784
68.430 20.161291
68.435 20.031414
68.440 19.962236
68.445 19.83993
68.450 19.701506
68.455 19.791382
68.460 19.612629
68.465 19.977602
68.470 19.973997
68.475 19.622772
68.480 19.369547
68.485 19.842855
68.490 20.842794
68.495 21.298693
68.500 20.872572
68.505 21.325006
68.510 21.84091
68.515 22.279131
68.520 21.534981
68.525 20.561132
68.530 20.822357
68.535 20.772947
68.540 20.587614
68.545 20.063072
68.550 20.36459
68.555 20.705505
68.560 21.013372
68.565 20.332636
68.570 20.697424
68.575 20.876925
68.580 21.095821
68.585 20.55397
68.590 21.061583
68.595 21.124666
68.600 21.825796
68.605 21.336893
68.610 21.319653
68.615 21.552074
68.620 21.341587
68.625 21.575129
68.630 21.757082
68.635 21.969877
68.640 22.277555
68.645 22.449911
68.650 22.485453
68.655 22.214476
68.660 21.234882
68.665 21.102398
68.670 20.858089
68.675 21.266781
68.680 21.290316
68.685 21.266577
68.690 22.221045
68.695 23.215372
68.700 23.059919
68.705 23.373383
68.710 23.058121
68.715 22.794123
68.720 22.634039
68.725 22.125711
68.730 21.964001
68.735 21.510216
68.740 21.162865
68.745 20.963043
68.750 21.149315
68.755 21.547318
68.760 21.478645
68.765 21.687716
68.770 21.877853
68.775 21.513374
68.780 21.731039
68.785 21.23802
68.790 21.23155
68.795 20.663937
68.800 20.155079
68.805 20.41988
68.810 20.774796
68.815 20.712347
68.820 20.923723
68.825 21.035938
68.830 21.635235
68.835 22.176819
68.840 22.015251
68.845 21.73143
68.850 21.942053
68.855 21.691072
68.860 21.64069
68.865 21.959196
68.870 21.56312
68.875 21.804647
68.880 22.261999
68.885 22.871897
68.890 22.99761
68.895 23.241245
68.900 23.764566
68.905 24.024618
68.910 24.043842
68.915 23.898909
68.920 23.077925
68.925 23.057825
68.930 22.839476
68.935 22.361198
68.940 22.196926
68.945 22.185453
68.950 22.128466
68.955 22.300249
68.960 22.052185
68.965 22.257311
68.970 22.423065
68.975 22.255938
68.980 22.442322
68.985 22.36957
68.990 22.305052
68.995 22.476593
69.000 21.688206
69.005 21.642124
69.010 21.962469
69.015 22.519981
69.020 22.4291
69.025 22.47011
69.030 22.25684
69.035 23.273643
69.040 23.641155
69.045 23.198318
69.050 23.483723
69.055 24.271841
69.060 24.812233
69.065 25.31431
69.070 24.740498
69.075 24.894688
69.080 25.703819
69.085 25.320869
69.090 25.042067
69.095 24.757776
69.100 24.163057
69.105 23.956371
69.110 23.874165
69.115 23.126482
69.120 22.933699
69.125 23.183561
69.130 23.638006
69.135 24.385216
69.140 24.399897
69.145 24.663921
69.150 25.527409
69.155 25.749264
69.160 25.48632
69.165 25.163891
69.170 25.517618
69.175 25.340338
69.180 25.177542
69.185 25.350552
69.190 25.841888
69.195 26.042269
69.200 25.669764
69.205 25.628679
69.210 26.007202
69.215 26.237173
69.220 25.980543
69.225 25.595287
69.230 25.690533
69.235 25.891951
69.240 26.205973
69.245 26.655445
69.250 26.887642
69.255 26.578074
69.260 26.691133
69.265 26.400713
69.270 26.21336
69.275 25.948793
69.280 25.319056
69.285 25.597342
69.290 26.135822
69.295 25.808796
69.300 26.031832
69.305 26.733406
69.310 27.196175
69.315 27.451635
69.320 27.535904
69.325 27.839151
69.330 28.764267
69.335 28.897251
69.340 28.579163
69.345 28.521873
69.350 29.209984
69.355 29.32777
69.360 29.350853
69.365 29.642651
69.370 30.385153
69.375 30.616276
69.380 30.905432
69.385 30.781654
69.390 30.866026
69.395 31.020065
69.400 30.76605
69.405 30.026667
69.410 30.416126
69.415 30.533274
69.420 30.128479
69.425 30.669071
69.430 31.008028
69.435 31.810009
69.440 32.422905
69.445 32.723282
69.450 32.923981
69.455 33.23864
69.460 32.667812
69.465 32.130253
69.470 31.795013
69.475 31.172403
69.480 30.871359
69.485 30.771931
69.490 29.8456
69.495 29.884932
69.500 30.257244
69.505 31.0952
69.510 31.771097
69.515 31.487185
69.520 31.861656
69.525 32.658592
69.530 32.867741
69.535 32.490723
69.540 32.029133
69.545 31.731462
69.550 32.132629
69.555 31.663857
69.560 30.983723
69.565 30.2722
69.570 30.66468
69.575 30.545872
69.580 30.281208
69.585 30.271305
69.590 30.720619
69.595 31.581141
69.600 32.174595
69.605 31.734869
69.610 31.717752
69.615 32.109489
69.620 32.050373
69.625 31.875866
69.630 30.760626
69.635 30.750498
69.640 31.122299
69.645 31.570868
69.650 31.287853
69.655 31.213608
69.660 31.425676
69.665 31.975735
69.670 31.754095
69.675 31.372459
69.680 31.058781
69.685 30.439501
69.690 29.696585
69.695 30.634169
69.700 31.288486
69.705 31.267521
69.710 31.174616
69.715 31.21212
69.720 31.089237
69.725 31.292381
69.730 30.067928
69.735 29.208036
69.740 29.2367
69.745 29.071531
69.750 28.73085
69.755 28.605022
69.760 29.184217
69.765 29.104143
69.770 28.980986
69.775 27.954369
69.780 28.182997
69.785 28.366587
69.790 27.98621
69.795 27.06008
69.800 26.666088
69.805 26.486021
69.810 26.55467
69.815 26.000996
69.820 25.719172
69.825 25.93
69.830 25.79512
69.835 25.625904
69.840 26.1661
69.845 25.889784
69.850 25.880896
69.855 26.34643
69.860 25.902517
69.865 26.113346
69.870 26.560392
69.875 26.933325
69.880 27.212187
69.885 27.397074
69.890 27.512268
69.895 27.889208
69.900 27.790182
69.905 27.533642
69.910 26.322716
69.915 26.137331
69.920 25.561775
69.925 25.063847
69.930 24.783855
69.935 24.719542
69.940 24.284586
69.945 25.259428
69.950 25.066597
69.955 25.268559
69.960 25.472048
69.965 25.220465
69.970 24.660175
69.975 24.12134
69.980 23.716581
69.985 23.783365
69.990 23.429033
69.995 22.788399
70.000 22.270792
70.005 22.520882
70.010 22.287243
70.015 21.701992
70.020 21.648001
70.025 21.701635
70.030 22.123785
70.035 22.378729
70.040 21.720043
70.045 21.705048
70.050 21.653536
70.055 21.6471
70.060 21.288157
70.065 20.887732
70.070 20.754902
70.075 21.324131
70.080 22.025635
70.085 21.72311
70.090 21.439381
70.095 21.320934
70.100 21.447716
70.105 21.706045
70.110 21.957142
70.115 22.539438
70.120 23.036816
70.125 22.88772
70.130 23.003231
70.135 22.657116
70.140 22.492271
70.145 21.649815
70.150 20.636637
70.155 20.548952
70.160 20.397017
70.165 20.27706
70.170 19.820173
70.175 19.574396
70.180 19.508034
70.185 18.770802
70.190 18.944468
70.195 19.189098
70.200 19.375759
70.205 19.637787
70.210 19.730106
70.215 19.725639
70.220 19.907766
70.225 19.709667
70.230 19.314682
70.235 19.29421
70.240 19.07823
70.245 18.767321
70.250 18.998161
70.255 19.014391
70.260 19.099503
70.265 19.251513
70.270 18.820789
70.275 19.604292
70.280 19.926926
70.285 20.03516
70.290 19.868284
70.295 19.4499
70.300 19.441195
70.305 19.402073
70.310 19.014208
70.315 19.427504
70.320 19.707653
70.325 20.012022
70.330 20.469461
70.335 20.479168
70.340 20.616547
70.345 20.440985
70.350 19.786762
70.355 19.071512
70.360 18.909243
70.365 19.226555
70.370 19.2857
70.375 19.198582
70.380 19.488461
70.385 20.08494
70.390 20.286282
70.395 20.375853
70.400 20.351824
70.405 20.162508
70.410 20.084951
70.415 18.949772
70.420 18.910603
70.425 19.325363
70.430 19.487791
70.435 19.832579
70.440 20.0835
70.445 20.277576
70.450 20.476643
70.455 20.741402
70.460 20.143785
70.465 19.777622
70.470 19.42593
70.475 19.351954
70.480 19.53404
70.485 19.203253
70.490 18.574144
70.495 18.519663
70.500 18.929871
70.505 19.290646
70.510 19.378466
70.515 19.665609
70.520 20.559168
70.525 20.804871
70.530 21.021309
70.535 20.501123
70.540 20.380438
70.545 20.695581
70.550 20.597782
70.555 20.233192
70.560 20.34091
70.565 19.878155
70.570 20.278616
70.575 20.21809
70.580 19.648085
70.585 19.665112
70.590 19.416292
70.595 19.041712
70.600 19.122065
70.605 18.579571
70.610 18.455688
70.615 18.947273
70.620 19.114086
70.625 19.744841
70.630 20.182144
70.635 20.492386
70.640 20.571503
70.645 20.590086
70.650 20.765709
70.655 20.563683
70.660 20.189669
70.665 19.942068
70.670 20.247957
70.675 20.559086
70.680 20.467579
70.685 19.824366
70.690 20.115688
70.695 20.193771
70.700 19.645292
70.705 19.050442
70.710 19.232269
70.715 19.40613
70.720 19.759773
70.725 19.800953
70.730 20.781313
70.735 21.30797
70.740 21.401213
70.745 21.270666
70.750 21.091696
70.755 20.953514
70.760 20.959522
70.765 20.414377
70.770 20.377041
70.775 20.383348
70.780 20.516747
70.785 20.164019
70.790 19.326452
70.795 19.295685
70.800 19.199024
70.805 19.443569
70.810 19.509001
70.815 19.905865
70.820 20.577181
70.825 21.249979
70.830 21.280415
70.835 20.897686
70.840 20.026966
70.845 19.30278
70.850 18.549677
70.855 18.579721
70.860 17.884745
70.865 17.784906
70.870 18.267178
70.875 18.291739
70.880 19.019611
70.885 18.681803
70.890 18.098831
70.895 18.354685
70.900 18.166203
70.905 17.860048
70.910 17.927485
70.915 17.77603
70.920 18.420351
70.925 19.206869
70.930 19.27227
70.935 20.06531
70.940 20.242836
70.945 20.450638
70.950 20.147326
70.955 19.431379
70.960 18.777546
70.965 18.641655
70.970 18.324869
70.975 17.863329
70.980 17.419828
70.985 17.547527
70.990 17.946573
70.995 17.829498
71.000 17.362997
71.005 16.783222
71.010 17.376465
71.015 18.016354
71.020 18.305363
71.025 18.478842
71.030 18.2794
71.035 18.423048
71.040 18.830132
71.045 18.517885
71.050 18.126432
71.055 18.091959
71.060 18.005033
71.065 18.14764
71.070 18.142809
71.075 18.347881
71.080 18.811216
71.085 19.007984
71.090 19.328588
71.095 19.597887
71.100 19.91102
71.105 20.226501
71.110 20.020031
71.115 20.19903
71.120 19.952095
71.125 19.421715
71.130 18.977385
71.135 18.957706
71.140 18.825911
71.145 18.68849
71.150 18.226776
71.155 18.018173
71.160 18.181067
71.165 18.575026
71.170 17.974236
71.175 17.826147
71.180 17.94297
71.185 18.492317
71.190 18.645937
71.195 18.789637
71.200 19.037056
71.205 19.610935
71.210 19.467527
71.215 18.936245
71.220 18.609882
71.225 18.583246
71.230 17.543383
71.235 17.640957
71.240 18.178745
71.245 19.119209
71.250 19.475458
71.255 19.573566
71.260 19.931038
71.265 20.981638
71.270 20.670877
71.275 20.417519
71.280 20.138687
71.285 20.436296
71.290 20.655226
71.295 20.406643
71.300 20.196186
71.305 19.624363
71.310 19.146772
71.315 19.291704
71.320 19.30324
71.325 19.429518
71.330 19.31348
71.335 19.111265
71.340 19.515959
71.345 19.646025
71.350 19.147165
71.355 18.354956
71.360 18.145956
71.365 18.325882
71.370 18.526287
71.375 18.504662
71.380 18.393738
71.385 18.707584
71.390 18.805422
71.395 18.620419
71.400 18.705851
71.405 18.302307
71.410 18.736832
71.415 19.224209
71.420 19.827291
71.425 20.311016
71.430 20.066792
71.435 19.89201
71.440 19.721058
71.445 19.305918
71.450 18.502176
71.455 17.967442
71.460 17.896463
71.465 18.583122
71.470 18.725264
71.475 18.769283
71.480 18.914579
71.485 19.581448
71.490 19.90955
71.495 20.320721
71.500 20.12002
71.505 20.160282
71.510 19.864717
71.515 19.766724
71.520 18.984425
71.525 19.389772
71.530 18.543314
71.535 18.624632
71.540 18.965857
71.545 19.051764
71.550 18.487803
71.555 18.522608
71.560 18.63661
71.565 19.322842
71.570 19.152538
71.575 19.408775
71.580 19.613411
71.585 20.061024
71.590 19.936693
71.595 19.53282
71.600 19.166363
71.605 19.378872
71.610 19.35721
71.615 19.689495
71.620 19.834629
71.625 19.583515
71.630 19.469313
71.635 19.994562
71.640 19.28134
71.645 19.452229
71.650 19.251589
71.655 18.800404
71.660 18.801855
71.665 18.59157
71.670 18.272219
71.675 18.360203
71.680 17.644705
71.685 17.547915
71.690 17.857285
71.695 17.52305
71.700 17.815821
71.705 17.967367
71.710 17.921026
71.715 18.276596
71.720 18.905224
71.725 19.052362
71.730 19.903147
71.735 19.465851
71.740 18.949183
71.745 18.785402
71.750 17.940928
71.755 17.437664
71.760 17.116182
71.765 16.461279
71.770 16.596424
71.775 17.391869
71.780 17.815769
71.785 18.059675
71.790 17.934221
71.795 18.085262
71.800 18.739628
71.805 18.811266
71.810 18.898668
71.815 19.182831
71.820 19.024275
71.825 19.153049
71.830 18.822453
71.835 18.615925
71.840 18.220005
71.845 18.345802
71.850 18.644447
71.855 19.095814
71.860 19.193172
71.865 18.965317
71.870 18.609934
71.875 18.226152
71.880 17.749229
71.885 17.446098
71.890 17.244867
71.895 17.501696
71.900 18.073374
71.905 18.44972
71.910 19.109352
71.915 19.48243
71.920 19.981276
71.925 19.755104
71.930 19.318134
71.935 18.840599
71.940 18.582878
71.945 17.606012
71.950 16.673271
71.955 16.419561
71.960 16.408888
71.965 16.64419
71.970 16.191128
71.975 16.089766
71.980 16.35804
71.985 16.609116
71.990 16.459831
71.995 16.304188
72.000 16.927446
72.005 17.253258
72.010 17.750719
72.015 18.259491
72.020 19.123558
72.025 19.680874
72.030 19.979864
72.035 19.863958
72.040 20.125128
72.045 20.027201
72.050 19.590437
72.055 18.895027
72.060 18.521416
72.065 18.450369
72.070 18.301598
72.075 18.474339
72.080 18.56749
72.085 19.072626
72.090 19.48724
72.095 20.016569
72.100 19.701321
72.105 19.566164
72.110 18.934343
72.115 18.515118
72.120 17.779854
72.125 17.11594
72.130 16.387457
72.135 16.585369
72.140 17.032455
72.145 17.252588
72.150 17.240562
72.155 17.738405
72.160 18.083467
72.165 18.2743
72.170 17.920547
72.175 17.995975
72.180 18.088854
72.185 18.993622
72.190 18.990637
72.195 18.827148
72.200 18.751068
72.205 18.913031
72.210 19.56476
72.215 19.703875
72.220 18.878523
72.225 19.152542
72.230 19.656496
72.235 20.013678
72.240 19.796259
72.245 19.284298
72.250 19.314053
72.255 19.731724
72.260 19.962828
72.265 19.518297
72.270 19.632549
72.275 19.804964
72.280 19.995401
72.285 19.682146
72.290 19.033319
72.295 18.280531
72.300 18.25705
72.305 17.949532
72.310 17.42314
72.315 17.535669
72.320 17.700108
72.325 18.403296
72.330 18.820715
72.335 18.80633
72.340 19.315994
72.345 19.226162
72.350 18.390459
72.355 18.789471
72.360 18.855536
72.365 18.744398
72.370 18.739328
72.375 18.680962
72.380 18.921909
72.385 19.288111
72.390 18.73819
72.395 18.418133
72.400 18.225283
72.405 18.064812
72.410 18.167849
72.415 18.118839
72.420 18.028889
72.425 17.981909
72.430 18.690588
72.435 19.468452
72.440 19.583561
72.445 19.384291
72.450 19.584042
72.455 19.509638
72.460 19.221527
72.465 19.199652
72.470 18.49044
72.475 18.42967
72.480 18.354731
72.485 18.100477
72.490 18.58975
72.495 18.332743
72.500 18.098476
72.505 18.037802
72.510 17.875212
72.515 18.318932
72.520 18.421488
72.525 18.571362
72.530 17.74177
72.535 17.004372
72.540 16.916937
72.545 16.975147
72.550 16.888069
72.555 16.337486
72.560 16.307148
72.565 17.408382
72.570 17.54178
72.575 17.248978
72.580 17.014223
72.585 17.651091
72.590 17.867697
72.595 17.893829
72.600 17.8403
72.605 18.651167
72.610 18.912489
72.615 18.513815
72.620 17.78636
72.625 17.594355
72.630 17.468767
72.635 17.219439
72.640 16.455124
72.645 16.26725
72.650 16.759457
72.655 17.687969
72.660 17.889509
72.665 17.335484
72.670 17.653343
72.675 18.001204
72.680 17.989388
72.685 17.541185
72.690 17.924643
72.695 17.870739
72.700 18.14588
72.705 17.816196
72.710 17.811302
72.715 18.042458
72.720 17.582676
72.725 16.407898
72.730 16.569279
72.735 17.005964
72.740 17.679277
72.745 17.904346
72.750 17.421902
72.755 17.849726
72.760 17.766928
72.765 17.695562
72.770 17.319275
72.775 17.404156
72.780 17.818161
72.785 17.804728
72.790 17.716761
72.795 17.467052
72.800 17.331903
72.805 17.472836
72.810 16.684309
72.815 16.269056
72.820 15.719787
72.825 15.899005
72.830 16.821949
72.835 17.252195
72.840 17.148825
72.845 17.434639
72.850 17.64283
72.855 17.581114
72.860 16.943951
72.865 16.399975
72.870 16.037891
72.875 16.229961
72.880 16.197851
72.885 16.453127
72.890 17.316225
72.895 18.014786
72.900 17.868065
72.905 17.588154
72.910 17.114645
72.915 16.641743
72.920 16.904043
72.925 16.012772
72.930 15.727163
72.935 15.793687
72.940 15.709717
72.945 16.018509
72.950 16.363501
72.955 16.216354
72.960 17.340624
72.965 17.040756
72.970 17.096886
72.975 17.194496
72.980 16.978045
72.985 16.767296
72.990 16.225624
72.995 16.204645
73.000 16.322943
