!@!!GADDS PLOTSO FILE: Chi integration type
!@!!Title/SampleName: map-109
!@!!Comment: ?
!@!!User: Bruker Instrument Administrator
!@!!Site: University of Illinois Chicago
!@!!Frame: map-109_01_000.gfrm
!@!!Wavelengths    1.54184   1.54056   1.54439
!@!!Frame angles: 2Theta: 63.000 Omega: 50.000 Phi: 0.000 Chi: 90.000
!@!!Integration range: 2Theta: 53.000 to 73.000  Gamma: -105.000 to -75.000
!@!!Integration method: bin normalized
!@!N
!@!SS
!@!M
!@!L 0.0 0.0 0.0 0.0
!@!XDegrees
!@!YCounts
53.000 8.730848
53.005 8.769957
53.010 8.393079
53.015 8.490944
53.020 8.680358
53.025 9.008895
53.030 9.125482
53.035 9.265875
53.040 9.264758
53.045 9.590493
53.050 9.103153
53.055 8.60037
53.060 8.443072
53.065 8.352035
53.070 8.336645
53.075 8.404234
53.080 8.386713
53.085 8.89809
53.090 9.225709
53.095 9.392803
53.100 9.269023
53.105 9.427005
53.110 9.750664
53.115 9.985178
53.120 9.969109
53.125 9.313262
53.130 9.417446
53.135 9.553563
53.140 9.074026
53.145 8.515375
53.150 7.689442
53.155 7.718679
53.160 8.03777
53.165 7.851658
53.170 8.351742
53.175 8.610579
53.180 9.054479
53.185 9.461417
53.190 9.410428
53.195 9.245223
53.200 9.186985
53.205 9.072323
53.210 8.943504
53.215 9.285225
53.220 9.534172
53.225 9.70191
53.230 9.23519
53.235 8.913169
53.240 8.810126
53.245 8.853219
53.250 8.844497
53.255 8.763035
53.260 8.940724
53.265 9.079085
53.270 8.895062
53.275 8.776741
53.280 8.671711
53.285 8.464587
53.290 8.440323
53.295 8.505864
53.300 8.591883
53.305 8.517604
53.310 8.459283
53.315 8.646878
53.320 8.557663
53.325 8.413212
53.330 8.510654
53.335 9.280024
53.340 9.612091
53.345 9.517034
53.350 9.919299
53.355 10.110035
53.360 10.665808
53.365 10.883796
53.370 10.756966
53.375 10.648163
53.380 10.370187
53.385 9.586819
53.390 9.355621
53.395 9.287232
53.400 9.027663
53.405 8.774449
53.410 8.737147
53.415 9.026296
53.420 8.980252
53.425 8.646089
53.430 8.561069
53.435 8.737963
53.440 9.256116
53.445 9.666777
53.450 9.786171
53.455 9.858042
53.460 9.706295
53.465 9.574082
53.470 9.364127
53.475 9.173851
53.480 8.913106
53.485 8.983406
53.490 9.214325
53.495 9.464494
53.500 9.756375
53.505 9.726811
53.510 9.837583
53.515 9.786455
53.520 9.778188
53.525 10.171911
53.530 9.884793
53.535 9.636321
53.540 9.810541
53.545 9.783233
53.550 9.945219
53.555 10.053828
53.560 10.047771
53.565 10.496719
53.570 10.314642
53.575 9.783535
53.580 9.758005
53.585 9.842627
53.590 10.093641
53.595 10.086799
53.600 10.321694
53.605 10.725438
53.610 10.929868
53.615 11.188684
53.620 10.920449
53.625 10.326452
53.630 9.8961
53.635 9.289529
53.640 8.945357
53.645 8.871225
53.650 8.753397
53.655 8.920575
53.660 9.204775
53.665 9.588105
53.670 9.872088
53.675 10.100287
53.680 10.312237
53.685 10.463385
53.690 10.698
53.695 10.383726
53.700 10.686481
53.705 10.569492
53.710 10.547666
53.715 10.488379
53.720 10.569252
53.725 10.369374
53.730 9.855877
53.735 9.628689
53.740 9.791067
53.745 9.982214
53.750 9.738614
53.755 9.095368
53.760 9.109816
53.765 9.892004
53.770 10.104308
53.775 9.76552
53.780 9.564292
53.785 10.039678
53.790 10.466718
53.795 10.219526
53.800 9.673593
53.805 9.260796
53.810 9.456836
53.815 9.539847
53.820 9.227286
53.825 10.229241
53.830 10.839341
53.835 10.973962
53.840 11.258144
53.845 11.109593
53.850 11.297337
53.855 11.169432
53.860 10.748465
53.865 10.168613
53.870 9.924132
53.875 9.778463
53.880 9.828378
53.885 9.951587
53.890 10.388621
53.895 10.727135
53.900 10.960354
53.905 11.214429
53.910 11.019602
53.915 10.832909
53.920 10.901412
53.925 10.02287
53.930 9.289388
53.935 9.478909
53.940 10.032321
53.945 10.336232
53.950 10.385171
53.955 10.398024
53.960 11.066425
53.965 11.543903
53.970 11.154469
53.975 11.024
53.980 11.116834
53.985 10.96094
53.990 10.924891
53.995 10.492984
54.000 10.400699
54.005 10.224119
54.010 10.008199
54.015 10.100909
54.020 9.908298
54.025 9.793689
54.030 9.929173
54.035 9.9263
54.040 10.027989
54.045 9.815601
54.050 9.400299
54.055 9.523732
54.060 9.698701
54.065 9.743552
54.070 9.724882
54.075 9.617576
54.080 10.221109
54.085 10.392454
54.090 10.536061
54.095 10.318365
54.100 10.486125
54.105 10.797145
54.110 11.285009
54.115 11.494259
54.120 11.599579
54.125 11.631308
54.130 11.739978
54.135 11.765213
54.140 11.800221
54.145 11.284454
54.150 10.882637
54.155 10.658304
54.160 10.683196
54.165 10.489054
54.170 10.409866
54.175 10.564241
54.180 10.702076
54.185 10.773777
54.190 10.858559
54.195 11.210188
54.200 11.198433
54.205 11.431355
54.210 11.481103
54.215 11.291388
54.220 11.310924
54.225 11.061891
54.230 10.676539
54.235 10.408624
54.240 10.039989
54.245 10.071665
54.250 10.06443
54.255 10.10893
54.260 9.816666
54.265 10.159097
54.270 10.685379
54.275 10.212971
54.280 9.990779
54.285 10.000486
54.290 9.966854
54.295 9.930201
54.300 9.938199
54.305 9.801834
54.310 10.00145
54.315 10.202853
54.320 10.417809
54.325 10.544225
54.330 10.743629
54.335 10.578442
54.340 10.922276
54.345 11.152308
54.350 11.371517
54.355 11.296947
54.360 11.239012
54.365 10.925541
54.370 10.749449
54.375 10.217995
54.380 9.845709
54.385 9.931207
54.390 10.173181
54.395 10.191634
54.400 10.453217
54.405 10.47112
54.410 10.740522
54.415 10.518515
54.420 10.169436
54.425 10.037487
54.430 10.115109
54.435 10.458102
54.440 10.763073
54.445 10.875009
54.450 10.870528
54.455 10.910851
54.460 10.465704
54.465 10.445149
54.470 10.061383
54.475 10.056363
54.480 10.273678
54.485 10.626796
54.490 10.501788
54.495 10.279424
54.500 10.046525
54.505 10.021156
54.510 9.668531
54.515 9.729716
54.520 9.825915
54.525 10.618118
54.530 11.034392
54.535 11.490312
54.540 11.667875
54.545 12.069481
54.550 11.910902
54.555 11.989227
54.560 11.804645
54.565 11.513179
54.570 11.103879
54.575 11.134141
54.580 10.543336
54.585 10.412086
54.590 10.118614
54.595 10.362364
54.600 10.610744
54.605 10.723952
54.610 10.986162
54.615 11.499344
54.620 11.424376
54.625 11.314838
54.630 11.431298
54.635 11.364347
54.640 11.355096
54.645 10.860029
54.650 10.721279
54.655 10.789041
54.660 10.547445
54.665 9.995641
54.670 9.585041
54.675 9.150545
54.680 9.521059
54.685 9.760183
54.690 9.215998
54.695 9.097797
54.700 9.023853
54.705 9.114221
54.710 9.475909
54.715 9.283119
54.720 9.261445
54.725 9.861052
54.730 10.597096
54.735 11.081766
54.740 11.630415
54.745 11.946674
54.750 11.929377
54.755 12.247983
54.760 12.06153
54.765 11.761202
54.770 11.709832
54.775 11.086336
54.780 10.765015
54.785 11.081838
54.790 11.002058
54.795 10.897346
54.800 10.749654
54.805 10.690326
54.810 10.777168
54.815 10.454733
54.820 9.771147
54.825 9.759179
54.830 9.620428
54.835 9.580793
54.840 9.636966
54.845 9.557099
54.850 10.107841
54.855 10.608762
54.860 10.406397
54.865 10.590553
54.870 10.877233
54.875 10.706355
54.880 11.055749
54.885 10.883246
54.890 11.109557
54.895 11.555402
54.900 11.09422
54.905 11.131573
54.910 11.699386
54.915 12.238872
54.920 12.080264
54.925 12.324576
54.930 12.327964
54.935 12.681949
54.940 12.661278
54.945 11.967
54.950 11.412799
54.955 11.255363
54.960 10.761847
54.965 10.773401
54.970 10.660771
54.975 10.323827
54.980 10.109417
54.985 10.039534
54.990 9.89673
54.995 9.877769
55.000 9.821452
55.005 9.766174
55.010 9.86546
55.015 9.859798
55.020 9.926177
55.025 10.046414
55.030 9.78299
55.035 9.977725
55.040 10.414916
55.045 10.890497
55.050 10.909156
55.055 10.607592
55.060 11.069422
55.065 11.568033
55.070 11.725513
55.075 11.439032
55.080 11.318988
55.085 11.741994
55.090 11.982566
55.095 12.113981
55.100 12.028574
55.105 11.692488
55.110 12.035158
55.115 12.440263
55.120 12.527467
55.125 12.130293
55.130 11.892667
55.135 11.412619
55.140 11.319442
55.145 10.965003
55.150 10.667706
55.155 10.400238
55.160 10.818736
55.165 10.958123
55.170 11.500496
55.175 11.620078
55.180 11.405527
55.185 11.399698
55.190 11.689016
55.195 11.218725
55.200 10.769684
55.205 10.340725
55.210 10.326927
55.215 10.560013
55.220 10.710479
55.225 10.976926
55.230 11.367195
55.235 11.542266
55.240 11.642153
55.245 11.235353
55.250 11.080291
55.255 10.834606
55.260 10.823914
55.265 10.938046
55.270 11.433297
55.275 11.976975
55.280 12.084799
55.285 12.276724
55.290 12.113133
55.295 11.566361
55.300 11.561085
55.305 11.614976
55.310 11.711692
55.315 12.167893
55.320 12.18773
55.325 12.499916
55.330 12.380962
55.335 12.22716
55.340 12.181399
55.345 12.045896
55.350 12.040588
55.355 12.422782
55.360 13.014109
55.365 13.289
55.370 12.99993
55.375 12.467859
55.380 12.495021
55.385 12.332192
55.390 11.907009
55.395 11.331739
55.400 11.644322
55.405 12.378524
55.410 12.358547
55.415 11.870644
55.420 11.660533
55.425 11.069886
55.430 11.254541
55.435 11.651658
55.440 10.935811
55.445 11.020359
55.450 11.146716
55.455 11.552199
55.460 11.909118
55.465 11.635481
55.470 11.38197
55.475 11.615485
55.480 11.627121
55.485 12.007899
55.490 12.0709
55.495 12.213337
55.500 12.263561
55.505 12.404874
55.510 12.898241
55.515 12.943322
55.520 12.853367
55.525 12.213144
55.530 11.937468
55.535 11.601526
55.540 10.944612
55.545 10.503342
55.550 10.17291
55.555 9.84574
55.560 10.444711
55.565 10.902974
55.570 10.880984
55.575 11.002485
55.580 11.254924
55.585 11.912229
55.590 12.143574
55.595 11.786316
55.600 11.739391
55.605 12.158037
55.610 12.285773
55.615 12.479496
55.620 12.468551
55.625 12.129465
55.630 11.537149
55.635 11.436731
55.640 11.233328
55.645 11.233711
55.650 11.529776
55.655 11.352116
55.660 11.690606
55.665 12.3241
55.670 12.439193
55.675 12.701794
55.680 12.465549
55.685 11.803461
55.690 12.422068
55.695 12.76459
55.700 12.92362
55.705 12.369941
55.710 12.137362
55.715 12.330344
55.720 12.190103
55.725 11.734693
55.730 11.148696
55.735 10.591112
55.740 10.528765
55.745 10.960934
55.750 11.408316
55.755 11.552649
55.760 11.854555
55.765 12.153234
55.770 12.486531
55.775 13.004095
55.780 12.401751
55.785 12.04519
55.790 11.875206
55.795 11.910109
55.800 12.431719
55.805 13.045518
55.810 13.218846
55.815 13.335953
55.820 13.596264
55.825 13.861735
55.830 14.004104
55.835 13.7054
55.840 13.455771
55.845 13.792468
55.850 13.877732
55.855 13.804204
55.860 13.615605
55.865 13.502295
55.870 13.654265
55.875 13.382431
55.880 12.951277
55.885 13.181387
55.890 13.0257
55.895 12.867194
55.900 12.444225
55.905 12.179372
55.910 12.13538
55.915 12.195214
55.920 12.433653
55.925 12.281772
55.930 12.495806
55.935 13.144575
55.940 13.150269
55.945 13.223643
55.950 13.116801
55.955 12.874399
55.960 13.178233
55.965 13.055724
55.970 12.355658
55.975 12.24386
55.980 11.998679
55.985 11.755927
55.990 11.579801
55.995 11.554654
56.000 11.868116
56.005 12.0887
56.010 11.691661
56.015 11.764943
56.020 11.713858
56.025 11.769906
56.030 11.615786
56.035 11.50484
56.040 11.701227
56.045 11.53133
56.050 10.822157
56.055 10.988481
56.060 11.137446
56.065 11.028456
56.070 11.198517
56.075 11.389745
56.080 12.267265
56.085 13.206513
56.090 13.228368
56.095 13.808321
56.100 14.45908
56.105 14.500267
56.110 14.49542
56.115 14.074117
56.120 13.504119
56.125 12.998796
56.130 12.428568
56.135 12.55458
56.140 12.331933
56.145 12.240128
56.150 12.268348
56.155 12.442101
56.160 12.812826
56.165 12.855476
56.170 12.784681
56.175 12.53197
56.180 12.389017
56.185 12.630605
56.190 12.915122
56.195 12.776316
56.200 12.378029
56.205 12.443671
56.210 12.807667
56.215 13.312321
56.220 13.231253
56.225 12.92101
56.230 12.872163
56.235 12.819988
56.240 12.757332
56.245 12.876959
56.250 12.640311
56.255 12.445955
56.260 12.459005
56.265 12.561152
56.270 12.713558
56.275 12.809155
56.280 12.40167
56.285 12.439712
56.290 13.012142
56.295 13.12299
56.300 13.013307
56.305 13.02857
56.310 12.757682
56.315 13.296171
56.320 13.548989
56.325 13.574916
56.330 14.031765
56.335 14.317312
56.340 14.141769
56.345 14.423966
56.350 14.284053
56.355 14.057188
56.360 13.420839
56.365 13.564939
56.370 13.33244
56.375 13.090172
56.380 13.027402
56.385 13.019036
56.390 12.974466
56.395 13.122907
56.400 12.93713
56.405 13.019687
56.410 13.006942
56.415 12.757646
56.420 13.113074
56.425 13.233012
56.430 12.894255
56.435 12.700721
56.440 12.721018
56.445 12.938504
56.450 13.046333
56.455 12.958411
56.460 12.999782
56.465 13.427931
56.470 13.2531
56.475 13.575125
56.480 13.469803
56.485 13.373295
56.490 13.697665
56.495 13.858953
56.500 13.769917
56.505 14.012204
56.510 13.599712
56.515 13.446286
56.520 13.361103
56.525 13.643893
56.530 13.52223
56.535 13.633749
56.540 14.021362
56.545 14.159163
56.550 14.425615
56.555 14.124013
56.560 13.220579
56.565 13.401564
56.570 13.377842
56.575 13.535901
56.580 13.698261
56.585 13.566697
56.590 13.412881
56.595 13.351091
56.600 12.775034
56.605 12.735375
56.610 12.295823
56.615 12.701055
56.620 12.94037
56.625 13.109703
56.630 13.219593
56.635 13.245057
56.640 12.928826
56.645 12.928949
56.650 12.389931
56.655 12.315226
56.660 13.033788
56.665 12.897313
56.670 13.354766
56.675 13.099978
56.680 13.168864
56.685 13.197093
56.690 13.328947
56.695 13.37925
56.700 13.549964
56.705 13.581655
56.710 13.449669
56.715 13.254911
56.720 13.466223
56.725 13.291078
56.730 12.979211
56.735 13.489144
56.740 13.510843
56.745 13.643153
56.750 13.575196
56.755 13.604932
56.760 13.712579
56.765 13.79353
56.770 13.613738
56.775 13.664747
56.780 14.015189
56.785 14.376823
56.790 14.591812
56.795 14.924035
56.800 14.816046
56.805 14.550997
56.810 14.354361
56.815 13.885895
56.820 13.697255
56.825 13.2919
56.830 12.673551
56.835 12.558498
56.840 12.791738
56.845 12.996206
56.850 13.07189
56.855 12.60396
56.860 12.576488
56.865 12.988674
56.870 13.37532
56.875 13.085148
56.880 13.559961
56.885 13.773698
56.890 13.694247
56.895 13.612059
56.900 13.240895
56.905 12.38433
56.910 12.154875
56.915 11.560884
56.920 11.252104
56.925 11.661013
56.930 12.127838
56.935 13.125966
56.940 13.44104
56.945 13.63047
56.950 13.683653
56.955 13.972855
56.960 14.025134
56.965 13.653358
56.970 13.123854
56.975 13.523393
56.980 13.264088
56.985 13.032371
56.990 12.992247
56.995 12.919124
57.000 12.670225
57.005 12.858564
57.010 13.015415
57.015 14.216162
57.020 14.880456
57.025 15.399704
57.030 15.422146
57.035 15.468986
57.040 14.946246
57.045 14.475337
57.050 14.261052
57.055 14.031085
57.060 13.768118
57.065 13.917769
57.070 13.805583
57.075 14.295209
57.080 14.593019
57.085 14.005877
57.090 13.860273
57.095 13.103414
57.100 12.917644
57.105 12.895568
57.110 12.34075
57.115 12.012821
57.120 11.830789
57.125 11.87372
57.130 12.25033
57.135 12.257547
57.140 12.419994
57.145 12.577915
57.150 12.537641
57.155 12.748855
57.160 12.184479
57.165 12.301774
57.170 12.806156
57.175 13.324499
57.180 13.585959
57.185 13.57262
57.190 13.802507
57.195 14.422997
57.200 14.402403
57.205 14.35468
57.210 14.10387
57.215 14.197316
57.220 14.474234
57.225 14.546494
57.230 14.183594
57.235 14.319901
57.240 14.172485
57.245 13.819922
57.250 13.856226
57.255 14.278248
57.260 14.465953
57.265 14.333243
57.270 13.900456
57.275 13.653222
57.280 13.90761
57.285 13.860692
57.290 12.890988
57.295 12.628269
57.300 12.427135
57.305 12.454414
57.310 12.404114
57.315 11.677307
57.320 11.620531
57.325 12.053602
57.330 12.517835
57.335 13.430297
57.340 13.890129
57.345 14.439931
57.350 15.105625
57.355 15.017395
57.360 14.840388
57.365 14.670985
57.370 13.927531
57.375 13.17888
57.380 13.20385
57.385 13.037928
57.390 13.015591
57.395 13.128502
57.400 13.196269
57.405 13.709041
57.410 13.817122
57.415 13.543355
57.420 13.498968
57.425 13.964489
57.430 14.205815
57.435 14.358397
57.440 14.092777
57.445 14.614983
57.450 15.369701
57.455 16.274691
57.460 16.338575
57.465 16.102346
57.470 15.701512
57.475 15.655174
57.480 15.444954
57.485 15.312037
57.490 14.816792
57.495 14.442544
57.500 14.256875
57.505 14.262424
57.510 14.13069
57.515 14.235273
57.520 13.464357
57.525 13.431753
57.530 13.370005
57.535 13.926624
57.540 14.237015
57.545 14.420968
57.550 14.093002
57.555 14.398483
57.560 14.506124
57.565 14.317451
57.570 13.779496
57.575 13.77999
57.580 14.2026
57.585 14.892653
57.590 15.163395
57.595 15.136119
57.600 15.371234
57.605 15.359892
57.610 15.155567
57.615 14.805953
57.620 14.167719
57.625 13.476042
57.630 13.073043
57.635 13.184655
57.640 13.608277
57.645 13.49791
57.650 13.263509
57.655 13.421716
57.660 13.847784
57.665 14.221493
57.670 14.244769
57.675 13.917873
57.680 14.392484
57.685 14.726171
57.690 14.667901
57.695 14.449393
57.700 14.328948
57.705 14.237271
57.710 14.481994
57.715 14.657539
57.720 14.330275
57.725 14.308718
57.730 14.760994
57.735 14.56965
57.740 14.554921
57.745 14.274576
57.750 13.885282
57.755 13.999404
57.760 14.193378
57.765 13.874439
57.770 14.048802
57.775 14.342706
57.780 14.533931
57.785 14.791274
57.790 14.949555
57.795 14.940915
57.800 15.015295
57.805 14.917347
57.810 14.830943
57.815 14.52336
57.820 14.3613
57.825 13.892171
57.830 13.97021
57.835 14.535547
57.840 14.690963
57.845 14.355357
57.850 14.304178
57.855 14.174083
57.860 14.10334
57.865 13.18911
57.870 12.599311
57.875 12.449029
57.880 12.25009
57.885 12.276844
57.890 12.701658
57.895 13.201062
57.900 13.495072
57.905 13.321089
57.910 13.410526
57.915 13.971557
57.920 13.851743
57.925 13.630169
57.930 13.527269
57.935 14.481682
57.940 14.345266
57.945 14.413405
57.950 14.722478
57.955 14.772932
57.960 15.203233
57.965 15.59878
57.970 15.232419
57.975 15.448983
57.980 14.683061
57.985 13.957768
57.990 13.95154
57.995 13.352618
58.000 13.104524
58.005 13.376841
58.010 14.019215
58.015 15.053339
58.020 15.502335
58.025 15.730373
58.030 15.933084
58.035 16.219488
58.040 15.811323
58.045 15.280972
58.050 15.050344
58.055 15.187069
58.060 15.200416
58.065 15.12335
58.070 14.712274
58.075 15.244372
58.080 15.48947
58.085 15.106032
58.090 15.66974
58.095 15.8633
58.100 16.22085
58.105 16.496748
58.110 16.158285
58.115 16.080044
58.120 16.223881
58.125 15.265865
58.130 14.488291
58.135 13.737267
58.140 13.548854
58.145 13.662955
58.150 13.398334
58.155 13.464099
58.160 14.379175
58.165 15.233918
58.170 15.495835
58.175 15.389523
58.180 15.211629
58.185 15.844466
58.190 15.533413
58.195 14.392635
58.200 14.435918
58.205 14.567057
58.210 14.272121
58.215 14.264651
58.220 13.756703
58.225 13.801137
58.230 13.847231
58.235 13.285082
58.240 13.432784
58.245 13.444571
58.250 13.48939
58.255 13.847592
58.260 14.37439
58.265 15.00868
58.270 15.620696
58.275 15.235749
58.280 15.380503
58.285 15.519083
58.290 15.361913
58.295 14.604929
58.300 14.068172
58.305 13.976043
58.310 14.718088
58.315 14.392906
58.320 13.788109
58.325 13.533261
58.330 13.616123
58.335 13.528009
58.340 13.159534
58.345 13.095215
58.350 13.8594
58.355 14.868117
58.360 15.422219
58.365 15.894298
58.370 16.029539
58.375 15.794316
58.380 15.401155
58.385 14.569676
58.390 13.862373
58.395 13.440181
58.400 13.364128
58.405 13.601166
58.410 13.88391
58.415 13.608656
58.420 13.977841
58.425 13.871431
58.430 13.695786
58.435 13.57205
58.440 13.705709
58.445 13.75562
58.450 14.079989
58.455 13.906239
58.460 13.879563
58.465 14.291983
58.470 14.212456
58.475 13.959051
58.480 13.888957
58.485 14.180158
58.490 14.517965
58.495 14.689014
58.500 14.313619
58.505 14.554119
58.510 14.900087
58.515 15.46537
58.520 14.862108
58.525 14.636906
58.530 14.876595
58.535 14.803352
58.540 14.045593
58.545 13.69162
58.550 13.383805
58.555 13.408816
58.560 13.75745
58.565 14.076444
58.570 14.489377
58.575 14.835207
58.580 15.07063
58.585 14.865345
58.590 15.375729
58.595 16.506351
58.600 16.682194
58.605 17.27717
58.610 17.545286
58.615 17.243061
58.620 17.392843
58.625 17.244024
58.630 16.506777
58.635 16.16098
58.640 16.155985
58.645 16.317539
58.650 16.571833
58.655 16.507614
58.660 16.317884
58.665 15.830647
58.670 16.075914
58.675 15.59048
58.680 15.212379
58.685 15.683955
58.690 15.629898
58.695 16.426832
58.700 16.780346
58.705 16.979851
58.710 17.11594
58.715 17.291407
58.720 17.151783
58.725 16.843697
58.730 15.778719
58.735 15.303603
58.740 15.256051
58.745 15.477885
58.750 15.380827
58.755 15.622442
58.760 16.187033
58.765 16.287544
58.770 16.491793
58.775 15.99248
58.780 16.033045
58.785 15.865773
58.790 15.511369
58.795 15.56936
58.800 15.901878
58.805 15.931113
58.810 16.143713
58.815 16.438559
58.820 16.445456
58.825 16.040707
58.830 15.961712
58.835 15.318851
58.840 15.019559
58.845 14.614713
58.850 14.306849
58.855 14.441184
58.860 15.192748
58.865 15.393149
58.870 16.526707
58.875 16.840458
58.880 16.603905
58.885 16.597675
58.890 16.35939
58.895 16.068964
58.900 16.059023
58.905 15.603487
58.910 15.46172
58.915 15.777298
58.920 15.514017
58.925 15.604917
58.930 15.40273
58.935 14.720796
58.940 14.091286
58.945 14.25276
58.950 14.411866
58.955 14.155437
58.960 14.285545
58.965 14.795252
58.970 15.056231
58.975 15.652304
58.980 15.677755
58.985 15.553608
58.990 15.750874
58.995 15.590659
59.000 14.91148
59.005 15.103871
59.010 15.254364
59.015 16.014477
59.020 16.795687
59.025 16.788385
59.030 16.707088
59.035 17.227142
59.040 17.627295
59.045 17.620647
59.050 17.256441
59.055 16.889627
59.060 17.291449
59.065 17.888018
59.070 17.942289
59.075 17.578609
59.080 17.313919
59.085 17.094267
59.090 16.951708
59.095 16.215174
59.100 15.898156
59.105 15.82309
59.110 15.533238
59.115 15.693798
59.120 15.574753
59.125 15.71593
59.130 16.261175
59.135 15.780208
59.140 15.643862
59.145 15.538902
59.150 15.816532
59.155 16.274042
59.160 16.123638
59.165 16.340055
59.170 17.581999
59.175 17.909666
59.180 18.189634
59.185 18.522802
59.190 18.404919
59.195 18.361044
59.200 17.953234
59.205 17.212248
59.210 17.424665
59.215 18.121853
59.220 17.780846
59.225 17.54446
59.230 17.921143
59.235 17.904589
59.240 18.089699
59.245 17.90217
59.250 17.168297
59.255 16.921089
59.260 17.202271
59.265 16.528782
59.270 16.613873
59.275 16.251986
59.280 16.134245
59.285 16.181337
59.290 16.02511
59.295 15.700371
59.300 16.456707
59.305 16.842836
59.310 16.807133
59.315 16.998116
59.320 16.220043
59.325 16.019445
59.330 15.424867
59.335 15.067869
59.340 14.58159
59.345 15.00633
59.350 14.927704
59.355 15.364715
59.360 16.173069
59.365 16.771616
59.370 16.294367
59.375 15.991676
59.380 15.432734
59.385 15.618345
59.390 15.926427
59.395 16.094402
59.400 15.984242
59.405 16.202127
59.410 16.293804
59.415 16.707357
59.420 16.943075
59.425 16.787266
59.430 16.960899
59.435 16.899618
59.440 17.449734
59.445 17.880501
59.450 17.780655
59.455 17.846119
59.460 18.350075
59.465 18.505314
59.470 18.67355
59.475 18.340437
59.480 18.158518
59.485 18.028734
59.490 17.732296
59.495 17.245895
59.500 16.650352
59.505 16.631931
59.510 16.502691
59.515 16.838236
59.520 16.907806
59.525 16.806606
59.530 16.743101
59.535 17.458246
59.540 17.842266
59.545 18.097143
59.550 17.892956
59.555 18.035297
59.560 17.831432
59.565 17.673428
59.570 17.142738
59.575 16.980038
59.580 16.793039
59.585 16.456856
59.590 16.585333
59.595 16.475531
59.600 15.806952
59.605 16.014503
59.610 15.991744
59.615 16.200668
59.620 16.649202
59.625 16.620728
59.630 17.684546
59.635 18.681084
59.640 18.920561
59.645 19.1919
59.650 19.716305
59.655 19.912462
59.660 19.966537
59.665 20.16473
59.670 19.731266
59.675 19.476952
59.680 19.367594
59.685 19.280851
59.690 18.861881
59.695 18.811403
59.700 19.128895
59.705 19.319397
59.710 18.385841
59.715 18.269806
59.720 18.188486
59.725 18.542789
59.730 18.590738
59.735 17.891827
59.740 19.090065
59.745 20.150871
59.750 19.957605
59.755 19.948826
59.760 20.200567
59.765 20.350523
59.770 20.017128
59.775 19.435097
59.780 19.45019
59.785 19.609684
59.790 18.935795
59.795 18.649883
59.800 18.676546
59.805 18.916061
59.810 18.74848
59.815 18.350554
59.820 18.2437
59.825 18.960701
59.830 19.321568
59.835 19.676319
59.840 19.825899
59.845 20.593534
59.850 20.78475
59.855 20.850481
59.860 20.537935
59.865 19.862146
59.870 19.492414
59.875 19.389822
59.880 18.971174
59.885 19.195189
59.890 19.027822
59.895 19.094742
59.900 19.701126
59.905 19.787861
59.910 19.988609
59.915 20.152168
59.920 19.810627
59.925 20.345158
59.930 20.561501
59.935 20.307199
59.940 20.126003
59.945 19.437695
59.950 19.28163
59.955 19.419048
59.960 19.626274
59.965 19.934805
59.970 20.117348
59.975 20.175055
59.980 20.246883
59.985 20.439201
59.990 20.50728
59.995 20.249664
60.000 19.602127
60.005 19.965118
60.010 20.443941
60.015 20.918724
60.020 21.366175
60.025 21.389452
60.030 21.372383
60.035 21.875278
60.040 21.522148
60.045 21.85988
60.050 21.917921
60.055 21.9596
60.060 22.014133
60.065 21.504509
60.070 21.016516
60.075 21.330025
60.080 21.040583
60.085 21.106594
60.090 21.207958
60.095 21.763531
60.100 22.238556
60.105 22.332407
60.110 22.372108
60.115 21.874828
60.120 21.465206
60.125 21.167175
60.130 20.380323
60.135 20.156044
60.140 19.970766
60.145 19.800596
60.150 19.634586
60.155 19.439514
60.160 19.600262
60.165 20.452274
60.170 20.478516
60.175 20.260723
60.180 20.377924
60.185 20.955126
60.190 21.367599
60.195 21.427141
60.200 21.596296
60.205 22.160686
60.210 22.60524
60.215 22.866283
60.220 22.888378
60.225 22.756763
60.230 22.463865
60.235 21.780207
60.240 21.560505
60.245 22.000528
60.250 21.854582
60.255 21.917206
60.260 21.756926
60.265 21.84433
60.270 21.944012
60.275 22.208858
60.280 21.487579
60.285 21.030973
60.290 20.830709
60.295 20.726891
60.300 20.538137
60.305 20.749355
60.310 20.496164
60.315 21.40596
60.320 21.5159
60.325 21.363947
60.330 21.6901
60.335 21.705509
60.340 21.552488
60.345 21.355743
60.350 20.770819
60.355 20.891827
60.360 20.56296
60.365 19.851337
60.370 19.914106
60.375 19.848242
60.380 19.639977
60.385 19.6702
60.390 19.904247
60.395 20.035439
60.400 20.242687
60.405 20.303658
60.410 20.477261
60.415 20.380457
60.420 20.203077
60.425 20.059748
60.430 20.84408
60.435 21.118809
60.440 21.243906
60.445 21.389732
60.450 21.699604
60.455 21.799263
60.460 21.688808
60.465 21.461372
60.470 21.5478
60.475 21.643217
60.480 21.343946
60.485 21.2472
60.490 21.61936
60.495 21.495686
60.500 20.919106
60.505 20.560379
60.510 20.182892
60.515 20.368542
60.520 20.119431
60.525 19.713612
60.530 20.337328
60.535 20.951214
60.540 21.450907
60.545 21.617668
60.550 21.989256
60.555 21.543415
60.560 21.286781
60.565 20.682671
60.570 20.369171
60.575 19.980928
60.580 19.341257
60.585 19.169357
60.590 19.664387
60.595 20.168322
60.600 20.285782
60.605 20.579144
60.610 21.051846
60.615 21.007631
60.620 20.400623
60.625 19.788095
60.630 19.782167
60.635 19.648708
60.640 19.508772
60.645 19.190422
60.650 19.499828
60.655 19.396168
60.660 19.135191
60.665 18.924641
60.670 18.595533
60.675 17.572306
60.680 17.375341
60.685 17.676487
60.690 18.084164
60.695 18.234617
60.700 17.714966
60.705 17.439064
60.710 17.742018
60.715 17.464363
60.720 17.090885
60.725 17.014862
60.730 16.817268
60.735 17.426783
60.740 17.919508
60.745 18.060728
60.750 17.646376
60.755 17.300869
60.760 17.629354
60.765 18.358452
60.770 18.391439
60.775 18.716291
60.780 18.581848
60.785 18.764902
60.790 18.471794
60.795 18.012615
60.800 17.488283
60.805 17.262489
60.810 16.921051
60.815 17.445545
60.820 17.913486
60.825 18.588364
60.830 18.875603
60.835 19.002405
60.840 18.820679
60.845 19.246559
60.850 19.577938
60.855 19.116331
60.860 18.81114
60.865 18.319647
60.870 18.293854
60.875 18.464073
60.880 17.568695
60.885 16.788303
60.890 16.647282
60.895 16.897987
60.900 17.26606
60.905 17.015377
60.910 16.873779
60.915 17.02113
60.920 16.905777
60.925 17.418314
60.930 17.515776
60.935 17.37134
60.940 17.599783
60.945 18.001637
60.950 17.955671
60.955 18.416636
60.960 18.074009
60.965 17.523638
60.970 17.255142
60.975 16.915977
60.980 17.043913
60.985 17.251266
60.990 17.397797
60.995 17.312017
61.000 17.421444
61.005 17.61865
61.010 17.989119
61.015 17.762621
61.020 17.627176
61.025 17.304016
61.030 17.699648
61.035 18.066078
61.040 18.165911
61.045 17.74296
61.050 17.699186
61.055 17.412601
61.060 17.361391
61.065 17.407183
61.070 17.194536
61.075 16.957203
61.080 16.783283
61.085 16.949442
61.090 17.129938
61.095 17.262403
61.100 16.921591
61.105 16.721212
61.110 16.737267
61.115 16.827808
61.120 17.060822
61.125 17.302933
61.130 16.991796
61.135 17.585993
61.140 17.954203
61.145 18.133333
61.150 17.892265
61.155 17.415245
61.160 17.839491
61.165 17.500975
61.170 16.786024
61.175 16.583532
61.180 16.608116
61.185 17.146906
61.190 17.53298
61.195 17.006397
61.200 17.26029
61.205 17.647249
61.210 17.887093
61.215 17.796358
61.220 17.530344
61.225 17.428879
61.230 17.389706
61.235 17.260668
61.240 17.205023
61.245 17.399233
61.250 17.284769
61.255 17.071024
61.260 17.091564
61.265 17.674036
61.270 17.760347
61.275 17.474199
61.280 17.590513
61.285 17.962025
61.290 17.94458
61.295 17.694069
61.300 17.488325
61.305 17.126308
61.310 16.966749
61.315 16.735184
61.320 16.971756
61.325 17.159851
61.330 17.332624
61.335 16.800425
61.340 16.679285
61.345 16.607765
61.350 16.042933
61.355 15.556834
61.360 15.985557
61.365 16.120203
61.370 16.320309
61.375 16.908504
61.380 17.190544
61.385 17.80279
61.390 17.950878
61.395 17.519863
61.400 17.619148
61.405 17.057394
61.410 17.102877
61.415 17.305988
61.420 16.855024
61.425 16.56798
61.430 16.524132
61.435 16.645502
61.440 17.409018
61.445 17.535273
61.450 17.148741
61.455 17.572618
61.460 17.101244
61.465 17.010876
61.470 16.953949
61.475 17.066732
61.480 17.289808
61.485 17.457115
61.490 17.280914
61.495 17.867096
61.500 18.043352
61.505 18.128353
61.510 18.050823
61.515 17.798315
61.520 17.395208
61.525 17.424982
61.530 17.525419
61.535 16.92766
61.540 16.979937
61.545 17.080303
61.550 17.112795
61.555 17.684
61.560 17.388531
61.565 17.172443
61.570 17.796181
61.575 17.828979
61.580 17.567123
61.585 17.090277
61.590 16.456539
61.595 16.855082
61.600 17.40963
61.605 17.052135
61.610 16.315836
61.615 16.18726
61.620 17.103453
61.625 17.299355
61.630 16.956179
61.635 16.645552
61.640 17.193346
61.645 17.327362
61.650 17.348635
61.655 16.766212
61.660 16.859884
61.665 17.034107
61.670 16.99057
61.675 16.694458
61.680 16.734201
61.685 16.549501
61.690 16.273417
61.695 16.072105
61.700 15.564238
61.705 15.368796
61.710 15.44151
61.715 15.385745
61.720 15.542152
61.725 15.943981
61.730 15.957265
61.735 16.57852
61.740 16.517149
61.745 16.080536
61.750 16.311132
61.755 16.357143
61.760 15.847498
61.765 16.074671
61.770 16.032675
61.775 16.398172
61.780 16.218287
61.785 15.948009
61.790 15.92569
61.795 16.3969
61.800 16.5079
61.805 15.724617
61.810 15.146248
61.815 15.653523
61.820 16.069172
61.825 15.99449
61.830 16.252151
61.835 16.432335
61.840 17.005018
61.845 17.011677
61.850 16.69109
61.855 16.688057
61.860 17.000771
61.865 16.276524
61.870 16.229706
61.875 16.757853
61.880 17.496305
61.885 18.153151
61.890 18.148159
61.895 17.571514
61.900 17.758692
61.905 17.275246
61.910 17.02129
61.915 16.572298
61.920 15.913324
61.925 16.093752
61.930 16.143009
61.935 16.655481
61.940 17.611786
61.945 17.913624
61.950 17.839525
61.955 17.862095
61.960 17.150734
61.965 17.284582
61.970 16.702011
61.975 16.126148
61.980 15.86163
61.985 16.247953
61.990 16.181196
61.995 16.542784
62.000 16.627983
62.005 17.134153
62.010 16.791306
62.015 16.656513
62.020 17.019518
62.025 17.432825
62.030 17.80748
62.035 17.506796
62.040 16.857386
62.045 16.918156
62.050 16.700432
62.055 16.239573
62.060 15.740605
62.065 15.41364
62.070 15.230961
62.075 15.044112
62.080 15.035649
62.085 15.304355
62.090 15.399566
62.095 15.530996
62.100 15.496239
62.105 16.117474
62.110 17.13686
62.115 17.69755
62.120 17.348129
62.125 17.002235
62.130 17.109079
62.135 17.885532
62.140 17.608164
62.145 16.985531
62.150 16.209702
62.155 16.501535
62.160 16.774399
62.165 16.549225
62.170 15.786184
62.175 15.838142
62.180 16.37112
62.185 16.905783
62.190 16.950056
62.195 17.165592
62.200 17.247805
62.205 17.223289
62.210 16.789696
62.215 16.210846
62.220 16.37672
62.225 16.18182
62.230 16.186638
62.235 16.582922
62.240 16.742456
62.245 17.218184
62.250 17.555574
62.255 17.242935
62.260 17.249897
62.265 17.290232
62.270 17.204361
62.275 16.916353
62.280 16.550186
62.285 16.01453
62.290 16.117336
62.295 16.184311
62.300 15.656032
62.305 15.264889
62.310 15.53417
62.315 15.657458
62.320 15.627043
62.325 15.195256
62.330 15.329075
62.335 15.646754
62.340 16.124155
62.345 16.225578
62.350 16.122471
62.355 15.868792
62.360 16.003344
62.365 16.079618
62.370 15.869086
62.375 15.386828
62.380 15.161077
62.385 15.329512
62.390 16.006624
62.395 16.603273
62.400 16.301888
62.405 16.464794
62.410 16.813162
62.415 17.062294
62.420 16.816956
62.425 16.571142
62.430 16.292057
62.435 15.872618
62.440 15.364819
62.445 15.288225
62.450 15.758866
62.455 16.607029
62.460 16.856401
62.465 17.561138
62.470 18.170385
62.475 18.902893
62.480 18.442776
62.485 18.161409
62.490 17.35885
62.495 16.813931
62.500 16.243008
62.505 15.911784
62.510 15.734664
62.515 16.03775
62.520 15.66367
62.525 16.114159
62.530 16.431091
62.535 16.142937
62.540 16.400333
62.545 16.805992
62.550 16.875072
62.555 17.376032
62.560 17.486534
62.565 17.517767
62.570 18.136246
62.575 17.653172
62.580 17.283665
62.585 17.389915
62.590 17.353424
62.595 17.118238
62.600 16.550886
62.605 16.377447
62.610 16.796263
62.615 16.308922
62.620 15.914224
62.625 15.759315
62.630 16.137838
62.635 16.151882
62.640 16.140705
62.645 16.035202
62.650 16.907307
62.655 17.754604
62.660 17.753515
62.665 17.541861
62.670 17.436087
62.675 17.398298
62.680 17.616035
62.685 16.832024
62.690 16.663525
62.695 16.849932
62.700 16.544994
62.705 17.528061
62.710 17.892422
62.715 18.150568
62.720 18.396292
62.725 17.527092
62.730 17.198204
62.735 17.61079
62.740 16.566515
62.745 15.87439
62.750 15.51165
62.755 15.791508
62.760 16.163895
62.765 16.409874
62.770 15.979552
62.775 16.416641
62.780 16.31369
62.785 16.310822
62.790 16.205688
62.795 15.875694
62.800 15.352106
62.805 15.555227
62.810 15.452371
62.815 15.741466
62.820 16.061007
62.825 16.024334
62.830 16.59709
62.835 16.879366
62.840 17.188107
62.845 17.287107
62.850 16.998417
62.855 16.766834
62.860 16.901001
62.865 16.457539
62.870 15.992108
62.875 15.857966
62.880 16.117598
62.885 16.060839
62.890 15.69749
62.895 15.483531
62.900 16.143167
62.905 16.699387
62.910 16.924578
62.915 16.827618
62.920 16.760895
62.925 16.619242
62.930 16.393604
62.935 16.422029
62.940 16.514215
62.945 16.04788
62.950 16.156393
62.955 15.975748
62.960 16.530216
62.965 16.733343
62.970 17.084532
62.975 17.626789
62.980 17.386629
62.985 17.185715
62.990 17.664318
62.995 17.620514
63.000 17.86006
63.005 17.460682
63.010 16.857771
63.015 17.109037
63.020 17.42588
63.025 16.962637
63.030 16.591852
63.035 16.108234
63.040 15.579751
63.045 15.687856
63.050 16.205027
63.055 16.337654
63.060 16.960644
63.065 16.955444
63.070 16.940472
63.075 17.457033
63.080 17.341785
63.085 16.967697
63.090 16.859005
63.095 16.845596
63.100 17.095362
63.105 17.325777
63.110 17.338726
63.115 17.374548
63.120 16.974358
63.125 16.949354
63.130 17.27725
63.135 17.382877
63.140 16.883316
63.145 16.564783
63.150 16.865847
63.155 17.387833
63.160 17.686935
63.165 17.383575
63.170 17.546341
63.175 18.127512
63.180 18.019905
63.185 17.240936
63.190 16.750433
63.195 16.436035
63.200 16.310484
63.205 15.781049
63.210 15.20559
63.215 14.972533
63.220 15.142218
63.225 15.33567
63.230 15.077766
63.235 15.503602
63.240 16.308081
63.245 17.020178
63.250 17.898308
63.255 18.52846
63.260 18.746582
63.265 19.286959
63.270 19.343241
63.275 18.951448
63.280 18.878696
63.285 18.329109
63.290 18.458241
63.295 18.767502
63.300 18.843645
63.305 18.663347
63.310 18.108562
63.315 17.494844
63.320 17.922497
63.325 17.457165
63.330 16.956415
63.335 16.222424
63.340 15.808188
63.345 16.026966
63.350 15.836958
63.355 15.301571
63.360 15.577651
63.365 15.61529
63.370 15.732979
63.375 15.860566
63.380 16.384636
63.385 17.114618
63.390 17.465584
63.395 17.180079
63.400 17.156843
63.405 16.477211
63.410 16.474342
63.415 16.093388
63.420 16.198351
63.425 16.14373
63.430 16.452686
63.435 16.420416
63.440 16.891968
63.445 17.262026
63.450 17.716883
63.455 17.553391
63.460 16.844296
63.465 16.697924
63.470 16.812641
63.475 16.999716
63.480 17.013876
63.485 17.179131
63.490 16.955641
63.495 17.108467
63.500 17.15167
63.505 17.555384
63.510 17.470047
63.515 17.223532
63.520 17.293865
63.525 17.932249
63.530 18.299337
63.535 18.504866
63.540 18.147123
63.545 18.542051
63.550 18.530832
63.555 18.48773
63.560 18.325455
63.565 18.635431
63.570 18.734684
63.575 19.199839
63.580 19.404236
63.585 19.193953
63.590 18.748268
63.595 18.443787
63.600 18.403753
63.605 18.921415
63.610 19.214769
63.615 19.025612
63.620 19.367434
63.625 19.551466
63.630 19.672602
63.635 19.244766
63.640 18.622196
63.645 18.000502
63.650 17.912296
63.655 17.898439
63.660 18.016521
63.665 18.270674
63.670 18.591343
63.675 18.656895
63.680 18.418802
63.685 18.365658
63.690 18.084381
63.695 17.78981
63.700 17.299107
63.705 17.41539
63.710 17.587669
63.715 18.309187
63.720 18.25996
63.725 18.487938
63.730 18.408394
63.735 17.842806
63.740 17.062857
63.745 16.465342
63.750 16.028389
63.755 16.262716
63.760 15.890105
63.765 15.710223
63.770 16.510628
63.775 17.164585
63.780 17.553156
63.785 17.271923
63.790 17.370445
63.795 17.551947
63.800 17.667439
63.805 17.822477
63.810 18.396845
63.815 18.567867
63.820 19.162823
63.825 18.955572
63.830 18.859343
63.835 19.600031
63.840 19.395481
63.845 19.319454
63.850 19.408945
63.855 19.46208
63.860 19.691824
63.865 19.586674
63.870 18.763037
63.875 18.282858
63.880 17.763689
63.885 17.544159
63.890 17.203238
63.895 16.806728
63.900 16.917091
63.905 17.12516
63.910 17.111916
63.915 16.57959
63.920 16.501945
63.925 16.505926
63.930 17.20763
63.935 17.353096
63.940 17.66378
63.945 17.934042
63.950 18.216143
63.955 18.598629
63.960 18.728073
63.965 18.860537
63.970 19.071455
63.975 19.520039
63.980 19.515841
63.985 19.651941
63.990 18.911747
63.995 18.721346
64.000 18.539661
64.005 17.969316
64.010 17.852791
64.015 17.848103
64.020 17.805382
64.025 17.947742
64.030 18.496969
64.035 18.980364
64.040 19.181664
64.045 18.926628
64.050 19.155725
64.055 19.189442
64.060 18.78175
64.065 18.327026
64.070 18.07659
64.075 18.292725
64.080 18.024925
64.085 17.674314
64.090 17.690277
64.095 17.882172
64.100 16.999249
64.105 16.413198
64.110 16.273876
64.115 16.290585
64.120 16.644449
64.125 16.809185
64.130 16.722427
64.135 17.538353
64.140 17.845043
64.145 17.545191
64.150 17.568542
64.155 17.242546
64.160 17.726572
64.165 17.839365
64.170 17.649258
64.175 17.969063
64.180 18.204666
64.185 18.348013
64.190 18.292408
64.195 17.598259
64.200 17.232367
64.205 17.04114
64.210 16.970711
64.215 17.093416
64.220 16.86101
64.225 16.775591
64.230 17.232573
64.235 17.390924
64.240 17.578463
64.245 17.570419
64.250 17.586912
64.255 17.936338
64.260 18.417643
64.265 18.535238
64.270 18.925531
64.275 18.405245
64.280 17.348761
64.285 17.266146
64.290 17.668934
64.295 17.936985
64.300 17.794086
64.305 17.498577
64.310 17.875422
64.315 18.76063
64.320 18.429634
64.325 18.149324
64.330 17.564671
64.335 17.264582
64.340 17.484991
64.345 18.05687
64.350 18.306923
64.355 18.20788
64.360 18.214905
64.365 18.560528
64.370 18.399267
64.375 17.871969
64.380 16.98457
64.385 16.81555
64.390 17.086866
64.395 17.207174
64.400 17.282749
64.405 17.837992
64.410 18.493172
64.415 18.715549
64.420 18.991386
64.425 19.125555
64.430 18.713623
64.435 19.005032
64.440 19.270357
64.445 19.925638
64.450 20.115877
64.455 20.432129
64.460 20.172779
64.465 20.052202
64.470 19.722618
64.475 19.244228
64.480 18.777887
64.485 18.823008
64.490 18.430393
64.495 18.405615
64.500 18.524931
64.505 18.826586
64.510 19.500605
64.515 19.947531
64.520 20.269754
64.525 20.365122
64.530 20.154974
64.535 20.758289
64.540 21.170969
64.545 20.636187
64.550 20.069244
64.555 19.878611
64.560 20.48461
64.565 21.121824
64.570 20.395782
64.575 19.292389
64.580 19.38575
64.585 19.562391
64.590 19.20256
64.595 18.592314
64.600 18.267654
64.605 18.763296
64.610 19.699499
64.615 19.958721
64.620 20.148291
64.625 20.029366
64.630 19.971598
64.635 20.335791
64.640 20.499487
64.645 19.735899
64.650 19.427372
64.655 19.369385
64.660 19.631346
64.665 19.738649
64.670 19.298815
64.675 19.097393
64.680 19.130325
64.685 19.503658
64.690 19.792824
64.695 19.44788
64.700 19.137541
64.705 18.997028
64.710 18.943859
64.715 18.777494
64.720 18.00215
64.725 17.773302
64.730 17.875757
64.735 18.69389
64.740 19.016293
64.745 19.278744
64.750 19.521965
64.755 19.524126
64.760 20.110142
64.765 20.19927
64.770 19.950184
64.775 19.803461
64.780 19.472878
64.785 19.750641
64.790 19.674644
64.795 19.40098
64.800 19.987255
64.805 19.789392
64.810 20.009037
64.815 20.325874
64.820 20.702719
64.825 21.075218
64.830 20.972698
64.835 20.505058
64.840 20.892447
64.845 21.111347
64.850 20.941442
64.855 21.177917
64.860 21.29417
64.865 21.277157
64.870 21.499016
64.875 21.701214
64.880 21.811651
64.885 21.923811
64.890 21.035089
64.895 20.825191
64.900 20.819859
64.905 20.857397
64.910 20.341589
64.915 20.11845
64.920 20.408127
64.925 20.6945
64.930 20.717857
64.935 20.751961
64.940 20.985765
64.945 20.877209
64.950 20.369019
64.955 20.483643
64.960 20.358564
64.965 20.841661
64.970 20.895685
64.975 20.519066
64.980 20.580433
64.985 20.780756
64.990 21.18107
64.995 21.924368
65.000 21.599468
65.005 21.353775
65.010 22.102262
65.015 21.813419
65.020 21.506832
65.025 20.788853
65.030 20.427252
65.035 20.926451
65.040 21.16518
65.045 21.269867
65.050 22.071583
65.055 22.732012
65.060 22.660545
65.065 21.970627
65.070 22.056461
65.075 22.391417
65.080 22.31698
65.085 22.257998
65.090 22.130955
65.095 22.832575
65.100 23.640291
65.105 23.264263
65.110 23.343407
65.115 23.12495
65.120 23.308449
65.125 23.620386
65.130 23.875097
65.135 23.452648
65.140 23.3216
65.145 22.820456
65.150 22.545799
65.155 22.114754
65.160 22.143475
65.165 22.00321
65.170 22.354979
65.175 22.503626
65.180 22.588657
65.185 22.741167
65.190 22.707268
65.195 22.428141
65.200 22.507942
65.205 22.740288
65.210 22.742531
65.215 22.810003
65.220 22.617739
65.225 23.239502
65.230 23.718376
65.235 23.372391
65.240 23.158152
65.245 23.21162
65.250 22.714016
65.255 22.756052
65.260 22.642124
65.265 22.422955
65.270 22.893879
65.275 22.626863
65.280 22.248831
65.285 22.360363
65.290 22.236034
65.295 22.093531
65.300 22.696339
65.305 22.332064
65.310 22.882467
65.315 23.11611
65.320 23.742271
65.325 23.385893
65.330 23.327751
65.335 22.868586
65.340 22.315992
65.345 22.030043
65.350 22.497696
65.355 22.489437
65.360 22.944014
65.365 22.91028
65.370 23.388046
65.375 23.816561
65.380 23.63372
65.385 23.491655
65.390 23.123341
65.395 22.585846
65.400 22.044344
65.405 21.975483
65.410 22.295727
65.415 22.76539
65.420 22.463669
65.425 22.576817
65.430 23.721058
65.435 24.287741
65.440 24.660725
65.445 24.564468
65.450 24.158649
65.455 24.992125
65.460 24.833429
65.465 24.470541
65.470 24.001051
65.475 24.051054
65.480 23.936357
65.485 23.869734
65.490 23.221203
65.495 24.200989
65.500 24.885199
65.505 25.384157
65.510 25.592642
65.515 26.091417
65.520 26.290445
65.525 26.807343
65.530 26.778851
65.535 26.97987
65.540 27.555916
65.545 27.426104
65.550 27.645031
65.555 28.108286
65.560 28.742273
65.565 27.825449
65.570 27.592983
65.575 27.542152
65.580 28.67827
65.585 29.567295
65.590 29.561535
65.595 29.356087
65.600 30.380825
65.605 30.337679
65.610 30.210436
65.615 29.546556
65.620 29.536455
65.625 30.210648
65.630 30.659149
65.635 30.924932
65.640 31.529797
65.645 31.847658
65.650 31.842909
65.655 31.485651
65.660 31.162222
65.665 30.953707
65.670 30.438076
65.675 30.560152
65.680 30.970924
65.685 30.709194
65.690 31.34798
65.695 31.217352
65.700 31.351967
65.705 31.29344
65.710 30.426033
65.715 30.197826
65.720 30.437912
65.725 30.710644
65.730 31.638199
65.735 32.091038
65.740 32.374741
65.745 33.073864
65.750 34.46825
65.755 34.873512
65.760 34.188374
65.765 33.864281
65.770 33.762878
65.775 34.276123
65.780 34.061394
65.785 33.175064
65.790 33.709133
65.795 34.509247
65.800 34.3862
65.805 34.173878
65.810 34.159111
65.815 33.758987
65.820 33.822067
65.825 33.207367
65.830 33.401104
65.835 33.753437
65.840 34.243427
65.845 34.475845
65.850 35.34927
65.855 35.944
65.860 36.696487
65.865 36.705723
65.870 36.619579
65.875 36.236244
65.880 36.617729
65.885 36.536331
65.890 36.22102
65.895 35.979446
65.900 35.745274
65.905 36.473904
65.910 36.76992
65.915 36.559292
65.920 36.37376
65.925 36.028404
65.930 36.274925
65.935 36.954353
65.940 36.406441
65.945 36.815109
65.950 36.868229
65.955 36.904438
65.960 37.367779
65.965 37.16502
65.970 37.141674
65.975 37.431145
65.980 36.88818
65.985 36.890797
65.990 36.992779
65.995 36.356575
66.000 36.004063
66.005 35.346252
66.010 34.962105
66.015 34.881477
66.020 34.328175
66.025 33.576218
66.030 34.084682
66.035 34.458317
66.040 34.371624
66.045 34.294682
66.050 34.844078
66.055 35.197163
66.060 35.835831
66.065 36.021126
66.070 35.953201
66.075 36.003719
66.080 35.654877
66.085 34.701286
66.090 34.32222
66.095 34.835003
66.100 34.328255
66.105 33.906357
66.110 33.914371
66.115 34.456699
66.120 35.199039
66.125 35.511299
66.130 34.64859
66.135 34.508064
66.140 35.14872
66.145 35.734108
66.150 35.667709
66.155 35.838337
66.160 36.022995
66.165 35.758602
66.170 35.888676
66.175 34.817554
66.180 34.691452
66.185 34.609062
66.190 33.964283
66.195 33.514359
66.200 33.837036
66.205 33.131866
66.210 33.524193
66.215 32.708626
66.220 32.484966
66.225 32.307697
66.230 32.023273
66.235 31.691725
66.240 32.037518
66.245 32.28014
66.250 32.633015
66.255 32.752457
66.260 33.064663
66.265 33.0504
66.270 32.714653
66.275 33.038116
66.280 32.805286
66.285 32.464615
66.290 32.40815
66.295 32.534409
66.300 32.909405
66.305 33.310734
66.310 32.638382
66.315 32.414391
66.320 32.334255
66.325 32.274799
66.330 32.196236
66.335 31.470119
66.340 31.310417
66.345 31.540096
66.350 32.209881
66.355 32.429733
66.360 32.227081
66.365 32.160069
66.370 32.672573
66.375 32.047897
66.380 31.70363
66.385 30.28237
66.390 30.09441
66.395 29.899307
66.400 29.938528
66.405 29.678234
66.410 30.172514
66.415 30.268116
66.420 30.627474
66.425 30.117493
66.430 29.569048
66.435 29.205843
66.440 29.535751
66.445 29.80114
66.450 29.227837
66.455 29.059149
66.460 28.962164
66.465 29.192244
66.470 29.907787
66.475 29.534182
66.480 28.423315
66.485 28.110207
66.490 27.617243
66.495 27.210114
66.500 26.702919
66.505 25.887682
66.510 26.02578
66.515 26.686619
66.520 26.761047
66.525 26.903929
66.530 27.518785
66.535 27.201597
66.540 26.807077
66.545 26.751945
66.550 26.918449
66.555 27.424793
66.560 27.139894
66.565 26.841734
66.570 27.544422
66.575 28.087299
66.580 27.357565
66.585 27.420509
66.590 27.737404
66.595 28.182051
66.600 28.257296
66.605 27.929636
66.610 27.607676
66.615 27.915829
66.620 27.130257
66.625 26.053345
66.630 25.702188
66.635 25.308302
66.640 24.764763
66.645 24.049173
66.650 23.422466
66.655 23.007687
66.660 23.059198
66.665 23.421288
66.670 23.611908
66.675 23.874735
66.680 24.281212
66.685 24.530354
66.690 24.623091
66.695 24.363678
66.700 23.825697
66.705 23.46624
66.710 23.293528
66.715 23.310804
66.720 23.882132
66.725 24.68943
66.730 24.606192
66.735 24.433056
66.740 24.443235
66.745 24.457325
66.750 23.976604
66.755 23.764914
66.760 22.99692
66.765 23.569672
66.770 24.162334
66.775 24.410648
66.780 24.569969
66.785 24.575287
66.790 23.656994
66.795 24.097256
66.800 24.003759
66.805 24.100142
66.810 24.246552
66.815 24.280052
66.820 24.171194
66.825 24.814459
66.830 24.375559
66.835 24.314518
66.840 24.267834
66.845 23.774195
66.850 23.230457
66.855 23.379244
66.860 23.405962
66.865 23.615438
66.870 22.902643
66.875 22.985014
66.880 23.387661
66.885 23.762453
66.890 23.606136
66.895 23.013483
66.900 23.306007
66.905 23.773371
66.910 23.26487
66.915 23.491497
66.920 23.74935
66.925 23.951242
66.930 24.140747
66.935 23.700916
66.940 23.790655
66.945 24.041973
66.950 23.64003
66.955 23.39773
66.960 23.34623
66.965 22.665686
66.970 22.802141
66.975 22.519609
66.980 22.66765
66.985 22.363651
66.990 21.807957
66.995 21.751701
67.000 21.830103
67.005 21.914425
67.010 22.365484
67.015 22.009293
67.020 22.079695
67.025 22.070539
67.030 21.679089
67.035 21.781609
67.040 21.914085
67.045 21.52907
67.050 21.648323
67.055 22.090088
67.060 22.447227
67.065 22.406469
67.070 21.821396
67.075 21.266689
67.080 21.058889
67.085 20.708498
67.090 20.611423
67.095 20.84724
67.100 21.258224
67.105 21.577192
67.110 21.550764
67.115 21.361477
67.120 21.091578
67.125 21.245417
67.130 22.118834
67.135 22.456139
67.140 22.484461
67.145 23.414427
67.150 24.24375
67.155 24.644909
67.160 24.523409
67.165 24.029303
67.170 24.844015
67.175 25.352468
67.180 24.311214
67.185 24.009583
67.190 23.620367
67.195 23.333427
67.200 22.381737
67.205 21.537399
67.210 20.600157
67.215 20.885595
67.220 21.571911
67.225 22.065334
67.230 22.083954
67.235 22.089546
67.240 21.502981
67.245 21.634535
67.250 21.116949
67.255 20.72192
67.260 20.801041
67.265 20.973392
67.270 20.781837
67.275 21.340776
67.280 21.648909
67.285 22.129616
67.290 21.417107
67.295 21.009621
67.300 21.883263
67.305 22.568024
67.310 22.624714
67.315 22.140213
67.320 22.105209
67.325 22.478273
67.330 22.369862
67.335 22.026827
67.340 21.662214
67.345 21.808086
67.350 22.03191
67.355 22.049599
67.360 22.143581
67.365 22.038958
67.370 22.243935
67.375 22.432446
67.380 22.045158
67.385 22.008835
67.390 22.04759
67.395 22.139898
67.400 21.90947
67.405 21.421732
67.410 20.986044
67.415 21.19692
67.420 20.911852
67.425 20.21188
67.430 19.873915
67.435 19.912142
67.440 19.845943
67.445 19.957808
67.450 20.983128
67.455 21.344296
67.460 21.590103
67.465 21.4818
67.470 21.599289
67.475 21.86755
67.480 21.37989
67.485 21.166645
67.490 21.959925
67.495 22.260588
67.500 22.863937
67.505 22.511362
67.510 22.09441
67.515 22.579012
67.520 22.926525
67.525 22.245066
67.530 21.802237
67.535 21.61174
67.540 22.322823
67.545 23.192316
67.550 23.218689
67.555 22.797791
67.560 23.004528
67.565 23.38471
67.570 23.185211
67.575 22.919697
67.580 23.057713
67.585 22.399971
67.590 21.896593
67.595 22.073442
67.600 21.897791
67.605 22.112883
67.610 22.479763
67.615 22.554001
67.620 22.871292
67.625 22.904539
67.630 22.799181
67.635 22.673313
67.640 22.484365
67.645 21.979143
67.650 21.498228
67.655 20.81197
67.660 21.41338
67.665 21.330633
67.670 21.233547
67.675 21.16571
67.680 20.873377
67.685 20.936796
67.690 20.475657
67.695 20.129221
67.700 20.324558
67.705 20.759611
67.710 20.714109
67.715 21.042734
67.720 21.327425
67.725 21.586124
67.730 21.643663
67.735 21.87495
67.740 21.866585
67.745 21.58745
67.750 21.242153
67.755 21.868876
67.760 22.290146
67.765 21.901947
67.770 21.511963
67.775 21.013885
67.780 21.267084
67.785 21.301855
67.790 21.231203
67.795 21.34079
67.800 20.852978
67.805 20.972723
67.810 21.446774
67.815 21.45409
67.820 21.335335
67.825 20.809877
67.830 20.710075
67.835 21.26922
67.840 20.819433
67.845 20.796562
67.850 20.793285
67.855 20.891285
67.860 21.11215
67.865 21.18434
67.870 20.645006
67.875 20.204283
67.880 19.559158
67.885 19.770601
67.890 19.976307
67.895 19.836475
67.900 19.819769
67.905 20.414095
67.910 21.459635
67.915 21.580507
67.920 21.297226
67.925 21.182301
67.930 20.988731
67.935 21.158176
67.940 21.283503
67.945 21.399078
67.950 21.693237
67.955 21.636147
67.960 21.200855
67.965 21.211527
67.970 20.81361
67.975 20.640144
67.980 20.622139
67.985 20.619598
67.990 20.845247
67.995 21.276783
68.000 21.760916
68.005 22.356283
68.010 22.424496
68.015 22.410965
68.020 23.030264
68.025 23.051506
68.030 22.730062
68.035 22.681879
68.040 22.469587
68.045 21.526148
68.050 21.034031
68.055 20.273804
68.060 20.248688
68.065 20.360559
68.070 19.674314
68.075 19.468779
68.080 20.453072
68.085 20.491119
68.090 21.001133
68.095 21.035912
68.100 20.877695
68.105 21.696655
68.110 21.286736
68.115 20.695404
68.120 20.433418
68.125 20.023029
68.130 19.730246
68.135 20.012625
68.140 20.187122
68.145 21.045349
68.150 21.665876
68.155 22.183544
68.160 22.698486
68.165 23.006149
68.170 22.745682
68.175 22.378893
68.180 22.438797
68.185 22.465218
68.190 22.545267
68.195 22.373781
68.200 22.249907
68.205 21.909021
68.210 21.233913
68.215 20.175045
68.220 20.014261
68.225 19.793835
68.230 19.676447
68.235 19.895391
68.240 20.152718
68.245 20.253359
68.250 20.666969
68.255 20.381298
68.260 20.413441
68.265 20.359943
68.270 20.204109
68.275 20.728758
68.280 20.836777
68.285 21.17934
68.290 21.149111
68.295 20.903597
68.300 20.610836
68.305 20.073292
68.310 19.778811
68.315 19.776659
68.320 20.0208
68.325 20.148397
68.330 19.88736
68.335 20.158022
68.340 20.570951
68.345 20.54277
68.350 20.425663
68.355 20.198627
68.360 20.598349
68.365 20.522921
68.370 20.576893
68.375 20.364006
68.380 21.184467
68.385 21.775579
68.390 21.613697
68.395 21.748959
68.400 21.972416
68.405 22.289362
68.410 22.516687
68.415 22.363306
68.420 21.856995
68.425 21.655329
68.430 21.283108
68.435 21.433197
68.440 21.134678
68.445 21.223604
68.450 20.912693
68.455 21.449739
68.460 21.523361
68.465 21.31921
68.470 21.218834
68.475 21.716345
68.480 21.37685
68.485 22.05192
68.490 22.126217
68.495 22.021404
68.500 21.88048
68.505 22.114519
68.510 21.896482
68.515 21.543743
68.520 20.988882
68.525 21.040638
68.530 21.958195
68.535 21.951166
68.540 21.500071
68.545 21.295107
68.550 21.480379
68.555 20.901697
68.560 20.785254
68.565 20.538822
68.570 20.990479
68.575 21.01923
68.580 20.997873
68.585 21.052883
68.590 21.462257
68.595 20.6297
68.600 20.320177
68.605 19.830713
68.610 19.653692
68.615 19.511553
68.620 19.837536
68.625 20.18268
68.630 20.665815
68.635 20.670208
68.640 21.457966
68.645 21.881411
68.650 22.396626
68.655 22.367828
68.660 22.273247
68.665 22.430578
68.670 22.299486
68.675 22.326973
68.680 22.021727
68.685 21.864895
68.690 21.645567
68.695 21.492235
68.700 21.522482
68.705 21.310989
68.710 21.513977
68.715 21.698004
68.720 21.590717
68.725 20.954481
68.730 21.052063
68.735 21.746832
68.740 22.129162
68.745 21.511103
68.750 21.624083
68.755 21.846712
68.760 22.357048
68.765 22.866182
68.770 22.603245
68.775 22.319983
68.780 22.354351
68.785 22.706036
68.790 23.14784
68.795 22.515457
68.800 21.215803
68.805 20.619747
68.810 20.964701
68.815 21.440935
68.820 20.730473
68.825 20.406069
68.830 21.052248
68.835 21.527788
68.840 22.235109
68.845 22.95879
68.850 23.043411
68.855 23.297087
68.860 23.413298
68.865 23.587957
68.870 24.088354
68.875 23.712006
68.880 22.681562
68.885 22.554638
68.890 22.427214
68.895 22.163752
68.900 22.140205
68.905 22.594654
68.910 23.387789
68.915 23.672173
68.920 23.845312
68.925 24.167046
68.930 24.480806
68.935 24.808758
68.940 23.851164
68.945 22.915451
68.950 22.703865
68.955 23.118919
68.960 23.004911
68.965 22.904228
68.970 22.911966
68.975 23.408312
68.980 23.739359
68.985 24.070377
68.990 24.123547
68.995 24.237082
69.000 24.350119
69.005 24.151426
69.010 24.293215
69.015 24.223085
69.020 23.807665
69.025 23.757154
69.030 24.085592
69.035 24.360167
69.040 24.527489
69.045 24.613594
69.050 25.227182
69.055 25.415497
69.060 25.176702
69.065 25.297756
69.070 25.96969
69.075 26.31942
69.080 26.23041
69.085 26.095333
69.090 26.10499
69.095 26.467085
69.100 26.043154
69.105 25.30179
69.110 25.257925
69.115 25.024597
69.120 25.12995
69.125 24.927174
69.130 24.616982
69.135 24.420683
69.140 23.865389
69.145 23.967962
69.150 24.078136
69.155 24.195557
69.160 24.401457
69.165 24.518116
69.170 25.081396
69.175 25.654589
69.180 25.927017
69.185 26.183243
69.190 26.10405
69.195 26.705494
69.200 26.681286
69.205 26.59034
69.210 26.481918
69.215 26.54705
69.220 25.963806
69.225 25.254625
69.230 25.188108
69.235 25.444597
69.240 25.531006
69.245 25.541313
69.250 25.872477
69.255 26.820065
69.260 27.133129
69.265 26.64006
69.270 26.433268
69.275 26.978798
69.280 26.841162
69.285 26.9949
69.290 27.61779
69.295 28.504887
69.300 29.747005
69.305 30.469107
69.310 30.6036
69.315 30.210678
69.320 29.590109
69.325 28.985048
69.330 28.916443
69.335 28.029703
69.340 27.439678
69.345 27.639202
69.350 27.990755
69.355 27.696821
69.360 27.788023
69.365 27.352848
69.370 26.801804
69.375 26.724148
69.380 25.87101
69.385 26.014891
69.390 26.524204
69.395 26.557608
69.400 27.274544
69.405 27.740829
69.410 27.742809
69.415 28.474264
69.420 28.188337
69.425 28.129122
69.430 28.302692
69.435 28.095104
69.440 28.419306
69.445 29.099245
69.450 28.818197
69.455 28.490242
69.460 28.37101
69.465 28.340515
69.470 28.646936
69.475 28.377377
69.480 27.555502
69.485 27.839975
69.490 28.695702
69.495 29.163614
69.500 28.546108
69.505 27.604715
69.510 27.549116
69.515 28.335518
69.520 28.416197
69.525 28.293009
69.530 28.046228
69.535 28.632988
69.540 29.602665
69.545 29.581802
69.550 29.090118
69.555 28.81587
69.560 28.748953
69.565 28.329908
69.570 27.995216
69.575 28.365166
69.580 28.806509
69.585 29.181311
69.590 29.640587
69.595 29.996544
69.600 29.724392
69.605 29.940815
69.610 29.665312
69.615 29.641184
69.620 29.837675
69.625 28.742165
69.630 28.222273
69.635 28.752447
69.640 29.021885
69.645 28.819542
69.650 28.511341
69.655 27.332424
69.660 27.954866
69.665 27.913418
69.670 27.600348
69.675 27.961235
69.680 27.8657
69.685 27.88698
69.690 28.010551
69.695 28.431337
69.700 29.063993
69.705 28.634541
69.710 28.046312
69.715 28.023972
69.720 28.841763
69.725 28.870962
69.730 27.85289
69.735 27.683786
69.740 27.395926
69.745 27.355505
69.750 27.530779
69.755 27.054422
69.760 28.047812
69.765 27.507685
69.770 27.373903
69.775 27.896154
69.780 27.761818
69.785 27.487141
69.790 27.302303
69.795 26.347864
69.800 26.306469
69.805 25.72361
69.810 25.455889
69.815 25.61274
69.820 25.436281
69.825 25.097368
69.830 25.453053
69.835 26.18082
69.840 26.046297
69.845 25.59479
69.850 25.272326
69.855 25.190655
69.860 25.2901
69.865 25.239788
69.870 24.821474
69.875 25.289717
69.880 25.158783
69.885 25.127935
69.890 25.847179
69.895 25.193727
69.900 24.738747
69.905 24.788313
69.910 24.948156
69.915 24.75209
69.920 24.113222
69.925 23.565901
69.930 23.912876
69.935 23.81748
69.940 23.527138
69.945 23.553284
69.950 23.674225
69.955 23.732637
69.960 23.27964
69.965 23.421083
69.970 24.412624
69.975 24.328817
69.980 23.556858
69.985 23.374643
69.990 23.426687
69.995 23.10746
70.000 22.076929
70.005 21.01491
70.010 20.613964
70.015 20.439493
70.020 20.432388
70.025 20.317965
70.030 20.352448
70.035 20.642
70.040 20.867483
70.045 20.661867
70.050 21.072052
70.055 21.255322
70.060 22.130974
70.065 21.980913
70.070 21.400045
70.075 21.087746
70.080 21.467321
70.085 21.196505
70.090 20.461405
70.095 19.839201
70.100 20.19276
70.105 20.564276
70.110 20.667385
70.115 20.656773
70.120 20.864494
70.125 21.067572
70.130 21.152952
70.135 21.395052
70.140 21.948908
70.145 22.356709
70.150 22.150843
70.155 21.83633
70.160 21.952497
70.165 22.213223
70.170 21.589043
70.175 20.571112
70.180 19.759861
70.185 19.906761
70.190 20.00491
70.195 19.839586
70.200 19.959833
70.205 20.146767
70.210 20.680412
70.215 20.707705
70.220 20.243862
70.225 20.03212
70.230 20.580019
70.235 20.908119
70.240 20.621904
70.245 20.171839
70.250 20.434439
70.255 20.654242
70.260 20.201002
70.265 19.500351
70.270 19.130068
70.275 19.511751
70.280 19.969322
70.285 20.119011
70.290 20.59409
70.295 20.998987
70.300 20.966879
70.305 21.180769
70.310 21.047283
70.315 21.108854
70.320 20.975496
70.325 20.842251
70.330 20.414043
70.335 20.314739
70.340 20.785206
70.345 21.075445
70.350 21.211897
70.355 21.645241
70.360 22.251541
70.365 23.045511
70.370 22.817873
70.375 22.376352
70.380 22.048805
70.385 21.619555
70.390 20.810961
70.395 20.057989
70.400 19.794853
70.405 19.927679
70.410 19.657135
70.415 19.584055
70.420 19.625553
70.425 19.630501
70.430 19.474472
70.435 19.313633
70.440 19.561436
70.445 19.337399
70.450 19.07863
70.455 18.943041
70.460 19.294861
70.465 19.477476
70.470 18.935474
70.475 18.687466
70.480 18.846594
70.485 19.120708
70.490 19.375456
70.495 18.769136
70.500 18.776386
70.505 18.940533
70.510 18.733145
70.515 18.446894
70.520 17.949072
70.525 18.039904
70.530 18.132675
70.535 17.854614
70.540 17.898632
70.545 18.686676
70.550 19.275915
70.555 19.681347
70.560 19.539547
70.565 19.77936
70.570 20.264584
70.575 20.352945
70.580 19.686991
70.585 19.720156
70.590 19.589252
70.595 19.698887
70.600 19.455317
70.605 19.342045
70.610 19.327953
70.615 20.011173
70.620 20.188902
70.625 20.676786
70.630 20.768583
70.635 20.820618
70.640 20.699747
70.645 20.5299
70.650 20.117882
70.655 19.998083
70.660 19.834122
70.665 19.435776
70.670 19.399908
70.675 19.605442
70.680 19.425137
70.685 19.08452
70.690 19.067402
70.695 18.821787
70.700 19.075605
70.705 19.347965
70.710 18.958441
70.715 19.423449
70.720 19.195011
70.725 19.443918
70.730 20.215481
70.735 20.524946
70.740 20.681141
70.745 20.621126
70.750 20.532028
70.755 21.0714
70.760 20.829672
70.765 20.432674
70.770 20.209337
70.775 20.317862
70.780 20.059347
70.785 19.372885
70.790 18.657253
70.795 17.835928
70.800 18.111986
70.805 17.472847
70.810 17.725002
70.815 18.657066
70.820 19.097246
70.825 19.460999
70.830 19.302988
70.835 19.191401
70.840 19.373594
70.845 19.026291
70.850 18.671034
70.855 18.915361
70.860 19.210226
70.865 19.561544
70.870 20.052326
70.875 20.611059
70.880 20.498182
70.885 20.192099
70.890 19.674603
70.895 19.232237
70.900 19.405491
70.905 18.994493
70.910 18.525557
70.915 18.571503
70.920 18.44294
70.925 19.200052
70.930 18.896843
70.935 18.384497
70.940 18.062616
70.945 18.704168
70.950 19.061277
70.955 19.202866
70.960 19.4282
70.965 19.436979
70.970 19.244522
70.975 19.269426
70.980 18.780273
70.985 18.609982
70.990 18.7542
70.995 18.443014
71.000 18.611839
71.005 18.659847
71.010 19.25761
71.015 19.641855
71.020 20.229635
71.025 20.145985
71.030 20.210001
71.035 20.530678
71.040 20.521439
71.045 19.855415
71.050 19.24571
71.055 18.672091
71.060 18.305689
71.065 18.456989
71.070 18.410004
71.075 18.925081
71.080 18.524431
71.085 18.358622
71.090 18.528942
71.095 18.998539
71.100 18.982706
71.105 18.827126
71.110 19.341064
71.115 19.629511
71.120 19.640888
71.125 19.178484
71.130 18.647501
71.135 18.199087
71.140 17.998341
71.145 17.565001
71.150 17.783875
71.155 18.150373
71.160 18.51944
71.165 18.900984
71.170 18.693514
71.175 19.085575
71.180 19.022655
71.185 18.811466
71.190 18.487402
71.195 18.513603
71.200 18.18531
71.205 18.843424
71.210 19.056307
71.215 18.748878
71.220 19.71213
71.225 20.057957
71.230 19.854113
71.235 20.42721
71.240 20.074511
71.245 19.912659
71.250 19.977757
71.255 19.261705
71.260 19.183994
71.265 19.860615
71.270 19.477568
71.275 19.394934
71.280 19.776423
71.285 19.779976
71.290 20.213999
71.295 19.960974
71.300 19.353062
71.305 19.366581
71.310 19.564995
71.315 19.687128
71.320 19.709116
71.325 19.377811
71.330 19.791553
71.335 20.511261
71.340 19.871647
71.345 19.146206
71.350 18.815306
71.355 18.536184
71.360 18.381582
71.365 18.104559
71.370 17.499523
71.375 18.251747
71.380 17.859251
71.385 18.274593
71.390 18.484495
71.395 18.829277
71.400 18.918257
71.405 18.741234
71.410 18.789362
71.415 18.962303
71.420 19.07515
71.425 19.248005
71.430 19.110455
71.435 19.034405
71.440 19.135748
71.445 19.520329
71.450 19.825947
71.455 19.961273
71.460 19.739424
71.465 20.413687
71.470 20.804552
71.475 20.303049
71.480 19.920067
71.485 19.4849
71.490 18.671124
71.495 18.384697
71.500 17.776821
71.505 17.676884
71.510 18.48591
71.515 18.486347
71.520 18.484631
71.525 19.259441
71.530 19.964882
71.535 20.799789
71.540 20.333557
71.545 19.926603
71.550 19.81447
71.555 19.461685
71.560 19.191149
71.565 18.722208
71.570 17.764845
71.575 17.813709
71.580 18.00173
71.585 18.405998
71.590 18.242393
71.595 17.970255
71.600 18.760775
71.605 19.378822
71.610 20.162252
71.615 20.255402
71.620 20.195469
71.625 19.896341
71.630 19.515448
71.635 18.775154
71.640 18.101192
71.645 17.112173
71.650 16.527599
71.655 16.649155
71.660 16.665222
71.665 16.680159
71.670 16.595778
71.675 17.571112
71.680 17.739626
71.685 18.092611
71.690 18.41641
71.695 19.00227
71.700 19.306789
71.705 19.52338
71.710 18.710997
71.715 18.853409
71.720 18.550512
71.725 18.149015
71.730 17.63582
71.735 17.506451
71.740 17.544586
71.745 17.33329
71.750 17.077068
71.755 17.309221
71.760 18.002552
71.765 18.264566
71.770 17.999413
71.775 18.466427
71.780 18.92824
71.785 19.075968
71.790 18.924776
71.795 18.403599
71.800 18.748425
71.805 19.042845
71.810 18.67329
71.815 18.950819
71.820 19.442595
71.825 19.76792
71.830 19.830057
71.835 19.124397
71.840 19.134672
71.845 19.360952
71.850 18.961466
71.855 18.747955
71.860 18.172007
71.865 18.405846
71.870 18.96274
71.875 20.144487
71.880 20.317991
71.885 20.467121
71.890 20.380678
71.895 20.673279
71.900 20.815958
71.905 20.456301
71.910 19.760786
71.915 19.269091
71.920 19.187801
71.925 19.445293
71.930 18.686712
71.935 18.453651
71.940 18.199076
71.945 18.13661
71.950 18.70994
71.955 18.455685
71.960 18.087408
71.965 18.769882
71.970 18.684471
71.975 18.611217
71.980 18.431267
71.985 17.858198
71.990 17.838512
71.995 18.572521
72.000 18.250647
72.005 18.348888
72.010 18.526188
72.015 18.598543
72.020 18.531174
72.025 18.582806
72.030 17.898619
72.035 17.914623
72.040 17.447426
72.045 17.20718
72.050 17.572138
72.055 17.866558
72.060 17.499392
72.065 17.572765
72.070 17.597876
72.075 18.501202
72.080 19.117579
72.085 19.076422
72.090 19.09516
72.095 19.608334
72.100 19.849483
72.105 19.406235
72.110 19.062727
72.115 19.127199
72.120 19.335766
72.125 19.67741
72.130 19.767824
72.135 20.171125
72.140 20.148363
72.145 20.065525
72.150 19.466572
72.155 19.131399
72.160 19.352419
72.165 19.218166
72.170 19.539572
72.175 19.787653
72.180 19.633471
72.185 19.564272
72.190 19.169035
72.195 18.925119
72.200 19.208385
72.205 19.365879
72.210 19.19533
72.215 19.162506
72.220 19.556559
72.225 19.563656
72.230 19.186523
72.235 18.889252
72.240 18.716524
72.245 19.004683
72.250 19.359821
72.255 19.332733
72.260 19.481359
72.265 19.897322
72.270 19.813696
72.275 19.603474
72.280 19.019077
72.285 18.703514
72.290 18.542156
72.295 18.024712
72.300 17.901386
72.305 18.026217
72.310 18.212524
72.315 18.909952
72.320 19.71558
72.325 19.891443
72.330 19.682573
72.335 19.4461
72.340 19.599104
72.345 19.737272
72.350 19.128469
72.355 18.277725
72.360 18.535601
72.365 19.145229
72.370 19.467808
72.375 19.543844
72.380 19.395908
72.385 19.633978
72.390 19.771048
72.395 19.650557
72.400 19.045835
72.405 18.469614
72.410 18.627399
72.415 18.705957
72.420 18.20624
72.425 18.50173
72.430 18.862288
72.435 19.215666
72.440 19.162378
72.445 19.197458
72.450 19.208462
72.455 18.960062
72.460 18.596611
72.465 17.875933
72.470 17.847849
72.475 18.40922
72.480 18.492363
72.485 18.620266
72.490 19.027199
72.495 18.742485
72.500 19.148375
72.505 18.765182
72.510 17.275566
72.515 17.341923
72.520 17.504551
72.525 17.72736
72.530 18.160046
72.535 17.836214
72.540 17.945225
72.545 18.402155
72.550 18.655848
72.555 18.504263
72.560 18.303137
72.565 17.780052
72.570 17.981493
72.575 18.270376
72.580 18.166643
72.585 17.885654
72.590 17.486046
72.595 17.596077
72.600 17.836405
72.605 18.080328
72.610 18.34621
72.615 17.920868
72.620 18.007998
72.625 18.6005
72.630 18.935368
72.635 18.462742
72.640 17.726719
72.645 17.273407
72.650 17.469114
72.655 17.52751
72.660 16.840858
72.665 16.495867
72.670 16.415754
72.675 17.065853
72.680 17.45336
72.685 17.274137
72.690 17.276587
72.695 17.965635
72.700 18.312885
72.705 18.518421
72.710 18.113737
72.715 18.000751
72.720 17.38731
72.725 17.308418
72.730 17.500622
72.735 18.063997
72.740 18.403252
72.745 18.145641
72.750 18.315121
72.755 18.962317
72.760 18.609085
72.765 18.337824
72.770 17.863312
72.775 17.576801
72.780 17.667948
72.785 17.208683
72.790 16.437933
72.795 16.414312
72.800 16.502634
72.805 16.077946
72.810 16.545319
72.815 16.87859
72.820 17.551928
72.825 17.883127
72.830 17.411757
72.835 17.370607
72.840 17.59956
72.845 16.685371
72.850 16.45153
72.855 15.800434
72.860 15.53536
72.865 15.354326
72.870 16.056627
72.875 16.196655
72.880 16.923895
72.885 16.801113
72.890 17.073942
72.895 16.982754
72.900 16.698734
72.905 16.24448
72.910 15.757747
72.915 15.902972
72.920 16.305656
72.925 16.445036
72.930 16.641165
72.935 16.69919
72.940 16.926201
72.945 16.536501
72.950 15.794091
72.955 15.699015
72.960 15.44296
72.965 15.47559
72.970 15.263463
72.975 15.639959
72.980 16.492149
72.985 16.962517
72.990 17.379011
72.995 17.584049
73.000 17.496912
